t_seg,ecg_mV
0.0,0.05518
0.004,0.0214
0.008,0.02518
0.012,0.00153
0.016,0.06513
0.02,0.04786
0.024,0.04734
0.028,-0.00472
0.032,0.02344
0.036,0.06742
0.04,0.08084
0.044,0.0578
0.048,0.01275
0.052,0.06185
0.056,0.07304
0.06,0.02486
0.064,0.04821
0.068,0.07986
0.072,0.11459
0.076,0.08854
0.08,0.04228
0.084,0.09668
0.088,0.14703
0.092,0.11248
0.096,0.10629
0.1,0.09536
0.104,0.09691
0.108,0.09329
0.112,0.1058
0.116,0.03017
0.12,0.01835
0.124,0.00367
0.128,0.05872
0.132,0.03814
0.136,0.00309
0.14,0.06863
0.144,0.06432
0.148,0.04997
0.152,0.02868
0.156,-0.03806
0.16,0.05071
0.164,0.04694
0.168,0.00537
0.172,-0.01597
0.176,0.05204
0.18,0.01972
0.184,0.08289
0.188,-0.01687
0.192,0.00966
0.196,0.01241
0.2,0.01164
0.204,0.00665
0.208,-0.00437
0.212,-0.03881
0.216,-0.15073
0.22,-0.08424
0.224,-0.08314
0.228,-0.04175
0.232,0.02225
0.236,0.24659
0.24,0.4953
0.244,0.68456
0.248,0.7952
0.252,0.96129
0.256,0.99152
0.26,0.97144
0.264,0.77879
0.268,0.55819
0.272,0.3764
0.276,0.15642
0.28,-0.03113
0.284,-0.0717
0.288,-0.18866
0.292,-0.09535
0.296,-0.13387
0.3,0.0102
0.304,-0.00108
0.308,-0.01177
0.312,0.00332
0.316,-0.01228
0.32,0.00471
0.324,0.02901
0.328,0.00291
0.332,0.0414
0.336,0.01532
0.34,-0.00742
0.344,0.02727
0.348,-0.011
0.352,-0.01057
0.356,-0.04554
0.36,0.02984
0.364,-0.05176
0.368,0.08233
0.372,0.01116
0.376,0.04418
0.38,0.06656
0.384,0.00249
0.388,0.02477
0.392,-0.03586
0.396,0.01137
0.4,0.07655
0.404,0.00036
0.408,0.00699
0.412,0.04012
0.416,-0.03391
0.42,0.00852
0.424,0.02137
0.428,0.07901
0.432,0.0335
0.436,0.0936
0.44,0.02743
0.444,0.06521
0.448,0.04264
0.452,0.08765
0.456,0.0434
0.46,0.02099
0.464,0.08575
0.468,0.05941
0.472,0.07287
0.476,0.12606
0.48,0.07099
0.484,0.07796
0.488,0.11647
0.492,0.19166
0.496,0.12962
0.5,0.25427
0.504,0.1815
0.508,0.15012
0.512,0.16892
0.516,0.20434
0.52,0.21781
0.524,0.21524
0.528,0.16152
0.532,0.28228
0.536,0.22141
0.54,0.21295
0.544,0.2959
0.548,0.24268
0.552,0.18953
0.556,0.24103
0.56,0.23127
0.564,0.18895
0.568,0.17814
0.572,0.19524
0.576,0.13154
0.58,0.19104
0.584,0.15222
0.588,0.10084
0.592,0.14113
0.596,0.12107
0.6,0.12164
0.604,-0.02682
0.608,0.10527
0.612,0.10636
0.616,0.0554
0.62,0.12873
0.624,-0.00939
0.628,-0.03348
0.632,-0.00367
0.636,0.01187
0.64,0.056
0.644,0.07481
0.648,-0.01081
0.652,0.0853
0.656,-0.00668
0.66,0.05356
0.664,0.07157
0.668,-0.0115
0.672,-0.02491
0.676,-0.01893
0.68,-0.00153
0.684,-0.01825
0.688,0.01406
0.692,-0.04715
0.696,0.08612
0.7,-0.034
0.704,-0.01855
0.708,0.00771
0.712,0.01453
0.716,0.03828
0.72,-0.05236
0.724,0.0492
0.728,0.01311
0.732,0.06344
0.736,-0.03183
0.74,-0.00185
0.744,0.0207
0.748,0.11692
0.752,0.01894
0.756,0.08141
0.76,0.0033
0.764,0.06532
0.768,0.00333
0.772,-0.02512
0.776,-0.01348
0.78,0.00195
0.784,-0.02619
0.788,0.01933
0.792,-0.01902
0.796,-0.02669
0.8,0.01148
0.804,-0.00531
0.808,-0.01874
0.812,0.0017
0.816,-0.00743
0.82,-0.00357
0.824,0.04962
0.828,0.05295
0.832,-0.00862
0.836,0.009
0.84,-0.03251
0.844,0.02729
0.848,-0.0384
0.852,-0.02188
0.856,-0.00791
0.86,-0.04263
0.864,0.00711
0.868,-0.00183
0.872,-0.03093
0.876,0.02663
0.88,0.01148
0.884,0.00876
0.888,0.00765
0.892,-0.05349
0.896,0.04781
0.9,-0.076
0.904,0.03597
0.908,0.02346
0.912,0.01109
0.916,-0.02726
0.92,0.00357
0.924,-0.00088
0.928,0.06116
0.932,0.06411
0.936,0.0082
0.94,-0.0525
0.944,0.03073
0.948,0.06848
0.952,0.03938
0.956,0.03266
0.96,-0.01019
0.964,-0.02467
0.968,-0.00705
0.972,-0.0016
0.976,0.00226
0.98,-0.01917
0.984,-0.04294
0.988,0.00107
0.992,-0.04224
0.996,-0.03066
1.0,-0.00575
1.004,0.05451
1.008,0.02846
1.012,0.01435
1.016,0.03926
1.02,-0.0155
1.024,0.01529
1.028,0.04309
1.032,0.01264
1.036,-0.0406
1.04,0.03437
1.044,-0.00625
1.048,0.01213
1.052,-0.0363
1.056,0.06404
1.06,0.00501
1.064,0.02539
1.068,-0.00794
1.072,0.05099
1.076,0.0532
1.08,0.05523
1.084,0.15127
1.088,0.14302
1.092,0.06381
1.096,0.14968
1.1,0.06313
1.104,0.02291
1.108,0.04337
1.112,0.08305
1.116,0.06547
1.12,-0.00775
1.124,0.0096
1.128,0.03649
1.132,-0.05032
1.136,0.00137
1.14,-0.00341
1.144,0.00779
1.148,0.01573
1.152,-0.0132
1.156,-0.03228
1.16,0.03928
1.164,-0.09063
1.168,-0.00109
1.172,0.02203
1.176,0.03482
1.18,-0.0016
1.184,0.05972
1.188,-0.05875
1.192,0.04509
1.196,-0.01952
1.2,0.04497
1.204,-0.04792
1.208,-0.07856
1.212,-0.08727
1.216,-0.08135
1.22,-0.182
1.224,-0.13413
1.228,-0.0748
1.232,0.09869
1.236,0.09013
1.24,0.22724
1.244,0.3218
1.248,0.4427
1.252,0.43436
1.256,0.41475
1.26,0.325
1.264,0.2184
1.268,0.12499
1.272,-0.05576
1.276,-0.11863
1.28,-0.14611
1.284,-0.22434
1.288,-0.21757
1.292,-0.09149
1.296,-0.13363
1.3,-0.02359
1.304,-0.02619
1.308,-0.08869
1.312,0.01671
1.316,0.03562
1.32,0.01509
1.324,-0.04288
1.328,-0.06908
1.332,-0.07129
1.336,-0.01796
1.34,0.00392
1.344,0.01457
1.348,-0.03389
1.352,0.03829
1.356,-0.05047
1.36,0.04006
1.364,-0.07268
1.368,0.02406
1.372,-0.0347
1.376,-0.00593
1.38,0.01472
1.384,0.00768
1.388,-0.04896
1.392,-0.04206
1.396,0.01247
1.4,-0.05131
1.404,-0.02377
1.408,0.04967
1.412,0.00047
1.416,0.01621
1.42,0.02148
1.424,0.00356
1.428,-0.01564
1.432,0.00869
1.436,0.02533
1.44,-0.0103
1.444,0.00845
1.448,0.0255
1.452,0.03563
1.456,-0.02145
1.46,0.04606
1.464,0.06295
1.468,0.07893
1.472,0.05597
1.476,0.0921
1.48,0.12068
1.484,0.15532
1.488,0.16146
1.492,0.13224
1.496,0.11528
1.5,0.19863
1.504,0.14726
1.508,0.16111
1.512,0.2079
1.516,0.18934
1.52,0.19457
1.524,0.22342
1.528,0.23615
1.532,0.17049
1.536,0.20761
1.54,0.17019
1.544,0.18899
1.548,0.25298
1.552,0.18782
1.556,0.18346
1.56,0.10622
1.564,0.19775
1.568,0.10073
1.572,0.21089
1.576,0.11921
1.58,0.12257
1.584,0.12556
1.588,0.08294
1.592,0.05221
1.596,0.07698
1.6,0.04087
1.604,0.01197
1.608,0.03195
1.612,0.05617
1.616,0.0334
1.62,0.05461
1.624,0.02563
1.628,0.0184
1.632,-0.02296
1.636,0.01532
1.64,0.03013
1.644,0.02278
1.648,-0.03838
1.652,-0.00854
1.656,-0.02522
1.66,-0.00385
1.664,0.00596
1.668,-0.01656
1.672,0.0273
1.676,-0.03358
1.68,-0.01807
1.684,-0.0159
1.688,0.01554
1.692,0.03148
1.696,-0.00845
1.7,-0.0313
1.704,-0.08936
1.708,0.02755
1.712,-0.07087
1.716,-0.01593
1.72,-0.01232
1.724,0.00668
1.728,-0.04324
1.732,-0.05816
1.736,-0.02557
1.74,0.02139
1.744,-0.03165
1.748,0.02394
1.752,0.02328
1.756,-0.05431
1.76,-0.04907
1.764,-0.02801
1.768,-0.00875
1.772,-0.00564
1.776,-0.00405
1.78,-0.03585
1.784,-0.0144
1.788,-0.0675
1.792,0.03056
1.796,-0.01936
1.8,-0.0249
1.804,-0.02271
1.808,-0.03526
1.812,0.05516
1.816,0.02983
1.82,0.0621
1.824,0.03223
1.828,0.06858
1.832,0.01291
1.836,0.04372
1.84,0.06372
1.844,0.05205
1.848,0.05479
1.852,0.07268
1.856,0.07257
1.86,0.05007
1.864,0.01904
1.868,0.05402
1.872,-0.04629
1.876,-0.00456
1.88,0.051
1.884,-0.04452
1.888,0.06172
1.892,-0.02706
1.896,0.03482
1.9,-0.02976
1.904,-0.06555
1.908,0.00273
1.912,0.01007
1.916,-0.01819
1.92,0.02304
1.924,0.02114
1.928,-0.03133
1.932,0.01186
1.936,0.00472
1.94,0.00125
1.944,-0.00808
1.948,-0.02198
1.952,-0.04276
1.956,0.00134
1.96,-0.01296
1.964,-0.01471
1.968,-0.10735
1.972,-0.09493
1.976,-0.14961
1.98,-0.09707
1.984,0.00366
1.988,0.24824
1.992,0.47177
1.996,0.61626
2.0,0.80803
2.004,0.91871
2.008,0.9717
2.012,0.80335
2.016,0.72318
2.02,0.42383
2.024,0.21593
2.028,0.00127
2.032,-0.09047
2.036,-0.14091
2.04,-0.1597
2.044,-0.15744
2.048,-0.10565
2.052,-0.07405
2.056,-0.03439
2.06,-0.0123
2.064,-0.07892
2.068,-0.00048
2.072,-0.05034
2.076,-0.02119
2.08,-0.00358
2.084,-0.03694
2.088,-0.00376
2.092,-0.02385
2.096,-0.07517
2.1,-0.03762
2.104,-0.03381
2.108,-0.04418
2.112,-0.00416
2.116,-0.06013
2.12,-0.05147
2.124,-0.01737
2.128,-0.00264
2.132,0.01749
2.136,-0.04293
2.14,-0.09575
2.144,0.02399
2.148,-0.03375
2.152,0.01658
2.156,0.01049
2.16,-0.05046
2.164,-0.04971
2.168,-0.02807
2.172,-0.03988
2.176,0.051
2.18,-0.03599
2.184,0.06299
2.188,-0.02085
2.192,-0.04503
2.196,-0.03119
2.2,0.0219
2.204,-0.00246
2.208,0.01053
2.212,0.04895
2.216,0.15707
2.22,0.11551
2.224,0.17621
2.228,0.12
2.232,0.21286
2.236,0.15553
2.24,0.17841
2.244,0.19246
2.248,0.19006
2.252,0.19472
2.256,0.21601
2.26,0.15895
2.264,0.16202
2.268,0.19127
2.272,0.18687
2.276,0.14922
2.28,0.25244
2.284,0.12753
2.288,0.21014
2.292,0.18725
2.296,0.16671
2.3,0.15001
2.304,0.20426
2.308,0.24853
2.312,0.17459
2.316,0.18397
2.32,0.072
2.324,0.12034
2.328,0.13814
2.332,0.10657
2.336,0.12714
2.34,0.10904
2.344,0.06501
2.348,-0.00892
2.352,-0.0615
2.356,-0.14628
2.36,-0.08269
2.364,-0.02672
2.368,0.07482
2.372,0.22366
2.376,0.33651
2.38,0.41388
2.384,0.62217
2.388,0.61131
2.392,0.55369
2.396,0.57149
2.4,0.39634
2.404,0.2481
2.408,0.10695
2.412,0.00741
2.416,-0.21477
2.42,-0.21209
2.424,-0.18993
2.428,-0.22248
2.432,-0.08376
2.436,-0.04527
2.44,0.00702
2.444,-0.06206
2.448,-0.0763
2.452,-0.04938
2.456,-0.03972
2.46,0.0179
2.464,-0.00023
2.468,-0.06812
2.472,0.027
2.476,-0.03429
2.48,-0.06219
2.484,-0.04449
2.488,-0.01612
2.492,-0.04129
2.496,-0.0799
2.5,0.03287
2.504,-0.03116
2.508,-0.05329
2.512,-0.02407
2.516,-0.01181
2.52,-0.06609
2.524,-0.07984
2.528,-0.08978
2.532,0.00164
2.536,-0.01438
2.54,0.01417
2.544,-0.0137
2.548,0.03471
2.552,0.00197
2.556,-0.02715
2.56,-0.07848
2.564,-0.03432
2.568,-0.0344
2.572,-0.04824
2.576,0.0395
2.58,-0.00584
2.584,0.0067
2.588,0.01428
2.592,-0.01334
2.596,0.05094
2.6,-0.0007
2.604,0.05044
2.608,0.07125
2.612,0.04044
2.616,0.02211
2.62,0.05681
2.624,0.08132
2.628,0.08703
2.632,0.07571
2.636,0.09362
2.64,0.22741
2.644,0.20126
2.648,0.20473
2.652,0.16773
2.656,0.20951
2.66,0.16823
2.664,0.22657
2.668,0.15243
2.672,0.21361
2.676,0.21163
2.68,0.19605
2.684,0.1685
2.688,0.19477
2.692,0.16798
2.696,0.29108
2.7,0.09961
2.704,0.1761
2.708,0.18337
2.712,0.14521
2.716,0.12284
2.72,0.12615
2.724,0.1078
2.728,0.0607
2.732,0.03283
2.736,0.04235
2.74,0.00151
2.744,0.06982
2.748,0.02232
2.752,0.01532
2.756,0.05401
2.76,-0.00508
2.764,0.01033
2.768,0.05729
2.772,0.03897
2.776,0.01944
2.78,-0.05182
2.784,0.00957
2.788,-0.07735
2.792,-0.02266
2.796,0.01033
2.8,-0.00369
2.804,-0.04197
2.808,-0.03281
2.812,-0.03409
2.816,-0.02805
2.82,-0.08126
2.824,-0.05194
2.828,-0.09251
2.832,-0.01448
2.836,-0.0392
2.84,0.01216
2.844,0.0062
2.848,-0.01755
2.852,0.05518
2.856,-0.05411
2.86,-0.02599
2.864,0.05648
2.868,-0.06064
2.872,-0.01692
2.876,-0.03985
2.88,0.0067
2.884,-0.02256
2.888,-0.0796
2.892,-0.0058
2.896,-0.05824
2.9,-0.04505
2.904,-0.02901
2.908,0.02782
2.912,-0.04184
2.916,-0.05411
2.92,-0.0365
2.924,0.064
2.928,0.04063
2.932,-0.01571
2.936,0.0063
2.94,0.00741
2.944,0.05903
2.948,0.03455
2.952,0.04817
2.956,0.1029
2.96,0.12435
2.964,0.08787
2.968,-0.02135
2.972,0.07707
2.976,0.01089
2.98,0.08295
2.984,0.0828
2.988,0.03506
2.992,0.00835
2.996,0.02286
3.0,0.01318
3.004,0.03911
3.008,-0.00647
3.012,-0.00509
3.016,-0.03808
3.02,-0.00263
3.024,-0.05017
3.028,-0.07435
3.032,-0.02304
3.036,-0.04894
3.04,-0.04144
3.044,-0.07726
3.048,-0.02861
3.052,-0.0047
3.056,-0.08965
3.06,-0.03844
3.064,-0.00474
3.068,-0.00409
3.072,-0.02762
3.076,-0.09253
3.08,-0.08514
3.084,-0.17289
3.088,-0.14887
3.092,-0.07923
3.096,-0.0276
3.1,0.21692
3.104,0.36535
3.108,0.53076
3.112,0.73123
3.116,0.92227
3.12,1.00658
3.124,0.87983
3.128,0.72172
3.132,0.49421
3.136,0.28859
3.14,0.09685
3.144,-0.07174
3.148,-0.17149
3.152,-0.1983
3.156,-0.13026
3.16,-0.14063
3.164,-0.1107
3.168,-0.06411
3.172,-0.06927
3.176,-0.06435
3.18,0.04071
3.184,0.00743
3.188,-0.01801
3.192,0.03067
3.196,0.00542
3.2,0.01256
3.204,-0.03451
3.208,-0.02478
3.212,-0.03092
3.216,-0.03765
3.22,-0.00861
3.224,-0.04406
3.228,0.07049
3.232,-0.067
3.236,0.02447
3.24,-0.05339
3.244,0.00214
3.248,-0.03967
3.252,-0.02789
3.256,-0.02619
3.26,-0.00716
3.264,-0.03789
3.268,-0.02964
3.272,-0.02916
3.276,-0.00608
3.28,-0.03399
3.284,0.04539
3.288,-0.02004
3.292,0.01622
3.296,-0.03439
3.3,-0.01313
3.304,-0.02115
3.308,-0.0261
3.312,-0.0331
3.316,0.01189
3.32,-0.01537
3.324,0.00761
3.328,0.00587
3.332,0.09064
3.336,0.07028
3.34,0.09022
3.344,0.04115
3.348,0.10509
3.352,0.11987
3.356,0.09104
3.36,0.15436
3.364,0.17108
3.368,0.17468
3.372,0.16466
3.376,0.12702
3.38,0.1604
3.384,0.16297
3.388,0.2522
3.392,0.17058
3.396,0.23936
3.4,0.21184
3.404,0.15383
3.408,0.23123
3.412,0.13672
3.416,0.11876
3.42,0.17417
3.424,0.18457
3.428,0.15676
3.432,0.17019
3.436,0.14173
3.44,0.10886
3.444,0.11168
3.448,0.11475
3.452,0.06062
3.456,0.05086
3.46,0.04485
3.464,0.09934
3.468,0.03046
3.472,0.11526
3.476,0.02781
3.48,0.04359
3.484,0.05796
3.488,0.0892
3.492,-0.0039
3.496,-0.00269
3.5,0.03028
3.504,0.05599
3.508,-0.02289
3.512,0.02331
3.516,-0.04606
3.52,-0.03175
3.524,-0.02243
3.528,-0.01635
3.532,-0.07428
3.536,0.0464
3.54,-0.05959
3.544,-0.02826
3.548,-0.02398
3.552,-0.01219
3.556,0.00487
3.56,-0.01249
3.564,0.00681
3.568,-0.05431
3.572,-0.00414
3.576,-0.01953
3.58,0.01578
3.584,-0.02529
3.588,-0.02112
3.592,0.01799
3.596,-0.04955
3.6,0.02089
3.604,0.03085
3.608,-0.01192
3.612,-0.04365
3.616,-0.05209
3.62,-7e-05
3.624,-0.04359
3.628,-0.02778
3.632,-0.01513
3.636,0.01356
3.64,0.05009
3.644,-0.01758
3.648,-0.0203
3.652,0.05468
3.656,-0.00089
3.66,0.00557
3.664,-0.03097
3.668,0.08344
3.672,0.01108
3.676,0.05212
3.68,0.01421
3.684,-0.00388
3.688,0.09084
3.692,0.07094
3.696,0.05922
3.7,-0.00394
3.704,0.07241
3.708,0.0488
3.712,0.03006
3.716,0.02664
3.72,-0.00981
3.724,-0.00203
3.728,-0.00752
3.732,0.01722
3.736,0.00232
3.74,-0.03776
3.744,0.0252
3.748,0.01573
3.752,-0.07598
3.756,-0.01924
3.76,-0.00062
3.764,-0.05453
3.768,-0.02895
3.772,0.01845
3.776,0.0063
3.78,0.0076
3.784,-0.03418
3.788,-0.01897
3.792,-0.03235
3.796,0.01333
3.8,-0.03995
3.804,-0.08635
3.808,-0.13303
3.812,-0.08818
3.816,-0.11173
3.82,-0.1264
3.824,-0.07096
3.828,0.02898
3.832,0.12404
3.836,0.23883
3.84,0.38837
3.844,0.37699
3.848,0.44373
3.852,0.3621
3.856,0.35032
3.86,0.21409
3.864,0.07981
3.868,-0.10606
3.872,-0.08877
3.876,-0.21613
3.88,-0.18791
3.884,-0.19831
3.888,-0.16151
3.892,-0.06404
3.896,-0.00594
3.9,-0.01209
3.904,-0.07583
3.908,0.02794
3.912,-0.09073
3.916,-0.04262
3.92,0.00036
3.924,0.05217
3.928,-0.01469
3.932,0.02596
3.936,-0.06125
3.94,0.06302
3.944,0.00981
3.948,0.01703
3.952,-0.05856
3.956,-0.02836
3.96,-0.03022
3.964,-0.02174
3.968,-0.01645
3.972,-0.01717
3.976,0.05295
3.98,-0.04925
3.984,-0.00269
3.988,-0.00494
3.992,-0.00783
3.996,0.04805
4.0,0.00918
4.004,0.03581
4.008,0.03188
4.012,-0.01858
4.016,-0.01088
4.02,0.02576
4.024,-0.00898
4.028,0.03424
4.032,0.07982
4.036,-0.01794
4.04,-0.07479
4.044,0.03259
4.048,0.02359
4.052,0.01761
4.056,0.01735
4.06,0.08751
4.064,0.05326
4.068,0.13507
4.072,0.05335
4.076,0.12574
4.08,0.0926
4.084,0.14234
4.088,0.16752
4.092,0.15177
4.096,0.15793
4.1,0.21861
4.104,0.18725
4.108,0.25004
4.112,0.1681
4.116,0.22762
4.12,0.19217
4.124,0.16455
4.128,0.25125
4.132,0.21833
4.136,0.29572
4.14,0.25973
4.144,0.28828
4.148,0.14361
4.152,0.1167
4.156,0.23747
4.16,0.15701
4.164,0.16284
4.168,0.15606
4.172,0.13006
4.176,0.08726
4.18,0.12511
4.184,0.06145
4.188,0.06877
4.192,0.10734
4.196,0.0501
4.2,0.06851
4.204,0.03527
4.208,0.00758
4.212,0.05195
4.216,0.03861
4.22,0.04766
4.224,0.02636
4.228,0.00011
4.232,0.06722
4.236,-0.00977
4.24,0.08651
4.244,0.04875
4.248,0.09259
4.252,0.08256
4.256,0.10776
4.26,0.14365
4.264,0.07016
4.268,0.1162
4.272,0.10328
4.276,0.14873
4.28,0.1019
4.284,0.11592
4.288,0.03898
4.292,-0.00059
4.296,0.00355
4.3,0.01126
4.304,0.03582
4.308,0.04625
4.312,-0.0241
4.316,0.03659
4.32,-0.03118
4.324,0.06758
4.328,0.00883
4.332,-0.01931
4.336,-0.04928
4.34,-0.01484
4.344,0.01607
4.348,0.03485
4.352,-0.00153
4.356,-0.02168
4.36,0.03381
4.364,0.00709
4.368,-0.01183
4.372,-0.01166
4.376,0.03981
4.38,-0.01707
4.384,-0.04015
4.388,-0.06986
4.392,-0.10107
4.396,-0.07746
4.4,-0.08485
4.404,0.1361
4.408,0.27074
4.412,0.50179
4.416,0.66616
4.42,0.8885
4.424,1.02206
4.428,0.98449
4.432,0.91077
4.436,0.74552
4.44,0.48312
4.444,0.29787
4.448,0.03774
4.452,-0.10969
4.456,-0.10277
4.46,-0.18928
4.464,-0.13661
4.468,-0.11566
4.472,-0.03456
4.476,-0.07786
4.48,-0.04793
4.484,-0.05009
4.488,0.05109
4.492,0.00173
4.496,0.04795
4.5,-0.0156
4.504,-0.01486
4.508,0.04804
4.512,-0.033
4.516,0.04768
4.52,0.02707
4.524,0.05946
4.528,-0.00912
4.532,0.01312
4.536,0.01363
4.54,0.05195
4.544,-0.00764
4.548,-0.02108
4.552,-0.0153
4.556,-0.01999
4.56,0.02108
4.564,0.06194
4.568,0.04201
4.572,0.0036
4.576,0.07632
4.58,0.09582
4.584,-0.0132
4.588,0.03621
4.592,0.04511
4.596,0.07517
4.6,0.11948
4.604,0.1468
4.608,0.04819
4.612,0.03507
4.616,0.1779
4.62,0.10138
4.624,0.15137
4.628,0.13972
4.632,0.18686
4.636,0.18009
4.64,0.10064
4.644,0.16964
4.648,0.17171
4.652,0.19145
4.656,0.21729
4.66,0.18477
4.664,0.16546
4.668,0.05983
4.672,0.1983
4.676,0.1778
4.68,0.22354
4.684,0.18637
4.688,0.21222
4.692,0.25839
4.696,0.19257
4.7,0.34044
4.704,0.25547
4.708,0.21754
4.712,0.16835
4.716,0.20961
4.72,0.20021
4.724,0.20047
4.728,0.24652
4.732,0.19531
4.736,0.21266
4.74,0.17221
4.744,0.17357
4.748,0.0778
4.752,-0.02306
4.756,-0.01942
4.76,0.15261
4.764,0.3123
4.768,0.37945
4.772,0.70437
4.776,0.81895
4.78,0.97216
4.784,1.01269
4.788,0.99389
4.792,0.83117
4.796,0.69703
4.8,0.36103
4.804,0.17179
4.808,0.0207
4.812,-0.04661
4.816,-0.13228
4.82,-0.17681
4.824,-0.10584
4.828,-0.06583
4.832,-0.03651
4.836,0.09352
4.84,0.01701
4.844,0.0419
4.848,0.02204
4.852,0.05479
4.856,-0.01514
4.86,0.01268
4.864,0.0276
4.868,-0.00029
4.872,0.01224
4.876,-0.00147
4.88,-0.0
4.884,0.04209
4.888,0.04367
4.892,-0.02056
4.896,0.0146
4.9,-0.02264
4.904,-0.01414
4.908,0.02405
4.912,0.07338
4.916,0.01452
4.92,0.05564
4.924,0.02687
4.928,0.05017
4.932,-0.02468
4.936,0.01635
4.94,0.03179
4.944,-0.00241
4.948,-0.01572
4.952,0.05808
4.956,0.02581
4.96,0.05849
4.964,0.00145
4.968,0.00535
4.972,0.06754
4.976,0.06574
4.98,0.01132
4.984,0.14249
4.988,-0.00196
4.992,0.12624
4.996,0.15809
5.0,0.13517
5.004,0.19707
5.008,0.1484
5.012,0.16163
5.016,0.1312
5.02,0.19675
5.024,0.17878
5.028,0.18445
5.032,0.1622
5.036,0.26493
5.04,0.27522
5.044,0.21005
5.048,0.20372
5.052,0.23425
5.056,0.21998
5.06,0.2619
5.064,0.25758
5.068,0.1883
5.072,0.21654
5.076,0.19903
5.08,0.20852
5.084,0.2495
5.088,0.19428
5.092,0.17824
5.096,0.20357
5.1,0.15163
5.104,0.19151
5.108,0.16328
5.112,0.12757
5.116,0.12042
5.12,0.17569
5.124,0.12829
5.128,0.03787
5.132,0.0638
5.136,0.03757
5.14,0.08452
5.144,0.04516
5.148,0.06341
5.152,0.06364
5.156,0.10718
5.16,0.02637
5.164,0.04096
5.168,0.03908
5.172,-0.00238
5.176,0.05867
5.18,0.0224
5.184,0.04117
5.188,0.01121
5.192,0.04905
5.196,0.03576
5.2,-0.00941
5.204,0.02467
5.208,0.02547
5.212,0.04401
5.216,0.01541
5.22,-0.04278
5.224,-0.01511
5.228,-0.03476
5.232,0.02381
5.236,-0.02369
5.24,0.07108
5.244,0.01194
5.248,-0.0243
5.252,-0.01237
5.256,0.00401
5.26,0.05558
5.264,-0.00801
5.268,-0.0063
5.272,0.1027
5.276,0.03159
5.28,0.03426
5.284,0.03237
5.288,0.07941
5.292,0.09852
5.296,0.09235
5.3,0.11762
5.304,0.03384
5.308,0.1582
5.312,0.16607
5.316,0.08988
5.32,0.10451
5.324,0.10939
5.328,0.04974
5.332,0.10272
5.336,0.0961
5.34,0.05119
5.344,-0.02461
5.348,0.08393
5.352,-0.00481
5.356,-0.03244
5.36,0.06374
5.364,0.01498
5.368,0.02981
5.372,0.06622
5.376,0.02099
5.38,0.01883
5.384,0.07436
5.388,-0.03657
5.392,0.02403
5.396,0.01382
5.4,0.0079
5.404,-0.00959
5.408,0.03326
5.412,0.01681
5.416,0.06435
5.42,0.04883
5.424,0.04757
5.428,0.035
5.432,-0.01737
5.436,-0.06794
5.44,-0.0958
5.444,-0.06406
5.448,-0.04066
5.452,0.10166
5.456,0.2585
5.46,0.49111
5.464,0.69582
5.468,0.87711
5.472,1.04924
5.476,0.9959
5.48,0.912
5.484,0.67622
5.488,0.50765
5.492,0.23499
5.496,0.07011
5.5,-0.04888
5.504,-0.1127
5.508,-0.15809
5.512,-0.14139
5.516,-0.07776
5.52,0.01499
5.524,-0.01466
5.528,0.09455
5.532,0.01409
5.536,0.03357
5.54,0.00621
5.544,0.02234
5.548,-0.04766
5.552,0.08044
5.556,0.08105
5.56,-0.00486
5.564,0.00344
5.568,0.02677
5.572,0.02443
5.576,0.08571
5.58,0.05854
5.584,0.06513
5.588,0.04589
5.592,0.03712
5.596,0.19248
5.6,0.10344
5.604,0.14036
5.608,0.17108
5.612,0.04271
5.616,0.05903
5.62,0.13335
5.624,0.13447
5.628,0.09479
5.632,0.04802
5.636,0.07813
5.64,0.10247
5.644,0.0917
5.648,-0.00064
5.652,0.02032
5.656,0.07585
5.66,0.11248
5.664,0.0618
5.668,0.05611
5.672,0.02224
5.676,0.12157
5.68,0.11255
5.684,0.05284
5.688,0.12071
5.692,0.1284
5.696,0.09214
5.7,0.16655
5.704,0.09853
5.708,0.20969
5.712,0.17789
5.716,0.15714
5.72,0.19348
5.724,0.12454
5.728,0.20768
5.732,0.19103
5.736,0.15259
5.74,0.17422
5.744,0.14281
5.748,0.20895
5.752,0.41612
5.756,0.57317
5.76,0.76291
5.764,0.92658
5.768,1.12932
5.772,1.22194
5.776,1.13246
5.78,1.0856
5.784,0.93172
5.788,0.71397
5.792,0.3108
5.796,0.20653
5.8,0.04891
5.804,0.0176
5.808,-0.00464
5.812,0.01411
5.816,0.0511
5.82,0.07535
5.824,0.08061
5.828,0.07956
5.832,0.14271
5.836,0.03423
5.84,0.08295
5.844,0.03929
5.848,0.07466
5.852,0.03936
5.856,0.04777
5.86,0.02017
5.864,-0.0051
5.868,0.05747
5.872,0.03495
5.876,0.0917
5.88,0.06006
5.884,0.02578
5.888,0.07698
5.892,-0.00019
5.896,0.04048
5.9,-0.01945
5.904,0.00561
5.908,0.07939
5.912,0.1142
5.916,0.0621
5.92,0.03876
5.924,0.03978
5.928,0.04239
5.932,0.0159
5.936,0.0722
5.94,0.06718
5.944,0.05561
5.948,0.03288
5.952,0.02391
5.956,-0.0278
5.96,0.02018
5.964,0.05204
5.968,0.15304
5.972,0.04499
5.976,0.09436
5.98,0.06057
5.984,0.13289
5.988,0.14762
5.992,0.17195
5.996,0.14237
6.0,0.18522
6.004,0.15554
6.008,0.13903
6.012,0.10144
6.016,0.17191
6.02,0.22491
6.024,0.18664
6.028,0.24424
6.032,0.17884
6.036,0.22743
6.04,0.24929
6.044,0.26168
6.048,0.18687
6.052,0.25473
6.056,0.22585
6.06,0.23487
6.064,0.17164
6.068,0.26738
6.072,0.23049
6.076,0.26968
6.08,0.21485
6.084,0.19399
6.088,0.22604
6.092,0.1898
6.096,0.15551
6.1,0.15281
6.104,0.10974
6.108,0.14277
6.112,0.11748
6.116,0.11342
6.12,0.18193
6.124,0.07823
6.128,0.06425
6.132,0.02677
6.136,0.06977
6.14,0.0548
6.144,0.03007
6.148,0.0048
6.152,0.02772
6.156,0.04843
6.16,0.05818
6.164,0.00385
6.168,0.04735
6.172,0.11331
6.176,0.01733
6.18,0.07903
6.184,0.01933
6.188,0.06749
6.192,0.08616
6.196,0.01068
6.2,0.05886
6.204,0.00389
6.208,0.0323
6.212,0.08011
6.216,0.10434
6.22,0.03027
6.224,0.02628
6.228,0.09434
6.232,0.03928
6.236,-0.0045
6.24,0.0241
6.244,0.0501
6.248,0.03827
6.252,0.00203
6.256,0.06086
6.26,0.02037
6.264,0.02263
6.268,0.06893
6.272,0.12373
6.276,0.12643
6.28,0.14741
6.284,0.13523
6.288,0.16641
6.292,0.09661
6.296,0.04227
6.3,0.13878
6.304,0.07451
6.308,0.05953
6.312,0.08007
6.316,0.06823
6.32,0.11199
6.324,0.04765
6.328,0.00872
6.332,0.04981
6.336,0.05568
6.34,-0.02501
6.344,0.03201
6.348,-0.03815
6.352,0.00125
6.356,-0.01941
6.36,0.03374
6.364,-0.0024
6.368,-0.00154
6.372,0.05705
6.376,0.05199
6.38,0.06208
6.384,0.01122
6.388,0.02401
6.392,0.02417
6.396,0.03738
6.4,-0.01237
6.404,-0.00707
6.408,-0.05462
6.412,-0.12638
6.416,-0.02963
6.42,0.10683
6.424,0.31916
6.428,0.5472
6.432,0.74686
6.436,0.88777
6.44,1.02477
6.444,0.98861
6.448,0.93732
6.452,0.71674
6.456,0.47952
6.46,0.26969
6.464,0.11732
6.468,-0.01692
6.472,-0.12457
6.476,-0.10463
6.48,-0.11656
6.484,-0.02347
6.488,0.02394
6.492,0.01204
6.496,0.0533
6.5,0.01878
6.504,0.06671
6.508,0.05099
6.512,-0.00222
6.516,0.05571
6.52,0.01401
6.524,0.03452
6.528,0.01439
6.532,0.00249
6.536,0.08161
6.54,-0.05693
6.544,-0.06371
6.548,-0.00119
6.552,0.02934
6.556,0.02082
6.56,0.00049
6.564,0.04664
6.568,0.03272
6.572,0.02064
6.576,0.12038
6.58,0.0378
6.584,-0.00104
6.588,0.02986
6.592,0.03131
6.596,0.06355
6.6,0.06464
6.604,-0.00093
6.608,0.00781
6.612,0.01659
6.616,0.07351
6.62,-0.01598
6.624,-0.00407
6.628,0.07667
6.632,0.06122
6.636,0.07707
6.64,0.0602
6.644,0.05394
6.648,0.03204
6.652,0.08076
6.656,0.05944
6.66,0.07532
6.664,0.14657
6.668,0.18712
6.672,0.20332
6.676,0.08384
6.68,0.17459
6.684,0.14674
6.688,0.17376
6.692,0.16779
6.696,0.227
6.7,0.21864
6.704,0.19383
6.708,0.2142
6.712,0.2876
6.716,0.19979
6.72,0.27237
6.724,0.30008
6.728,0.28556
6.732,0.20161
6.736,0.23549
6.74,0.21705
6.744,0.19666
6.748,0.27847
6.752,0.22476
6.756,0.21626
6.76,0.1334
6.764,0.18627
6.768,0.13611
6.772,0.11334
6.776,0.1686
6.78,0.03847
6.784,0.09249
6.788,0.0356
6.792,0.09349
6.796,0.05784
6.8,0.05243
6.804,0.00284
6.808,0.07898
6.812,0.01508
6.816,0.05088
6.82,0.03631
6.824,0.02598
6.828,0.03993
6.832,0.0807
6.836,0.01613
6.84,0.00677
6.844,0.07218
6.848,0.01846
6.852,-0.00453
6.856,0.05329
6.86,-0.04871
6.864,0.01388
6.868,-0.01607
6.872,0.01079
6.876,-0.01697
6.88,0.017
6.884,0.05361
6.888,0.0178
6.892,0.00476
6.896,-0.03802
6.9,-0.01463
6.904,0.08624
6.908,0.00594
6.912,0.00182
6.916,0.03635
6.92,0.02129
6.924,0.01231
6.928,0.07491
6.932,-0.00369
6.936,-0.00953
6.94,-0.00077
6.944,0.02466
6.948,0.04555
6.952,0.0094
6.956,0.13511
6.96,0.02322
6.964,0.09262
6.968,0.01991
6.972,0.13404
6.976,0.10069
6.98,0.16144
6.984,0.17405
6.988,0.09699
6.992,0.1324
6.996,0.06113
7.0,0.13695
7.004,0.06689
7.008,0.09259
7.012,0.0142
7.016,0.05018
7.02,0.00549
7.024,0.07468
7.028,-0.00637
7.032,-0.06152
7.036,-0.04112
7.04,-0.00016
7.044,0.01471
7.048,-0.04467
7.052,0.0394
7.056,0.00818
7.06,-0.02073
7.064,0.0249
7.068,0.11151
7.072,-0.02238
7.076,0.05387
7.08,0.00161
7.084,-0.00966
7.088,-0.02597
7.092,0.03947
7.096,-0.01195
7.1,-0.04156
7.104,-0.0681
7.108,-0.05612
7.112,-0.05309
7.116,0.0205
7.12,0.08354
7.124,0.23208
7.128,0.41742
7.132,0.70737
7.136,0.84315
7.14,0.95997
7.144,0.97514
7.148,0.93039
7.152,0.75886
7.156,0.50993
7.16,0.33983
7.164,0.17531
7.168,-0.06798
7.172,-0.10329
7.176,-0.1554
7.18,-0.14772
7.184,-0.17571
7.188,-0.10853
7.192,-0.02943
7.196,0.07006
7.2,0.00124
7.204,0.03874
7.208,-0.0201
7.212,0.00555
7.216,-0.01739
7.22,0.05126
7.224,-0.01636
7.228,-0.02293
7.232,0.01609
7.236,0.06333
7.24,0.03255
7.244,0.06803
7.248,0.0191
7.252,0.0499
7.256,0.00962
7.26,0.01219
7.264,0.08931
7.268,0.00425
7.272,-0.03465
7.276,0.01328
7.28,0.01921
7.284,0.02653
7.288,0.03197
7.292,0.09635
7.296,0.0562
7.3,-0.06806
7.304,0.07872
7.308,-0.0328
7.312,-0.05421
7.316,0.02098
7.32,0.06861
7.324,0.05203
7.328,0.00954
7.332,0.03462
7.336,0.0436
7.34,-0.00043
7.344,0.0875
7.348,0.11097
7.352,0.04996
7.356,0.05968
7.36,0.07655
7.364,0.12678
7.368,0.06727
7.372,0.15254
7.376,0.10385
7.38,0.12107
7.384,0.18118
7.388,0.19673
7.392,0.20295
7.396,0.17069
7.4,0.16232
7.404,0.10208
7.408,0.24198
7.412,0.25174
7.416,0.18633
7.42,0.20815
7.424,0.20261
7.428,0.2786
7.432,0.19126
7.436,0.18709
7.44,0.21888
7.444,0.20091
7.448,0.22538
7.452,0.15728
7.456,0.11974
7.46,0.18042
7.464,0.09193
7.468,0.07765
7.472,0.07939
7.476,0.16908
7.48,0.13194
7.484,0.10181
7.488,0.02003
7.492,0.05889
7.496,0.0295
7.5,0.09228
7.504,0.00747
7.508,0.11409
7.512,0.04063
7.516,0.03813
7.52,0.07777
7.524,0.05509
7.528,0.01108
7.532,0.00958
7.536,0.00641
7.54,-0.00575
7.544,0.04653
7.548,-0.05623
7.552,-0.05651
7.556,0.00042
7.56,-0.01364
7.564,-0.03325
7.568,-0.00851
7.572,-0.02585
7.576,-0.03312
7.58,-0.0092
7.584,0.05084
7.588,-0.05335
7.592,-0.01571
7.596,-0.02641
7.6,-0.0147
7.604,0.03609
7.608,-0.01249
7.612,0.02071
7.616,0.01251
7.62,-0.03114
7.624,-0.00692
7.628,0.01631
7.632,0.02376
7.636,0.09598
7.64,0.02195
7.644,0.03327
7.648,-0.05102
7.652,0.1184
7.656,-0.01288
7.66,0.03881
7.664,0.01734
7.668,-0.00804
7.672,-0.04984
7.676,0.01772
7.68,0.00149
7.684,-0.05436
7.688,0.00896
7.692,-0.00856
7.696,0.07279
7.7,-0.01488
7.704,0.01591
7.708,-0.01608
7.712,-0.01113
7.716,-0.03798
7.72,-0.01339
7.724,0.00311
7.728,-0.05573
7.732,0.00013
7.736,-0.01756
7.74,-0.00726
7.744,0.03591
7.748,-0.02822
7.752,0.01755
7.756,-0.01599
7.76,0.04301
7.764,0.01966
7.768,0.08283
7.772,-0.05916
7.776,-0.04386
7.78,0.0031
7.784,0.02113
7.788,-0.00345
7.792,-0.00938
7.796,-0.00956
7.8,-0.03413
7.804,-0.08506
7.808,-0.00948
7.812,0.03718
7.816,0.00951
7.82,-0.06909
7.824,-0.09149
7.828,0.01179
7.832,0.05011
7.836,-0.0122
7.84,0.01296
7.844,0.03606
7.848,-0.0287
7.852,-0.06963
7.856,-0.01505
7.86,-0.02157
7.864,0.02576
7.868,0.04411
7.872,-0.05006
7.876,-0.03298
7.88,0.0221
7.884,-0.03916
7.888,0.0167
7.892,-0.0839
7.896,-1e-05
7.9,0.00785
7.904,-0.04675
7.908,0.007
7.912,0.01844
7.916,-0.05087
7.92,0.01584
7.924,-0.02907
7.928,-0.05197
7.932,-0.02277
7.936,0.04184
7.94,-0.00692
7.944,-0.01417
7.948,0.03882
7.952,-0.05665
7.956,0.02058
7.96,-0.00815
7.964,-0.05991
7.968,-0.08714
7.972,-0.00938
7.976,-0.00985
7.98,-0.03912
7.984,0.00505
7.988,0.00535
7.992,0.01343
7.996,-0.04449
8.0,-0.03093
8.004,-0.09045
8.008,0.01499
8.012,0.01494
8.016,0.0207
8.02,-0.03122
8.024,-0.06331
8.028,0.02256
8.032,-0.0118
8.036,-0.00965
8.04,-0.04641
8.044,0.00402
8.048,-0.04541
8.052,-0.00266
8.056,-0.02926
8.06,-0.01384
8.064,-0.02759
8.068,-0.02202
8.072,0.02377
8.076,-0.05271
8.08,-0.00371
8.084,-0.0793
8.088,-0.04592
8.092,0.02265
8.096,-0.03528
8.1,-0.03984
8.104,-0.01694
8.108,-0.01502
8.112,-0.00265
8.116,-0.01641
8.12,0.01591
8.124,-0.01018
8.128,-0.00108
8.132,-0.03989
8.136,0.01966
8.14,-0.01863
8.144,0.01713
8.148,-0.02456
8.152,0.00116
8.156,0.00701
8.16,-0.00049
8.164,0.02879
8.168,0.02251
8.172,-0.0299
8.176,0.08832
8.18,0.06989
8.184,0.1116
8.188,0.06151
8.192,0.06248
8.196,0.13246
8.2,0.04311
8.204,0.05849
8.208,0.06316
8.212,0.19779
8.216,0.03977
8.22,0.04251
8.224,0.07201
8.228,0.04095
8.232,0.01563
8.236,0.05067
8.24,0.01016
8.244,0.02003
8.248,-0.03004
8.252,-0.03157
8.256,-0.005
8.26,-0.02894
8.264,-0.02486
8.268,0.05276
8.272,0.04248
8.276,-0.01481
8.28,0.00677
8.284,-0.05024
8.288,0.01674
8.292,-0.02293
8.296,-0.02624
8.3,0.04308
8.304,-0.01431
8.308,-0.00857
8.312,-0.04403
8.316,0.00252
8.32,-0.04159
8.324,-0.05805
8.328,-0.10734
8.332,-0.17727
8.336,-0.07055
8.34,-0.06709
8.344,0.08909
8.348,0.24796
8.352,0.32221
8.356,0.4894
8.36,0.57528
8.364,0.55929
8.368,0.50741
8.372,0.34286
8.376,0.27909
8.38,0.12576
8.384,-0.05166
8.388,-0.18546
8.392,-0.23438
8.396,-0.18968
8.4,-0.10239
8.404,-0.15463
8.408,-0.06307
8.412,-0.03033
8.416,-0.05608
8.42,-0.03345
8.424,-0.07998
8.428,-0.04455
8.432,-0.10408
8.436,0.02209
8.44,-0.08639
8.444,-0.07914
8.448,-0.02796
8.452,-0.04914
8.456,-0.03283
8.46,-0.0534
8.464,0.02726
8.468,0.04879
8.472,-0.00697
8.476,0.05306
8.48,-0.01385
8.484,-0.03466
8.488,-0.08127
8.492,-0.06833
8.496,-0.02159
8.5,-0.01201
8.504,0.04319
8.508,0.02181
8.512,-0.08391
8.516,0.0015
8.52,-0.01503
8.524,0.03422
8.528,-0.05691
8.532,-0.00801
8.536,0.04257
8.54,-0.08086
8.544,-0.03876
8.548,0.01035
8.552,0.06027
8.556,-0.05918
8.56,0.06282
8.564,-0.00785
8.568,0.04787
8.572,0.08449
8.576,0.03989
8.58,0.051
8.584,0.06314
8.588,0.09998
8.592,0.05311
8.596,0.11957
8.6,0.08727
8.604,0.15678
8.608,0.15378
8.612,0.11718
8.616,0.14329
8.62,0.18464
8.624,0.15104
8.628,0.17842
8.632,0.24345
8.636,0.20682
8.64,0.18077
8.644,0.23181
8.648,0.17107
8.652,0.16314
8.656,0.20079
8.66,0.20146
8.664,0.1627
8.668,0.19293
8.672,0.1602
8.676,0.17345
8.68,0.09672
8.684,0.10126
8.688,0.13134
8.692,0.14296
8.696,0.08401
8.7,-0.00929
8.704,0.04508
8.708,0.02164
8.712,0.0495
8.716,0.04981
8.72,0.07505
8.724,-0.02144
8.728,0.07606
8.732,-0.0218
8.736,0.00943
8.74,-0.05309
8.744,0.01302
8.748,-0.01208
8.752,-0.01822
8.756,0.01114
8.76,-0.02822
8.764,-0.0789
8.768,-0.00442
8.772,-0.011
8.776,-0.0755
8.78,-0.06461
8.784,-0.0155
8.788,0.014
8.792,-0.03303
8.796,-0.00668
8.8,-0.07078
8.804,-0.04131
8.808,-0.02815
8.812,-0.0646
8.816,-0.09831
8.82,-0.04199
8.824,0.01629
8.828,-0.07611
8.832,-0.03992
8.836,-0.07389
8.84,-0.01292
8.844,0.0036
8.848,-0.01802
8.852,-0.0393
8.856,-0.06287
8.86,-0.06506
8.864,0.04095
8.868,0.04508
8.872,-0.12058
8.876,0.02101
8.88,-0.00461
8.884,-0.09182
8.888,-0.03222
8.892,-0.0909
8.896,-0.00792
8.9,-0.01668
8.904,-0.06954
8.908,0.05178
8.912,-0.01857
8.916,-0.06546
8.92,-0.00753
8.924,0.00352
8.928,-0.04287
8.932,0.04447
8.936,-0.07177
8.94,-0.02068
8.944,-0.0187
8.948,0.01019
8.952,-0.07787
8.956,-0.06466
8.96,-0.02459
8.964,-0.07493
8.968,-0.06608
8.972,-0.03415
8.976,-0.05252
8.98,0.01032
8.984,-0.07539
8.988,-0.02623
8.992,-0.06158
8.996,0.02253
9.0,-0.01513
9.004,-0.07359
9.008,-0.04903
9.012,-0.04176
9.016,-0.03116
9.02,0.0987
9.024,-0.08596
9.028,-0.03808
9.032,0.02952
9.036,-0.01731
9.04,-0.04117
9.044,0.04064
9.048,-0.01362
9.052,-0.02308
9.056,0.01234
9.06,-0.0211
9.064,-0.00805
9.068,-0.04298
9.072,-0.03683
9.076,-0.00239
9.08,-0.03631
9.084,-0.03091
9.088,-0.09656
9.092,-0.01915
9.096,-0.06822
9.1,0.04215
9.104,0.05367
9.108,-0.01748
9.112,-0.01097
9.116,-0.01898
9.12,-0.05791
9.124,0.07019
9.128,0.06123
9.132,0.11567
9.136,0.09473
9.14,0.08778
9.144,0.10491
9.148,0.04108
9.152,0.10933
9.156,0.07057
9.16,0.02865
9.164,0.04207
9.168,-0.00856
9.172,-0.09077
9.176,0.0357
9.18,-0.02001
9.184,-0.01713
9.188,-0.03002
9.192,0.00134
9.196,-0.09091
9.2,-0.04999
9.204,-0.0437
9.208,0.00378
9.212,-0.03216
9.216,-0.03349
9.22,-0.04101
9.224,-0.07348
9.228,-0.03138
9.232,-0.01681
9.236,-0.03932
9.24,-0.04277
9.244,-0.00799
9.248,-0.11148
9.252,-0.04253
9.256,-0.05569
9.26,-0.10533
9.264,-0.10148
9.268,-0.14498
9.272,-0.03554
9.276,0.04695
9.28,0.27543
9.284,0.45724
9.288,0.68549
9.292,0.87995
9.296,0.98363
9.3,0.92263
9.304,0.85185
9.308,0.65378
9.312,0.34571
9.316,0.24489
9.32,0.08989
9.324,-0.11892
9.328,-0.18383
9.332,-0.28346
9.336,-0.17301
9.34,-0.17292
9.344,-0.06526
9.348,-0.10448
9.352,-0.01905
9.356,-0.03076
9.36,-0.00941
9.364,-0.02424
9.368,-0.04329
9.372,-0.06883
9.376,-0.01231
9.38,-0.03429
9.384,-0.00384
9.388,-0.0596
9.392,-0.02782
9.396,-0.02348
9.4,-0.08279
9.404,-0.06783
9.408,0.03775
9.412,-0.06892
9.416,-0.04042
9.42,0.00504
9.424,-0.04942
9.428,-0.05637
9.432,0.02453
9.436,0.00702
9.44,-0.02633
9.444,-0.04599
9.448,-0.02584
9.452,-0.01045
9.456,0.00023
9.46,0.01804
9.464,0.06365
9.468,-0.0187
9.472,-0.05632
9.476,0.0432
9.48,-0.05235
9.484,0.0175
9.488,-0.04187
9.492,0.05579
9.496,-0.01269
9.5,0.03844
9.504,0.08642
9.508,0.06214
9.512,0.07301
9.516,0.05409
9.52,0.04097
9.524,0.1019
9.528,0.14599
9.532,0.08792
9.536,0.14186
9.54,0.11948
9.544,0.062
9.548,0.17933
9.552,0.16653
9.556,0.20945
9.56,0.15661
9.564,0.18624
9.568,0.18122
9.572,0.21356
9.576,0.20673
9.58,0.15192
9.584,0.1586
9.588,0.17953
9.592,0.21093
9.596,0.21146
9.6,0.18747
9.604,0.15481
9.608,0.2248
9.612,0.17685
9.616,0.12817
9.62,0.12502
9.624,0.09537
9.628,0.02483
9.632,0.05807
9.636,0.05225
9.64,0.01309
9.644,0.03442
9.648,0.10022
9.652,0.03332
9.656,0.02824
9.66,-0.03455
9.664,-0.01258
9.668,0.01767
9.672,-0.04508
9.676,-0.01127
9.68,0.05363
9.684,0.00915
9.688,0.00479
9.692,-0.01744
9.696,-0.05434
9.7,-0.02721
9.704,-0.01678
9.708,-0.01312
9.712,0.00072
9.716,-0.03807
9.72,-0.07308
9.724,-0.05451
9.728,-0.02153
9.732,-0.08954
9.736,0.01519
9.74,-0.01535
9.744,0.02303
9.748,-0.03662
9.752,-0.05303
9.756,-0.04445
9.76,-0.07068
9.764,0.01815
9.768,-0.04727
9.772,-0.07333
9.776,-0.09488
9.78,0.0301
9.784,-0.02668
9.788,-0.00919
9.792,-0.05353
9.796,-0.02682
9.8,-0.04237
9.804,-0.02054
9.808,-0.02323
9.812,-0.03278
9.816,-0.01212
9.82,-0.03336
9.824,-0.07574
9.828,-0.11258
9.832,-0.00631
9.836,0.01824
9.84,-0.00316
9.844,0.01014
9.848,-0.05252
9.852,-0.01881
9.856,-0.0308
9.86,0.01344
9.864,0.02444
9.868,-0.00842
9.872,-0.01671
9.876,-0.0755
9.88,-0.06502
9.884,-0.02719
9.888,-0.01314
9.892,-0.01488
9.896,0.01567
9.9,-0.03141
9.904,-0.001
9.908,0.01545
9.912,-0.00233
9.916,-0.00247
9.92,-0.00833
9.924,-0.02318
9.928,-0.06909
9.932,-0.02874
9.936,-0.02152
9.94,-0.03377
9.944,-0.04417
9.948,-0.04396
9.952,0.00226
9.956,-0.00937
9.96,-0.05282
9.964,-0.0228
9.968,-0.08513
9.972,-0.04654
9.976,0.01108
9.98,-0.04363
9.984,-0.07209
9.988,-0.01065
9.992,-0.02262
9.996,-0.00421
