t_seg,ecg_mV
0.0,-0.04476
0.004,-0.02955
0.008,-0.04017
0.012,-0.00892
0.016,-0.02058
0.02,-0.01617
0.024,-0.0125
0.028,-0.02275
0.032,-0.03575
0.036,-0.03047
0.04,-0.03053
0.044,-0.03936
0.048,-0.02729
0.052,-0.04155
0.056,-0.0275
0.06,-0.03343
0.064,-0.02953
0.068,0.00656
0.072,-0.03575
0.076,-0.01636
0.08,-0.047
0.084,-0.02227
0.088,-0.01667
0.092,-0.02553
0.096,-0.03047
0.1,-0.02169
0.104,-0.01321
0.108,0.00756
0.112,-0.04702
0.116,-0.02345
0.12,-0.00922
0.124,-0.01644
0.128,-0.00411
0.132,-0.00622
0.136,-0.02094
0.14,-0.01744
0.144,-0.03091
0.148,-0.01615
0.152,-0.00708
0.156,0.03747
0.16,0.03829
0.164,0.0242
0.168,0.05082
0.172,0.05866
0.176,0.06068
0.18,0.05881
0.184,0.05884
0.188,0.09426
0.192,0.03191
0.196,0.02213
0.2,0.06228
0.204,0.02805
0.208,0.00931
0.212,0.01282
0.216,-0.01597
0.22,-0.01657
0.224,-0.04482
0.228,-0.0472
0.232,-0.00509
0.236,-0.01054
0.24,-0.03063
0.244,-0.03667
0.248,-0.0165
0.252,-0.02055
0.256,-0.02878
0.26,-0.02986
0.264,-0.04334
0.268,-0.03141
0.272,-0.03301
0.276,-0.03521
0.28,-0.0447
0.284,-0.01804
0.288,-0.0455
0.292,-0.04023
0.296,-0.03901
0.3,-0.07303
0.304,-0.09723
0.308,-0.12349
0.312,-0.11153
0.316,-0.06577
0.32,0.058
0.324,0.23909
0.328,0.44517
0.332,0.65309
0.336,0.87225
0.34,0.96134
0.344,0.97403
0.348,0.86793
0.352,0.64873
0.356,0.4241
0.36,0.18711
0.364,0.01429
0.368,-0.1281
0.372,-0.14539
0.376,-0.19381
0.38,-0.1843
0.384,-0.12538
0.388,-0.0691
0.392,-0.0503
0.396,-0.07284
0.4,0.00504
0.404,-0.02239
0.408,-0.03691
0.412,-0.04021
0.416,-0.03834
0.42,-0.0318
0.424,-0.01802
0.428,-0.01755
0.432,-0.02404
0.436,-0.03708
0.44,-0.01101
0.444,-0.02474
0.448,-0.03076
0.452,-0.06659
0.456,-0.02418
0.46,-0.01759
0.464,-0.01416
0.468,-0.04865
0.472,-0.02412
0.476,-0.02982
0.48,-0.02757
0.484,-0.02846
0.488,-0.0268
0.492,-0.03375
0.496,-0.03216
0.5,-0.0447
0.504,-0.02278
0.508,-0.01944
0.512,-0.034
0.516,-0.01538
0.52,0.0047
0.524,-0.0225
0.528,-0.02632
0.532,0.03007
0.536,-0.00453
0.54,-0.0157
0.544,0.00709
0.548,0.03931
0.552,0.02133
0.556,0.035
0.56,0.03019
0.564,0.07758
0.568,0.06215
0.572,0.07187
0.576,0.10836
0.58,0.09031
0.584,0.14738
0.588,0.1393
0.592,0.14542
0.596,0.16824
0.6,0.15088
0.604,0.16168
0.608,0.19905
0.612,0.18927
0.616,0.162
0.62,0.2161
0.624,0.18798
0.628,0.19443
0.632,0.18926
0.636,0.19432
0.64,0.17945
0.644,0.14878
0.648,0.17053
0.652,0.12666
0.656,0.14285
0.66,0.12483
0.664,0.10627
0.668,0.09233
0.672,0.08368
0.676,0.06352
0.68,0.07946
0.684,0.06914
0.688,0.05252
0.692,0.01971
0.696,0.04218
0.7,-0.00814
0.704,0.02622
0.708,0.02664
0.712,-0.00317
0.716,0.00091
0.72,0.00405
0.724,-0.00158
0.728,-0.03443
0.732,-0.00953
0.736,-0.02172
0.74,-0.01868
0.744,-0.0418
0.748,-0.0175
0.752,0.00048
0.756,0.01318
0.76,-0.02506
0.764,-0.03461
0.768,-0.01646
0.772,-0.00661
0.776,-0.03503
0.78,-0.05488
0.784,-0.02297
0.788,-0.02924
0.792,-0.0358
0.796,-0.01771
0.8,-0.01994
0.804,-0.02342
0.808,-0.04
0.812,-0.03268
0.816,-0.00011
0.82,-0.0415
0.824,-0.0286
0.828,-0.03207
0.832,-0.02346
0.836,-0.04627
0.84,-0.02237
0.844,-0.02176
0.848,-0.00786
0.852,-0.00506
0.856,-0.04454
0.86,-0.05531
0.864,-0.02496
0.868,-0.03317
0.872,-0.03851
0.876,-0.043
0.88,-0.03613
0.884,-0.00608
0.888,-0.03106
0.892,0.00653
0.896,-0.03874
0.9,-0.01791
0.904,-0.02331
0.908,-0.01563
0.912,0.00255
0.916,-0.01789
0.92,-0.0061
0.924,-0.01943
0.928,-0.02909
0.932,-0.02254
0.936,-0.03642
0.94,-0.02282
0.944,-0.0098
0.948,-0.03302
0.952,0.00536
0.956,-0.06142
0.96,-0.01459
0.964,-0.02461
0.968,-0.03252
0.972,-0.03215
0.976,-0.01157
0.98,-0.0208
0.984,-0.01078
0.988,0.00158
0.992,-0.0547
0.996,-0.05907
1.0,-0.03779
1.004,-0.02095
1.008,-0.02562
1.012,-0.04446
1.016,-0.03118
1.02,-0.02713
1.024,-0.02513
1.028,-0.03457
1.032,-0.0015
1.036,-0.05575
1.04,-0.02513
1.044,-0.03027
1.048,-0.03693
1.052,-0.04336
1.056,-0.04888
1.06,-0.02442
1.064,-0.03959
1.068,-0.04049
1.072,-0.04688
1.076,-0.03119
1.08,-0.03913
1.084,-0.00313
1.088,-0.03087
1.092,-0.03332
1.096,-0.0184
1.1,-0.0406
1.104,-0.01774
1.108,-0.01891
1.112,-0.02876
1.116,-0.03171
1.12,-0.02535
1.124,-0.01448
1.128,-0.0059
1.132,-0.04349
1.136,-0.0226
1.14,-0.01701
1.144,-0.02769
1.148,-0.00638
1.152,-0.02713
1.156,-0.0305
1.16,-0.03102
1.164,-0.04406
1.168,0.01122
1.172,-0.0118
1.176,0.02677
1.18,0.03074
1.184,0.01925
1.188,0.05101
1.192,0.03093
1.196,0.03984
1.2,0.08378
1.204,0.06879
1.208,0.08103
1.212,0.06719
1.216,0.079
1.22,0.05165
1.224,0.05972
1.228,0.06372
1.232,0.03629
1.236,0.02567
1.24,0.00024
1.244,-0.02374
1.248,-0.01645
1.252,-0.03329
1.256,-0.0199
1.26,0.00711
1.264,0.0029
1.268,-0.01469
1.272,-0.01891
1.276,-0.01611
1.28,-0.01572
1.284,-0.01551
1.288,-0.00902
1.292,0.00514
1.296,-0.03968
1.3,-0.05182
1.304,-0.01686
1.308,-0.03885
1.312,-0.02674
1.316,-0.01412
1.32,-0.03236
1.324,-0.04505
1.328,-0.09017
1.332,-0.14577
1.336,-0.13162
1.34,-0.07047
1.344,0.03011
1.348,0.16718
1.352,0.4083
1.356,0.62194
1.36,0.81474
1.364,0.94938
1.368,0.96542
1.372,0.90206
1.376,0.73947
1.38,0.51999
1.384,0.28923
1.388,0.08624
1.392,-0.08059
1.396,-0.17253
1.4,-0.18073
1.404,-0.17255
1.408,-0.12308
1.412,-0.10343
1.416,-0.0628
1.42,-0.0189
1.424,-0.00262
1.428,-0.01773
1.432,-0.01992
1.436,-0.0354
1.44,-0.00892
1.444,0.01056
1.448,-0.02162
1.452,0.01564
1.456,-0.01215
1.46,-0.02894
1.464,-0.01466
1.468,-0.00715
1.472,-0.03833
1.476,-0.02398
1.48,-0.01697
1.484,-0.00325
1.488,-0.00596
1.492,-0.00439
1.496,-0.00696
1.5,0.0028
1.504,-0.0052
1.508,0.0023
1.512,-0.00328
1.516,0.00188
1.52,-0.01105
1.524,-0.00191
1.528,-0.01503
1.532,0.00763
1.536,0.0034
1.54,-8e-05
1.544,0.00808
1.548,0.0209
1.552,0.02014
1.556,0.01783
1.56,0.05205
1.564,0.02893
1.568,0.03473
1.572,0.02264
1.576,0.05649
1.58,0.05218
1.584,0.07159
1.588,0.0914
1.592,0.08749
1.596,0.10677
1.6,0.12031
1.604,0.13139
1.608,0.17719
1.612,0.13654
1.616,0.17904
1.62,0.19331
1.624,0.1854
1.628,0.19723
1.632,0.21237
1.636,0.20073
1.64,0.21427
1.644,0.18553
1.648,0.20466
1.652,0.21166
1.656,0.21768
1.66,0.22159
1.664,0.1884
1.668,0.21167
1.672,0.16319
1.676,0.13178
1.68,0.17457
1.684,0.15358
1.688,0.14747
1.692,0.1242
1.696,0.105
1.7,0.11017
1.704,0.10291
1.708,0.10223
1.712,0.08392
1.716,0.0652
1.72,0.02381
1.724,0.06441
1.728,0.04254
1.732,0.01304
1.736,0.00356
1.74,0.06778
1.744,0.02417
1.748,0.01584
1.752,0.02784
1.756,-0.00838
1.76,0.01765
1.764,0.00517
1.768,-0.03083
1.772,0.00658
1.776,-0.01736
1.78,-0.01191
1.784,0.00783
1.788,0.00824
1.792,-0.02023
1.796,-0.01472
1.8,-3e-05
1.804,0.00526
1.808,-0.00921
1.812,-0.02985
1.816,0.00479
1.82,0.01
1.824,0.01769
1.828,0.00246
1.832,-0.00941
1.836,-0.01513
1.84,0.00192
1.844,0.03167
1.848,0.00165
1.852,0.00963
1.856,-0.00881
1.86,0.0462
1.864,0.00424
1.868,0.02393
1.872,-0.00568
1.876,-0.01938
1.88,0.02067
1.884,0.01105
1.888,-0.00382
1.892,-0.00036
1.896,0.01483
1.9,0.00541
1.904,0.04125
1.908,0.01456
1.912,0.00836
1.916,-0.02229
1.92,0.00372
1.924,-0.00248
1.928,0.00738
1.932,-0.00375
1.936,0.01647
1.94,0.01707
1.944,0.02523
1.948,0.00235
1.952,0.02758
1.956,-0.00198
1.96,0.02749
1.964,-0.00205
1.968,-0.01834
1.972,0.01305
1.976,-0.0137
1.98,-0.0011
1.984,0.00253
1.988,0.00092
1.992,0.02035
1.996,-0.00522
2.0,-0.00685
2.004,0.00913
2.008,0.02448
2.012,-0.00729
2.016,0.01347
2.02,-0.01285
2.024,-0.02241
2.028,0.00876
2.032,0.00222
2.036,0.0078
2.04,-0.00614
2.044,0.01313
2.048,0.00389
2.052,0.01749
2.056,0.01389
2.06,-0.02425
2.064,0.00888
2.068,-0.00179
2.072,0.01681
2.076,0.04211
2.08,0.03398
2.084,0.06091
2.088,0.06613
2.092,0.0513
2.096,0.09099
2.1,0.0947
2.104,0.11828
2.108,0.09953
2.112,0.07388
2.116,0.10844
2.12,0.08668
2.124,0.08272
2.128,0.07355
2.132,0.04634
2.136,0.05436
2.14,0.00836
2.144,0.02263
2.148,0.00816
2.152,0.01017
2.156,0.0254
2.16,0.01188
2.164,-0.01348
2.168,0.0119
2.172,0.02247
2.176,0.00797
2.18,-0.00905
2.184,0.04277
2.188,0.01607
2.192,0.01198
2.196,0.01463
2.2,-0.02021
2.204,0.01652
2.208,-0.01375
2.212,0.01378
2.216,0.01381
2.22,0.02536
2.224,-0.00927
2.228,-0.02435
2.232,-0.09361
2.236,-0.09697
2.24,-0.10073
2.244,-0.03635
2.248,0.11418
2.252,0.26307
2.256,0.47838
2.26,0.67633
2.264,0.84653
2.268,0.98007
2.272,0.97984
2.276,0.89803
2.28,0.70096
2.284,0.45828
2.288,0.23683
2.292,0.06441
2.296,-0.06383
2.3,-0.15488
2.304,-0.13345
2.308,-0.12804
2.312,-0.06663
2.316,-0.02901
2.32,-0.01852
2.324,-0.00099
2.328,0.01005
2.332,0.04524
2.336,0.01799
2.34,0.01331
2.344,0.00556
2.348,-0.01069
2.352,0.01157
2.356,-0.00365
2.36,0.04311
2.364,0.02241
2.368,0.01817
2.372,0.01343
2.376,0.01129
2.38,-0.00014
2.384,0.0148
2.388,0.00129
2.392,0.03329
2.396,0.02075
2.4,0.00934
2.404,0.01858
2.408,0.00293
2.412,0.00165
2.416,0.02736
2.42,-0.01571
2.424,0.00993
2.428,0.03647
2.432,0.01794
2.436,0.02223
2.44,0.03456
2.444,0.03703
2.448,0.02715
2.452,0.01575
2.456,0.06271
2.46,0.04073
2.464,0.0329
2.468,0.04649
2.472,0.06003
2.476,0.0966
2.48,0.07009
2.484,0.09073
2.488,0.09215
2.492,0.11822
2.496,0.12346
2.5,0.12146
2.504,0.14489
2.508,0.12425
2.512,0.19421
2.516,0.18028
2.52,0.19224
2.524,0.21245
2.528,0.20327
2.532,0.20815
2.536,0.22347
2.54,0.22732
2.544,0.19856
2.548,0.23236
2.552,0.24003
2.556,0.23515
2.56,0.23462
2.564,0.22775
2.568,0.22598
2.572,0.2086
2.576,0.23531
2.58,0.18058
2.584,0.20726
2.588,0.18959
2.592,0.14642
2.596,0.14194
2.6,0.14604
2.604,0.12053
2.608,0.09
2.612,0.10221
2.616,0.07732
2.62,0.08245
2.624,0.04551
2.628,0.07775
2.632,0.03465
2.636,0.06433
2.64,0.05318
2.644,0.03609
2.648,0.04107
2.652,0.05814
2.656,0.02587
2.66,0.04871
2.664,0.0269
2.668,0.02301
2.672,0.04044
2.676,0.00229
2.68,0.01743
2.684,0.02604
2.688,0.04836
2.692,0.03041
2.696,0.03654
2.7,0.01226
2.704,-0.00209
2.708,0.03134
2.712,0.01917
2.716,0.00822
2.72,0.00993
2.724,0.00901
2.728,0.00241
2.732,0.04053
2.736,0.02296
2.74,0.01064
2.744,0.0211
2.748,0.02204
2.752,0.03261
2.756,0.01343
2.76,0.03799
2.764,0.03043
2.768,-0.00521
2.772,0.02218
2.776,0.01986
2.78,0.00291
2.784,-0.00434
2.788,0.04462
2.792,0.00573
2.796,-0.01396
2.8,0.00959
2.804,0.01429
2.808,0.01492
2.812,0.05719
2.816,0.02045
2.82,0.03446
2.824,0.01504
2.828,0.04101
2.832,0.02338
2.836,0.04503
2.84,0.00753
2.844,0.03195
2.848,0.03024
2.852,0.02392
2.856,0.00738
2.86,-7e-05
2.864,0.02791
2.868,0.00827
2.872,0.01884
2.876,0.02374
2.88,0.02372
2.884,0.00913
2.888,0.03287
2.892,0.00074
2.896,0.01984
2.9,0.03331
2.904,0.01256
2.908,0.02411
2.912,0.03413
2.916,0.0222
2.92,0.02187
2.924,0.05173
2.928,0.02752
2.932,0.04065
2.936,-0.0011
2.94,0.04115
2.944,0.02849
2.948,0.03192
2.952,0.00587
2.956,0.02997
2.96,0.01333
2.964,0.02801
2.968,0.02448
2.972,0.01435
2.976,0.02489
2.98,0.03798
2.984,0.02994
2.988,0.01849
2.992,0.04366
2.996,0.0111
3.0,0.04034
3.004,0.02718
3.008,0.02583
3.012,0.05559
3.016,0.03865
3.02,0.02177
3.024,0.01259
3.028,0.03236
3.032,0.03298
3.036,0.01834
3.04,0.02534
3.044,0.01646
3.048,0.02715
3.052,0.01826
3.056,0.0456
3.06,0.03748
3.064,0.05434
3.068,0.04016
3.072,0.03057
3.076,0.03762
3.08,0.01605
3.084,0.03092
3.088,0.02104
3.092,0.05132
3.096,0.03734
3.1,0.03307
3.104,0.0513
3.108,0.02619
3.112,0.06482
3.116,0.08504
3.12,0.07754
3.124,0.09444
3.128,0.13926
3.132,0.1035
3.136,0.13626
3.14,0.13399
3.144,0.15426
3.148,0.11611
3.152,0.12625
3.156,0.07917
3.16,0.08242
3.164,0.08187
3.168,0.07045
3.172,0.08194
3.176,0.04786
3.18,0.06464
3.184,0.06978
3.188,0.02684
3.192,0.01315
3.196,0.01323
3.2,0.03616
3.204,0.01294
3.208,0.04127
3.212,0.03522
3.216,0.02426
3.22,0.01625
3.224,0.03764
3.228,0.0383
3.232,0.00694
3.236,0.05987
3.24,0.0307
3.244,0.06025
3.248,0.03209
3.252,0.01152
3.256,0.01873
3.26,-0.04425
3.264,-0.07681
3.268,-0.09507
3.272,-0.08491
3.276,0.02891
3.28,0.134
3.284,0.31874
3.288,0.53114
3.292,0.78648
3.296,0.8915
3.3,1.00096
3.304,1.0071
3.308,0.88712
3.312,0.64056
3.316,0.44488
3.32,0.23807
3.324,0.04465
3.328,-0.07457
3.332,-0.1109
3.336,-0.11974
3.34,-0.09218
3.344,-0.0511
3.348,-0.03694
3.352,0.00152
3.356,0.05018
3.36,0.06494
3.364,0.08594
3.368,0.01173
3.372,0.02072
3.376,0.02442
3.38,0.04194
3.384,0.07182
3.388,0.03516
3.392,0.05197
3.396,0.03181
3.4,0.03699
3.404,-0.00168
3.408,0.01308
3.412,0.06569
3.416,0.02095
3.42,0.03256
3.424,0.02291
3.428,0.02843
3.432,0.03907
3.436,0.03321
3.44,0.01282
3.444,0.00818
3.448,0.02536
3.452,0.02555
3.456,0.01948
3.46,0.02421
3.464,0.01023
3.468,0.01943
3.472,0.04525
3.476,0.02333
3.48,0.05452
3.484,0.04838
3.488,0.04179
3.492,0.06469
3.496,0.06501
3.5,0.07032
3.504,0.0918
3.508,0.10284
3.512,0.09829
3.516,0.11858
3.52,0.10672
3.524,0.13215
3.528,0.11639
3.532,0.13473
3.536,0.157
3.54,0.1939
3.544,0.17551
3.548,0.20299
3.552,0.21962
3.556,0.22503
3.56,0.22634
3.564,0.22818
3.568,0.26502
3.572,0.25659
3.576,0.24552
3.58,0.23935
3.584,0.25353
3.588,0.25023
3.592,0.24316
3.596,0.22675
3.6,0.24913
3.604,0.25627
3.608,0.22173
3.612,0.23595
3.616,0.19015
3.62,0.18947
3.624,0.16835
3.628,0.14287
3.632,0.15238
3.636,0.16651
3.64,0.13809
3.644,0.13964
3.648,0.09978
3.652,0.08267
3.656,0.05215
3.66,0.06444
3.664,0.06726
3.668,0.05824
3.672,0.03845
3.676,0.03642
3.68,0.04224
3.684,0.07484
3.688,0.03641
3.692,0.04113
3.696,0.05585
3.7,0.03699
3.704,0.03888
3.708,0.04724
3.712,0.02827
3.716,0.05138
3.72,0.05412
3.724,0.0134
3.728,0.03283
3.732,0.04197
3.736,0.03565
3.74,0.02438
3.744,0.01854
3.748,0.05385
3.752,0.03082
3.756,0.00607
3.76,0.03817
3.764,0.04668
3.768,0.01832
3.772,0.02085
3.776,0.04321
3.78,0.04658
3.784,0.01706
3.788,0.02043
3.792,0.03945
3.796,0.02108
3.8,0.02189
3.804,0.01841
3.808,0.02061
3.812,0.04016
3.816,0.06799
3.82,0.03376
3.824,0.02876
3.828,0.03847
3.832,0.02331
3.836,0.02734
3.84,0.00322
3.844,0.00178
3.848,0.03539
3.852,0.02454
3.856,0.05106
3.86,-0.01196
3.864,0.00953
3.868,0.03824
3.872,0.02524
3.876,0.03425
3.88,0.02673
3.884,-0.00169
3.888,0.02201
3.892,0.02335
3.896,0.03843
3.9,0.03533
3.904,0.04799
3.908,0.04873
3.912,0.01181
3.916,0.0473
3.92,0.02817
3.924,0.02488
3.928,0.04446
3.932,0.0053
3.936,0.03685
3.94,0.04651
3.944,0.03653
3.948,-0.00531
3.952,0.05023
3.956,0.02128
3.96,0.03481
3.964,0.039
3.968,0.00293
3.972,0.03448
3.976,0.05274
3.98,0.03862
3.984,-0.00277
3.988,0.00679
3.992,0.04198
3.996,0.02608
4.0,0.00663
4.004,0.05793
4.008,0.06827
4.012,0.08757
4.016,0.09129
4.02,0.09162
4.024,0.07041
4.028,0.09176
4.032,0.12735
4.036,0.14235
4.04,0.09569
4.044,0.13093
4.048,0.0972
4.052,0.10205
4.056,0.12207
4.06,0.09844
4.064,0.07132
4.068,0.06082
4.072,0.0481
4.076,0.03798
4.08,0.02288
4.084,0.053
4.088,0.05335
4.092,0.05642
4.096,0.02677
4.1,0.0309
4.104,0.02501
4.108,0.01859
4.112,0.04143
4.116,0.02469
4.12,0.03581
4.124,0.01915
4.128,0.03171
4.132,0.0307
4.136,0.04273
4.14,0.01055
4.144,0.04596
4.148,0.01096
4.152,-0.00651
4.156,0.00149
4.16,-0.03963
4.164,-0.04244
4.168,-0.1121
4.172,-0.07194
4.176,0.03081
4.18,0.16845
4.184,0.34278
4.188,0.56329
4.192,0.8
4.196,0.94631
4.2,1.03614
4.204,0.99186
4.208,0.85044
4.212,0.63849
4.216,0.40355
4.22,0.21292
4.224,0.02218
4.228,-0.07707
4.232,-0.15825
4.236,-0.11494
4.24,-0.1145
4.244,-0.05017
4.248,-0.01842
4.252,-0.01089
4.256,0.02721
4.26,-0.00742
4.264,0.01221
4.268,0.0269
4.272,0.01208
4.276,0.00247
4.28,0.02955
4.284,0.01509
4.288,0.04721
4.292,0.00705
4.296,0.04161
4.3,0.0119
4.304,0.03109
4.308,0.02948
4.312,0.03564
4.316,0.02133
4.32,0.02453
4.324,0.01832
4.328,0.02202
4.332,0.03179
4.336,0.02561
4.34,0.02886
4.344,0.03042
4.348,0.03654
4.352,0.02322
4.356,0.00459
4.36,0.04191
4.364,0.01803
4.368,0.03702
4.372,0.02911
4.376,0.04102
4.38,0.03613
4.384,0.0684
4.388,0.05536
4.392,0.05137
4.396,0.09767
4.4,0.0857
4.404,0.05207
4.408,0.10636
4.412,0.08223
4.416,0.09186
4.42,0.09963
4.424,0.12648
4.428,0.1329
4.432,0.14382
4.436,0.15714
4.44,0.16444
4.444,0.19398
4.448,0.18987
4.452,0.18236
4.456,0.19312
4.46,0.2358
4.464,0.24092
4.468,0.2435
4.472,0.25361
4.476,0.23705
4.48,0.21725
4.484,0.24582
4.488,0.22662
4.492,0.26264
4.496,0.22478
4.5,0.22129
4.504,0.21819
4.508,0.21206
4.512,0.21096
4.516,0.17397
4.52,0.19875
4.524,0.17537
4.528,0.14313
4.532,0.10797
4.536,0.12839
4.54,0.11533
4.544,0.10589
4.548,0.09914
4.552,0.08037
4.556,0.06839
4.56,0.07385
4.564,0.07196
4.568,0.06248
4.572,0.03227
4.576,0.03864
4.58,0.00749
4.584,0.03405
4.588,0.03155
4.592,0.03549
4.596,0.02308
4.6,0.03238
4.604,0.02308
4.608,0.02992
4.612,0.01125
4.616,0.0213
4.62,0.03929
4.624,0.01851
4.628,0.01997
4.632,-0.0036
4.636,-0.00195
4.64,0.00677
4.644,0.01727
4.648,0.028
4.652,0.03678
4.656,0.0192
4.66,0.01522
4.664,0.01702
4.668,0.0012
4.672,-0.00014
4.676,-0.00454
4.68,0.00532
4.684,0.01249
4.688,0.01111
4.692,-0.00262
4.696,0.00567
4.7,0.01133
4.704,0.03307
4.708,0.0384
4.712,0.01387
4.716,0.02746
4.72,0.0172
4.724,-0.0086
4.728,0.04148
4.732,-0.00121
4.736,0.00985
4.74,0.01837
4.744,5e-05
4.748,0.01924
4.752,-0.01135
4.756,0.00774
4.76,0.01256
4.764,0.01857
4.768,0.01114
4.772,0.0141
4.776,0.02951
4.78,0.02679
4.784,0.04514
4.788,0.06155
4.792,0.07403
4.796,0.0765
4.8,0.10904
4.804,0.08721
4.808,0.0962
4.812,0.10754
4.816,0.10141
4.82,0.09313
4.824,0.1097
4.828,0.10972
4.832,0.09901
4.836,0.05241
4.84,0.05939
4.844,0.04031
4.848,0.0358
4.852,0.0264
4.856,0.00742
4.86,0.01129
4.864,-0.00237
4.868,-0.00015
4.872,0.02556
4.876,0.01787
4.88,0.02976
4.884,-0.00882
4.888,-0.00153
4.892,0.00719
4.896,0.0008
4.9,-0.00132
4.904,0.01804
4.908,0.01482
4.912,0.01238
4.916,-0.00441
4.92,0.00548
4.924,-0.01103
4.928,0.00548
4.932,-0.02349
4.936,-0.06087
4.94,-0.08767
4.944,-0.0979
4.948,-0.05094
4.952,0.03994
4.956,0.19407
4.96,0.40351
4.964,0.60907
4.968,0.83102
4.972,0.95125
4.976,1.01205
4.98,0.95349
4.984,0.75851
4.988,0.53233
4.992,0.31771
4.996,0.13697
5.0,-0.04713
5.004,-0.10956
5.008,-0.18262
5.012,-0.15459
5.016,-0.10015
5.02,-0.06041
5.024,-0.01213
5.028,-0.01239
5.032,-0.00709
5.036,0.02266
5.04,0.00835
5.044,0.02638
5.048,0.0076
5.052,-0.01844
5.056,0.01038
5.06,0.00061
5.064,0.00558
5.068,0.02156
5.072,-0.0026
5.076,0.0319
5.08,0.01217
5.084,0.02093
5.088,-0.00593
5.092,0.00231
5.096,-0.0032
5.1,0.02138
5.104,0.01537
5.108,-0.02573
5.112,-0.00346
5.116,0.00764
5.12,0.01274
5.124,0.00175
5.128,0.01042
5.132,0.01611
5.136,-0.00108
5.14,0.02757
5.144,0.00911
5.148,0.0322
5.152,0.02942
5.156,0.03788
5.16,0.02766
5.164,0.03852
5.168,0.0359
5.172,0.05681
5.176,0.02794
5.18,0.06724
5.184,0.05446
5.188,0.07804
5.192,0.0582
5.196,0.09885
5.2,0.09438
5.204,0.10567
5.208,0.13206
5.212,0.13416
5.216,0.13706
5.22,0.16532
5.224,0.19382
5.228,0.20268
5.232,0.18345
5.236,0.18821
5.24,0.2015
5.244,0.23266
5.248,0.2054
5.252,0.22174
5.256,0.21478
5.26,0.19046
5.264,0.21825
5.268,0.21158
5.272,0.17313
5.276,0.19702
5.28,0.18495
5.284,0.17472
5.288,0.17634
5.292,0.1191
5.296,0.14394
5.3,0.14258
5.304,0.09656
5.308,0.09021
5.312,0.10528
5.316,0.10749
5.32,0.06925
5.324,0.08531
5.328,0.05511
5.332,0.07613
5.336,0.04229
5.34,0.06064
5.344,0.02191
5.348,0.02184
5.352,0.0315
5.356,0.0184
5.36,0.04689
5.364,-0.00307
5.368,0.02587
5.372,0.01505
5.376,0.01957
5.38,-0.0103
5.384,0.00748
5.388,0.00982
5.392,-0.0019
5.396,0.02024
5.4,-0.01366
5.404,-0.0036
5.408,-0.00176
5.412,0.01613
5.416,-0.00125
5.42,-0.00579
5.424,0.0003
5.428,-0.01054
5.432,-0.0095
5.436,-0.00446
5.44,-0.00944
5.444,-0.03063
5.448,-0.00804
5.452,-0.00812
5.456,-0.00945
5.46,-0.00517
5.464,-0.02219
5.468,-0.02772
5.472,-0.01433
5.476,-0.01123
5.48,-0.00604
5.484,-0.00686
5.488,0.00379
5.492,0.01356
5.496,-0.0022
5.5,-0.00911
5.504,-0.01107
5.508,0.00946
5.512,-0.00281
5.516,-0.00821
5.52,-0.01053
5.524,0.02764
5.528,-0.00585
5.532,0.01461
5.536,0.00159
5.54,-0.0124
5.544,-0.00054
5.548,0.00507
5.552,-0.03276
5.556,-0.01281
5.56,-0.02425
5.564,-0.0146
5.568,-0.00206
5.572,0.00041
5.576,-0.02279
5.58,0.01823
5.584,-0.02523
5.588,-0.01607
5.592,-0.01685
5.596,0.0108
5.6,-0.0192
5.604,0.00804
5.608,-0.0119
5.612,-0.0079
5.616,-0.01253
5.62,-0.05381
5.624,-0.04275
5.628,0.01031
5.632,0.00218
5.636,-0.01027
5.64,0.00965
5.644,-0.02325
5.648,0.0112
5.652,-0.01213
5.656,-0.02041
5.66,-0.00102
5.664,-0.02861
5.668,-0.03083
5.672,-0.03053
5.676,0.02529
5.68,-0.01118
5.684,-0.00801
5.688,0.00439
5.692,-0.03316
5.696,-0.01871
5.7,-0.00518
5.704,-0.02572
5.708,-0.01615
5.712,-0.01168
5.716,-0.02836
5.72,-0.03641
5.724,0.01232
5.728,-0.00234
5.732,-0.02299
5.736,0.01935
5.74,0.0135
5.744,-0.01425
5.748,0.01872
5.752,-0.00095
5.756,0.01277
5.76,0.01899
5.764,0.06028
5.768,0.03184
5.772,0.08436
5.776,0.08759
5.78,0.05155
5.784,0.08737
5.788,0.09225
5.792,0.10136
5.796,0.09281
5.8,0.07928
5.804,0.06421
5.808,0.02487
5.812,0.04364
5.816,0.05111
5.82,0.02344
5.824,0.01058
5.828,0.00252
5.832,-0.0247
5.836,-0.0025
5.84,-0.01287
5.844,-0.01381
5.848,-0.01401
5.852,-0.01424
5.856,-0.03037
5.86,-0.00312
5.864,-0.02328
5.868,-0.01516
5.872,-0.01749
5.876,0.027
5.88,-0.0259
5.884,9e-05
5.888,-0.00813
5.892,0.01032
5.896,-0.00124
5.9,-0.0474
5.904,-0.03101
5.908,-0.0951
5.912,-0.0962
5.916,-0.13294
5.92,-0.10927
5.924,-0.00304
5.928,0.11541
5.932,0.33287
5.936,0.56123
5.94,0.73349
5.944,0.89223
5.948,0.98499
5.952,0.94068
5.956,0.77969
5.96,0.59448
5.964,0.38427
5.968,0.14055
5.972,-0.03223
5.976,-0.14622
5.98,-0.16817
5.984,-0.20638
5.988,-0.1326
5.992,-0.11814
5.996,-0.06876
6.0,-0.04736
6.004,-0.01478
6.008,0.00367
6.012,-0.01787
6.016,-0.01478
6.02,-0.00695
6.024,-0.00788
6.028,-0.05336
6.032,-0.03672
6.036,-0.02483
6.04,-0.01528
6.044,-0.06921
6.048,-0.01109
6.052,0.00311
6.056,-0.00578
6.06,0.01191
6.064,-0.00534
6.068,-0.03504
6.072,-0.00221
6.076,-0.01792
6.08,-0.00956
6.084,-0.02146
6.088,-0.03208
6.092,-0.01692
6.096,-0.00557
6.1,0.00191
6.104,-0.02116
6.108,0.00854
6.112,-0.01982
6.116,-0.01006
6.12,-0.01679
6.124,-0.0034
6.128,0.00624
6.132,0.0185
6.136,-0.00512
6.14,0.01946
6.144,0.01829
6.148,0.01832
6.152,0.01589
6.156,0.04221
6.16,0.06356
6.164,0.04397
6.168,0.06647
6.172,0.07526
6.176,0.09697
6.18,0.09102
6.184,0.12748
6.188,0.13804
6.192,0.14395
6.196,0.15399
6.2,0.14341
6.204,0.15779
6.208,0.18311
6.212,0.17998
6.216,0.19566
6.22,0.16236
6.224,0.19168
6.228,0.18569
6.232,0.18685
6.236,0.17081
6.24,0.18624
6.244,0.18533
6.248,0.16283
6.252,0.18178
6.256,0.16264
6.26,0.13597
6.264,0.15012
6.268,0.13812
6.272,0.11228
6.276,0.08611
6.28,0.10541
6.284,0.06241
6.288,0.06266
6.292,0.04343
6.296,0.05462
6.3,0.01911
6.304,0.02
6.308,-0.00637
6.312,0.0304
6.316,0.00298
6.32,-0.006
6.324,-0.01251
6.328,0.01077
6.332,0.01254
6.336,-0.02706
6.34,-0.01672
6.344,-0.00284
6.348,-0.01325
6.352,-0.05291
6.356,-0.02316
6.36,-0.00172
6.364,-0.02467
6.368,-0.0302
6.372,-0.03523
6.376,-0.02136
6.38,-0.03211
6.384,-0.01387
6.388,-0.04773
6.392,-0.03658
6.396,-0.01226
6.4,-0.03742
6.404,-0.0156
6.408,-0.01543
6.412,-0.02489
6.416,-0.04313
6.42,-0.02735
6.424,-0.03474
6.428,-0.00882
6.432,-0.04316
6.436,-0.02405
6.44,-0.01421
6.444,-0.01455
6.448,-0.03877
6.452,-0.03297
6.456,-0.01563
6.46,-0.0308
6.464,-0.03493
6.468,-0.05448
6.472,-0.03065
6.476,-0.02965
6.48,-0.01625
6.484,-0.0214
6.488,-0.02356
6.492,-0.02135
6.496,-0.0295
6.5,-0.03986
6.504,0.00676
6.508,0.00338
6.512,-0.04754
6.516,-0.01463
6.52,-0.02692
6.524,-0.05243
6.528,-0.04178
6.532,-0.03445
6.536,-0.03896
6.54,-0.04545
6.544,-0.01702
6.548,-0.02479
6.552,-0.05423
6.556,-0.02388
6.56,-0.02441
6.564,-0.01123
6.568,-0.00444
6.572,-0.03223
6.576,0.01843
6.58,0.01482
6.584,0.03767
6.588,0.03541
6.592,0.06008
6.596,0.06646
6.6,0.05924
6.604,0.07885
6.608,0.05013
6.612,0.0612
6.616,0.05215
6.62,0.05974
6.624,0.02655
6.628,0.01786
6.632,0.01168
6.636,0.00324
6.64,-0.01682
6.644,-0.03255
6.648,-0.01949
6.652,0.00305
6.656,-0.03327
6.66,-0.02512
6.664,-0.03441
6.668,-0.02647
6.672,-0.01789
6.676,-0.01262
6.68,-0.03859
6.684,-0.05661
6.688,-0.03497
6.692,-0.05575
6.696,-0.0384
6.7,-0.04378
6.704,-0.03204
6.708,-0.04851
6.712,-0.05426
6.716,-0.02866
6.72,-0.0782
6.724,-0.10789
6.728,-0.13344
6.732,-0.10972
6.736,-0.11068
6.74,0.01936
6.744,0.17489
6.748,0.35029
6.752,0.5991
6.756,0.80069
6.76,0.90204
6.764,0.94414
6.768,0.89664
6.772,0.7399
6.776,0.52994
6.78,0.28494
6.784,0.09854
6.788,-0.08005
6.792,-0.14113
6.796,-0.18823
6.8,-0.16037
6.804,-0.15961
6.808,-0.12238
6.812,-0.08305
6.816,-0.06058
6.82,-0.0417
6.824,-0.02942
6.828,-0.02833
6.832,-0.01412
6.836,-0.04522
6.84,-0.04789
6.844,-0.05272
6.848,-0.00786
6.852,-0.05055
6.856,-0.0145
6.86,-0.03898
6.864,-0.03113
6.868,-0.03339
6.872,-0.03187
6.876,-0.05284
6.88,-0.01091
6.884,-0.0594
6.888,-0.02085
6.892,-0.04832
6.896,-0.0131
6.9,-0.02705
6.904,-0.00294
6.908,-0.03074
6.912,-0.03687
6.916,-0.02936
6.92,-0.0299
6.924,-0.01339
6.928,-0.03517
6.932,-0.02656
6.936,-0.03801
6.94,0.00578
6.944,0.00328
6.948,-0.00295
6.952,-0.00481
6.956,-0.00523
6.96,-0.01025
6.964,-0.00186
6.968,0.00348
6.972,0.05071
6.976,0.02846
6.98,0.05208
6.984,0.06904
6.988,0.10383
6.992,0.06879
6.996,0.08587
7.0,0.09477
7.004,0.13219
7.008,0.14552
7.012,0.10753
7.016,0.15146
7.02,0.14887
7.024,0.17017
7.028,0.15464
7.032,0.18741
7.036,0.177
7.04,0.16215
7.044,0.19706
7.048,0.20083
7.052,0.18923
7.056,0.17288
7.06,0.1654
7.064,0.17731
7.068,0.16381
7.072,0.13381
7.076,0.16243
7.08,0.12107
7.084,0.12144
7.088,0.10138
7.092,0.09304
7.096,0.08639
7.1,0.05697
7.104,0.0481
7.108,0.04698
7.112,0.03041
7.116,0.0113
7.12,-0.00055
7.124,0.03414
7.128,0.00998
7.132,-0.01946
7.136,-0.0212
7.14,-0.0076
7.144,-0.02594
7.148,-0.03219
7.152,-0.01495
7.156,-0.01995
7.16,0.00671
7.164,-0.02648
7.168,-0.02326
7.172,-0.02969
7.176,-0.07475
7.18,-0.01532
7.184,0.00154
7.188,-0.01391
7.192,-0.03452
7.196,0.00065
7.2,-0.01811
7.204,-0.0234
7.208,-0.01049
7.212,-0.03868
7.216,-0.0514
7.22,-0.02206
7.224,-0.01268
7.228,-0.01593
7.232,-0.06669
7.236,-0.0279
7.24,-0.03711
7.244,-0.03299
7.248,-0.02243
7.252,-0.02679
7.256,-0.04664
7.26,-0.02573
7.264,-0.01197
7.268,-0.00723
7.272,-0.03699
7.276,-0.02507
7.28,-0.03678
7.284,-0.04484
7.288,-0.02637
7.292,-0.05
7.296,-0.02379
7.3,-0.04525
7.304,-0.04482
7.308,-0.02113
7.312,-0.05591
7.316,-0.02697
7.32,-0.01433
7.324,-0.03196
7.328,-0.01712
7.332,-0.02241
7.336,-0.02247
7.34,-0.00758
7.344,-0.0207
7.348,-0.02931
7.352,-0.03376
7.356,-0.03033
7.36,-0.01496
7.364,-0.04506
7.368,-0.01893
7.372,-0.04429
7.376,-0.03257
7.38,-0.01109
7.384,-0.02842
7.388,-0.06066
7.392,-0.0223
7.396,-0.03922
7.4,-0.01349
7.404,-0.00623
7.408,-0.05323
7.412,-0.04405
7.416,-0.00797
7.42,-0.04327
7.424,-0.02333
7.428,-0.04498
7.432,-0.01719
7.436,-0.02904
7.44,-0.00622
7.444,-0.02568
7.448,-0.02506
7.452,-0.03175
7.456,-0.01768
7.46,-0.02499
7.464,-0.02414
7.468,-0.02776
7.472,-0.02775
7.476,-0.01993
7.48,-0.03086
7.484,-0.0304
7.488,-0.02834
7.492,0.01967
7.496,0.00916
7.5,0.01747
7.504,0.00473
7.508,0.05326
7.512,0.04212
7.516,0.07384
7.52,0.04603
7.524,0.05013
7.528,0.08979
7.532,0.09006
7.536,0.03572
7.54,0.07441
7.544,0.04949
7.548,0.0399
7.552,0.04259
7.556,0.00792
7.56,0.0106
7.564,-0.00732
7.568,-0.01784
7.572,-0.02426
7.576,0.00221
7.58,-0.02629
7.584,-0.02095
7.588,-0.0127
7.592,-0.0366
7.596,-0.01452
7.6,-0.02943
7.604,-0.03916
7.608,-0.02424
7.612,-0.02437
7.616,-0.03003
7.62,-0.01929
7.624,-0.00996
7.628,-0.02658
7.632,-0.03575
7.636,-0.01092
7.64,-0.03931
7.644,-0.00322
7.648,-0.07072
7.652,-0.0951
7.656,-0.15092
7.66,-0.13345
7.664,-0.082
7.668,0.10034
7.672,0.28947
7.676,0.50606
7.68,0.69729
7.684,0.87666
7.688,0.94984
7.692,0.94967
7.696,0.82148
7.7,0.63127
7.704,0.40318
7.708,0.17886
7.712,0.01076
7.716,-0.1256
7.72,-0.17636
7.724,-0.19148
7.728,-0.13643
7.732,-0.11174
7.736,-0.08063
7.74,-0.03117
7.744,-0.01729
7.748,-0.01777
7.752,-0.03591
7.756,-0.00289
7.76,-0.01574
7.764,-0.01005
7.768,-0.01239
7.772,-0.02082
7.776,-0.03419
7.78,-0.00962
7.784,-0.04955
7.788,-0.01117
7.792,-0.04082
7.796,-0.01813
7.8,-0.0272
7.804,-0.02647
7.808,0.00487
7.812,-0.00074
7.816,-0.00646
7.82,0.03583
7.824,-0.03436
7.828,-0.01034
7.832,-0.02404
7.836,-0.03098
7.84,-0.0048
7.844,-0.02836
7.848,0.01278
7.852,-0.01162
7.856,0.01603
7.86,0.00632
7.864,-0.02127
7.868,-0.00986
7.872,0.0144
7.876,0.02629
7.88,0.03299
7.884,-0.00901
7.888,0.00802
7.892,0.03443
7.896,0.0415
7.9,0.03192
7.904,0.04105
7.908,0.05808
7.912,0.06745
7.916,0.10238
7.92,0.09334
7.924,0.1051
7.928,0.12743
7.932,0.1482
7.936,0.18021
7.94,0.16273
7.944,0.17483
7.948,0.1659
7.952,0.19348
7.956,0.20497
7.96,0.20698
7.964,0.1952
7.968,0.20265
7.972,0.20223
7.976,0.20435
7.98,0.16643
7.984,0.18905
7.988,0.16335
7.992,0.16406
7.996,0.18856
8.0,0.16297
8.004,0.15304
8.008,0.15346
8.012,0.12044
8.016,0.11761
8.02,0.08492
8.024,0.06414
8.028,0.09914
8.032,0.04933
8.036,0.04677
8.04,0.03656
8.044,0.02163
8.048,0.02882
8.052,0.05459
8.056,0.02725
8.06,0.03228
8.064,0.03346
8.068,0.00639
8.072,0.01012
8.076,0.00129
8.08,0.00331
8.084,-0.00015
8.088,-0.01265
8.092,-0.01789
8.096,0.00066
8.1,-0.00748
8.104,-0.00411
8.108,0.00914
8.112,-0.02585
8.116,0.00497
8.12,-0.03195
8.124,-0.01499
8.128,-0.03312
8.132,-0.01392
8.136,-0.0005
8.14,-0.03256
8.144,-0.00504
8.148,-0.01957
8.152,-0.04223
8.156,-0.02136
8.16,0.00135
8.164,-0.02532
8.168,-0.01163
8.172,-0.02206
8.176,-0.02497
8.18,-0.03038
8.184,-0.00052
8.188,-0.02748
8.192,-0.00252
8.196,-0.00358
8.2,-0.00975
8.204,-0.0012
8.208,-0.02961
8.212,-0.00429
8.216,-0.03243
8.22,0.00819
8.224,0.0015
8.228,-0.00831
8.232,0.00984
8.236,-0.02217
8.24,-0.00851
8.244,-0.0006
8.248,-0.01468
8.252,-0.01132
8.256,-0.01765
8.26,-0.00197
8.264,-0.00853
8.268,-0.01657
8.272,0.01071
8.276,-0.0048
8.28,-0.02093
8.284,0.00342
8.288,-0.04673
8.292,-0.01835
8.296,-0.03674
8.3,-0.01685
8.304,0.0063
8.308,-0.00417
8.312,-0.01122
8.316,0.00931
8.32,-0.01552
8.324,0.01217
8.328,-0.01412
8.332,-0.02924
8.336,-0.01311
8.34,-0.00124
8.344,-0.02739
8.348,-0.01367
8.352,0.00616
8.356,-0.0099
8.36,-0.0068
8.364,-0.01274
8.368,-0.01559
8.372,0.01315
8.376,-0.01495
8.38,-0.00044
8.384,-0.01844
8.388,0.02099
8.392,0.00102
8.396,-0.01373
8.4,-0.01971
8.404,-0.00752
8.408,0.00689
8.412,-0.01397
8.416,-0.02276
8.42,-0.00298
8.424,-0.017
8.428,0.02537
8.432,0.0133
8.436,0.00795
8.44,0.02606
8.444,-0.01172
8.448,-0.0159
8.452,-0.02265
8.456,-0.02338
8.46,0.01205
8.464,0.00052
8.468,0.01116
8.472,0.02294
8.476,-0.02683
8.48,-0.01032
8.484,0.01257
8.488,0.01716
8.492,-0.01045
8.496,0.01372
8.5,0.03306
8.504,0.01869
8.508,0.02616
8.512,0.04115
8.516,0.055
8.52,0.0767
8.524,0.08512
8.528,0.0898
8.532,0.09516
8.536,0.11667
8.54,0.09362
8.544,0.07637
8.548,0.09855
8.552,0.06095
8.556,0.06608
8.56,0.01929
8.564,0.02147
8.568,0.01719
8.572,0.03727
8.576,0.00348
8.58,0.02402
8.584,0.00763
8.588,0.00776
8.592,0.0094
8.596,0.0035
8.6,-0.00596
8.604,-0.00915
8.608,0.0029
8.612,0.01537
8.616,-0.01858
8.62,0.01609
8.624,0.00156
8.628,-0.00256
8.632,-0.00825
8.636,-0.00514
8.64,-0.00568
8.644,-0.01228
8.648,-0.02684
8.652,-0.00842
8.656,-0.05964
8.66,-0.15748
8.664,-0.11229
8.668,-0.08438
8.672,0.03326
8.676,0.18393
8.68,0.3708
8.684,0.58561
8.688,0.8006
8.692,0.97753
8.696,0.98303
8.7,0.94924
8.704,0.8046
8.708,0.56812
8.712,0.36174
8.716,0.13277
8.72,-0.04224
8.724,-0.15099
8.728,-0.15807
8.732,-0.16283
8.736,-0.11645
8.74,-0.07601
8.744,-0.03577
8.748,-0.02765
8.752,0.00844
8.756,-0.02181
8.76,-0.01744
8.764,0.01909
8.768,-0.01089
8.772,0.03289
8.776,0.00764
8.78,0.00723
8.784,0.01535
8.788,0.02647
8.792,0.04025
8.796,0.01633
8.8,0.00318
8.804,-0.02008
8.808,0.04723
8.812,0.01759
8.816,0.01289
8.82,-0.00858
8.824,0.00082
8.828,-0.00023
8.832,0.00438
8.836,-0.01941
8.84,0.01653
8.844,0.00456
8.848,-0.01232
8.852,0.01321
8.856,0.00226
8.86,0.02908
8.864,0.0136
8.868,0.00155
8.872,-0.00617
8.876,0.02457
8.88,0.02013
8.884,0.02156
8.888,0.02778
8.892,0.06084
8.896,0.07058
8.9,0.03163
8.904,0.07041
8.908,0.07748
8.912,0.07466
8.916,0.10679
8.92,0.11105
8.924,0.13138
8.928,0.13422
8.932,0.14991
8.936,0.18205
8.94,0.18604
8.944,0.18399
8.948,0.19924
8.952,0.23525
8.956,0.22166
8.96,0.19257
8.964,0.19062
8.968,0.22693
8.972,0.21427
8.976,0.22876
8.98,0.2293
8.984,0.26384
8.988,0.21363
8.992,0.24172
8.996,0.21846
9.0,0.17922
9.004,0.18586
9.008,0.20108
9.012,0.18282
9.016,0.15639
9.02,0.13615
9.024,0.13678
9.028,0.11789
9.032,0.10936
9.036,0.0719
9.04,0.11634
9.044,0.08591
9.048,0.05109
9.052,0.0913
9.056,0.03163
9.06,0.0531
9.064,0.03757
9.068,0.02886
9.072,0.03948
9.076,0.03193
9.08,0.02838
9.084,0.04517
9.088,0.0218
9.092,0.02318
9.096,0.01134
9.1,0.01931
9.104,0.01812
9.108,0.03083
9.112,0.01938
9.116,-0.00805
9.12,0.02153
9.124,0.00849
9.128,0.03584
9.132,0.02555
9.136,0.02293
9.14,0.02375
9.144,0.01547
9.148,0.02595
9.152,0.00683
9.156,0.02238
9.16,0.03876
9.164,0.0471
9.168,0.0093
9.172,0.00819
9.176,0.01687
9.18,0.02268
9.184,-0.0065
9.188,0.01717
9.192,0.00797
9.196,-0.00833
9.2,0.00241
9.204,0.02762
9.208,0.01855
9.212,0.01334
9.216,0.04267
9.22,-0.01426
9.224,0.02378
9.228,0.03033
9.232,0.00202
9.236,0.03673
9.24,0.03455
9.244,0.01403
9.248,0.00231
9.252,0.03403
9.256,0.03143
9.26,0.02147
9.264,0.0208
9.268,0.00631
9.272,0.02421
9.276,0.00593
9.28,0.01345
9.284,-0.00656
9.288,0.00667
9.292,0.00813
9.296,0.03037
9.3,0.02383
9.304,0.02214
9.308,0.04347
9.312,0.0161
9.316,0.00687
9.32,0.0205
9.324,0.01595
9.328,0.00078
9.332,0.01298
9.336,0.04075
9.34,0.00632
9.344,0.01676
9.348,0.02231
9.352,0.01843
9.356,0.01823
9.36,0.01714
9.364,0.02667
9.368,0.02683
9.372,0.02587
9.376,0.03559
9.38,0.00481
9.384,0.02789
9.388,0.03353
9.392,0.02323
9.396,0.00419
9.4,0.0262
9.404,0.03776
9.408,0.03074
9.412,0.00939
9.416,0.01209
9.42,0.02914
9.424,0.02426
9.428,0.0092
9.432,0.00333
9.436,-0.00879
9.44,0.03265
9.444,0.01778
9.448,0.03538
9.452,0.02389
9.456,0.03915
9.46,0.04849
9.464,0.05392
9.468,0.04124
9.472,0.07264
9.476,0.09745
9.48,0.11712
9.484,0.0829
9.488,0.13927
9.492,0.14587
9.496,0.09843
9.5,0.10535
9.504,0.11493
9.508,0.09434
9.512,0.07877
9.516,0.09264
9.52,0.06731
9.524,0.09531
9.528,0.03679
9.532,0.06886
9.536,0.03591
9.54,0.02316
9.544,-0.00209
9.548,0.02606
9.552,0.01352
9.556,0.00468
9.56,0.02906
9.564,-0.0063
9.568,0.03897
9.572,0.0132
9.576,0.05638
9.58,0.03077
9.584,-0.00551
9.588,0.01452
9.592,0.02361
9.596,0.03817
9.6,0.04891
9.604,0.01857
9.608,0.01342
9.612,-0.00935
9.616,-0.03235
9.62,-0.08566
9.624,-0.11149
9.628,-0.05643
9.632,0.04365
9.636,0.21912
9.64,0.39521
9.644,0.5971
9.648,0.82572
9.652,0.965
9.656,1.03879
9.66,0.98762
9.664,0.80368
9.668,0.60222
9.672,0.34266
9.676,0.16333
9.68,0.02018
9.684,-0.0789
9.688,-0.13551
9.692,-0.13334
9.696,-0.08974
9.7,-0.0713
9.704,-0.01708
9.708,-0.01011
9.712,0.05213
9.716,0.03383
9.72,0.05894
9.724,0.01732
9.728,0.04992
9.732,0.00539
9.736,0.01129
9.74,0.04216
9.744,0.03722
9.748,0.01022
9.752,0.01577
9.756,0.02701
9.76,0.05184
9.764,0.03381
9.768,0.05051
9.772,0.01768
9.776,0.02843
9.78,0.04538
9.784,0.03232
9.788,0.01034
9.792,0.0261
9.796,0.02878
9.8,0.0158
9.804,0.04808
9.808,0.02099
9.812,0.04876
9.816,0.00179
9.82,0.04466
9.824,0.03157
9.828,0.03275
9.832,0.04506
9.836,0.06138
9.84,0.05266
9.844,0.06474
9.848,0.05563
9.852,0.08355
9.856,0.04704
9.86,0.06566
9.864,0.12808
9.868,0.10422
9.872,0.09725
9.876,0.14656
9.88,0.10438
9.884,0.15771
9.888,0.15266
9.892,0.15988
9.896,0.14812
9.9,0.18897
9.904,0.18879
9.908,0.21311
9.912,0.21119
9.916,0.22913
9.92,0.24264
9.924,0.23164
9.928,0.23087
9.932,0.24212
9.936,0.23506
9.94,0.23257
9.944,0.25164
9.948,0.21782
9.952,0.24531
9.956,0.2262
9.96,0.22674
9.964,0.2293
9.968,0.15967
9.972,0.18671
9.976,0.18698
9.98,0.14452
9.984,0.15713
9.988,0.15208
9.992,0.10212
9.996,0.11277
