t_seg,ecg_mV
0.0,0.04207
0.004,-0.03504
0.008,-0.05659
0.012,-0.01711
0.016,0.045
0.02,-0.02692
0.024,-0.0361
0.028,-0.05074
0.032,-0.06598
0.036,-0.06675
0.04,0.07174
0.044,-0.05333
0.048,-0.07033
0.052,-0.03734
0.056,-0.00272
0.06,-0.06671
0.064,-0.0543
0.068,-0.03126
0.072,-3e-05
0.076,-0.0722
0.08,-0.02195
0.084,0.03445
0.088,-0.06273
0.092,-0.07017
0.096,-0.01721
0.1,-0.00362
0.104,-0.04217
0.108,-0.02895
0.112,-0.00927
0.116,-0.00157
0.12,-0.02726
0.124,-0.00076
0.128,-0.09233
0.132,-0.02102
0.136,-0.05872
0.14,-0.00458
0.144,-0.02484
0.148,0.02968
0.152,-0.02092
0.156,-0.02028
0.16,-0.01464
0.164,0.0002
0.168,-0.03658
0.172,-0.0687
0.176,-0.05983
0.18,-0.00894
0.184,0.03297
0.188,-0.0558
0.192,0.00025
0.196,-0.0756
0.2,-0.00138
0.204,-0.04231
0.208,-0.02779
0.212,0.01997
0.216,0.04761
0.22,-0.0384
0.224,-0.06308
0.228,-0.05904
0.232,-0.01446
0.236,-0.03264
0.24,-0.04485
0.244,-0.06049
0.248,-0.0331
0.252,-0.04993
0.256,0.01083
0.26,-0.03913
0.264,0.02433
0.268,0.00579
0.272,0.00169
0.276,-0.01652
0.28,-0.07209
0.284,0.00368
0.288,0.0198
0.292,-0.03084
0.296,-0.06867
0.3,-0.05813
0.304,-0.04772
0.308,-0.04558
0.312,0.06268
0.316,0.01813
0.32,0.06352
0.324,0.0115
0.328,0.0818
0.332,0.08023
0.336,0.10189
0.34,0.04641
0.344,0.06363
0.348,0.03536
0.352,0.00434
0.356,0.0068
0.36,0.03164
0.364,0.01016
0.368,-0.01946
0.372,-0.02483
0.376,0.02548
0.38,0.00507
0.384,0.01053
0.388,-0.00597
0.392,-0.02368
0.396,0.00832
0.4,-0.02746
0.404,-0.03685
0.408,-0.02207
0.412,-0.00388
0.416,-0.05972
0.42,-0.04
0.424,-0.06759
0.428,-0.02414
0.432,-0.03822
0.436,0.02127
0.44,-0.06633
0.444,-0.02879
0.448,0.02886
0.452,0.03981
0.456,-0.13176
0.46,-0.06092
0.464,-0.17039
0.468,-0.17963
0.472,-0.13419
0.476,-0.09025
0.48,0.06635
0.484,0.09358
0.488,0.26298
0.492,0.39468
0.496,0.51236
0.5,0.52586
0.504,0.57853
0.508,0.42838
0.512,0.33349
0.516,0.21083
0.52,0.09282
0.524,-0.08217
0.528,-0.14347
0.532,-0.13381
0.536,-0.24509
0.54,-0.15872
0.544,-0.11981
0.548,-0.1745
0.552,-0.1041
0.556,-0.05422
0.56,-0.03756
0.564,-0.07932
0.568,-0.04179
0.572,-0.01927
0.576,-0.01916
0.58,-0.01242
0.584,-0.02485
0.588,0.0228
0.592,-0.07301
0.596,0.015
0.6,0.00973
0.604,-0.01278
0.608,0.02069
0.612,-0.04978
0.616,0.00506
0.62,0.00477
0.624,-0.07763
0.628,-0.04245
0.632,-0.07355
0.636,-0.03163
0.64,-0.06068
0.644,-0.04756
0.648,-0.05575
0.652,0.00276
0.656,-0.00137
0.66,0.01486
0.664,0.008
0.668,-0.05081
0.672,-0.03223
0.676,-0.01085
0.68,0.00302
0.684,-0.01977
0.688,-0.01413
0.692,0.00093
0.696,0.04055
0.7,-0.01898
0.704,0.06981
0.708,0.01841
0.712,0.04649
0.716,0.03695
0.72,0.07382
0.724,0.10559
0.728,0.1311
0.732,0.07584
0.736,0.10915
0.74,0.14329
0.744,0.13235
0.748,0.08519
0.752,0.20656
0.756,0.15577
0.76,0.20624
0.764,0.1766
0.768,0.27286
0.772,0.17481
0.776,0.21699
0.78,0.2507
0.784,0.21356
0.788,0.13763
0.792,0.19335
0.796,0.15419
0.8,0.20372
0.804,0.14621
0.808,0.12042
0.812,0.1467
0.816,0.21078
0.82,0.20727
0.824,0.10865
0.828,0.13535
0.832,0.11746
0.836,0.04344
0.84,0.09022
0.844,0.03975
0.848,0.08366
0.852,0.09607
0.856,0.05855
0.86,0.08613
0.864,0.10721
0.868,0.02852
0.872,0.05625
0.876,0.06353
0.88,0.0772
0.884,0.14831
0.888,0.10073
0.892,0.12029
0.896,0.08822
0.9,0.05771
0.904,0.0673
0.908,0.06001
0.912,-0.01086
0.916,-0.00847
0.92,0.00451
0.924,-0.04167
0.928,-0.02623
0.932,-0.03402
0.936,0.02183
0.94,-0.03104
0.944,0.04789
0.948,-0.0579
0.952,-0.03198
0.956,-0.02946
0.96,0.00273
0.964,-0.08817
0.968,0.00815
0.972,0.00238
0.976,-0.0172
0.98,-0.01732
0.984,-0.07794
0.988,-0.01701
0.992,-0.04994
0.996,0.00274
1.0,-0.05217
1.004,-0.06955
1.008,-0.11577
1.012,-0.13431
1.016,-0.1224
1.02,-0.0675
1.024,-0.00362
1.028,0.13011
1.032,0.35972
1.036,0.51871
1.04,0.80658
1.044,0.9045
1.048,0.9353
1.052,0.90547
1.056,0.78124
1.06,0.56115
1.064,0.33079
1.068,0.15422
1.072,-0.06362
1.076,-0.14406
1.08,-0.20743
1.084,-0.23257
1.088,-0.17971
1.092,-0.09995
1.096,-0.07622
1.1,-0.06299
1.104,-0.01888
1.108,-0.06272
1.112,-0.0474
1.116,-0.0394
1.12,0.047
1.124,-0.05548
1.128,-0.0719
1.132,-0.05325
1.136,-0.01065
1.14,-0.02209
1.144,0.0423
1.148,0.04306
1.152,0.00277
1.156,-0.04028
1.16,0.00965
1.164,-0.0355
1.168,0.00634
1.172,-0.07875
1.176,-0.03943
1.18,0.0011
1.184,0.0121
1.188,-0.03589
1.192,-0.05281
1.196,0.03435
1.2,-0.05242
1.204,-0.04947
1.208,0.01279
1.212,-0.03793
1.216,0.01225
1.22,0.02422
1.224,-0.00062
1.228,-0.01112
1.232,-0.0205
1.236,-0.03416
1.24,0.03186
1.244,0.04461
1.248,0.00329
1.252,-0.00889
1.256,0.02122
1.26,0.04588
1.264,0.04563
1.268,0.06677
1.272,0.05546
1.276,0.08089
1.28,0.15912
1.284,0.10343
1.288,0.14062
1.292,0.21156
1.296,0.16425
1.3,0.12102
1.304,0.15376
1.308,0.15786
1.312,0.22216
1.316,0.19996
1.32,0.18315
1.324,0.1779
1.328,0.20015
1.332,0.26156
1.336,0.22734
1.34,0.16214
1.344,0.14769
1.348,0.20586
1.352,0.14827
1.356,0.15038
1.36,0.11845
1.364,0.21743
1.368,0.14394
1.372,0.12193
1.376,0.12712
1.38,0.0832
1.384,0.09436
1.388,0.07725
1.392,0.05218
1.396,0.1115
1.4,0.03829
1.404,0.04573
1.408,0.05918
1.412,0.06078
1.416,0.03304
1.42,0.02664
1.424,0.01688
1.428,0.02483
1.432,0.06405
1.436,-0.01923
1.44,-0.03571
1.444,0.02067
1.448,-0.03516
1.452,0.04729
1.456,-0.02338
1.46,0.0033
1.464,0.01637
1.468,-0.00278
1.472,-0.06335
1.476,0.05283
1.48,-0.02566
1.484,-0.02046
1.488,-0.01615
1.492,-0.01048
1.496,-0.00149
1.5,-0.04758
1.504,-0.06904
1.508,-0.04762
1.512,-0.02962
1.516,-0.02334
1.52,-0.05276
1.524,-0.00327
1.528,-0.09128
1.532,-0.05218
1.536,-0.0461
1.54,-0.00636
1.544,-0.00268
1.548,-0.08192
1.552,-0.03674
1.556,0.05184
1.56,-0.05009
1.564,-0.08803
1.568,-0.02499
1.572,0.05161
1.576,-0.02674
1.58,-0.04127
1.584,-0.02335
1.588,-0.00579
1.592,-0.00632
1.596,-0.01441
1.6,0.04496
1.604,-0.04009
1.608,0.00529
1.612,-0.0046
1.616,0.00192
1.62,0.01251
1.624,0.04577
1.628,0.00651
1.632,0.03516
1.636,0.05534
1.64,0.02813
1.644,0.02299
1.648,0.09849
1.652,0.07278
1.656,0.11161
1.66,0.11088
1.664,0.0869
1.668,0.07358
1.672,0.12119
1.676,0.10124
1.68,0.06075
1.684,-0.01217
1.688,0.05648
1.692,0.01095
1.696,0.06594
1.7,-0.03862
1.704,-0.03776
1.708,0.00179
1.712,-0.02275
1.716,-0.02051
1.72,-0.00044
1.724,-0.03424
1.728,-0.0187
1.732,-0.02707
1.736,-0.09943
1.74,-0.05249
1.744,-0.03131
1.748,-0.0354
1.752,-0.003
1.756,0.0247
1.76,-0.03192
1.764,0.01113
1.768,-0.00554
1.772,-0.08471
1.776,-0.07091
1.78,-0.14971
1.784,-0.10943
1.788,0.02224
1.792,0.09307
1.796,0.25825
1.8,0.43978
1.804,0.68202
1.808,0.82686
1.812,1.0274
1.816,0.95948
1.82,0.91135
1.824,0.73642
1.828,0.39624
1.832,0.19359
1.836,-0.01435
1.84,-0.11851
1.844,-0.19276
1.848,-0.18313
1.852,-0.11467
1.856,-0.06913
1.86,0.00751
1.864,0.00576
1.868,-0.05985
1.872,0.03055
1.876,0.02747
1.88,-0.01347
1.884,-0.04839
1.888,0.01526
1.892,0.01084
1.896,-0.01961
1.9,0.0191
1.904,-0.03847
1.908,-0.04468
1.912,-0.00584
1.916,-0.0404
1.92,0.04263
1.924,0.00011
1.928,0.02985
1.932,0.01765
1.936,0.03063
1.94,0.02891
1.944,0.02135
1.948,0.00358
1.952,0.12407
1.956,0.00109
1.96,0.03294
1.964,-0.01296
1.968,0.04965
1.972,0.07784
1.976,-0.00593
1.98,0.03372
1.984,0.03827
1.988,0.03058
1.992,0.08732
1.996,0.07518
2.0,0.09328
2.004,0.07016
2.008,0.09173
2.012,0.10911
2.016,0.15627
2.02,0.14954
2.024,0.20203
2.028,0.15526
2.032,0.14539
2.036,0.11613
2.04,0.23359
2.044,0.27311
2.048,0.21866
2.052,0.19283
2.056,0.13951
2.06,0.17543
2.064,0.1683
2.068,0.23391
2.072,0.23056
2.076,0.25721
2.08,0.19754
2.084,0.21326
2.088,0.16069
2.092,0.2088
2.096,0.26769
2.1,0.2204
2.104,0.18126
2.108,0.23413
2.112,0.19938
2.116,0.21886
2.12,0.22364
2.124,0.11794
2.128,0.17881
2.132,0.18824
2.136,0.16022
2.14,0.05703
2.144,0.07152
2.148,0.0961
2.152,0.04228
2.156,-0.00028
2.16,0.06559
2.164,0.13
2.168,0.34268
2.172,0.53101
2.176,0.76648
2.18,0.83964
2.184,1.02052
2.188,1.03217
2.192,0.89942
2.196,0.7163
2.2,0.48837
2.204,0.25068
2.208,0.03485
2.212,-0.05745
2.216,-0.12409
2.22,-0.11274
2.224,-0.10833
2.228,-0.01863
2.232,-0.03492
2.236,-0.00981
2.24,0.00308
2.244,0.05306
2.248,-0.01519
2.252,-0.03958
2.256,-0.03875
2.26,0.02998
2.264,-0.00436
2.268,-0.03601
2.272,-0.01599
2.276,0.05797
2.28,-0.02475
2.284,0.01022
2.288,0.03664
2.292,-0.01523
2.296,0.02041
2.3,0.0153
2.304,0.03047
2.308,0.00902
2.312,0.01983
2.316,-0.00608
2.32,-0.01503
2.324,0.02842
2.328,0.03592
2.332,-0.00704
2.336,0.00953
2.34,0.08384
2.344,0.03744
2.348,0.03241
2.352,-0.00424
2.356,0.02961
2.36,0.04179
2.364,-0.00624
2.368,-0.00031
2.372,0.02671
2.376,0.06208
2.38,0.0446
2.384,0.01194
2.388,0.06105
2.392,0.04007
2.396,0.14918
2.4,0.11992
2.404,0.15351
2.408,0.14538
2.412,0.02889
2.416,0.14518
2.42,0.17569
2.424,0.1548
2.428,0.14018
2.432,0.17045
2.436,0.17749
2.44,0.18838
2.444,0.23295
2.448,0.16351
2.452,0.19937
2.456,0.25688
2.46,0.29552
2.464,0.26208
2.468,0.24449
2.472,0.19115
2.476,0.24125
2.48,0.24421
2.484,0.19306
2.488,0.15915
2.492,0.19759
2.496,0.18377
2.5,0.20804
2.504,0.17019
2.508,0.13148
2.512,0.13025
2.516,0.13718
2.52,0.13292
2.524,0.07261
2.528,0.12497
2.532,0.132
2.536,0.05037
2.54,0.13341
2.544,0.02871
2.548,0.04072
2.552,-0.03019
2.556,0.07765
2.56,0.09476
2.564,0.05033
2.568,0.03676
2.572,0.00783
2.576,0.04231
2.58,0.06208
2.584,0.0095
2.588,0.02479
2.592,-0.00202
2.596,0.01558
2.6,-0.00568
2.604,0.09013
2.608,0.04524
2.612,-0.062
2.616,-0.0394
2.62,0.00715
2.624,-0.02133
2.628,0.04368
2.632,0.02323
2.636,0.06269
2.64,0.06132
2.644,0.02279
2.648,0.04447
2.652,0.06319
2.656,0.00787
2.66,-0.01674
2.664,0.03628
2.668,0.02267
2.672,-0.02055
2.676,0.04812
2.68,0.05402
2.684,0.1072
2.688,0.03355
2.692,-0.01351
2.696,-0.01113
2.7,0.04862
2.704,-0.04201
2.708,-0.01541
2.712,-0.00538
2.716,0.05152
2.72,-0.0165
2.724,-0.00371
2.728,0.01936
2.732,0.01152
2.736,0.04608
2.74,0.07099
2.744,0.03753
2.748,-0.01166
2.752,0.02783
2.756,0.02306
2.76,0.02693
2.764,0.03798
2.768,-0.02664
2.772,0.0258
2.776,0.02418
2.78,-0.01436
2.784,0.11092
2.788,-0.01532
2.792,0.03422
2.796,-0.04901
2.8,0.00415
2.804,0.00518
2.808,-0.02127
2.812,0.04678
2.816,-0.01253
2.82,0.02004
2.824,0.0303
2.828,0.02598
2.832,0.01734
2.836,0.00413
2.84,0.03939
2.844,0.0235
2.848,0.07342
2.852,0.02181
2.856,0.06139
2.86,-0.08935
2.864,-0.01205
2.868,0.02118
2.872,0.01232
2.876,0.04384
2.88,0.034
2.884,-0.02463
2.888,0.03543
2.892,0.01665
2.896,0.0224
2.9,-0.03267
2.904,0.02369
2.908,0.02959
2.912,0.00325
2.916,0.07109
2.92,-0.03346
2.924,0.01365
2.928,0.01152
2.932,0.02728
2.936,0.00919
2.94,0.08227
2.944,0.05662
2.948,0.08169
2.952,0.09223
2.956,0.04017
2.96,0.11063
2.964,0.10309
2.968,0.12127
2.972,0.08789
2.976,0.17182
2.98,0.05595
2.984,0.14715
2.988,0.1081
2.992,0.12996
2.996,0.14697
3.0,0.12218
3.004,0.04381
3.008,0.06252
3.012,0.08511
3.016,0.0286
3.02,-0.01236
3.024,-0.00879
3.028,0.00039
3.032,0.05058
3.036,0.01138
3.04,0.05161
3.044,0.02938
3.048,0.06259
3.052,-0.03543
3.056,-0.0212
3.06,0.00545
3.064,0.07221
3.068,0.03238
3.072,0.01403
3.076,0.02506
3.08,0.02778
3.084,0.01414
3.088,0.00073
3.092,-0.0517
3.096,0.01423
3.1,0.02871
3.104,-0.08254
3.108,-0.0744
3.112,-0.05031
3.116,-0.01739
3.12,0.03423
3.124,0.30338
3.128,0.50085
3.132,0.69748
3.136,0.88365
3.14,1.05015
3.144,0.98998
3.148,0.91529
3.152,0.78319
3.156,0.56026
3.16,0.26488
3.164,0.06339
3.168,-0.07399
3.172,-0.09796
3.176,-0.19021
3.18,-0.13236
3.184,-0.11213
3.188,-0.06807
3.192,0.02978
3.196,0.01346
3.2,0.03953
3.204,-0.03602
3.208,-0.00697
3.212,-0.01324
3.216,0.01446
3.22,0.034
3.224,0.02602
3.228,-0.06223
3.232,0.05535
3.236,0.07763
3.24,-0.00873
3.244,0.04992
3.248,0.11986
3.252,0.01182
3.256,0.00504
3.26,0.01073
3.264,0.03564
3.268,0.05245
3.272,0.07962
3.276,-0.02848
3.28,0.0317
3.284,0.01228
3.288,-0.02036
3.292,-0.0402
3.296,0.07966
3.3,-0.00259
3.304,-0.01786
3.308,-0.023
3.312,-0.04415
3.316,0.03783
3.32,0.02517
3.324,0.04256
3.328,0.10485
3.332,0.07774
3.336,0.06932
3.34,0.0333
3.344,0.01458
3.348,0.06621
3.352,0.12594
3.356,0.12282
3.36,0.141
3.364,0.09686
3.368,0.15135
3.372,0.17406
3.376,0.12154
3.38,0.17271
3.384,0.17104
3.388,0.2017
3.392,0.20555
3.396,0.26105
3.4,0.22881
3.404,0.20174
3.408,0.27311
3.412,0.22831
3.416,0.19417
3.42,0.23808
3.424,0.29584
3.428,0.28959
3.432,0.2351
3.436,0.22935
3.44,0.25196
3.444,0.15834
3.448,0.3024
3.452,0.19157
3.456,0.2503
3.46,0.11481
3.464,0.14744
3.468,0.18244
3.472,0.16944
3.476,0.13844
3.48,0.11662
3.484,0.10947
3.488,0.11469
3.492,0.08079
3.496,0.07136
3.5,0.09298
3.504,0.08911
3.508,0.07235
3.512,0.03203
3.516,0.03894
3.52,0.06559
3.524,0.04174
3.528,0.06701
3.532,0.07653
3.536,0.03443
3.54,0.01617
3.544,0.07002
3.548,0.06786
3.552,0.05473
3.556,0.02652
3.56,0.08197
3.564,0.05993
3.568,0.06967
3.572,0.11038
3.576,0.12583
3.58,0.09168
3.584,0.15548
3.588,0.09658
3.592,0.15197
3.596,0.05647
3.6,0.09429
3.604,0.07864
3.608,0.13843
3.612,0.02875
3.616,0.0427
3.62,0.0306
3.624,0.05591
3.628,0.0511
3.632,0.08472
3.636,-0.00137
3.64,-0.01046
3.644,0.00111
3.648,0.03751
3.652,0.11994
3.656,0.05248
3.66,0.02276
3.664,-0.02543
3.668,-0.01281
3.672,0.01742
3.676,0.03324
3.68,-0.01369
3.684,0.04473
3.688,-0.03463
3.692,0.08283
3.696,-0.02749
3.7,0.01811
3.704,-0.06136
3.708,-0.08597
3.712,-0.12278
3.716,-0.0972
3.72,0.07269
3.724,0.21014
3.728,0.4263
3.732,0.55325
3.736,0.87422
3.74,0.95574
3.744,1.06481
3.748,0.97713
3.752,0.78829
3.756,0.63365
3.76,0.36793
3.764,0.12618
3.768,-0.04773
3.772,-0.10406
3.776,-0.13775
3.78,-0.12538
3.784,-0.10137
3.788,-0.06458
3.792,-0.04033
3.796,0.00123
3.8,0.05698
3.804,0.02873
3.808,-0.02955
3.812,-0.0378
3.816,0.00794
3.82,0.05982
3.824,0.05172
3.828,-0.00237
3.832,0.04618
3.836,0.01685
3.84,0.03839
3.844,-0.01852
3.848,-0.00355
3.852,0.04801
3.856,-0.03231
3.86,0.08138
3.864,0.07456
3.868,0.05445
3.872,0.01911
3.876,0.061
3.88,0.01848
3.884,0.06664
3.888,0.07084
3.892,-0.00233
3.896,-0.00432
3.9,-0.01478
3.904,0.01411
3.908,0.08185
3.912,0.01278
3.916,0.04559
3.92,0.02613
3.924,0.00543
3.928,0.08214
3.932,0.06959
3.936,0.05273
3.94,0.05075
3.944,0.03251
3.948,0.02869
3.952,0.05702
3.956,0.04683
3.96,0.14023
3.964,0.13308
3.968,0.12187
3.972,0.16677
3.976,0.1274
3.98,0.16578
3.984,0.18686
3.988,0.23789
3.992,0.21118
3.996,0.20778
4.0,0.22897
4.004,0.23794
4.008,0.26104
4.012,0.1789
4.016,0.28983
4.02,0.24899
4.024,0.24166
4.028,0.26714
4.032,0.30874
4.036,0.17454
4.04,0.31664
4.044,0.19207
4.048,0.22861
4.052,0.22714
4.056,0.21227
4.06,0.18981
4.064,0.16909
4.068,0.07979
4.072,0.13578
4.076,0.1179
4.08,0.11537
4.084,0.1037
4.088,0.1217
4.092,0.12299
4.096,0.02262
4.1,0.01
4.104,0.06951
4.108,0.05681
4.112,0.06014
4.116,0.00812
4.12,0.08956
4.124,0.07019
4.128,0.09134
4.132,0.02384
4.136,-0.0327
4.14,0.00379
4.144,0.03488
4.148,-0.00953
4.152,-0.01405
4.156,0.07235
4.16,0.06856
4.164,0.04879
4.168,0.04847
4.172,0.0535
4.176,0.05171
4.18,0.02411
4.184,0.03071
4.188,-0.03614
4.192,0.01696
4.196,-0.00295
4.2,0.03292
4.204,0.03918
4.208,0.0104
4.212,0.06269
4.216,0.04309
4.22,0.04316
4.224,0.06958
4.228,0.07713
4.232,0.04595
4.236,0.05308
4.24,0.00762
4.244,0.06437
4.248,0.04441
4.252,0.02433
4.256,-0.00393
4.26,0.0352
4.264,0.05376
4.268,0.05569
4.272,-0.00044
4.276,0.03963
4.28,0.07557
4.284,0.04374
4.288,0.06081
4.292,0.09828
4.296,0.17172
4.3,0.02806
4.304,0.1091
4.308,0.10912
4.312,0.10702
4.316,0.14913
4.32,0.12436
4.324,0.18045
4.328,0.15756
4.332,0.15196
4.336,0.12258
4.34,0.06858
4.344,0.01586
4.348,0.1095
4.352,0.01991
4.356,0.09656
4.36,0.06127
4.364,0.07801
4.368,0.0335
4.372,-0.03805
4.376,-0.00472
4.38,0.02137
4.384,0.01002
4.388,0.04415
4.392,0.05504
4.396,-0.02271
4.4,0.00062
4.404,-0.01348
4.408,0.08298
4.412,0.07385
4.416,-0.00771
4.42,0.05896
4.424,-0.0244
4.428,0.02797
4.432,0.00801
4.436,0.08567
4.44,-0.01086
4.444,0.00139
4.448,-0.08484
4.452,-0.05807
4.456,-0.03754
4.46,0.06156
4.464,0.21997
4.468,0.40797
4.472,0.65683
4.476,0.89982
4.48,0.90833
4.484,1.07874
4.488,0.94547
4.492,0.81812
4.496,0.5585
4.5,0.33337
4.504,0.0742
4.508,-0.04435
4.512,-0.1313
4.516,-0.12686
4.52,-0.15287
4.524,-0.10758
4.528,-0.03264
4.532,0.00077
4.536,-0.02844
4.54,-0.02983
4.544,0.03835
4.548,0.06741
4.552,0.04659
4.556,0.03907
4.56,0.0503
4.564,-0.03568
4.568,0.0336
4.572,0.0216
4.576,0.03919
4.58,0.00226
4.584,-0.00969
4.588,0.04244
4.592,0.01153
4.596,0.02715
4.6,0.06283
4.604,0.05995
4.608,0.0577
4.612,-0.02652
4.616,0.06647
4.62,0.066
4.624,0.09928
4.628,0.07216
4.632,-0.02992
4.636,0.13288
4.64,0.0629
4.644,0.01029
4.648,-0.00661
4.652,0.00902
4.656,0.00052
4.66,0.04299
4.664,0.05555
4.668,0.07069
4.672,0.11053
4.676,0.05109
4.68,0.07858
4.684,0.00368
4.688,0.07218
4.692,0.05228
4.696,0.11557
4.7,0.06208
4.704,0.08544
4.708,0.13129
4.712,0.1474
4.716,0.18225
4.72,0.16373
4.724,0.18352
4.728,0.20275
4.732,0.23533
4.736,0.26022
4.74,0.17627
4.744,0.21815
4.748,0.24942
4.752,0.21273
4.756,0.25497
4.76,0.23131
4.764,0.24309
4.768,0.30869
4.772,0.23022
4.776,0.26161
4.78,0.18342
4.784,0.21919
4.788,0.22048
4.792,0.21309
4.796,0.12331
4.8,0.23578
4.804,0.12553
4.808,0.12124
4.812,0.15013
4.816,0.15856
4.82,0.08171
4.824,0.11451
4.828,0.12322
4.832,0.10312
4.836,0.08603
4.84,0.15412
4.844,0.04991
4.848,0.07111
4.852,0.01126
4.856,0.01132
4.86,-0.03442
4.864,0.05129
4.868,0.0245
4.872,0.04182
4.876,0.05663
4.88,0.01236
4.884,0.07395
4.888,0.03903
4.892,0.06682
4.896,0.03255
4.9,0.02188
4.904,0.0637
4.908,0.02604
4.912,0.01865
4.916,0.01838
4.92,0.01666
4.924,0.00668
4.928,0.02241
4.932,0.00895
4.936,0.08198
4.94,0.03554
4.944,0.01861
4.948,-0.00966
4.952,0.07062
4.956,-0.00812
4.96,0.00399
4.964,0.01398
4.968,0.00871
4.972,0.006
4.976,-0.02671
4.98,-0.01466
4.984,0.04066
4.988,0.01792
4.992,-0.01813
4.996,0.03622
5.0,-0.00367
5.004,0.03461
5.008,0.00251
5.012,0.00666
5.016,0.01125
5.02,0.01946
5.024,0.01178
5.028,0.014
5.032,0.04966
5.036,0.07833
5.04,0.00393
5.044,-0.01541
5.048,0.03536
5.052,-0.01508
5.056,0.0273
5.06,0.01077
5.064,0.04396
5.068,0.00035
5.072,0.03263
5.076,0.01653
5.08,0.04582
5.084,0.06907
5.088,0.07844
5.092,0.04527
5.096,0.0863
5.1,-0.00889
5.104,0.08022
5.108,0.12774
5.112,0.06862
5.116,0.1242
5.12,0.07522
5.124,0.03819
5.128,0.07476
5.132,0.01524
5.136,-0.0066
5.14,0.01367
5.144,0.0109
5.148,0.02022
5.152,-0.032
5.156,0.02548
5.16,-0.04079
5.164,0.01512
5.168,-0.00397
5.172,-0.00979
5.176,-0.01797
5.18,0.03554
5.184,-0.049
5.188,0.0257
5.192,0.05064
5.196,-0.01354
5.2,-0.05675
5.204,-0.01274
5.208,-4e-05
5.212,0.00098
5.216,-0.01075
5.22,-0.03486
5.224,0.02121
5.228,-0.01125
5.232,-0.06469
5.236,-0.08277
5.24,-0.07103
5.244,-0.03217
5.248,0.10058
5.252,0.33342
5.256,0.48024
5.26,0.65633
5.264,0.81805
5.268,1.02609
5.272,0.9772
5.276,0.81888
5.28,0.66846
5.284,0.37933
5.288,0.21547
5.292,-0.00177
5.296,-0.14947
5.3,-0.1705
5.304,-0.15396
5.308,-0.18868
5.312,-0.0872
5.316,-0.00055
5.32,0.01905
5.324,-0.02061
5.328,0.04714
5.332,0.02999
5.336,-0.03138
5.34,-0.04871
5.344,0.04144
5.348,-0.02382
5.352,-0.05416
5.356,0.00954
5.36,0.02458
5.364,0.01139
5.368,-0.00758
5.372,0.00984
5.376,-0.02537
5.38,-0.02046
5.384,0.02193
5.388,0.0256
5.392,-0.02647
5.396,0.05136
5.4,0.01271
5.404,0.02344
5.408,-0.01417
5.412,-0.02298
5.416,0.01697
5.42,0.05846
5.424,0.0043
5.428,-0.04868
5.432,0.02259
5.436,-0.01413
5.44,0.00603
5.444,0.0513
5.448,-0.00777
5.452,0.00081
5.456,0.03749
5.46,0.02981
5.464,-0.00066
5.468,-0.02349
5.472,0.11132
5.476,0.03086
5.48,0.06037
5.484,0.07899
5.488,0.10845
5.492,0.07173
5.496,0.10851
5.5,0.11282
5.504,0.14012
5.508,0.15695
5.512,0.17062
5.516,0.16126
5.52,0.16789
5.524,0.21059
5.528,0.20489
5.532,0.25592
5.536,0.1788
5.54,0.27512
5.544,0.15869
5.548,0.17524
5.552,0.2017
5.556,0.24247
5.56,0.18115
5.564,0.26275
5.568,0.14896
5.572,0.13053
5.576,0.22134
5.58,0.06625
5.584,0.15966
5.588,0.16156
5.592,0.11334
5.596,0.16175
5.6,0.1603
5.604,0.07739
5.608,0.0604
5.612,0.11375
5.616,0.05487
5.62,0.02385
5.624,0.09986
5.628,0.06684
5.632,0.09489
5.636,0.05475
5.64,0.02401
5.644,0.05805
5.648,0.05988
5.652,0.02946
5.656,0.07037
5.66,0.03526
5.664,0.00842
5.668,-0.01009
5.672,0.07058
5.676,0.0109
5.68,-0.0183
5.684,0.02061
5.688,-0.01616
5.692,0.0321
5.696,-0.00633
5.7,0.01347
5.704,0.01025
5.708,0.0039
5.712,0.03747
5.716,-0.02662
5.72,0.00885
5.724,0.04006
5.728,-0.02667
5.732,-0.03565
5.736,0.00864
5.74,-0.00013
5.744,-0.10532
5.748,-0.05352
5.752,-0.04345
5.756,0.00207
5.76,0.02471
5.764,-0.0158
5.768,-0.01053
5.772,0.01344
5.776,0.02337
5.78,0.05558
5.784,0.03281
5.788,0.1117
5.792,0.1368
5.796,0.10483
5.8,2e-05
5.804,0.07153
5.808,0.1126
5.812,0.06345
5.816,0.08501
5.82,0.06725
5.824,-0.01805
5.828,0.07085
5.832,0.00673
5.836,-0.01772
5.84,-0.01174
5.844,-0.01461
5.848,-0.03633
5.852,-0.01526
5.856,0.04919
5.86,-0.01798
5.864,0.00487
5.868,-0.00553
5.872,-0.04271
5.876,0.00324
5.88,-0.04544
5.884,-0.04203
5.888,0.00249
5.892,-0.0526
5.896,-0.04543
5.9,-0.05498
5.904,-0.04495
5.908,0.02635
5.912,-0.07331
5.916,-0.12909
5.92,-0.13697
5.924,-0.14944
5.928,-0.08501
5.932,0.08669
5.936,0.20597
5.94,0.43749
5.944,0.69722
5.948,0.89291
5.952,0.95025
5.956,0.91563
5.96,0.8711
5.964,0.69195
5.968,0.43012
5.972,0.22249
5.976,0.04403
5.98,-0.03419
5.984,-0.17817
5.988,-0.19786
5.992,-0.18996
5.996,-0.08264
6.0,-0.09459
6.004,-0.11434
6.008,-0.05305
6.012,-0.00118
6.016,-0.07925
6.02,-0.04321
6.024,0.01465
6.028,0.00631
6.032,-0.00606
6.036,-0.01155
6.04,0.00123
6.044,0.01458
6.048,-0.05968
6.052,-0.04065
6.056,-0.01841
6.06,0.00547
6.064,-0.07537
6.068,0.00949
6.072,0.00993
6.076,-0.03755
6.08,-0.09362
6.084,-0.01451
6.088,0.01618
6.092,0.01225
6.096,0.04515
6.1,-0.03546
6.104,-0.01301
6.108,0.00646
6.112,-0.02293
6.116,-0.04339
6.12,-0.00584
6.124,-0.05932
6.128,-0.0103
6.132,0.04054
6.136,0.02359
6.14,-0.00088
6.144,0.00649
6.148,-0.00893
6.152,0.03705
6.156,0.01716
6.16,0.05467
6.164,0.05202
6.168,0.10279
6.172,0.03678
6.176,0.09438
6.18,0.1048
6.184,0.14202
6.188,0.10522
6.192,0.10501
6.196,0.15278
6.2,0.07909
6.204,0.21719
6.208,0.15104
6.212,0.19095
6.216,0.21971
6.22,0.18316
6.224,0.18184
6.228,0.20984
6.232,0.16157
6.236,0.1945
6.24,0.2202
6.244,0.24275
6.248,0.21244
6.252,0.16014
6.256,0.19306
6.26,0.17407
6.264,0.24702
6.268,0.13978
6.272,0.10359
6.276,0.12056
6.28,0.0987
6.284,0.08843
6.288,0.12652
6.292,0.03946
6.296,0.06937
6.3,0.02471
6.304,0.09743
6.308,-0.01218
6.312,0.03732
6.316,0.0138
6.32,0.02873
6.324,-0.0163
6.328,0.03363
6.332,0.00533
6.336,0.00835
6.34,-0.06358
6.344,0.01589
6.348,0.0363
6.352,-0.0312
6.356,-6e-05
6.36,-0.05644
6.364,-0.03522
6.368,-0.0494
6.372,-0.0398
6.376,-0.04223
6.38,-0.06444
6.384,-0.04676
6.388,-0.01532
6.392,-0.01198
6.396,0.01937
6.4,-0.04841
6.404,0.01753
6.408,-0.01931
6.412,0.0036
6.416,-0.02576
6.42,-0.07467
6.424,0.00591
6.428,-0.0083
6.432,-0.0057
6.436,0.04645
6.44,0.03399
6.444,-0.01109
6.448,-0.02682
6.452,0.10416
6.456,0.09941
6.46,0.05186
6.464,0.12165
6.468,0.05283
6.472,0.0296
6.476,0.08998
6.48,0.10712
6.484,0.03204
6.488,0.0204
6.492,0.09802
6.496,0.02204
6.5,-0.00958
6.504,-0.02799
6.508,-0.05085
6.512,-0.01652
6.516,-0.03653
6.52,0.00162
6.524,-0.03789
6.528,0.00539
6.532,-0.01379
6.536,-0.02694
6.54,0.00198
6.544,-0.02183
6.548,-0.03997
6.552,-0.02566
6.556,-0.05442
6.56,0.00582
6.564,-0.01318
6.568,-0.01633
6.572,-0.01115
6.576,-0.05101
6.58,-0.03205
6.584,-0.06266
6.588,-0.16862
6.592,-0.13259
6.596,-0.16765
6.6,-0.02912
6.604,0.08958
6.608,0.17376
6.612,0.46617
6.616,0.63688
6.62,0.82955
6.624,0.98299
6.628,0.92305
6.632,0.81772
6.636,0.64856
6.64,0.43155
6.644,0.16097
6.648,0.092
6.652,-0.17619
6.656,-0.17835
6.66,-0.16352
6.664,-0.19129
6.668,-0.11855
6.672,-0.05485
6.676,-0.06229
6.68,-0.09486
6.684,-0.11369
6.688,-0.0935
6.692,0.02883
6.696,0.03532
6.7,-0.03736
6.704,-0.05669
6.708,-0.06504
6.712,-0.06148
6.716,-0.01019
6.72,-0.01148
6.724,-0.00666
6.728,0.00563
6.732,-0.02252
6.736,0.02023
6.74,0.00426
6.744,-0.03194
6.748,-0.06278
6.752,-0.00073
6.756,-0.05295
6.76,-0.05604
6.764,0.01861
6.768,-0.03762
6.772,-0.04261
6.776,-0.05991
6.78,0.03609
6.784,-0.03656
6.788,-0.01765
6.792,0.01573
6.796,0.0228
6.8,-0.01212
6.804,-0.04543
6.808,-0.03027
6.812,-0.02536
6.816,0.04733
6.82,0.08508
6.824,0.01058
6.828,0.13419
6.832,0.13296
6.836,0.11652
6.84,0.14823
6.844,0.23414
6.848,0.14915
6.852,0.10375
6.856,0.18807
6.86,0.17413
6.864,0.14704
6.868,0.11603
6.872,0.18345
6.876,0.13375
6.88,0.17253
6.884,0.18493
6.888,0.18179
6.892,0.17014
6.896,0.17734
6.9,0.15752
6.904,0.19573
6.908,0.21485
6.912,0.1365
6.916,0.17831
6.92,0.20061
6.924,0.17613
6.928,0.23891
6.932,0.15935
6.936,0.14917
6.94,0.15169
6.944,0.10752
6.948,0.10694
6.952,0.08755
6.956,0.04459
6.96,0.07484
6.964,0.01488
6.968,-0.06796
6.972,-0.02394
6.976,-0.05293
6.98,-0.00355
6.984,0.11819
6.988,0.24948
6.992,0.46903
6.996,0.66385
7.0,0.80847
7.004,0.91627
7.008,0.91026
7.012,0.88808
7.016,0.69195
7.02,0.54139
7.024,0.29706
7.028,0.08707
7.032,-0.07175
7.036,-0.23288
7.04,-0.21062
7.044,-0.19594
7.048,-0.13708
7.052,-0.11426
7.056,0.00366
7.06,0.00636
7.064,-0.02146
7.068,0.02278
7.072,-0.01854
7.076,0.02711
7.08,-0.00078
7.084,-0.03283
7.088,-0.00025
7.092,-0.06702
7.096,0.01328
7.1,0.01734
7.104,-0.01961
7.108,-0.04216
7.112,-0.09154
7.116,-0.10334
7.12,-0.02809
7.124,-0.06762
7.128,0.00124
7.132,-0.02358
7.136,-0.0383
7.14,0.04963
7.144,-0.01337
7.148,0.00746
7.152,-0.12971
7.156,-0.08735
7.16,-0.06665
7.164,-0.07535
7.168,-0.07891
7.172,-0.06307
7.176,-0.01764
7.18,-0.00579
7.184,-0.00448
7.188,0.02783
7.192,-0.00501
7.196,-0.00516
7.2,-0.04431
7.204,-0.00314
7.208,0.03852
7.212,0.03563
7.216,0.00729
7.22,0.04114
7.224,0.02591
7.228,0.10965
7.232,0.125
7.236,0.0254
7.24,0.11779
7.244,0.15141
7.248,0.13196
7.252,0.12774
7.256,0.11676
7.26,0.17182
7.264,0.11532
7.268,0.18783
7.272,0.15377
7.276,0.16823
7.28,0.18527
7.284,0.18498
7.288,0.18546
7.292,0.22147
7.296,0.14427
7.3,0.16072
7.304,0.18699
7.308,0.15452
7.312,0.14493
7.316,0.16697
7.32,0.12277
7.324,0.1206
7.328,0.14305
7.332,0.08811
7.336,0.0617
7.34,-0.01371
7.344,0.07833
7.348,0.04041
7.352,0.02458
7.356,0.00946
7.36,0.05376
7.364,0.04193
7.368,0.05118
7.372,0.00717
7.376,0.04237
7.38,0.0352
7.384,-0.04552
7.388,0.05243
7.392,0.05369
7.396,-0.03163
7.4,-0.0042
7.404,0.01977
7.408,-0.05317
7.412,0.03263
7.416,-0.06061
7.42,-0.02314
7.424,0.01503
7.428,0.01109
7.432,0.03879
7.436,0.04957
7.44,0.05037
7.444,0.07504
7.448,0.09185
7.452,0.0763
7.456,0.06595
7.46,0.06244
7.464,0.06317
7.468,0.04005
7.472,0.02783
7.476,-0.01691
7.48,-0.0196
7.484,-0.03642
7.488,0.02866
7.492,0.03042
7.496,0.00203
7.5,-0.03969
7.504,-0.03576
7.508,-0.01182
7.512,-0.03311
7.516,0.00736
7.52,-0.06413
7.524,0.00364
7.528,-0.02126
7.532,-0.02749
7.536,-0.01737
7.54,-0.06231
7.544,-0.05103
7.548,-0.09004
7.552,0.01611
7.556,-0.06599
7.56,0.00657
7.564,-0.07369
7.568,-0.04954
7.572,-0.06996
7.576,-0.17852
7.58,-0.13165
7.584,-0.01543
7.588,0.0438
7.592,0.28894
7.596,0.38572
7.6,0.73364
7.604,0.88958
7.608,0.90583
7.612,0.92645
7.616,0.86712
7.62,0.60398
7.624,0.47534
7.628,0.24625
7.632,-0.0413
7.636,-0.0932
7.64,-0.18255
7.644,-0.18136
7.648,-0.16993
7.652,-0.14477
7.656,-0.06508
7.66,-0.04159
7.664,-0.00268
7.668,-0.04322
7.672,-0.03601
7.676,-0.05578
7.68,0.04231
7.684,-0.00058
7.688,-0.00853
7.692,-0.03477
7.696,-0.0146
7.7,-0.06088
7.704,0.00033
7.708,-0.06125
7.712,-0.0133
7.716,-0.0496
7.72,-0.03569
7.724,-0.00398
7.728,-0.03185
7.732,-0.05517
7.736,-0.00829
7.74,0.03708
7.744,-0.03903
7.748,-0.02269
7.752,0.0049
7.756,-0.0257
7.76,-0.06931
7.764,-0.00409
7.768,-0.02104
7.772,-0.03157
7.776,-0.04526
7.78,-0.0289
7.784,0.02224
7.788,-0.01622
7.792,0.01319
7.796,-0.07168
7.8,-0.00756
7.804,-0.01865
7.808,-0.06661
7.812,0.00272
7.816,0.04813
7.82,0.09608
7.824,0.09441
7.828,0.06879
7.832,0.08476
7.836,0.12745
7.84,0.05523
7.844,0.05212
7.848,0.09038
7.852,0.17552
7.856,0.14451
7.86,0.10167
7.864,0.16146
7.868,0.14448
7.872,0.15166
7.876,0.21304
7.88,0.25476
7.884,0.20656
7.888,0.19718
7.892,0.17835
7.896,0.13996
7.9,0.24232
7.904,0.17937
7.908,0.16749
7.912,0.20652
7.916,0.23922
7.92,0.15801
7.924,0.1339
7.928,0.13995
7.932,0.10455
7.936,0.11489
7.94,0.06657
7.944,0.02876
7.948,0.08598
7.952,0.00976
7.956,0.0691
7.96,-0.00218
7.964,0.03915
7.968,0.12656
7.972,0.12035
7.976,0.16899
7.98,0.06624
7.984,0.14749
7.988,0.0897
7.992,0.13165
7.996,0.03584
8.0,0.06537
8.004,0.05332
8.008,0.03594
8.012,-0.05379
8.016,0.00384
8.02,0.04468
8.024,-0.05812
8.028,0.04835
8.032,-0.04045
8.036,-0.01635
8.04,-0.09012
8.044,-0.03354
8.048,-0.03712
8.052,0.00491
8.056,-0.02022
8.06,-0.02974
8.064,0.0105
8.068,-0.0677
8.072,-0.04939
8.076,-0.03503
8.08,0.00098
8.084,0.0386
8.088,0.00572
8.092,-0.05076
8.096,-0.03992
8.1,-0.1174
8.104,-0.08047
8.108,-0.16361
8.112,-0.13056
8.116,-0.06685
8.12,0.06729
8.124,0.1771
8.128,0.40581
8.132,0.56227
8.136,0.74671
8.14,0.93785
8.144,0.92436
8.148,0.93188
8.152,0.7763
8.156,0.5678
8.16,0.33725
8.164,0.09617
8.168,-0.03228
8.172,-0.14449
8.176,-0.15619
8.18,-0.14356
8.184,-0.14678
8.188,-0.10867
8.192,-0.06036
8.196,-0.06216
8.2,-0.0405
8.204,-0.02715
8.208,2e-05
8.212,-0.03524
8.216,-0.06874
8.22,-0.07052
8.224,0.00497
8.228,-0.01465
8.232,-0.03917
8.236,-0.04269
8.24,0.01318
8.244,-0.05372
8.248,-0.02964
8.252,-0.07764
8.256,-0.02251
8.26,0.02625
8.264,-0.00399
8.268,-0.0747
8.272,0.02731
8.276,-0.03073
8.28,0.01834
8.284,0.04503
8.288,-0.07712
8.292,0.01112
8.296,-0.02433
8.3,0.03314
8.304,-0.05877
8.308,-0.0252
8.312,-0.03806
8.316,0.03065
8.32,0.01056
8.324,0.04325
8.328,0.05013
8.332,0.0143
8.336,0.04417
8.34,0.02895
8.344,0.03983
8.348,0.08483
8.352,0.03041
8.356,0.0419
8.36,0.14882
8.364,0.0466
8.368,0.05147
8.372,0.06849
8.376,0.15302
8.38,0.18908
8.384,0.1232
8.388,0.21659
8.392,0.2114
8.396,0.17406
8.4,0.19995
8.404,0.24105
8.408,0.20598
8.412,0.18132
8.416,0.21213
8.42,0.1784
8.424,0.23765
8.428,0.17778
8.432,0.21051
8.436,0.2006
8.44,0.11213
8.444,0.24517
8.448,0.20679
8.452,0.12737
8.456,0.12906
8.46,0.14271
8.464,0.13701
8.468,0.14429
8.472,0.07964
8.476,0.12121
8.48,0.16649
8.484,0.03225
8.488,0.04029
8.492,0.05955
8.496,0.0394
8.5,0.051
8.504,-0.00993
8.508,0.04262
8.512,-0.04568
8.516,0.05336
8.52,-0.05249
8.524,0.00353
8.528,-0.07104
8.532,-0.00968
8.536,0.05277
8.54,0.01259
8.544,-0.04233
8.548,-0.03533
8.552,0.01487
8.556,-0.01248
8.56,-0.05655
8.564,0.0082
8.568,-0.03976
8.572,0.03653
8.576,0.04897
8.58,-0.00046
8.584,-0.00109
8.588,0.06801
8.592,0.0343
8.596,0.05623
8.6,0.05789
8.604,0.0467
8.608,0.12448
8.612,0.10559
8.616,0.07615
8.62,0.09329
8.624,0.15375
8.628,0.03695
8.632,0.00256
8.636,0.06252
8.64,0.085
8.644,0.09389
8.648,0.02266
8.652,0.00702
8.656,0.03361
8.66,0.00257
8.664,0.03419
8.668,0.01434
8.672,-0.03477
8.676,0.02281
8.68,0.05061
8.684,0.00731
8.688,0.01299
8.692,-0.01721
8.696,0.00741
8.7,0.04436
8.704,0.0038
8.708,0.01214
8.712,0.07387
8.716,0.01104
8.72,-0.05621
8.724,-0.03758
8.728,-0.05038
8.732,0.01232
8.736,0.06483
8.74,-0.1353
8.744,-0.05152
8.748,-0.11161
8.752,-0.10424
8.756,-0.04524
8.76,0.11511
8.764,0.26563
8.768,0.58026
8.772,0.69363
8.776,0.92197
8.78,0.87645
8.784,0.99015
8.788,0.83827
8.792,0.70762
8.796,0.43806
8.8,0.18931
8.804,0.11571
8.808,-0.13173
8.812,-0.1729
8.816,-0.17289
8.82,-0.08808
8.824,-0.04254
8.828,0.00722
8.832,-0.03212
8.836,0.04956
8.84,0.01821
8.844,0.0758
8.848,0.02328
8.852,0.10426
8.856,0.03398
8.86,0.08959
8.864,0.11597
8.868,0.13523
8.872,0.07709
8.876,0.11445
8.88,0.1008
8.884,0.15872
8.888,0.07183
8.892,0.12207
8.896,0.02421
8.9,-0.03757
8.904,0.05128
8.908,0.00987
8.912,0.06474
8.916,0.01307
8.92,-0.03161
8.924,0.04999
8.928,0.00262
8.932,0.07007
8.936,0.00488
8.94,-0.02512
8.944,0.00566
8.948,0.0225
8.952,0.02374
8.956,0.05255
8.96,0.02137
8.964,0.04102
8.968,-0.00091
8.972,0.10552
8.976,-0.02962
8.98,0.02134
8.984,0.04885
8.988,0.04014
8.992,-0.04532
8.996,-0.04189
9.0,0.0139
9.004,0.07248
9.008,0.07629
9.012,0.33078
9.016,0.55352
9.02,0.85215
9.024,1.03275
9.028,1.14404
9.032,1.17631
9.036,1.13054
9.04,0.96234
9.044,0.77735
9.048,0.56236
9.052,0.36381
9.056,0.15623
9.06,0.0967
9.064,0.04385
9.068,0.06548
9.072,0.0899
9.076,0.11693
9.08,0.18868
9.084,0.16384
9.088,0.17674
9.092,0.16634
9.096,0.18989
9.1,0.16944
9.104,0.12991
9.108,0.13689
9.112,0.14014
9.116,0.07932
9.12,0.09196
9.124,0.07217
9.128,0.05995
9.132,0.07241
9.136,0.11658
9.14,0.0082
9.144,0.04065
9.148,0.09645
9.152,0.03357
9.156,0.03924
9.16,0.05016
9.164,0.0602
9.168,0.02648
9.172,0.02201
9.176,0.04899
9.18,0.08099
9.184,0.09103
9.188,-0.01304
9.192,0.10246
9.196,0.09653
9.2,0.08352
9.204,0.10585
9.208,0.12457
9.212,0.10613
9.216,0.13907
9.22,0.12961
9.224,0.1505
9.228,0.10352
9.232,0.11519
9.236,0.09381
9.24,0.09775
9.244,0.10099
9.248,0.03174
9.252,0.13649
9.256,0.14197
9.26,0.11693
9.264,0.20657
9.268,0.14024
9.272,0.09582
9.276,0.15085
9.28,0.23582
9.284,0.18251
9.288,0.14624
9.292,0.24661
9.296,0.18046
9.3,0.25302
9.304,0.23678
9.308,0.22503
9.312,0.31469
9.316,0.24476
9.32,0.27963
9.324,0.21087
9.328,0.14217
9.332,0.18146
9.336,0.06928
9.34,0.15155
9.344,0.05641
9.348,0.14508
9.352,0.36523
9.356,0.54272
9.36,0.73401
9.364,0.93734
9.368,1.04864
9.372,1.11047
9.376,0.98897
9.38,0.84671
9.384,0.62814
9.388,0.36592
9.392,0.16076
9.396,-0.00296
9.4,-0.08072
9.404,-0.09289
9.408,-0.16734
9.412,-0.03676
9.416,-0.0449
9.42,0.00183
9.424,0.02284
9.428,0.01016
9.432,0.01437
9.436,0.01464
9.44,0.03308
9.444,0.06803
9.448,-0.01173
9.452,-0.00942
9.456,-0.00468
9.46,0.01038
9.464,-0.00926
9.468,0.05126
9.472,0.01615
9.476,-0.01108
9.48,-0.00649
9.484,-0.02026
9.488,0.0171
9.492,-0.02952
9.496,-0.02763
9.5,0.01649
9.504,-0.06226
9.508,0.03884
9.512,0.05127
9.516,0.01152
9.52,0.05075
9.524,0.04517
9.528,-0.00668
9.532,0.0757
9.536,0.04605
9.54,0.08888
9.544,0.01371
9.548,-0.01392
9.552,0.13601
9.556,0.07149
9.56,0.02564
9.564,0.02892
9.568,0.04875
9.572,0.06635
9.576,0.04997
9.58,0.03712
9.584,0.13791
9.588,0.08602
9.592,0.12228
9.596,0.15298
9.6,0.13864
9.604,0.09904
9.608,0.18168
9.612,0.15592
9.616,0.12866
9.62,0.1733
9.624,0.23297
9.628,0.19325
9.632,0.19692
9.636,0.29093
9.64,0.28134
9.644,0.24172
9.648,0.24122
9.652,0.2766
9.656,0.21768
9.66,0.2703
9.664,0.21363
9.668,0.28361
9.672,0.25405
9.676,0.27859
9.68,0.16709
9.684,0.1942
9.688,0.23998
9.692,0.1553
9.696,0.18604
9.7,0.22945
9.704,0.04985
9.708,0.10636
9.712,0.16211
9.716,0.13974
9.72,0.04861
9.724,0.02221
9.728,0.07713
9.732,0.14062
9.736,0.07913
9.74,0.05366
9.744,0.11205
9.748,0.08823
9.752,0.06823
9.756,0.04781
9.76,0.08189
9.764,0.05169
9.768,0.02931
9.772,0.09146
9.776,0.0613
9.78,0.06203
9.784,0.07925
9.788,0.13072
9.792,0.14152
9.796,0.08508
9.8,0.15533
9.804,0.091
9.808,0.04926
9.812,0.06731
9.816,0.11136
9.82,0.0192
9.824,0.03939
9.828,0.01102
9.832,0.04511
9.836,0.00309
9.84,0.10952
9.844,-0.04025
9.848,0.09147
9.852,0.02199
9.856,0.01803
9.86,-0.00026
9.864,0.00149
9.868,0.03473
9.872,-0.02364
9.876,0.04621
9.88,0.04526
9.884,0.05956
9.888,0.01125
9.892,0.00148
9.896,-0.02398
9.9,0.04959
9.904,0.0353
9.908,0.02605
9.912,-0.0486
9.916,-0.12424
9.92,-0.06886
9.924,-0.16297
9.928,-0.08122
9.932,-0.01063
9.936,0.12564
9.94,0.29337
9.944,0.37292
9.948,0.43719
9.952,0.45053
9.956,0.39905
9.96,0.38663
9.964,0.23519
9.968,0.20583
9.972,0.06222
9.976,-0.0401
9.98,-0.15549
9.984,-0.14179
9.988,-0.15452
9.992,-0.13126
9.996,-0.04882
