t_seg,ecg_mV
0.0,0.02883
0.004,0.04664
0.008,0.02021
0.012,0.01604
0.016,0.02942
0.02,0.00091
0.024,0.03923
0.028,0.02332
0.032,0.00333
0.036,0.03978
0.04,0.03303
0.044,0.01804
0.048,0.0136
0.052,0.02873
0.056,-0.0005
0.06,0.0059
0.064,0.04265
0.068,0.02882
0.072,0.04247
0.076,0.02717
0.08,0.04976
0.084,0.00875
0.088,0.04298
0.092,0.03945
0.096,0.04293
0.1,0.04983
0.104,0.02053
0.108,0.02658
0.112,0.05657
0.116,0.04573
0.12,0.04153
0.124,0.00532
0.128,0.0557
0.132,0.03431
0.136,0.04072
0.14,0.00075
0.144,0.03171
0.148,-0.00823
0.152,0.03876
0.156,0.02721
0.16,0.03056
0.164,0.01215
0.168,0.03177
0.172,0.02483
0.176,0.00121
0.18,0.03131
0.184,0.02375
0.188,0.00471
0.192,0.04231
0.196,0.00627
0.2,0.01554
0.204,-0.00174
0.208,0.00106
0.212,0.03375
0.216,0.06356
0.22,0.01807
0.224,0.02341
0.228,0.02283
0.232,0.04346
0.236,0.06443
0.24,0.03366
0.244,0.0256
0.248,0.04361
0.252,0.03907
0.256,0.02465
0.26,0.02976
0.264,0.015
0.268,0.03006
0.272,0.00702
0.276,0.05074
0.28,0.05069
0.284,-0.0043
0.288,-0.00394
0.292,0.01433
0.296,0.02546
0.3,0.04433
0.304,0.02162
0.308,0.04369
0.312,0.0026
0.316,0.02275
0.32,0.02453
0.324,0.01045
0.328,0.01217
0.332,0.03701
0.336,0.03198
0.34,0.04202
0.344,-0.00475
0.348,0.05162
0.352,0.05625
0.356,0.06108
0.36,0.02671
0.364,0.01709
0.368,0.03682
0.372,0.03014
0.376,0.04282
0.38,-0.00925
0.384,0.02225
0.388,0.03142
0.392,0.01156
0.396,0.01129
0.4,0.05631
0.404,0.03651
0.408,0.01231
0.412,0.05515
0.416,0.02184
0.42,0.01361
0.424,0.01503
0.428,0.0182
0.432,0.03669
0.436,0.02735
0.44,0.03201
0.444,0.02029
0.448,0.03773
0.452,0.01606
0.456,0.03373
0.46,0.01099
0.464,0.04511
0.468,0.03956
0.472,0.02467
0.476,0.0317
0.48,0.01958
0.484,0.02226
0.488,0.03239
0.492,0.04532
0.496,0.00223
0.5,0.02363
0.504,0.04064
0.508,0.01056
0.512,0.00854
0.516,0.04489
0.52,0.02197
0.524,0.05898
0.528,0.04281
0.532,0.03122
0.536,0.02794
0.54,0.02773
0.544,0.02594
0.548,0.0227
0.552,0.00779
0.556,0.02173
0.56,0.03469
0.564,0.01299
0.568,0.01148
0.572,0.01783
0.576,0.05568
0.58,0.05138
0.584,0.03921
0.588,0.02101
0.592,0.04509
0.596,0.00176
0.6,0.04085
0.604,0.03177
0.608,0.06568
0.612,0.03977
0.616,0.02289
0.62,0.03357
0.624,0.01824
0.628,0.03659
0.632,0.02284
0.636,0.04155
0.64,0.04507
0.644,0.01199
0.648,0.0523
0.652,-0.01303
0.656,0.00969
0.66,0.04238
0.664,0.04266
0.668,0.06098
0.672,0.02783
0.676,0.03113
0.68,0.04725
0.684,0.0277
0.688,0.04928
0.692,0.03689
0.696,0.04662
0.7,0.07575
0.704,0.08156
0.708,0.07039
0.712,0.11794
0.716,0.08552
0.72,0.12457
0.724,0.13745
0.728,0.12227
0.732,0.11021
0.736,0.10999
0.74,0.12161
0.744,0.13663
0.748,0.09328
0.752,0.05546
0.756,0.06479
0.76,0.03577
0.764,0.07423
0.768,0.05527
0.772,0.04886
0.776,0.00424
0.78,0.00877
0.784,0.01312
0.788,0.02733
0.792,0.02675
0.796,0.02097
0.8,0.04522
0.804,0.0124
0.808,0.04747
0.812,0.03884
0.816,0.01505
0.82,0.02324
0.824,0.05969
0.828,0.03596
0.832,0.01018
0.836,0.02615
0.84,0.01783
0.844,0.02132
0.848,-0.02655
0.852,-0.04074
0.856,-0.08921
0.86,-0.08686
0.864,0.00659
0.868,0.12609
0.872,0.27285
0.876,0.5123
0.88,0.7239
0.884,0.91134
0.888,1.03123
0.892,0.99022
0.896,0.91502
0.9,0.70938
0.904,0.49961
0.908,0.24861
0.912,0.07839
0.916,-0.03269
0.92,-0.12571
0.924,-0.12493
0.928,-0.15022
0.932,-0.08473
0.936,-0.04285
0.94,-0.00249
0.944,0.01418
0.948,0.03605
0.952,0.01054
0.956,0.05938
0.96,0.06103
0.964,0.01928
0.968,0.04131
0.972,0.05932
0.976,0.02473
0.98,0.0338
0.984,0.04722
0.988,0.04882
0.992,0.03425
0.996,0.0288
1.0,0.0388
1.004,0.02899
1.008,0.04804
1.012,0.0277
1.016,0.025
1.02,0.018
1.024,0.05869
1.028,0.02459
1.032,0.01214
1.036,0.04107
1.04,0.02451
1.044,0.04361
1.048,0.0333
1.052,0.03738
1.056,0.03859
1.06,0.04532
1.064,0.04037
1.068,0.03244
1.072,0.05361
1.076,0.06133
1.08,0.0331
1.084,0.05781
1.088,0.07506
1.092,0.08949
1.096,0.1121
1.1,0.10883
1.104,0.11498
1.108,0.11518
1.112,0.13002
1.116,0.13463
1.12,0.15663
1.124,0.12748
1.128,0.16859
1.132,0.20823
1.136,0.18466
1.14,0.18292
1.144,0.20534
1.148,0.22133
1.152,0.2469
1.156,0.2075
1.16,0.23866
1.164,0.26534
1.168,0.25419
1.172,0.23509
1.176,0.26595
1.18,0.24432
1.184,0.23619
1.188,0.23229
1.192,0.21572
1.196,0.22922
1.2,0.22181
1.204,0.1972
1.208,0.19364
1.212,0.17145
1.216,0.15387
1.22,0.14898
1.224,0.13012
1.228,0.12318
1.232,0.11133
1.236,0.12556
1.24,0.06844
1.244,0.07832
1.248,0.08797
1.252,0.05874
1.256,0.05996
1.26,0.05731
1.264,0.05022
1.268,0.04983
1.272,0.03199
1.276,0.03335
1.28,0.02151
1.284,0.02933
1.288,0.02106
1.292,0.00725
1.296,0.02832
1.3,0.03031
1.304,0.03155
1.308,0.02897
1.312,0.0387
1.316,0.03157
1.32,0.02878
1.324,0.0428
1.328,0.0279
1.332,0.01356
1.336,0.03766
1.34,0.02737
1.344,0.00146
1.348,0.01931
1.352,0.00993
1.356,0.03166
1.36,0.02262
1.364,-0.00175
1.368,0.01241
1.372,0.05044
1.376,0.03556
1.38,0.04307
1.384,0.04356
1.388,0.05817
1.392,0.08479
1.396,0.08472
1.4,0.08571
1.404,0.10353
1.408,0.13539
1.412,0.12791
1.416,0.12083
1.42,0.14599
1.424,0.10162
1.428,0.07627
1.432,0.09642
1.436,0.09186
1.44,0.08176
1.444,0.04335
1.448,0.05435
1.452,0.03943
1.456,0.05536
1.46,0.04891
1.464,0.03201
1.468,0.0133
1.472,0.03226
1.476,0.02562
1.48,0.02368
1.484,0.02645
1.488,0.03899
1.492,0.00954
1.496,0.00302
1.5,0.02642
1.504,0.0311
1.508,0.02399
1.512,-0.00334
1.516,0.01906
1.52,0.01301
1.524,0.02015
1.528,0.01686
1.532,-0.01578
1.536,-0.03587
1.54,-0.07962
1.544,-0.09851
1.548,-0.06694
1.552,-0.02358
1.556,0.13571
1.56,0.31756
1.564,0.51104
1.568,0.75071
1.572,0.87595
1.576,1.03669
1.58,1.01646
1.584,0.87423
1.588,0.66614
1.592,0.4395
1.596,0.21271
1.6,0.07471
1.604,-0.09515
1.608,-0.13331
1.612,-0.1679
1.616,-0.11473
1.62,-0.06415
1.624,-0.03819
1.628,0.01215
1.632,0.0091
1.636,0.02625
1.64,0.01683
1.644,0.0039
1.648,0.01688
1.652,0.02626
1.656,0.03225
1.66,0.01158
1.664,0.00514
1.668,0.01538
1.672,0.00922
1.676,0.0171
1.68,0.01235
1.684,0.02355
1.688,0.02796
1.692,0.00339
1.696,0.02189
1.7,0.01036
1.704,0.03294
1.708,0.00725
1.712,0.00521
1.716,-0.00029
1.72,0.01471
1.724,0.01991
1.728,0.0077
1.732,0.0216
1.736,-0.01494
1.74,0.02595
1.744,0.0253
1.748,-0.00384
1.752,0.05125
1.756,0.04063
1.76,0.04628
1.764,0.05823
1.768,0.03761
1.772,0.03363
1.776,0.08705
1.78,0.05629
1.784,0.04517
1.788,0.05281
1.792,0.12399
1.796,0.10389
1.8,0.11806
1.804,0.1273
1.808,0.14279
1.812,0.17735
1.816,0.15236
1.82,0.18665
1.824,0.18485
1.828,0.18535
1.832,0.19033
1.836,0.21021
1.84,0.21011
1.844,0.24073
1.848,0.25729
1.852,0.24176
1.856,0.22738
1.86,0.21505
1.864,0.21822
1.868,0.24335
1.872,0.23543
1.876,0.23753
1.88,0.19504
1.884,0.19971
1.888,0.20911
1.892,0.18421
1.896,0.1518
1.9,0.14273
1.904,0.12063
1.908,0.11209
1.912,0.1415
1.916,0.09192
1.92,0.11992
1.924,0.1047
1.928,0.08501
1.932,0.05815
1.936,0.09472
1.94,0.0684
1.944,0.06535
1.948,0.0436
1.952,0.01544
1.956,0.04192
1.96,0.04072
1.964,0.00566
1.968,0.02367
1.972,0.02499
1.976,0.00025
1.98,0.0203
1.984,0.01682
1.988,0.02206
1.992,0.0137
1.996,0.00833
2.0,0.01023
2.004,0.00529
2.008,0.03478
2.012,0.01833
2.016,0.00127
2.02,0.0095
2.024,0.0268
2.028,0.03074
2.032,-0.00037
2.036,0.02339
2.04,0.02117
2.044,0.02004
2.048,-0.00163
2.052,0.03036
2.056,0.00467
2.06,-0.00558
2.064,0.04572
2.068,0.0177
2.072,0.01884
2.076,0.04617
2.08,-0.01559
2.084,-0.00073
2.088,-0.01968
2.092,0.00365
2.096,0.03598
2.1,0.01754
2.104,0.0214
2.108,-0.0006
2.112,-0.00273
2.116,-0.00356
2.12,0.04061
2.124,0.01093
2.128,0.0203
2.132,-0.01923
2.136,0.01739
2.14,-0.01427
2.144,0.00564
2.148,0.01829
2.152,0.01524
2.156,0.01923
2.16,-0.00329
2.164,-0.00492
2.168,0.01494
2.172,0.02724
2.176,0.00694
2.18,0.00878
2.184,0.00944
2.188,0.00262
2.192,0.01015
2.196,-0.00164
2.2,0.00365
2.204,0.01678
2.208,-0.01117
2.212,0.00419
2.216,0.00523
2.22,0.00662
2.224,-0.00324
2.228,0.0076
2.232,0.01489
2.236,0.0209
2.24,-0.02316
2.244,0.01068
2.248,-0.00107
2.252,0.02607
2.256,-0.01093
2.26,-0.00134
2.264,0.0087
2.268,-0.02605
2.272,0.0319
2.276,0.01774
2.28,-0.00146
2.284,-0.0172
2.288,0.00743
2.292,0.01309
2.296,0.01319
2.3,0.01312
2.304,0.02139
2.308,0.01783
2.312,-0.04163
2.316,0.02978
2.32,0.02052
2.324,-0.00528
2.328,0.00413
2.332,0.01672
2.336,-0.01662
2.34,0.0316
2.344,-0.00289
2.348,0.00333
2.352,-0.01179
2.356,0.00609
2.36,0.02773
2.364,0.02214
2.368,-0.00032
2.372,-0.02964
2.376,-0.00279
2.38,-0.00976
2.384,0.00146
2.388,-0.01589
2.392,0.02551
2.396,0.01236
2.4,0.00256
2.404,0.00575
2.408,0.01649
2.412,0.03346
2.416,0.01135
2.42,0.03003
2.424,0.04883
2.428,0.05678
2.432,0.08471
2.436,0.08262
2.44,0.10902
2.444,0.08802
2.448,0.08218
2.452,0.09388
2.456,0.05622
2.46,0.07353
2.464,0.08368
2.468,0.08194
2.472,0.02867
2.476,0.03451
2.48,0.03361
2.484,-0.00861
2.488,0.02546
2.492,0.01757
2.496,0.02036
2.5,0.01664
2.504,-0.01013
2.508,-0.02005
2.512,0.00251
2.516,0.00408
2.52,0.04949
2.524,-0.02166
2.528,-0.01929
2.532,-0.00188
2.536,-0.01081
2.54,-0.02441
2.544,-0.01577
2.548,0.01268
2.552,-0.00474
2.556,0.00455
2.56,-0.01365
2.564,0.00202
2.568,-0.07541
2.572,-0.09564
2.576,-0.1286
2.58,-0.09718
2.584,0.00119
2.588,0.1565
2.592,0.36348
2.596,0.5786
2.6,0.77349
2.604,0.92619
2.608,0.99928
2.612,0.91795
2.616,0.79678
2.62,0.57639
2.624,0.33433
2.628,0.12103
2.632,-0.0155
2.636,-0.11453
2.64,-0.14234
2.644,-0.13841
2.648,-0.12047
2.652,-0.09656
2.656,-0.05255
2.66,-0.05188
2.664,-0.0181
2.668,-0.01291
2.672,0.00215
2.676,-0.01617
2.68,0.0081
2.684,0.00361
2.688,-0.01219
2.692,-0.00684
2.696,-0.01214
2.7,-0.00952
2.704,-0.01513
2.708,-0.02226
2.712,-0.01697
2.716,-0.00012
2.72,-0.02264
2.724,-0.02192
2.728,-0.01038
2.732,0.0216
2.736,0.00105
2.74,-0.00835
2.744,0.00585
2.748,-0.00088
2.752,-0.04598
2.756,-0.00402
2.76,0.00538
2.764,0.0117
2.768,0.00909
2.772,0.01097
2.776,-0.02455
2.78,-0.00442
2.784,0.00725
2.788,0.03564
2.792,0.00229
2.796,0.03095
2.8,0.03907
2.804,0.05423
2.808,0.04737
2.812,0.06533
2.816,0.05649
2.82,0.04536
2.824,0.04946
2.828,0.08994
2.832,0.07278
2.836,0.12918
2.84,0.1291
2.844,0.13196
2.848,0.133
2.852,0.14904
2.856,0.17425
2.86,0.17606
2.864,0.1639
2.868,0.21198
2.872,0.19378
2.876,0.19368
2.88,0.20661
2.884,0.20671
2.888,0.23115
2.892,0.21045
2.896,0.19958
2.9,0.20105
2.904,0.1986
2.908,0.17154
2.912,0.15404
2.916,0.1598
2.92,0.15872
2.924,0.12169
2.928,0.11182
2.932,0.1158
2.936,0.11318
2.94,0.10657
2.944,0.0727
2.948,0.08852
2.952,0.04072
2.956,0.05072
2.96,0.04428
2.964,0.06874
2.968,0.04397
2.972,0.00542
2.976,0.02805
2.98,0.00815
2.984,0.00822
2.988,0.02007
2.992,-0.00367
2.996,-0.01864
3.0,-0.00747
3.004,-0.00297
3.008,-0.00981
3.012,-0.02345
3.016,-0.01768
3.02,-0.01675
3.024,-0.01529
3.028,-0.00323
3.032,0.00204
3.036,-0.02002
3.04,-0.03367
3.044,-0.0095
3.048,-0.02754
3.052,0.00374
3.056,-0.0116
3.06,-0.0074
3.064,-0.05137
3.068,-0.02036
3.072,-0.00834
3.076,-0.03952
3.08,-0.02038
3.084,-0.00078
3.088,-0.00919
3.092,-0.03466
3.096,-0.00594
3.1,-0.0083
3.104,-0.00851
3.108,-0.0145
3.112,-0.01521
3.116,-0.02366
3.12,-0.02918
3.124,-0.04562
3.128,-0.01286
3.132,-0.01535
3.136,-0.02113
3.14,-0.01347
3.144,-0.01151
3.148,-0.03239
3.152,-0.02091
3.156,-0.0125
3.16,0.003
3.164,-0.02469
3.168,-0.01697
3.172,-0.02912
3.176,-0.0293
3.18,-0.00062
3.184,-0.05571
3.188,-0.00516
3.192,-0.03071
3.196,-0.02712
3.2,-0.01993
3.204,-0.01843
3.208,-0.01009
3.212,-0.00559
3.216,-0.00437
3.22,-0.04415
3.224,-0.02077
3.228,-0.01568
3.232,-0.01483
3.236,-0.04271
3.24,0.00119
3.244,-0.00711
3.248,-0.02237
3.252,0.02283
3.256,-0.03736
3.26,-0.02568
3.264,-0.02442
3.268,-0.01284
3.272,-0.03171
3.276,-0.03141
3.28,-0.00459
3.284,-0.02486
3.288,-0.00733
3.292,-0.00078
3.296,-0.02571
3.3,-0.03557
3.304,-0.02884
3.308,-0.01412
3.312,-0.00485
3.316,-0.01708
3.32,-0.04008
3.324,-0.01789
3.328,0.00409
3.332,0.0018
3.336,-0.03206
3.34,-0.01809
3.344,-0.01616
3.348,-0.04564
3.352,-0.01617
3.356,-0.0485
3.36,-0.04664
3.364,-0.03599
3.368,-0.04553
3.372,-0.0218
3.376,-0.01817
3.38,-0.03306
3.384,-0.02871
3.388,-0.01278
3.392,-0.01955
3.396,0.00702
3.4,-0.00367
3.404,-0.05095
3.408,-0.02854
3.412,-0.03691
3.416,-0.04462
3.42,-0.00829
3.424,-0.02427
3.428,-0.04215
3.432,-0.00121
3.436,-0.0017
3.44,-0.02805
3.444,-0.01537
3.448,-0.03254
3.452,-0.02475
3.456,-0.04799
3.46,-0.03019
3.464,-0.02145
3.468,-0.03678
3.472,-0.00299
3.476,-0.04038
3.48,-0.02074
3.484,-0.02153
3.488,-0.04918
3.492,-0.0074
3.496,-0.02245
3.5,-0.00957
3.504,-0.02251
3.508,-0.02008
3.512,0.00123
3.516,-0.02525
3.52,-0.02038
3.524,-0.0339
3.528,-0.02155
3.532,-0.02795
3.536,-0.02608
3.54,-0.00652
3.544,-0.03359
3.548,-0.02535
3.552,-0.03183
3.556,0.01054
3.56,-0.0267
3.564,-0.03166
3.568,-0.02428
3.572,-0.04923
3.576,-0.00344
3.58,-0.041
3.584,-0.03985
3.588,-0.01743
3.592,-0.04447
3.596,-0.0055
3.6,-0.02318
3.604,-0.00561
3.608,-0.05403
3.612,-0.03005
3.616,-0.01935
3.62,-0.03822
3.624,-0.0014
3.628,-0.02364
3.632,-0.03052
3.636,-0.02293
3.64,-0.01268
3.644,-0.02577
3.648,-0.02423
3.652,-0.0278
3.656,-0.01314
3.66,-0.017
3.664,-0.01398
3.668,0.01132
3.672,-0.00281
3.676,-0.00451
3.68,0.01892
3.684,0.02586
3.688,0.03335
3.692,0.06685
3.696,0.06544
3.7,0.07226
3.704,0.09357
3.708,0.07986
3.712,0.06765
3.716,0.04901
3.72,0.05869
3.724,0.02573
3.728,0.04082
3.732,0.02528
3.736,-0.00452
3.74,0.00078
3.744,-0.0037
3.748,-0.01909
3.752,-0.01602
3.756,-0.00477
3.76,-0.05159
3.764,-0.02279
3.768,-0.02036
3.772,-0.02156
3.776,-0.03852
3.78,-0.03282
3.784,-0.03067
3.788,-0.00045
3.792,-0.03905
3.796,-0.01608
3.8,-0.0115
3.804,-0.02874
3.808,0.00072
3.812,-0.03496
3.816,-0.05308
3.82,-0.06869
3.824,-0.093
3.828,-0.11916
3.832,-0.16079
3.836,-0.11622
3.84,0.02247
3.844,0.17798
3.848,0.35955
3.852,0.56656
3.856,0.75808
3.86,0.90999
3.864,0.98002
3.868,0.89061
3.872,0.75492
3.876,0.51904
3.88,0.26784
3.884,0.09769
3.888,-0.07016
3.892,-0.16454
3.896,-0.18496
3.9,-0.19001
3.904,-0.09501
3.908,-0.10761
3.912,-0.06687
3.916,-0.04458
3.92,-0.00586
3.924,-0.0245
3.928,-0.04317
3.932,-0.0126
3.936,-0.0313
3.94,-0.02975
3.944,-0.03898
3.948,-0.00887
3.952,-0.02111
3.956,-0.03686
3.96,-0.03302
3.964,-0.01366
3.968,-0.04914
3.972,-0.01277
3.976,-0.05727
3.98,-0.02132
3.984,-0.03384
3.988,-0.02111
3.992,-0.02999
3.996,0.0026
4.0,-0.03194
4.004,-0.036
4.008,-0.02616
4.012,-0.04112
4.016,-0.05008
4.02,-0.03247
4.024,-0.02624
4.028,-0.03907
4.032,-0.01402
4.036,-0.02491
4.04,0.00205
4.044,-0.00263
4.048,-0.04381
4.052,-0.00138
4.056,0.00403
4.06,-0.01465
4.064,0.02584
4.068,0.00099
4.072,0.02526
4.076,0.03406
4.08,0.07385
4.084,0.04599
4.088,0.0812
4.092,0.08152
4.096,0.09366
4.1,0.08447
4.104,0.1653
4.108,0.1036
4.112,0.13351
4.116,0.16966
4.12,0.15649
4.124,0.1738
4.128,0.16545
4.132,0.19194
4.136,0.19492
4.14,0.19752
4.144,0.18042
4.148,0.17988
4.152,0.17846
4.156,0.14058
4.16,0.16767
4.164,0.19117
4.168,0.14015
4.172,0.16275
4.176,0.13787
4.18,0.125
4.184,0.09308
4.188,0.12274
4.192,0.08054
4.196,0.08254
4.2,0.07908
4.204,0.07577
4.208,0.05261
4.212,0.04061
4.216,0.02664
4.22,0.04112
4.224,-0.00688
4.228,0.00304
4.232,-0.00408
4.236,0.00127
4.24,-0.0052
4.244,-0.00448
4.248,-0.02715
4.252,-0.0263
4.256,-0.00827
4.26,0.00575
4.264,-0.02673
4.268,-0.03538
4.272,-0.0154
4.276,-0.02668
4.28,-0.05292
4.284,-0.00953
4.288,-0.03135
4.292,-0.01727
4.296,-0.04031
4.3,-0.05414
4.304,-0.02768
4.308,-0.02631
4.312,-0.02149
4.316,-0.02335
4.32,-0.00229
4.324,-0.01292
4.328,-0.0218
4.332,-0.03498
4.336,-0.04699
4.34,-0.02005
4.344,-0.02963
4.348,-0.0259
4.352,-0.03733
4.356,-0.02646
4.36,-0.02482
4.364,-0.02719
4.368,-0.03046
4.372,-0.03723
4.376,-0.01869
4.38,-0.02045
4.384,-0.04639
4.388,-0.04033
4.392,-0.04
4.396,-0.03827
4.4,-0.03879
4.404,-0.04436
4.408,-0.05543
4.412,-0.01084
4.416,-0.03967
4.42,-0.03201
4.424,-0.01015
4.428,-0.02047
4.432,-0.00894
4.436,-0.04001
4.44,-0.02695
4.444,-0.01235
4.448,-0.03003
4.452,-0.03913
4.456,-0.02183
4.46,-0.0086
4.464,-0.05215
4.468,-0.01441
4.472,-0.01935
4.476,-0.04438
4.48,-0.03598
4.484,-0.02122
4.488,-0.05847
4.492,-0.03116
4.496,-0.02548
4.5,-0.03387
4.504,-0.03277
4.508,-0.06141
4.512,-0.05176
4.516,-0.03446
4.52,0.00955
4.524,-0.02721
4.528,-0.02162
4.532,-0.02654
4.536,-0.01731
4.54,-0.04476
4.544,0.00682
4.548,-0.03571
4.552,-0.05026
4.556,-0.03135
4.56,-0.02136
4.564,-0.01971
4.568,-0.04021
4.572,-0.00944
4.576,-0.01522
4.58,0.02247
4.584,0.00337
4.588,0.04252
4.592,0.00681
4.596,0.04464
4.6,0.08037
4.604,0.08049
4.608,0.08243
4.612,0.07638
4.616,0.08282
4.62,0.08437
4.624,0.0403
4.628,0.06284
4.632,0.05148
4.636,0.01647
4.64,0.02719
4.644,-0.00756
4.648,-0.01109
4.652,0.00043
4.656,-0.05302
4.66,-0.03026
4.664,-0.04244
4.668,-0.03312
4.672,-0.04373
4.676,-0.03442
4.68,-0.02615
4.684,-0.01859
4.688,-0.01858
4.692,-0.00551
4.696,-0.00894
4.7,-0.00988
4.704,-0.0319
4.708,-0.02511
4.712,-0.01474
4.716,-0.05001
4.72,-0.03545
4.724,-0.03563
4.728,-0.05352
4.732,-0.07556
4.736,-0.11452
4.74,-0.11591
4.744,-0.13248
4.748,-0.07349
4.752,0.06971
4.756,0.25936
4.76,0.48914
4.764,0.71347
4.768,0.88037
4.772,0.95215
4.776,0.95729
4.78,0.85362
4.784,0.62261
4.788,0.39449
4.792,0.18982
4.796,0.00489
4.8,-0.14142
4.804,-0.22516
4.808,-0.21134
4.812,-0.13875
4.816,-0.1356
4.82,-0.07395
4.824,-0.05003
4.828,-0.0441
4.832,-0.04747
4.836,-0.03266
4.84,-0.03343
4.844,-0.00502
4.848,-0.02176
4.852,0.01558
4.856,-0.00548
4.86,-0.01776
4.864,-0.04676
4.868,-0.02455
4.872,-0.03338
4.876,-0.02111
4.88,-0.03333
4.884,-0.03225
4.888,0.0049
4.892,-0.02404
4.896,-0.01968
4.9,-0.02901
4.904,-0.01896
4.908,0.00608
4.912,-0.03859
4.916,-0.01959
4.92,-0.02559
4.924,-0.00771
4.928,-0.03879
4.932,0.00606
4.936,-0.00539
4.94,-0.00829
4.944,-0.02538
4.948,-0.00553
4.952,0.02249
4.956,0.01034
4.96,-0.00804
4.964,-0.00483
4.968,-0.0045
4.972,0.0407
4.976,0.01643
4.98,0.02833
4.984,0.04986
4.988,0.02716
4.992,0.0636
4.996,0.09081
5.0,0.11045
5.004,0.10858
5.008,0.10109
5.012,0.13195
5.016,0.13439
5.02,0.14687
5.024,0.16809
5.028,0.14452
5.032,0.15731
5.036,0.21387
5.04,0.17467
5.044,0.19577
5.048,0.17356
5.052,0.20224
5.056,0.20676
5.06,0.17575
5.064,0.21538
5.068,0.18628
5.072,0.21445
5.076,0.1609
5.08,0.17217
5.084,0.17985
5.088,0.16512
5.092,0.1566
5.096,0.13698
5.1,0.11314
5.104,0.11254
5.108,0.09512
5.112,0.06862
5.116,0.0759
5.12,0.07292
5.124,0.05963
5.128,-0.0016
5.132,0.0309
5.136,0.02415
5.14,0.02206
5.144,0.02383
5.148,0.02391
5.152,0.01978
5.156,0.00537
5.16,0.01728
5.164,-0.01683
5.168,-0.00179
5.172,0.018
5.176,-0.00237
5.18,-0.02392
5.184,-0.0104
5.188,-0.01433
5.192,-0.02942
5.196,-0.01307
5.2,-0.00487
5.204,-0.0302
5.208,-0.00506
5.212,-0.05129
5.216,-0.02494
5.22,-0.00959
5.224,-0.00904
5.228,-0.00123
5.232,-0.01847
5.236,-0.02341
5.24,-0.04749
5.244,-0.02466
5.248,-0.0299
5.252,0.00109
5.256,-0.00384
5.26,-0.01081
5.264,0.00263
5.268,0.01003
5.272,-0.00056
5.276,-0.01949
5.28,-0.02453
5.284,0.00059
5.288,0.0211
5.292,-0.00332
5.296,-0.02094
5.3,-0.00384
5.304,-0.02474
5.308,-0.03764
5.312,-0.00746
5.316,-0.02082
5.32,0.00965
5.324,-0.05552
5.328,-0.02027
5.332,-0.00971
5.336,-0.01772
5.34,-0.01277
5.344,0.00762
5.348,-0.03301
5.352,-0.0301
5.356,-0.03021
5.36,0.0042
5.364,-0.01815
5.368,-0.01004
5.372,-0.03424
5.376,-0.0293
5.38,-0.0147
5.384,0.03332
5.388,-0.02165
5.392,-0.02678
5.396,0.00201
5.4,-0.00403
5.404,-0.05066
5.408,-0.0053
5.412,-0.02209
5.416,-0.0057
5.42,-0.01185
5.424,0.01147
5.428,-0.00904
5.432,-0.02187
5.436,-0.00113
5.44,-0.03111
5.444,-0.03597
5.448,-0.0064
5.452,-0.0283
5.456,-0.0001
5.46,-0.00462
5.464,-0.00833
5.468,0.00678
5.472,0.00375
5.476,-0.00186
5.48,0.00119
5.484,-0.00018
5.488,-0.00282
5.492,-0.02618
5.496,-0.05051
5.5,-0.03513
5.504,-0.02193
5.508,0.00084
5.512,-0.03304
5.516,-0.01257
5.52,-0.01044
5.524,-0.00382
5.528,0.00279
5.532,-0.00795
5.536,-0.00571
5.54,-0.03421
5.544,-0.01411
5.548,-0.01403
5.552,0.01909
5.556,0.0155
5.56,0.01365
5.564,-0.00415
5.568,-0.00856
5.572,-0.01862
5.576,-0.01122
5.58,-0.03156
5.584,-0.01665
5.588,-0.01907
5.592,-0.00936
5.596,0.05
5.6,0.01804
5.604,-0.01976
5.608,0.01664
5.612,-0.01593
5.616,-0.02305
5.62,-0.00463
5.624,-0.01348
5.628,-0.02172
5.632,-0.01104
5.636,-0.00452
5.64,0.03195
5.644,-0.01257
5.648,0.00014
5.652,0.03215
5.656,0.00858
5.66,0.022
5.664,0.02341
5.668,0.04724
5.672,0.06637
5.676,0.06168
5.68,0.10669
5.684,0.07045
5.688,0.08852
5.692,0.0873
5.696,0.08794
5.7,0.06047
5.704,0.06017
5.708,0.05855
5.712,0.0627
5.716,0.046
5.72,0.0263
5.724,0.0166
5.728,0.03847
5.732,0.00567
5.736,0.00674
5.74,0.00337
5.744,0.00461
5.748,0.00535
5.752,-0.00301
5.756,0.01431
5.76,0.01062
5.764,0.00295
5.768,0.02719
5.772,-0.01859
5.776,0.0014
5.78,0.01067
5.784,-0.01223
5.788,0.00748
5.792,-0.00399
5.796,-0.01891
5.8,0.00357
5.804,-0.03468
5.808,-0.05697
5.812,-0.08939
5.816,-0.12389
5.82,-0.11441
5.824,-0.03765
5.828,0.09386
5.832,0.30047
5.836,0.49309
5.84,0.73037
5.844,0.88183
5.848,1.0036
5.852,0.97072
5.856,0.84393
5.86,0.67107
5.864,0.41486
5.868,0.23814
5.872,0.04487
5.876,-0.08615
5.88,-0.16105
5.884,-0.16339
5.888,-0.13998
5.892,-0.06601
5.896,-0.04476
5.9,-0.0322
5.904,-0.01983
5.908,0.01263
5.912,0.00197
5.916,0.01896
5.92,0.00586
5.924,0.01643
5.928,-0.03066
5.932,0.01087
5.936,-0.00754
5.94,0.01694
5.944,0.01818
5.948,0.01266
5.952,0.00486
5.956,0.00557
5.96,0.00673
5.964,0.00706
5.968,-0.01476
5.972,0.01294
5.976,0.00808
5.98,-0.00104
5.984,0.025
5.988,0.00177
5.992,0.01672
5.996,0.02493
6.0,0.03994
6.004,0.01116
6.008,0.02256
6.012,-0.01066
6.016,0.01433
6.02,0.01025
6.024,0.02506
6.028,-0.00107
6.032,0.03844
6.036,0.03945
6.04,0.05501
6.044,0.0439
6.048,0.04871
6.052,0.0576
6.056,0.07416
6.06,0.05209
6.064,0.10106
6.068,0.08807
6.072,0.07704
6.076,0.12117
6.08,0.15698
6.084,0.13006
6.088,0.13554
6.092,0.12278
6.096,0.14805
6.1,0.19022
6.104,0.18445
6.108,0.2123
6.112,0.20265
6.116,0.22829
6.12,0.21252
6.124,0.2468
6.128,0.2204
6.132,0.26217
6.136,0.22033
6.14,0.21741
6.144,0.23906
6.148,0.23865
6.152,0.18938
6.156,0.17131
6.16,0.20504
6.164,0.16824
6.168,0.1457
6.172,0.17165
6.176,0.11753
6.18,0.12935
6.184,0.12569
6.188,0.1198
6.192,0.11207
6.196,0.07205
6.2,0.08339
6.204,0.07453
6.208,0.08402
6.212,0.06181
6.216,0.03051
6.22,0.02225
6.224,0.02904
6.228,0.06792
6.232,0.02716
6.236,0.01082
6.24,0.0264
6.244,0.03684
6.248,0.02555
6.252,0.01469
6.256,0.04332
6.26,0.03319
6.264,0.03399
6.268,0.00037
6.272,0.00374
6.276,0.0044
6.28,0.01314
6.284,0.01599
6.288,-0.00796
6.292,-0.00214
6.296,0.01668
6.3,0.02002
6.304,0.04151
6.308,0.01524
6.312,0.02969
6.316,-0.01492
6.32,0.02081
6.324,-0.00844
6.328,0.00135
6.332,0.01667
6.336,0.01667
6.34,0.00495
6.344,0.02561
6.348,-0.01119
6.352,0.00738
6.356,0.01824
6.36,0.00783
6.364,0.01869
6.368,0.04555
6.372,0.0075
6.376,0.01396
6.38,0.00171
6.384,-0.00318
6.388,0.01293
6.392,0.0305
6.396,0.00377
6.4,0.03282
6.404,0.02083
6.408,-0.00142
6.412,-0.00476
6.416,-0.00236
6.42,0.02193
6.424,0.01276
6.428,0.03453
6.432,0.0143
6.436,0.02093
6.44,0.02987
6.444,0.04718
6.448,-0.00442
6.452,0.03431
6.456,0.01813
6.46,0.03013
6.464,0.01222
6.468,0.03845
6.472,0.0059
6.476,0.02482
6.48,0.02547
6.484,0.03415
6.488,0.00053
6.492,-0.00635
6.496,0.04542
6.5,0.03764
6.504,0.01513
6.508,0.01898
6.512,0.00078
6.516,0.0452
6.52,-0.00344
6.524,0.02683
6.528,0.01922
6.532,0.03549
6.536,0.0373
6.54,0.00356
6.544,0.0056
6.548,0.02429
6.552,-0.00414
6.556,0.03535
6.56,0.02895
6.564,-0.00904
6.568,0.04699
6.572,0.00825
6.576,0.03415
6.58,0.00577
6.584,0.04317
6.588,0.01706
6.592,0.00871
6.596,0.03738
6.6,0.01518
6.604,0.00655
6.608,0.00751
6.612,0.02474
6.616,0.02726
6.62,0.01469
6.624,0.01399
6.628,0.02055
6.632,0.01068
6.636,0.03986
6.64,0.03995
6.644,0.00836
6.648,0.01264
6.652,0.06092
6.656,0.03143
6.66,0.00821
6.664,0.02558
6.668,0.01425
6.672,0.01807
6.676,0.03967
6.68,0.01302
6.684,0.01376
6.688,0.01928
6.692,0.02838
6.696,0.01847
6.7,0.05233
6.704,0.01216
6.708,0.0382
6.712,0.00755
6.716,0.00342
6.72,0.02015
6.724,0.01955
6.728,-0.00675
6.732,0.00619
6.736,0.03591
6.74,0.04394
6.744,0.05085
6.748,0.04473
6.752,0.01328
6.756,0.02788
6.76,0.02641
6.764,0.01613
6.768,0.03659
6.772,0.02403
6.776,0.04054
6.78,0.03807
6.784,0.04104
6.788,0.03324
6.792,0.0142
6.796,0.01159
6.8,0.02937
6.804,0.02459
6.808,0.04139
6.812,0.0054
6.816,0.03886
6.82,0.02727
6.824,0.00275
6.828,0.03843
6.832,0.02994
6.836,0.01805
6.84,0.0145
6.844,0.04168
6.848,0.01364
6.852,0.04999
6.856,0.02168
6.86,0.03236
6.864,0.02861
6.868,0.02766
6.872,0.03146
6.876,0.0109
6.88,0.04761
6.884,0.03805
6.888,0.03515
6.892,0.02815
6.896,0.02812
6.9,0.04949
6.904,0.03082
6.908,0.02891
6.912,0.02659
6.916,0.02546
6.92,0.06721
6.924,0.0695
6.928,0.05464
6.932,0.08813
6.936,0.10291
6.94,0.13334
6.944,0.12476
6.948,0.13889
6.952,0.16826
6.956,0.1024
6.96,0.14523
6.964,0.11855
6.968,0.10351
6.972,0.07521
6.976,0.07175
6.98,0.07829
6.984,0.03941
6.988,0.02927
6.992,0.05893
6.996,0.03366
7.0,0.029
7.004,0.01058
7.008,0.02694
7.012,0.02629
7.016,0.02536
7.02,0.02442
7.024,0.02976
7.028,0.03953
7.032,0.01016
7.036,0.02731
7.04,0.03094
7.044,0.01987
7.048,0.02231
7.052,0.00562
7.056,0.00343
7.06,0.01495
7.064,0.01459
7.068,0.00425
7.072,-0.01097
7.076,-0.06783
7.08,-0.07093
7.084,-0.05843
7.088,0.05122
7.092,0.20731
7.096,0.40083
7.1,0.65102
7.104,0.82301
7.108,0.97356
7.112,1.04292
7.116,0.9582
7.12,0.81048
7.124,0.60046
7.128,0.37488
7.132,0.15653
7.136,-0.0194
7.14,-0.1093
7.144,-0.13759
7.148,-0.13536
7.152,-0.10292
7.156,-0.03048
7.16,0.01677
7.164,0.01264
7.168,-0.00597
7.172,0.06346
7.176,0.02424
7.18,0.02874
7.184,0.03391
7.188,0.02095
7.192,0.04761
7.196,0.03947
7.2,0.04327
7.204,0.03399
7.208,0.02687
7.212,0.04495
7.216,0.01331
7.22,0.01517
7.224,0.03261
7.228,0.03062
7.232,0.01025
7.236,0.01359
7.24,0.01455
7.244,0.04653
7.248,0.01728
7.252,0.01124
7.256,0.00793
7.26,0.03283
7.264,0.01663
7.268,0.02794
7.272,0.05824
7.276,0.03968
7.28,0.00783
7.284,0.05084
7.288,0.01994
7.292,0.0371
7.296,0.05948
7.3,0.04049
7.304,0.03592
7.308,0.074
7.312,0.02718
7.316,0.06545
7.32,0.08931
7.324,0.09429
7.328,0.07408
7.332,0.1151
7.336,0.14007
7.34,0.10643
7.344,0.14956
7.348,0.16396
7.352,0.19339
7.356,0.19844
7.36,0.18673
7.364,0.19591
7.368,0.22251
7.372,0.1973
7.376,0.24842
7.38,0.25725
7.384,0.25722
7.388,0.24139
7.392,0.23737
7.396,0.22917
7.4,0.23987
7.404,0.25342
7.408,0.23076
7.412,0.2168
7.416,0.22982
7.42,0.20551
7.424,0.20215
7.428,0.17723
7.432,0.19054
7.436,0.17132
7.44,0.13505
7.444,0.15745
7.448,0.12598
7.452,0.12853
7.456,0.11238
7.46,0.07009
7.464,0.07944
7.468,0.11432
7.472,0.07253
7.476,0.05978
7.48,0.05381
7.484,0.04414
7.488,0.05173
7.492,0.07156
7.496,0.03527
7.5,0.0217
7.504,0.04048
7.508,0.01762
7.512,0.03282
7.516,0.06179
7.52,0.04724
7.524,0.02262
7.528,0.06997
7.532,0.02735
7.536,0.05216
7.54,0.02761
7.544,0.01719
7.548,0.02204
7.552,0.02599
7.556,0.0431
7.56,0.03174
7.564,0.04419
7.568,0.02263
7.572,0.06096
7.576,0.057
7.58,0.0263
7.584,0.02753
7.588,0.02554
7.592,0.00358
7.596,-0.01186
7.6,0.02566
7.604,0.02089
7.608,0.05008
7.612,0.02845
7.616,0.05056
7.62,0.03825
7.624,0.01491
7.628,0.06035
7.632,0.04482
7.636,0.03299
7.64,0.06285
7.644,0.01354
7.648,0.04655
7.652,0.05287
7.656,0.0409
7.66,0.05159
7.664,0.01681
7.668,0.03129
7.672,0.03581
7.676,0.02748
7.68,0.05849
7.684,0.01683
7.688,0.04666
7.692,0.02944
7.696,0.03828
7.7,0.03188
7.704,0.02145
7.708,0.04612
7.712,0.00715
7.716,0.02981
7.72,0.04358
7.724,0.01831
7.728,0.03474
7.732,0.02722
7.736,0.00255
7.74,0.03081
7.744,0.04236
7.748,0.02609
7.752,0.04995
7.756,0.00732
7.76,0.0283
7.764,0.04088
7.768,0.02398
7.772,0.02936
7.776,0.01947
7.78,0.01425
7.784,0.03861
7.788,0.0727
7.792,0.02443
7.796,0.03281
7.8,0.04154
7.804,0.02191
7.808,0.04894
7.812,0.0305
7.816,0.05659
7.82,0.03506
7.824,0.01928
7.828,0.05051
7.832,0.01926
7.836,0.06517
7.84,0.04077
7.844,0.05134
7.848,0.06511
7.852,0.10547
7.856,0.09635
7.86,0.13505
7.864,0.13354
7.868,0.13009
7.872,0.13456
7.876,0.11989
7.88,0.11889
7.884,0.09622
7.888,0.09885
7.892,0.07345
7.896,0.08474
7.9,0.06656
7.904,0.05385
7.908,0.06034
7.912,0.02709
7.916,0.05015
7.92,0.03985
7.924,-0.00202
7.928,0.02823
7.932,0.03279
7.936,0.01682
7.94,0.04179
7.944,0.00173
7.948,0.0155
7.952,0.01299
7.956,0.04939
7.96,0.03398
7.964,0.00649
7.968,0.05209
7.972,0.05525
7.976,0.04696
7.98,-0.00213
7.984,0.00374
7.988,-0.00934
7.992,-0.03973
7.996,-0.06997
8.0,-0.08865
8.004,-0.0301
8.008,0.06857
8.012,0.21337
8.016,0.43037
8.02,0.63232
8.024,0.83897
8.028,0.99647
8.032,1.04072
8.036,0.96055
8.04,0.76176
8.044,0.54764
8.048,0.34008
8.052,0.14366
8.056,-0.04859
8.06,-0.13668
8.064,-0.14783
8.068,-0.12408
8.072,-0.08085
8.076,-0.05461
8.08,0.01051
8.084,-0.01822
8.088,0.02061
8.092,0.02917
8.096,0.03515
8.1,0.02464
8.104,0.04036
8.108,0.02553
8.112,-0.00074
8.116,0.0189
8.12,0.0264
8.124,0.00302
8.128,0.05256
8.132,-0.00361
8.136,0.02398
8.14,0.04013
8.144,0.01156
8.148,0.04126
8.152,-0.00053
8.156,-0.00292
8.16,0.02323
8.164,0.03019
8.168,0.04007
8.172,0.03905
8.176,0.04209
8.18,0.04481
8.184,0.03534
8.188,0.03453
8.192,0.01747
8.196,0.0058
8.2,0.04961
8.204,0.06163
8.208,0.03095
8.212,0.03743
8.216,0.0494
8.22,0.0304
8.224,0.04674
8.228,0.05597
8.232,0.04115
8.236,0.09087
8.24,0.07431
8.244,0.09371
8.248,0.07783
8.252,0.0803
8.256,0.11834
8.26,0.13078
8.264,0.13942
8.268,0.15421
8.272,0.1678
8.276,0.16833
8.28,0.19027
8.284,0.21741
8.288,0.23587
8.292,0.24611
8.296,0.21206
8.3,0.23248
8.304,0.23101
8.308,0.23288
8.312,0.26368
8.316,0.23278
8.32,0.22731
8.324,0.21734
8.328,0.22045
8.332,0.20666
8.336,0.21057
8.34,0.19486
8.344,0.21447
8.348,0.18806
8.352,0.14512
8.356,0.15166
8.36,0.14734
8.364,0.1422
8.368,0.09994
8.372,0.08892
8.376,0.09058
8.38,0.09979
8.384,0.08599
8.388,0.07685
8.392,0.02898
8.396,0.01281
8.4,0.03906
8.404,0.04198
8.408,0.03581
8.412,0.03756
8.416,0.01236
8.42,0.06144
8.424,0.00555
8.428,0.03665
8.432,0.04163
8.436,-0.00152
8.44,0.01348
8.444,0.01996
8.448,0.01044
8.452,-0.00403
8.456,0.01829
8.46,0.01109
8.464,0.00649
8.468,0.01947
8.472,0.02116
8.476,0.01087
8.48,0.00639
8.484,0.01639
8.488,-0.00927
8.492,-0.00091
8.496,0.02032
8.5,0.01833
8.504,0.02113
8.508,-0.00206
8.512,0.01444
8.516,-0.00275
8.52,0.01009
8.524,0.01748
8.528,-0.01192
8.532,0.00888
8.536,0.00174
8.54,0.01237
8.544,0.03687
8.548,0.00641
8.552,0.018
8.556,0.0278
8.56,-0.00132
8.564,0.00588
8.568,0.01675
8.572,0.00979
8.576,0.01507
8.58,0.01619
8.584,0.00626
8.588,-0.00967
8.592,-0.01117
8.596,0.0007
8.6,0.01827
8.604,0.02693
8.608,0.00573
8.612,-0.00503
8.616,-0.00606
8.62,0.00822
8.624,-0.00317
8.628,0.00439
8.632,0.00986
8.636,0.02995
8.64,0.02626
8.644,-0.01535
8.648,0.00865
8.652,-0.01013
8.656,0.0236
8.66,0.02104
8.664,-0.01535
8.668,0.01964
8.672,0.01318
8.676,0.01942
8.68,0.039
8.684,0.02219
8.688,0.01652
8.692,-0.00218
8.696,0.00405
8.7,0.0119
8.704,0.02602
8.708,-0.00435
8.712,-0.01644
8.716,0.02895
8.72,0.02846
8.724,-0.00534
8.728,0.03841
8.732,0.01526
8.736,0.01933
8.74,-0.0046
8.744,0.02627
8.748,-4e-05
8.752,-0.01067
8.756,0.00415
8.76,0.02562
8.764,0.02485
8.768,0.02253
8.772,0.00074
8.776,0.01792
8.78,0.00044
8.784,0.01827
8.788,0.00039
8.792,-0.00497
8.796,-6e-05
8.8,0.00405
8.804,-0.00248
8.808,0.00869
8.812,0.00242
8.816,-0.00696
8.82,0.01629
8.824,0.00327
8.828,0.00098
8.832,-0.00751
8.836,0.02355
8.84,0.00932
8.844,-0.01237
8.848,0.01291
8.852,0.01749
8.856,-0.00482
8.86,0.00061
8.864,0.00138
8.868,0.02205
8.872,0.0098
8.876,0.02248
8.88,0.01804
8.884,0.00145
8.888,-0.0018
8.892,0.00839
8.896,-0.01113
8.9,0.01243
8.904,0.00623
8.908,0.023
8.912,0.00867
8.916,-0.00167
8.92,0.03112
8.924,0.02059
8.928,0.02085
8.932,0.03387
8.936,0.0143
8.94,-0.0042
8.944,0.02978
8.948,-0.00105
8.952,0.001
8.956,-0.00808
8.96,0.00878
8.964,0.01342
8.968,0.02218
8.972,5e-05
8.976,0.00239
8.98,-0.01161
8.984,-0.01124
8.988,0.00932
8.992,-0.01102
8.996,0.01
9.0,0.0181
9.004,0.0132
9.008,0.03932
9.012,0.03085
9.016,0.03903
9.02,0.04913
9.024,0.04434
9.028,0.08216
9.032,0.08118
9.036,0.08995
9.04,0.09924
9.044,0.10458
9.048,0.11125
9.052,0.07891
9.056,0.09877
9.06,0.05822
9.064,0.06763
9.068,0.05698
9.072,0.04207
9.076,0.05386
9.08,0.0051
9.084,0.02612
9.088,-0.00409
9.092,-0.02483
9.096,-0.02433
9.1,0.00116
9.104,-0.00564
9.108,0.02468
9.112,0.01668
9.116,-0.01741
9.12,0.00672
9.124,-0.00816
9.128,0.00464
9.132,0.03112
9.136,0.00194
9.14,-0.0087
9.144,-0.00434
9.148,0.00112
9.152,-0.00981
9.156,0.00016
9.16,-0.02124
9.164,-0.02405
9.168,-0.11787
9.172,-0.12686
9.176,-0.10212
9.18,-0.00759
9.184,0.13486
9.188,0.32261
9.192,0.54636
9.196,0.77002
9.2,0.91423
9.204,0.99552
9.208,0.93531
9.212,0.80378
9.216,0.59829
9.22,0.39174
9.224,0.15013
9.228,0.00494
9.232,-0.11148
9.236,-0.14903
9.24,-0.18445
9.244,-0.12803
9.248,-0.08102
9.252,-0.08334
9.256,-0.03234
9.26,-0.00723
9.264,-0.0198
9.268,0.00557
9.272,-0.00221
9.276,0.03434
9.28,-0.02271
9.284,-0.00176
9.288,-0.00322
9.292,-0.02681
9.296,-0.00711
9.3,0.0177
9.304,-0.02374
9.308,0.01742
9.312,-0.01485
9.316,-0.02272
9.32,-0.0201
9.324,-0.01756
9.328,-0.00902
9.332,-0.01523
9.336,0.00056
9.34,-0.00288
9.344,0.00451
9.348,0.00222
9.352,0.00946
9.356,-0.00573
9.36,-0.02554
9.364,-0.00741
9.368,0.01089
9.372,0.03247
9.376,-0.0238
9.38,0.01596
9.384,0.03393
9.388,0.02819
9.392,0.00989
9.396,0.0282
9.4,0.01825
9.404,0.02927
9.408,0.05446
9.412,0.06053
9.416,0.06281
9.42,0.06492
9.424,0.07653
9.428,0.07802
9.432,0.08553
9.436,0.10634
9.44,0.13936
9.444,0.15699
9.448,0.15389
9.452,0.15692
9.456,0.18202
9.46,0.18281
9.464,0.19536
9.468,0.1777
9.472,0.21392
9.476,0.22465
9.48,0.19366
9.484,0.19828
9.488,0.23654
9.492,0.22461
9.496,0.20622
9.5,0.21022
9.504,0.18051
9.508,0.18925
9.512,0.15671
9.516,0.18946
9.52,0.13687
9.524,0.12808
9.528,0.11635
9.532,0.09761
9.536,0.1089
9.54,0.07558
9.544,0.1224
9.548,0.06529
9.552,0.05482
9.556,0.07352
9.56,0.07645
9.564,0.04347
9.568,0.00804
9.572,0.01772
9.576,0.03151
9.58,0.00598
9.584,0.00404
9.588,0.01696
9.592,0.00752
9.596,0.02828
9.6,0.00541
9.604,-0.0113
9.608,0.00581
9.612,-0.01533
9.616,-0.01304
9.62,0.00197
9.624,0.00891
9.628,-0.01441
9.632,-0.00179
9.636,-0.01947
9.64,-0.0118
9.644,-0.00516
9.648,-0.02263
9.652,0.00335
9.656,-0.02582
9.66,-0.0341
9.664,-0.00874
9.668,-0.0083
9.672,-0.00758
9.676,-0.03217
9.68,0.00903
9.684,-0.01818
9.688,-0.00283
9.692,-0.0388
9.696,-0.01041
9.7,-0.01478
9.704,-0.00295
9.708,-0.01061
9.712,-0.03095
9.716,-0.02564
9.72,-0.00942
9.724,-0.00698
9.728,0.02538
9.732,-0.02313
9.736,-0.02093
9.74,-0.03725
9.744,-0.03434
9.748,-0.02102
9.752,-0.02713
9.756,-0.00046
9.76,-0.00772
9.764,-0.02233
9.768,-0.03541
9.772,-0.01621
9.776,-0.02849
9.78,-0.00649
9.784,-0.01325
9.788,-0.03621
9.792,-0.01493
9.796,0.00888
9.8,-0.04522
9.804,-0.02118
9.808,-0.01728
9.812,-0.00884
9.816,-0.02446
9.82,-0.02746
9.824,-0.01104
9.828,-0.01274
9.832,-0.00363
9.836,-0.01997
9.84,0.00321
9.844,-0.02379
9.848,-0.0228
9.852,-0.02018
9.856,-0.02288
9.86,-0.02839
9.864,-0.03989
9.868,0.00614
9.872,-0.03097
9.876,-0.01922
9.88,-0.01083
9.884,-0.00028
9.888,-0.00354
9.892,-0.02154
9.896,-0.02483
9.9,-0.01463
9.904,0.00214
9.908,-0.04033
9.912,-0.02783
9.916,-0.02735
9.92,-0.02647
9.924,-0.04621
9.928,-0.03187
9.932,-0.00642
9.936,-0.00075
9.94,0.01509
9.944,-0.01991
9.948,-0.04624
9.952,-0.01085
9.956,-0.02443
9.96,-0.01593
9.964,-0.04792
9.968,-0.01709
9.972,-0.01931
9.976,-0.04429
9.98,-0.02145
9.984,0.00278
9.988,-0.0267
9.992,-0.02331
9.996,-0.02553
