t_seg,ecg_mV
0.0,0.02019
0.004,-0.00684
0.008,-0.01899
0.012,0.01039
0.016,0.01387
0.02,-0.00759
0.024,-0.01445
0.028,-0.00191
0.032,0.01103
0.036,0.01382
0.04,-0.04907
0.044,-0.03075
0.048,0.00516
0.052,-0.01649
0.056,-0.02189
0.06,0.01221
0.064,-0.02434
0.068,0.00071
0.072,-0.06187
0.076,0.03886
0.08,-0.04242
0.084,-0.03405
0.088,0.06334
0.092,0.02843
0.096,-0.00486
0.1,-0.03593
0.104,-0.03817
0.108,-0.07782
0.112,-0.04732
0.116,-0.11732
0.12,-0.00853
0.124,-0.01706
0.128,-0.05988
0.132,-0.01995
0.136,-0.07978
0.14,-0.03776
0.144,-0.00879
0.148,0.01203
0.152,-0.01063
0.156,-0.052
0.16,-0.04039
0.164,0.03807
0.168,-0.09149
0.172,0.01891
0.176,-0.09679
0.18,-0.05837
0.184,0.00291
0.188,-0.03432
0.192,-0.05404
0.196,0.00432
0.2,0.00894
0.204,-0.04738
0.208,-0.0151
0.212,0.04332
0.216,-0.02503
0.22,-0.01282
0.224,-0.0154
0.228,-0.01336
0.232,-0.0164
0.236,-0.03825
0.24,-0.01148
0.244,-0.05879
0.248,-0.03401
0.252,-0.0452
0.256,-0.02775
0.26,-0.00339
0.264,-0.04434
0.268,-0.03241
0.272,-0.00169
0.276,-0.05017
0.28,-0.00712
0.284,-0.05453
0.288,0.0179
0.292,-0.00752
0.296,-0.01621
0.3,-0.01572
0.304,-0.01566
0.308,0.08467
0.312,0.00615
0.316,0.05684
0.32,0.06285
0.324,0.04378
0.328,0.03859
0.332,0.10801
0.336,0.11654
0.34,0.10504
0.344,0.0346
0.348,0.07754
0.352,0.04969
0.356,0.06748
0.36,0.0212
0.364,-0.01528
0.368,0.01735
0.372,-0.03514
0.376,0.04103
0.38,-0.01565
0.384,-0.00289
0.388,0.01681
0.392,0.05716
0.396,-0.00725
0.4,-0.07355
0.404,-0.07684
0.408,-0.07293
0.412,-0.01552
0.416,-0.04143
0.42,0.00727
0.424,-0.03913
0.428,-0.06277
0.432,0.02138
0.436,-0.02375
0.44,-0.00311
0.444,-0.04839
0.448,-0.01666
0.452,0.01505
0.456,-0.06367
0.46,-0.1278
0.464,-0.0772
0.468,-0.10454
0.472,-0.11073
0.476,-0.01651
0.48,0.20824
0.484,0.45306
0.488,0.66108
0.492,0.79657
0.496,0.95175
0.5,1.00502
0.504,0.90618
0.508,0.68144
0.512,0.48638
0.516,0.3078
0.52,0.11126
0.524,-0.09031
0.528,-0.15545
0.532,-0.18013
0.536,-0.15229
0.54,-0.1971
0.544,-0.0424
0.548,-0.0296
0.552,-0.06576
0.556,0.00628
0.56,-0.07072
0.564,-0.07486
0.568,-0.07461
0.572,0.00022
0.576,-0.03827
0.58,-0.07468
0.584,0.00565
0.588,-0.02907
0.592,-0.08252
0.596,-0.06541
0.6,-0.08013
0.604,-0.03654
0.608,0.0049
0.612,0.00738
0.616,-0.02859
0.62,-0.00232
0.624,-0.06812
0.628,-0.04202
0.632,-0.03352
0.636,0.0192
0.64,-0.03037
0.644,0.04607
0.648,-0.04655
0.652,-0.06827
0.656,-0.11546
0.66,-0.02018
0.664,0.00441
0.668,-0.01286
0.672,0.00317
0.676,0.00725
0.68,-0.0276
0.684,-0.0
0.688,0.0406
0.692,0.02339
0.696,0.01813
0.7,-0.04096
0.704,-0.0099
0.708,0.01872
0.712,0.01584
0.716,-0.00926
0.72,0.05275
0.724,0.11302
0.728,0.12286
0.732,0.09373
0.736,0.13118
0.74,0.17604
0.744,0.13976
0.748,0.12845
0.752,0.17378
0.756,0.19843
0.76,0.16615
0.764,0.23105
0.768,0.19459
0.772,0.19319
0.776,0.22293
0.78,0.19948
0.784,0.20589
0.788,0.1636
0.792,0.18065
0.796,0.13878
0.8,0.20137
0.804,0.06451
0.808,0.11852
0.812,0.14049
0.816,0.10732
0.82,0.11155
0.824,0.07034
0.828,0.13819
0.832,0.03022
0.836,0.07066
0.84,0.05962
0.844,0.0641
0.848,0.01602
0.852,0.03748
0.856,-0.02287
0.86,0.01681
0.864,0.0254
0.868,-0.04322
0.872,-0.01465
0.876,-0.03589
0.88,0.00941
0.884,0.02183
0.888,0.03171
0.892,-0.00269
0.896,-0.02737
0.9,-0.07449
0.904,-0.06041
0.908,0.0143
0.912,-0.03935
0.916,-0.04581
0.92,-0.04408
0.924,-0.05804
0.928,-0.04029
0.932,-0.02356
0.936,-0.03863
0.94,0.0032
0.944,-0.0822
0.948,-0.02481
0.952,-0.06535
0.956,-0.07399
0.96,-0.11275
0.964,0.03338
0.968,-0.04168
0.972,-0.0429
0.976,-0.04505
0.98,-0.0352
0.984,0.0283
0.988,0.01478
0.992,-0.01719
0.996,-0.02754
1.0,-0.06541
1.004,0.01008
1.008,-0.03061
1.012,0.02831
1.016,0.0495
1.02,-0.04546
1.024,-0.03217
1.028,0.01915
1.032,-0.03275
1.036,-0.04507
1.04,-0.0018
1.044,0.00431
1.048,-0.0438
1.052,-0.03547
1.056,-0.01176
1.06,0.02363
1.064,-0.03855
1.068,0.04634
1.072,0.04303
1.076,0.05395
1.08,0.10513
1.084,0.11689
1.088,0.08963
1.092,0.09738
1.096,0.01617
1.1,0.06474
1.104,0.09505
1.108,0.0681
1.112,0.05352
1.116,0.0907
1.12,0.0115
1.124,0.02283
1.128,0.0133
1.132,0.00518
1.136,0.02791
1.14,0.04737
1.144,-0.03754
1.148,-0.00534
1.152,-0.01703
1.156,-0.00382
1.16,-0.02676
1.164,-0.04348
1.168,-0.01112
1.172,-0.0767
1.176,-0.04359
1.18,-0.05695
1.184,-0.01678
1.188,-0.08946
1.192,-0.03969
1.196,-0.00466
1.2,-0.04431
1.204,-0.08414
1.208,-0.04087
1.212,-0.07126
1.216,-0.1916
1.22,-0.12052
1.224,-0.11991
1.228,-0.00607
1.232,0.05193
1.236,0.3209
1.24,0.54231
1.244,0.82503
1.248,0.92912
1.252,1.01341
1.256,0.91946
1.26,0.83418
1.264,0.60253
1.268,0.40814
1.272,0.14352
1.276,-0.03038
1.28,-0.11845
1.284,-0.22733
1.288,-0.1914
1.292,-0.06985
1.296,-0.14636
1.3,-0.07413
1.304,-0.08035
1.308,-0.02649
1.312,-0.00699
1.316,-0.01334
1.32,0.02174
1.324,-0.01425
1.328,-0.0864
1.332,-0.07584
1.336,-0.03117
1.34,-0.02077
1.344,0.01491
1.348,-0.02446
1.352,-0.06547
1.356,-0.04177
1.36,-0.0312
1.364,-0.05386
1.368,-0.03266
1.372,-0.04582
1.376,-0.02087
1.38,-0.0082
1.384,0.01933
1.388,-0.02113
1.392,0.00268
1.396,0.00396
1.4,-0.02571
1.404,-0.02908
1.408,-0.08871
1.412,0.05875
1.416,-0.0689
1.42,-0.03453
1.424,-0.04111
1.428,-0.0212
1.432,0.02135
1.436,-0.02088
1.44,-0.04439
1.444,0.02266
1.448,0.04293
1.452,0.05372
1.456,0.00772
1.46,0.07466
1.464,0.02218
1.468,0.00548
1.472,0.0781
1.476,0.11601
1.48,0.08819
1.484,0.07266
1.488,0.11093
1.492,0.11823
1.496,0.15923
1.5,0.10392
1.504,0.17371
1.508,0.16675
1.512,0.20123
1.516,0.18216
1.52,0.15184
1.524,0.19977
1.528,0.20253
1.532,0.21365
1.536,0.15607
1.54,0.30694
1.544,0.19155
1.548,0.17806
1.552,0.21416
1.556,0.1422
1.56,0.18675
1.564,0.09722
1.568,0.12101
1.572,0.1326
1.576,0.0731
1.58,0.02342
1.584,0.05924
1.588,0.10528
1.592,0.02924
1.596,0.0391
1.6,0.06368
1.604,0.02674
1.608,0.02881
1.612,0.05988
1.616,-0.02585
1.62,0.03379
1.624,0.00769
1.628,-0.02275
1.632,-0.0255
1.636,0.01093
1.64,-0.0345
1.644,-0.06351
1.648,-0.0102
1.652,-0.09169
1.656,-0.02748
1.66,-0.07578
1.664,0.02205
1.668,-0.02321
1.672,-0.10141
1.676,-0.03737
1.68,-0.01011
1.684,-0.0378
1.688,-0.07463
1.692,-0.04794
1.696,0.00138
1.7,0.01489
1.704,-0.01421
1.708,-0.04869
1.712,0.01766
1.716,-0.05035
1.72,-0.05887
1.724,-0.04181
1.728,-0.05185
1.732,0.03278
1.736,-0.02415
1.74,-0.00204
1.744,-0.02223
1.748,-5e-05
1.752,-0.03232
1.756,-0.06294
1.76,-0.06733
1.764,-0.05875
1.768,-0.01184
1.772,-0.03654
1.776,0.01235
1.78,0.0125
1.784,0.00317
1.788,0.0046
1.792,-0.00582
1.796,0.03142
1.8,0.00795
1.804,-0.00721
1.808,-0.06383
1.812,0.00237
1.816,-0.03051
1.82,-0.03495
1.824,0.00596
1.828,-0.03348
1.832,-0.04395
1.836,-0.04149
1.84,-0.04655
1.844,-0.03561
1.848,-0.05303
1.852,-0.02804
1.856,-0.0117
1.86,0.00209
1.864,-0.04708
1.868,-0.05929
1.872,-0.02271
1.876,0.04105
1.88,-0.04794
1.884,-0.06391
1.888,-0.0975
1.892,0.02522
1.896,-0.00739
1.9,0.0707
1.904,0.00153
1.908,-0.04712
1.912,-0.01307
1.916,-0.02121
1.92,0.00741
1.924,0.00316
1.928,0.00697
1.932,-0.05359
1.936,0.06245
1.94,-0.02825
1.944,-0.03939
1.948,0.00031
1.952,0.0129
1.956,0.03429
1.96,-0.00844
1.964,-0.01053
1.968,-0.00132
1.972,0.05692
1.976,0.02126
1.98,-0.06736
1.984,0.00309
1.988,-0.05647
1.992,-0.0135
1.996,-0.03225
2.0,-0.06764
2.004,-0.01683
2.008,-0.00596
2.012,-0.02326
2.016,0.03634
2.02,-0.0046
2.024,-0.09183
2.028,0.00769
2.032,0.01707
2.036,-0.04219
2.04,0.00816
2.044,-0.02343
2.048,0.0142
2.052,-0.03577
2.056,-0.01441
2.06,0.0124
2.064,-0.00205
2.068,0.05167
2.072,-0.02064
2.076,-0.00357
2.08,0.00058
2.084,0.0033
2.088,0.02692
2.092,0.02589
2.096,-0.0863
2.1,0.0178
2.104,0.01698
2.108,0.02331
2.112,0.00799
2.116,0.00295
2.12,-0.00754
2.124,-0.02217
2.128,0.06479
2.132,0.02401
2.136,0.08899
2.14,0.08412
2.144,0.07421
2.148,0.04094
2.152,0.03961
2.156,0.02756
2.16,0.10902
2.164,0.14567
2.168,-0.01854
2.172,0.04393
2.176,0.00092
2.18,0.06791
2.184,0.00391
2.188,0.05192
2.192,-0.03869
2.196,0.02203
2.2,-0.01101
2.204,-0.03569
2.208,0.04004
2.212,0.01437
2.216,-0.0014
2.22,0.00831
2.224,-0.02275
2.228,0.0035
2.232,0.04056
2.236,-0.00449
2.24,-0.09012
2.244,-0.0445
2.248,-0.0466
2.252,0.04649
2.256,-0.02164
2.26,-0.05333
2.264,-0.03198
2.268,-0.06216
2.272,-0.12784
2.276,-0.10184
2.28,-0.12111
2.284,-0.0777
2.288,0.16819
2.292,0.33987
2.296,0.57278
2.3,0.72854
2.304,0.88678
2.308,0.99447
2.312,0.9266
2.316,0.80964
2.32,0.55943
2.324,0.44824
2.328,0.15928
2.332,-0.03826
2.336,-0.12601
2.34,-0.15146
2.344,-0.18908
2.348,-0.14051
2.352,-0.09785
2.356,-0.00138
2.36,-0.02683
2.364,-0.02454
2.368,0.00953
2.372,0.02826
2.376,-0.03618
2.38,0.0231
2.384,0.00528
2.388,0.00064
2.392,-0.05268
2.396,-0.06727
2.4,-0.05342
2.404,-0.05221
2.408,-0.08828
2.412,-0.00227
2.416,0.05472
2.42,-0.01576
2.424,0.04106
2.428,0.02133
2.432,0.01758
2.436,-0.02858
2.44,-0.00451
2.444,-0.03121
2.448,-0.05042
2.452,0.00434
2.456,-0.05165
2.46,0.03041
2.464,0.01948
2.468,-0.00612
2.472,0.00024
2.476,-0.03653
2.48,0.05815
2.484,0.06701
2.488,-0.03783
2.492,0.01564
2.496,0.00234
2.5,0.00299
2.504,0.08278
2.508,0.02593
2.512,0.06069
2.516,0.04574
2.52,0.06572
2.524,0.14403
2.528,0.08356
2.532,0.08077
2.536,0.11253
2.54,0.12143
2.544,0.12402
2.548,0.17125
2.552,0.20942
2.556,0.24476
2.56,0.21517
2.564,0.23326
2.568,0.1745
2.572,0.21615
2.576,0.30199
2.58,0.1551
2.584,0.20897
2.588,0.23263
2.592,0.17462
2.596,0.17069
2.6,0.23418
2.604,0.2702
2.608,0.18514
2.612,0.25624
2.616,0.1914
2.62,0.15083
2.624,0.1742
2.628,0.0831
2.632,0.15125
2.636,0.13148
2.64,0.0951
2.644,0.16206
2.648,0.05462
2.652,0.09021
2.656,0.08602
2.66,0.02826
2.664,0.08191
2.668,0.07223
2.672,0.04421
2.676,0.03591
2.68,0.03419
2.684,0.05212
2.688,0.04941
2.692,-0.01642
2.696,0.06906
2.7,1e-05
2.704,0.02954
2.708,-0.02082
2.712,0.09232
2.716,0.02952
2.72,0.00832
2.724,0.02955
2.728,-0.00524
2.732,0.0634
2.736,-0.03029
2.74,-0.01949
2.744,-0.00531
2.748,0.03693
2.752,0.00179
2.756,-0.0195
2.76,0.02588
2.764,0.01069
2.768,-0.00413
2.772,-0.00587
2.776,-0.04396
2.78,-0.03463
2.784,0.07184
2.788,-0.03534
2.792,-0.00164
2.796,0.00893
2.8,0.03772
2.804,-0.02719
2.808,-0.01564
2.812,-0.02905
2.816,-0.0224
2.82,-0.00158
2.824,-0.01693
2.828,-0.00487
2.832,0.01334
2.836,0.01056
2.84,0.01402
2.844,0.08495
2.848,-0.00337
2.852,-0.00694
2.856,0.00495
2.86,-0.07212
2.864,-0.02996
2.868,-0.01296
2.872,0.01007
2.876,-0.01947
2.88,0.05525
2.884,0.00088
2.888,-0.05231
2.892,-0.02653
2.896,0.03638
2.9,0.0188
2.904,-0.00464
2.908,-0.00285
2.912,0.00558
2.916,0.03551
2.92,0.01447
2.924,0.02965
2.928,0.01654
2.932,-0.02215
2.936,0.03391
2.94,-0.0188
2.944,0.05462
2.948,0.04739
2.952,-0.00059
2.956,0.00916
2.96,0.02197
2.964,0.12635
2.968,0.03054
2.972,0.03381
2.976,-0.03839
2.98,0.05624
2.984,0.06982
2.988,0.01771
2.992,0.05166
2.996,0.00754
3.0,0.11095
3.004,0.13242
3.008,0.09137
3.012,0.07149
3.016,0.05197
3.02,0.09618
3.024,0.04598
3.028,0.09893
3.032,-0.00114
3.036,0.06791
3.04,0.04794
3.044,0.09626
3.048,0.00086
3.052,0.08148
3.056,0.01659
3.06,0.03779
3.064,0.0217
3.068,0.03348
3.072,0.01516
3.076,0.02392
3.08,-0.0416
3.084,0.07337
3.088,-0.02421
3.092,0.05443
3.096,-0.0078
3.1,0.02115
3.104,0.04625
3.108,-0.0364
3.112,-0.00529
3.116,0.03786
3.12,-0.00821
3.124,-0.0605
3.128,-0.02556
3.132,-0.0377
3.136,-6e-05
3.14,-0.02773
3.144,-0.16881
3.148,-0.12117
3.152,0.02828
3.156,0.07287
3.16,0.25079
3.164,0.55748
3.168,0.716
3.172,0.91741
3.176,1.00584
3.18,0.97897
3.184,0.88838
3.188,0.63363
3.192,0.46184
3.196,0.22635
3.2,0.02018
3.204,-0.05834
3.208,-0.07246
3.212,-0.13322
3.216,-0.06121
3.22,-0.01516
3.224,-0.03544
3.228,0.00097
3.232,0.06602
3.236,0.05776
3.24,0.0168
3.244,-0.05316
3.248,0.01137
3.252,0.01351
3.256,-0.04721
3.26,-0.00704
3.264,0.02368
3.268,0.06802
3.272,0.02908
3.276,0.07778
3.28,0.02978
3.284,-0.00049
3.288,0.01702
3.292,0.00497
3.296,0.07124
3.3,0.00255
3.304,0.05582
3.308,0.03201
3.312,-0.00973
3.316,0.05125
3.32,-0.01355
3.324,0.02161
3.328,0.0196
3.332,0.12178
3.336,0.01623
3.34,0.02848
3.344,0.03828
3.348,0.02505
3.352,-0.00873
3.356,0.0384
3.36,0.03825
3.364,0.0225
3.368,0.09485
3.372,0.04341
3.376,0.05301
3.38,0.06154
3.384,0.04416
3.388,0.06862
3.392,0.11942
3.396,0.09848
3.4,0.10629
3.404,0.14458
3.408,0.14644
3.412,0.17379
3.416,0.15426
3.42,0.17587
3.424,0.2209
3.428,0.20393
3.432,0.1929
3.436,0.18934
3.44,0.22387
3.444,0.25473
3.448,0.25556
3.452,0.24067
3.456,0.23221
3.46,0.2783
3.464,0.28048
3.468,0.22998
3.472,0.15131
3.476,0.17675
3.48,0.17558
3.484,0.17459
3.488,0.19134
3.492,0.19815
3.496,0.18014
3.5,0.15443
3.504,0.09315
3.508,0.18902
3.512,0.08423
3.516,0.11776
3.52,0.13674
3.524,0.05994
3.528,0.05781
3.532,0.13354
3.536,0.04205
3.54,0.08138
3.544,0.04889
3.548,0.03557
3.552,0.04408
3.556,0.01003
3.56,0.00554
3.564,0.04206
3.568,0.03208
3.572,0.10429
3.576,0.13643
3.58,0.02794
3.584,0.01178
3.588,0.05179
3.592,0.01358
3.596,0.03943
3.6,-0.02282
3.604,0.08091
3.608,0.03112
3.612,-0.05198
3.616,0.06914
3.62,0.0584
3.624,0.00957
3.628,-0.00449
3.632,-0.02315
3.636,0.01647
3.64,0.04892
3.644,0.01366
3.648,0.00319
3.652,0.03644
3.656,0.03964
3.66,0.00575
3.664,0.03553
3.668,-0.04518
3.672,0.03699
3.676,0.13117
3.68,0.06861
3.684,0.07892
3.688,0.06186
3.692,0.04666
3.696,0.03712
3.7,-0.0483
3.704,0.04286
3.708,0.0038
3.712,0.04959
3.716,0.03068
3.72,0.05104
3.724,0.09512
3.728,0.01508
3.732,0.01961
3.736,0.05378
3.74,-0.02903
3.744,0.12258
3.748,0.08477
3.752,0.08645
3.756,0.11284
3.76,0.1092
3.764,0.12536
3.768,0.07149
3.772,0.13194
3.776,0.07603
3.78,0.12281
3.784,0.15662
3.788,0.14729
3.792,0.06531
3.796,0.13167
3.8,0.07396
3.804,0.1199
3.808,0.03026
3.812,0.12353
3.816,0.04467
3.82,0.02523
3.824,0.04631
3.828,0.01967
3.832,0.02662
3.836,-0.02549
3.84,0.02579
3.844,0.051
3.848,-0.00757
3.852,0.01831
3.856,0.07729
3.86,0.0416
3.864,-0.02388
3.868,0.01328
3.872,0.01719
3.876,0.02675
3.88,0.08166
3.884,-0.00144
3.888,-0.01344
3.892,0.05146
3.896,-0.05137
3.9,-0.01392
3.904,-0.03972
3.908,-0.09137
3.912,-0.08575
3.916,0.01135
3.92,0.16285
3.924,0.37876
3.928,0.46866
3.932,0.76058
3.936,0.95148
3.94,1.0402
3.944,1.0047
3.948,0.945
3.952,0.70626
3.956,0.42909
3.96,0.19179
3.964,0.03554
3.968,-0.08294
3.972,-0.12984
3.976,-0.11235
3.98,-0.0464
3.984,-0.06007
3.988,-0.03365
3.992,0.06451
3.996,0.05646
4.0,-0.01224
4.004,0.00413
4.008,0.04426
4.012,0.0654
4.016,0.03345
4.02,-0.00392
4.024,-0.00911
4.028,0.05624
4.032,0.02633
4.036,0.04
4.04,0.05309
4.044,0.07374
4.048,0.08355
4.052,0.05343
4.056,0.07054
4.06,-0.02049
4.064,-0.05598
4.068,-0.01177
4.072,0.01974
4.076,0.02757
4.08,0.06562
4.084,0.04794
4.088,0.03386
4.092,0.06328
4.096,-0.0256
4.1,0.05541
4.104,0.07376
4.108,0.0279
4.112,0.02475
4.116,0.05298
4.12,0.01303
4.124,0.06388
4.128,0.02244
4.132,0.05375
4.136,0.09676
4.14,0.09141
4.144,0.08259
4.148,0.10415
4.152,-0.0007
4.156,0.0955
4.16,0.13359
4.164,0.099
4.168,0.1822
4.172,0.14111
4.176,0.1877
4.18,0.20338
4.184,0.24237
4.188,0.15293
4.192,0.18319
4.196,0.24597
4.2,0.23553
4.204,0.2303
4.208,0.18365
4.212,0.23313
4.216,0.27464
4.22,0.26422
4.224,0.23971
4.228,0.2778
4.232,0.25367
4.236,0.13072
4.24,0.24145
4.244,0.22901
4.248,0.22937
4.252,0.23909
4.256,0.16411
4.26,0.16335
4.264,0.20313
4.268,0.17441
4.272,0.10692
4.276,0.14808
4.28,0.10134
4.284,0.1582
4.288,0.14026
4.292,0.06928
4.296,0.104
4.3,0.03953
4.304,0.11729
4.308,0.05912
4.312,0.07393
4.316,0.09629
4.32,0.04576
4.324,0.07314
4.328,0.03053
4.332,0.10779
4.336,0.03613
4.34,0.00362
4.344,0.07396
4.348,0.02859
4.352,0.05945
4.356,0.05446
4.36,0.0364
4.364,0.03764
4.368,0.03684
4.372,-0.00224
4.376,-0.02101
4.38,0.08181
4.384,0.04403
4.388,-0.00502
4.392,0.06802
4.396,-0.01906
4.4,0.06389
4.404,0.03166
4.408,0.03233
4.412,0.07991
4.416,-0.01825
4.42,0.06239
4.424,0.05569
4.428,0.04129
4.432,0.0539
4.436,0.03122
4.44,0.07785
4.444,0.04991
4.448,-0.01014
4.452,0.01329
4.456,0.03847
4.46,-0.02971
4.464,0.07541
4.468,-0.00726
4.472,0.12534
4.476,0.04435
4.48,0.03723
4.484,0.07292
4.488,-0.00028
4.492,0.05209
4.496,-0.01524
4.5,0.03977
4.504,0.02701
4.508,0.00838
4.512,0.02348
4.516,0.03178
4.52,0.08273
4.524,0.09679
4.528,0.12748
4.532,0.04801
4.536,-0.04032
4.54,-0.02374
4.544,0.00309
4.548,0.01743
4.552,0.03878
4.556,0.06729
4.56,0.00299
4.564,0.01267
4.568,0.06327
4.572,0.08909
4.576,0.00818
4.58,0.00482
4.584,0.0098
4.588,0.03574
4.592,0.01116
4.596,0.04253
4.6,0.02625
4.604,0.02949
4.608,-0.01975
4.612,0.03235
4.616,0.0238
4.62,0.00558
4.624,-0.01486
4.628,0.04254
4.632,0.01808
4.636,0.04294
4.64,0.08495
4.644,-0.01334
4.648,0.02932
4.652,0.02464
4.656,0.0874
4.66,0.03291
4.664,-0.00252
4.668,0.0055
4.672,0.07133
4.676,0.11744
4.68,0.04482
4.684,0.04642
4.688,0.06142
4.692,0.0643
4.696,0.00206
4.7,0.008
4.704,0.04724
4.708,0.07052
4.712,-0.00785
4.716,0.0277
4.72,0.024
4.724,0.08554
4.728,0.05641
4.732,0.03134
4.736,0.04672
4.74,0.03555
4.744,0.11146
4.748,0.05265
4.752,0.08979
4.756,0.05042
4.76,0.09789
4.764,0.06674
4.768,0.11787
4.772,0.17635
4.776,0.06737
4.78,0.21351
4.784,0.02406
4.788,0.16741
4.792,0.12773
4.796,0.05128
4.8,0.06046
4.804,0.12818
4.808,0.03654
4.812,0.00108
4.816,0.06157
4.82,0.09868
4.824,0.03931
4.828,-0.01923
4.832,-0.00226
4.836,0.04968
4.84,0.02249
4.844,0.00466
4.848,0.02653
4.852,0.03952
4.856,-0.03193
4.86,-0.01043
4.864,0.06433
4.868,0.00766
4.872,-0.02254
4.876,-0.01401
4.88,0.05172
4.884,0.03861
4.888,0.07063
4.892,0.03039
4.896,-0.02236
4.9,-0.03127
4.904,-0.10365
4.908,-0.02482
4.912,0.0314
4.916,0.23519
4.92,0.37854
4.924,0.69112
4.928,0.89328
4.932,1.01189
4.936,1.00656
4.94,0.99979
4.944,0.76433
4.948,0.56726
4.952,0.33149
4.956,0.19583
4.96,-0.01476
4.964,-0.07554
4.968,-0.17232
4.972,-0.13132
4.976,-0.02635
4.98,-0.00896
4.984,-0.02193
4.988,-0.00872
4.992,0.0409
4.996,0.10105
5.0,0.02089
5.004,-0.01585
5.008,-0.01737
5.012,-0.02465
5.016,0.05443
5.02,-0.00331
5.024,0.03398
5.028,0.0986
5.032,0.07539
5.036,0.01717
5.04,0.05902
5.044,0.04913
5.048,-0.00916
5.052,0.00837
5.056,0.0741
5.06,0.03946
5.064,0.10086
5.068,0.01309
5.072,-0.02782
5.076,-0.05547
5.08,0.03413
5.084,0.03969
5.088,0.01954
5.092,0.03234
5.096,0.01221
5.1,-0.01238
5.104,0.03668
5.108,0.0988
5.112,0.09981
5.116,-0.02201
5.12,-0.0005
5.124,0.03755
5.128,0.07475
5.132,0.06405
5.136,0.03687
5.14,0.05427
5.144,0.14406
5.148,0.113
5.152,0.05612
5.156,0.16772
5.16,0.1406
5.164,0.15606
5.168,0.14014
5.172,0.16555
5.176,0.12065
5.18,0.16387
5.184,0.21641
5.188,0.16958
5.192,0.19596
5.196,0.22791
5.2,0.21067
5.204,0.23788
5.208,0.17034
5.212,0.27542
5.216,0.27966
5.22,0.30764
5.224,0.20734
5.228,0.24347
5.232,0.23147
5.236,0.19852
5.24,0.20231
5.244,0.14845
5.248,0.13899
5.252,0.17451
5.256,0.2008
5.26,0.13139
5.264,0.07114
5.268,0.14484
5.272,0.09176
5.276,0.03435
5.28,0.1239
5.284,0.05984
5.288,0.12211
5.292,0.07201
5.296,0.0957
5.3,0.01126
5.304,0.04605
5.308,0.06506
5.312,0.04149
5.316,0.03756
5.32,-0.03881
5.324,-0.00863
5.328,0.03995
5.332,0.01546
5.336,0.01073
5.34,0.07041
5.344,-0.01151
5.348,0.02589
5.352,0.00498
5.356,0.06818
5.36,0.05763
5.364,0.00198
5.368,0.00647
5.372,0.01864
5.376,0.03719
5.38,-0.04362
5.384,0.08023
5.388,0.03942
5.392,0.03899
5.396,0.02144
5.4,0.0373
5.404,-0.01426
5.408,-0.02035
5.412,0.02175
5.416,0.00941
5.42,0.09323
5.424,-0.02564
5.428,0.01758
5.432,0.04832
5.436,0.05671
5.44,0.05252
5.444,0.05036
5.448,-0.01261
5.452,-0.03348
5.456,-0.00141
5.46,0.02792
5.464,-0.01133
5.468,0.00297
5.472,-0.04622
5.476,0.0369
5.48,-0.05714
5.484,-0.01077
5.488,0.01397
5.492,0.00407
5.496,0.06343
5.5,0.02898
5.504,-0.02112
5.508,0.01501
5.512,0.07673
5.516,0.05451
5.52,0.00594
5.524,0.03098
5.528,0.02686
5.532,0.05113
5.536,0.04267
5.54,0.06423
5.544,-0.01282
5.548,0.00405
5.552,0.04296
5.556,0.00647
5.56,-0.01749
5.564,0.01026
5.568,0.02641
5.572,-0.02885
5.576,0.08598
5.58,0.05922
5.584,0.09142
5.588,0.03041
5.592,0.00366
5.596,0.06274
5.6,0.11018
5.604,0.15421
5.608,0.12253
5.612,0.10941
5.616,0.1016
5.62,0.11611
5.624,0.08681
5.628,0.11723
5.632,0.05506
5.636,0.06622
5.64,0.02847
5.644,0.00553
5.648,-0.00164
5.652,-0.03179
5.656,0.04552
5.66,0.05984
5.664,-0.03683
5.668,-0.00827
5.672,0.0309
5.676,-0.03147
5.68,-0.00781
5.684,0.02635
5.688,0.01763
5.692,-0.04715
5.696,0.06496
5.7,0.03904
5.704,0.03522
5.708,0.00141
5.712,0.00745
5.716,0.02428
5.72,0.02784
5.724,0.00694
5.728,0.00375
5.732,-0.07181
5.736,-0.14651
5.74,-0.15446
5.744,-0.06393
5.748,-0.02462
5.752,0.14482
5.756,0.30351
5.76,0.60127
5.764,0.7577
5.768,0.92124
5.772,1.05536
5.776,0.98791
5.78,0.80015
5.784,0.61794
5.788,0.41045
5.792,0.14155
5.796,-0.01538
5.8,-0.11022
5.804,-0.13501
5.808,-0.17263
5.812,-0.16081
5.816,-0.1017
5.82,-0.06915
5.824,-0.01743
5.828,-0.08274
5.832,0.05162
5.836,-0.01886
5.84,0.0145
5.844,-0.05321
5.848,-0.02286
5.852,0.03812
5.856,0.0173
5.86,-0.03535
5.864,0.01234
5.868,-0.0758
5.872,-0.08351
5.876,-0.00647
5.88,0.00166
5.884,-0.06222
5.888,-0.03556
5.892,0.03315
5.896,0.01655
5.9,0.02659
5.904,0.01551
5.908,-0.02692
5.912,0.05559
5.916,-0.04331
5.92,0.01573
5.924,-0.01109
5.928,-0.06829
5.932,-0.00305
5.936,-0.01629
5.94,0.07225
5.944,-0.02033
5.948,0.01701
5.952,-0.01122
5.956,0.11146
5.96,0.03632
5.964,0.1041
5.968,0.11924
5.972,0.06729
5.976,0.05722
5.98,0.07454
5.984,0.02437
5.988,0.09461
5.992,0.10707
5.996,0.18567
6.0,0.08759
6.004,0.10208
6.008,0.10613
6.012,0.11273
6.016,0.13548
6.02,0.15962
6.024,0.23056
6.028,0.16886
6.032,0.1816
6.036,0.26031
6.04,0.2091
6.044,0.25818
6.048,0.18001
6.052,0.2132
6.056,0.23616
6.06,0.25128
6.064,0.19606
6.068,0.23701
6.072,0.20961
6.076,0.16505
6.08,0.18816
6.084,0.17518
6.088,0.13847
6.092,0.1416
6.096,0.0712
6.1,0.1609
6.104,0.17379
6.108,0.11703
6.112,0.03969
6.116,0.07014
6.12,0.08129
6.124,0.07283
6.128,0.07762
6.132,-0.02778
6.136,0.02122
6.14,0.04017
6.144,0.06761
6.148,0.03342
6.152,0.00479
6.156,0.0108
6.16,-0.01417
6.164,0.05467
6.168,0.03481
6.172,-0.02758
6.176,0.0137
6.18,-0.02245
6.184,-0.01728
6.188,-0.00133
6.192,0.00903
6.196,-0.00681
6.2,-0.00448
6.204,0.05013
6.208,-0.01422
6.212,-0.05354
6.216,-0.00135
6.22,0.01018
6.224,0.0112
6.228,0.02505
6.232,0.04976
6.236,-0.00973
6.24,-0.05189
6.244,-0.05364
6.248,-0.01655
6.252,0.01997
6.256,-0.02252
6.26,0.00687
6.264,0.00551
6.268,-0.07397
6.272,-0.06572
6.276,0.0548
6.28,-0.06546
6.284,-0.06113
6.288,-0.03569
6.292,-0.03336
6.296,-0.07004
6.3,-0.02424
6.304,-0.04588
6.308,0.03722
6.312,-0.06444
6.316,-0.03041
6.32,-0.01227
6.324,-0.00505
6.328,-0.02823
6.332,0.05284
6.336,-0.0444
6.34,0.01052
6.344,-0.03641
6.348,0.02772
6.352,0.02733
6.356,0.04131
6.36,-0.02649
6.364,-0.07433
6.368,0.03701
6.372,-0.02826
6.376,0.0172
6.38,-0.04457
6.384,0.02419
6.388,-0.03711
6.392,-0.01556
6.396,0.01052
6.4,-0.06316
6.404,0.01039
6.408,-0.0166
6.412,-0.05185
6.416,-0.08603
6.42,-0.04839
6.424,0.06607
6.428,-0.03138
6.432,-0.04392
6.436,-0.03356
6.44,-0.03561
6.444,0.05229
6.448,-0.01826
6.452,-0.04501
6.456,-0.01219
6.46,-0.03348
6.464,0.05006
6.468,-0.03943
6.472,-0.04899
6.476,0.01307
6.48,0.00318
6.484,-0.03898
6.488,-0.03624
6.492,0.04075
6.496,0.053
6.5,-0.05103
6.504,-0.01375
6.508,0.02527
6.512,0.00634
6.516,0.02455
6.52,0.03571
6.524,-0.0649
6.528,-0.0626
6.532,-0.04278
6.536,-0.01924
6.54,-0.05936
6.544,-0.04062
6.548,-0.04286
6.552,-0.00088
6.556,-0.01409
6.56,-0.01208
6.564,-0.02174
6.568,-0.05514
6.572,0.03777
6.576,-0.0081
6.58,-0.06037
6.584,0.00707
6.588,0.0073
6.592,-0.01979
6.596,0.00764
6.6,-0.06613
6.604,-0.04524
6.608,-0.03211
6.612,-0.00962
6.616,-0.00345
6.62,-0.03248
6.624,0.03478
6.628,-0.05799
6.632,-0.04637
6.636,-0.01967
6.64,-0.04156
6.644,-0.02764
6.648,-0.04223
6.652,-0.02212
6.656,0.01269
6.66,-0.03044
6.664,-0.02934
6.668,-0.09349
6.672,-0.05226
6.676,0.00185
6.68,-0.0265
6.684,-0.01456
6.688,-0.06317
6.692,-0.00259
6.696,-0.04355
6.7,-0.06984
6.704,0.06667
6.708,0.03847
6.712,0.04473
6.716,0.0286
6.72,0.03578
6.724,0.08506
6.728,0.02445
6.732,0.05712
6.736,0.13316
6.74,0.06035
6.744,0.06028
6.748,0.04282
6.752,-0.00329
6.756,0.05657
6.76,0.05633
6.764,0.04702
6.768,-0.01317
6.772,-0.00796
6.776,-0.02396
6.78,-0.01644
6.784,-0.02285
6.788,-0.05399
6.792,0.0331
6.796,-0.02711
6.8,-0.03014
6.804,-0.057
6.808,-0.08982
6.812,-0.00653
6.816,-0.05054
6.82,-0.04793
6.824,-0.03553
6.828,-0.05673
6.832,-0.00422
6.836,-0.01846
6.84,-0.00793
6.844,-0.02239
6.848,-0.04631
6.852,-0.09939
6.856,-0.12577
6.86,-0.16996
6.864,-0.00571
6.868,0.1207
6.872,0.24885
6.876,0.54473
6.88,0.67761
6.884,0.90192
6.888,0.94891
6.892,0.90946
6.896,0.76896
6.9,0.68174
6.904,0.43984
6.908,0.16144
6.912,-0.02334
6.916,-0.16797
6.92,-0.24439
6.924,-0.21206
6.928,-0.14919
6.932,-0.11522
6.936,-0.07395
6.94,-0.07398
6.944,-0.03889
6.948,-0.01038
6.952,-0.0318
6.956,-0.01685
6.96,-0.02863
6.964,-0.01413
6.968,-0.04122
6.972,-0.00318
6.976,-0.02942
6.98,-0.0349
6.984,-0.06082
6.988,-0.03395
6.992,-0.04505
6.996,0.0027
7.0,-0.00046
7.004,-0.08017
7.008,-0.00551
7.012,-0.05446
7.016,-0.02611
7.02,-0.04134
7.024,-0.04396
7.028,0.00194
7.032,-0.0671
7.036,-0.03896
7.04,-0.05765
7.044,-0.01577
7.048,-0.04046
7.052,0.02293
7.056,-0.02259
7.06,-0.04254
7.064,-0.0475
7.068,-0.00623
7.072,-0.02881
7.076,-0.01696
7.08,0.05832
7.084,0.03545
7.088,-0.00026
7.092,0.06023
7.096,0.0323
7.1,0.13533
7.104,0.02025
7.108,0.13435
7.112,0.06648
7.116,0.09585
7.12,0.21336
7.124,0.19685
7.128,0.25544
7.132,0.24068
7.136,0.20487
7.14,0.23474
7.144,0.24269
7.148,0.30176
7.152,0.28122
7.156,0.27615
7.16,0.2519
7.164,0.18812
7.168,0.21363
7.172,0.29883
7.176,0.26338
7.18,0.21812
7.184,0.23809
7.188,0.17768
7.192,0.18296
7.196,0.1373
7.2,0.17009
7.204,0.09481
7.208,0.14566
7.212,0.0662
7.216,0.12599
7.22,0.0911
7.224,0.1051
7.228,0.04714
7.232,0.05833
7.236,0.03238
7.24,0.05951
7.244,0.00625
7.248,-0.02847
7.252,0.02179
7.256,-0.02775
7.26,-0.05014
7.264,-0.09227
7.268,-0.14936
7.272,-0.04907
7.276,0.00427
7.28,0.1392
7.284,0.34995
7.288,0.50669
7.292,0.74922
7.296,0.89933
7.3,0.94904
7.304,0.96482
7.308,0.82158
7.312,0.49988
7.316,0.31373
7.32,0.17765
7.324,-0.02658
7.328,-0.17302
7.332,-0.19726
7.336,-0.21122
7.34,-0.21329
7.344,-0.18118
7.348,-0.07214
7.352,-0.00166
7.356,0.03202
7.36,-0.07287
7.364,-0.03042
7.368,-0.05923
7.372,-0.03481
7.376,0.0097
7.38,-0.01705
7.384,-0.04913
7.388,-0.00934
7.392,0.00952
7.396,-0.01739
7.4,-0.00275
7.404,-0.06341
7.408,0.00926
7.412,0.00317
7.416,0.00424
7.42,0.01026
7.424,0.01983
7.428,0.05033
7.432,0.02285
7.436,-0.01717
7.44,-0.03807
7.444,-0.0766
7.448,-0.05584
7.452,-0.05516
7.456,0.01723
7.46,-0.01631
7.464,-0.03114
7.468,0.02866
7.472,-0.01568
7.476,-0.01376
7.48,0.03747
7.484,-0.01692
7.488,0.01081
7.492,-0.09523
7.496,0.07849
7.5,0.00472
7.504,0.01211
7.508,0.04917
7.512,0.02369
7.516,0.04369
7.52,0.02567
7.524,-0.01181
7.528,0.10701
7.532,0.10599
7.536,0.15113
7.54,0.09077
7.544,0.15772
7.548,0.1835
7.552,0.19823
7.556,0.14266
7.56,0.20647
7.564,0.2113
7.568,0.18109
7.572,0.26667
7.576,0.18151
7.58,0.1818
7.584,0.20303
7.588,0.21307
7.592,0.19996
7.596,0.12273
7.6,0.16935
7.604,0.15406
7.608,0.12415
7.612,0.15089
7.616,0.13619
7.62,0.11207
7.624,0.05934
7.628,0.1429
7.632,0.14716
7.636,0.13955
7.64,0.07965
7.644,0.06015
7.648,0.057
7.652,0.03369
7.656,0.00075
7.66,0.03151
7.664,0.0488
7.668,-0.00666
7.672,0.04878
7.676,-0.00432
7.68,-0.01767
7.684,-0.06071
7.688,0.00816
7.692,-0.02374
7.696,-0.0173
7.7,-0.01206
7.704,-0.00065
7.708,0.00857
7.712,0.06946
7.716,0.03527
7.72,-0.08211
7.724,-0.03061
7.728,-0.0037
7.732,-0.01199
7.736,-0.04918
7.74,0.00502
7.744,-0.05836
7.748,0.01097
7.752,-0.04082
7.756,-0.01314
7.76,-0.05838
7.764,-0.01215
7.768,-0.00908
7.772,-0.01168
7.776,-0.07562
7.78,-0.0034
7.784,0.02278
7.788,0.00707
7.792,-0.04628
7.796,-0.04829
7.8,-0.00531
7.804,-0.00477
7.808,-0.04784
7.812,-0.02162
7.816,-0.06765
7.82,0.00344
7.824,-0.0391
7.828,-0.03583
7.832,0.02755
7.836,-0.00206
7.84,0.01852
7.844,0.0714
7.848,0.02003
7.852,0.08223
7.856,0.05301
7.86,0.07527
7.864,0.02689
7.868,0.0574
7.872,0.11202
7.876,0.01796
7.88,-0.00776
7.884,-0.09033
7.888,0.04879
7.892,0.03005
7.896,0.01527
7.9,-0.01323
7.904,-0.06491
7.908,-0.0669
7.912,-0.01871
7.916,0.00908
7.92,0.0085
7.924,-0.02407
7.928,0.00111
7.932,0.07716
7.936,-0.01669
7.94,-0.03936
7.944,-0.00324
7.948,-0.01448
7.952,-0.03079
7.956,-0.04705
7.96,0.02387
7.964,-0.01418
7.968,0.01809
7.972,-0.05806
7.976,-0.11267
7.98,-0.15877
7.984,-0.14175
7.988,-0.08566
7.992,0.03573
7.996,0.3302
8.0,0.43206
8.004,0.68223
8.008,0.84969
8.012,0.92996
8.016,0.97414
8.02,0.82199
8.024,0.65333
8.028,0.40119
8.032,0.19338
8.036,0.03987
8.04,-0.10875
8.044,-0.18567
8.048,-0.25385
8.052,-0.17341
8.056,-0.11103
8.06,-0.08027
8.064,-0.01141
8.068,-0.0651
8.072,-0.00081
8.076,0.00679
8.08,0.02861
8.084,0.00895
8.088,-0.04242
8.092,-0.01509
8.096,-0.0576
8.1,-0.05302
8.104,-0.02199
8.108,-0.03652
8.112,-0.08705
8.116,-0.03051
8.12,-0.02127
8.124,-0.03776
8.128,-0.06573
8.132,-0.01257
8.136,-0.08343
8.14,-6e-05
8.144,-0.00861
8.148,-0.03723
8.152,0.01744
8.156,0.0616
8.16,-0.0729
8.164,0.08359
8.168,-0.05286
8.172,-0.01298
8.176,-0.05178
8.18,0.033
8.184,0.03292
8.188,0.01475
8.192,-0.01091
8.196,-0.05781
8.2,-0.0178
8.204,0.02523
8.208,-0.0245
8.212,-0.02996
8.216,0.01561
8.22,-0.00538
8.224,0.06649
8.228,-0.03839
8.232,-0.01144
8.236,0.06321
8.24,0.08988
8.244,0.11248
8.248,0.13487
8.252,0.07228
8.256,0.12718
8.26,0.13539
8.264,0.07596
8.268,0.21052
8.272,0.15828
8.276,0.13927
8.28,0.2201
8.284,0.25147
8.288,0.19393
8.292,0.12918
8.296,0.19689
8.3,0.21009
8.304,0.20536
8.308,0.16344
8.312,0.25184
8.316,0.17851
8.32,0.10935
8.324,0.23211
8.328,0.14388
8.332,0.15647
8.336,0.14647
8.34,0.11662
8.344,0.17159
8.348,0.1693
8.352,0.02945
8.356,0.05285
8.36,0.0563
8.364,0.02813
8.368,0.02377
8.372,-0.02585
8.376,0.02862
8.38,0.04115
8.384,0.02703
8.388,0.02435
8.392,0.01492
8.396,0.02169
8.4,-0.02148
8.404,-4e-05
8.408,0.02162
8.412,0.00462
8.416,0.01838
8.42,0.01868
8.424,0.05495
8.428,-0.04739
8.432,-0.00433
8.436,-0.00698
8.44,-0.0278
8.444,-0.06717
8.448,-0.03519
8.452,-0.02437
8.456,0.01738
8.46,0.01398
8.464,-0.01973
8.468,0.03834
8.472,0.01958
8.476,0.0088
8.48,-0.08699
8.484,-0.00119
8.488,-0.09305
8.492,0.01486
8.496,-0.04475
8.5,-0.03536
8.504,0.02704
8.508,-0.02215
8.512,0.02849
8.516,0.04115
8.52,-0.03346
8.524,-0.01554
8.528,0.03798
8.532,0.00143
8.536,0.02168
8.54,-0.02901
8.544,-0.03985
8.548,0.02413
8.552,-0.01345
8.556,0.01851
8.56,-0.06768
8.564,-0.02397
8.568,-0.01875
8.572,-0.09715
8.576,-0.01828
8.58,-0.04032
8.584,-0.09854
8.588,0.06759
8.592,-0.08828
8.596,-0.04468
8.6,-0.01363
8.604,-0.05102
8.608,0.00175
8.612,0.04055
8.616,0.03109
8.62,-0.02465
8.624,-0.00488
8.628,-0.00424
8.632,0.07627
8.636,0.01774
8.64,0.09552
8.644,0.02418
8.648,0.10237
8.652,0.12445
8.656,0.04468
8.66,0.10512
8.664,0.07527
8.668,0.04649
8.672,0.06985
8.676,0.09247
8.68,0.02672
8.684,0.06888
8.688,-0.00097
8.692,0.04945
8.696,-0.05025
8.7,-0.02995
8.704,-0.03027
8.708,0.02043
8.712,-0.00119
8.716,0.00074
8.72,-0.00963
8.724,-0.0349
8.728,-0.00685
8.732,-0.05849
8.736,-0.04844
8.74,-0.00063
8.744,-0.03454
8.748,-0.03381
8.752,-0.05758
8.756,-0.02543
8.76,-0.03721
8.764,-0.021
8.768,-0.02763
8.772,-0.09068
8.776,-0.14202
8.78,-0.0986
8.784,-0.04651
8.788,-0.06779
8.792,0.10109
8.796,0.29622
8.8,0.51684
8.804,0.6954
8.808,0.8398
8.812,1.00881
8.816,0.92186
8.82,0.77602
8.824,0.64624
8.828,0.41544
8.832,0.21544
8.836,0.0449
8.84,-0.09381
8.844,-0.23369
8.848,-0.15688
8.852,-0.12404
8.856,-0.08099
8.86,-0.03439
8.864,-0.01425
8.868,-0.04055
8.872,-0.03095
8.876,-0.00664
8.88,-0.00637
8.884,0.03377
8.888,-0.03296
8.892,0.001
8.896,0.007
8.9,-0.01539
8.904,-0.01191
8.908,-0.04873
8.912,-0.0154
8.916,-0.02245
8.92,0.06856
8.924,0.07117
8.928,0.00284
8.932,-0.01424
8.936,-0.02138
8.94,-0.02966
8.944,-0.0385
8.948,-0.01231
8.952,-0.03887
8.956,0.04811
8.96,0.06646
8.964,0.01195
8.968,0.05445
8.972,-0.06062
8.976,0.05717
8.98,-0.0505
8.984,0.03011
8.988,-0.01612
8.992,-0.0178
8.996,-0.03862
9.0,-0.00058
9.004,-0.03006
9.008,0.13402
9.012,0.07026
9.016,-0.03949
9.02,0.06727
9.024,0.01896
9.028,0.09327
9.032,0.08199
9.036,0.11243
9.04,0.05654
9.044,0.13415
9.048,0.12214
9.052,0.13267
9.056,0.20588
9.06,0.15045
9.064,0.16685
9.068,0.1757
9.072,0.21507
9.076,0.13664
9.08,0.15646
9.084,0.1276
9.088,0.20036
9.092,0.20101
9.096,0.24546
9.1,0.22196
9.104,0.29964
9.108,0.19211
9.112,0.14757
9.116,0.13865
9.12,0.21083
9.124,0.17155
9.128,0.16045
9.132,0.15303
9.136,0.17318
9.14,0.06578
9.144,0.11038
9.148,0.10769
9.152,0.05329
9.156,0.0946
9.16,0.02171
9.164,0.07824
9.168,0.09918
9.172,0.02383
9.176,0.07284
9.18,0.06739
9.184,0.11642
9.188,0.08851
9.192,0.09893
9.196,0.10819
9.2,0.08298
9.204,0.00311
9.208,0.06183
9.212,0.10533
9.216,0.13553
9.22,0.11292
9.224,0.08354
9.228,0.03015
9.232,0.04087
9.236,0.04592
9.24,-0.00904
9.244,0.00196
9.248,0.01564
9.252,0.00152
9.256,0.00941
9.26,0.00208
9.264,0.06133
9.268,0.06636
9.272,0.04006
9.276,0.04637
9.28,-0.00604
9.284,-0.0652
9.288,0.03634
9.292,0.02212
9.296,-0.05118
9.3,0.03064
9.304,0.00731
9.308,0.02169
9.312,0.03074
9.316,0.00997
9.32,0.0022
9.324,-0.0587
9.328,-0.08049
9.332,-0.15589
9.336,-0.07927
9.34,0.07499
9.344,0.29759
9.348,0.46981
9.352,0.74534
9.356,0.83896
9.36,0.97945
9.364,0.95935
9.368,0.82351
9.372,0.62896
9.376,0.46182
9.38,0.2302
9.384,-0.02669
9.388,-0.07611
9.392,-0.16114
9.396,-0.16422
9.4,-0.17263
9.404,-0.10905
9.408,-0.07427
9.412,-0.01352
9.416,0.02321
9.42,-0.01201
9.424,0.05934
9.428,0.01362
9.432,-0.01192
9.436,0.04857
9.44,0.03918
9.444,0.04711
9.448,-0.00202
9.452,0.04546
9.456,-0.00167
9.46,-0.08223
9.464,0.01885
9.468,-0.01166
9.472,-0.02354
9.476,-0.00903
9.48,-0.05015
9.484,0.0272
9.488,0.02483
9.492,-0.00901
9.496,0.01343
9.5,0.00021
9.504,-0.015
9.508,0.05016
9.512,0.03487
9.516,0.02147
9.52,-0.00738
9.524,0.02475
9.528,0.008
9.532,0.01696
9.536,0.021
9.54,0.01877
9.544,0.04229
9.548,0.05076
9.552,0.03955
9.556,0.05373
9.56,-0.00152
9.564,0.03161
9.568,0.10624
9.572,0.13354
9.576,0.09683
9.58,0.03681
9.584,0.11984
9.588,0.10677
9.592,0.14973
9.596,0.12359
9.6,0.13015
9.604,0.15549
9.608,0.23867
9.612,0.2164
9.616,0.23549
9.62,0.16052
9.624,0.24301
9.628,0.19614
9.632,0.22007
9.636,0.23407
9.64,0.21996
9.644,0.26003
9.648,0.24527
9.652,0.20058
9.656,0.18075
9.66,0.24434
9.664,0.20439
9.668,0.1982
9.672,0.22754
9.676,0.23954
9.68,0.16904
9.684,0.20342
9.688,0.16416
9.692,0.15911
9.696,0.15622
9.7,0.14273
9.704,0.10805
9.708,0.10172
9.712,0.07571
9.716,0.03743
9.72,0.0434
9.724,0.07446
9.728,0.04411
9.732,0.03744
9.736,0.02213
9.74,-0.00902
9.744,0.02761
9.748,0.10374
9.752,-0.00412
9.756,0.00876
9.76,0.01693
9.764,-0.05208
9.768,0.05612
9.772,0.07531
9.776,-0.03628
9.78,0.01473
9.784,0.03967
9.788,0.04593
9.792,0.03758
9.796,0.00417
9.8,0.08327
9.804,0.08034
9.808,0.05425
9.812,0.00062
9.816,-0.00417
9.82,-0.04632
9.824,0.08432
9.828,-0.03157
9.832,0.07598
9.836,0.02731
9.84,0.00063
9.844,-0.04334
9.848,0.05727
9.852,-0.03295
9.856,0.04254
9.86,0.01623
9.864,0.03008
9.868,0.01692
9.872,0.04112
9.876,0.00088
9.88,-0.01778
9.884,0.01037
9.888,-0.03285
9.892,-0.00233
9.896,-0.01101
9.9,-0.02649
9.904,-0.02006
9.908,0.02254
9.912,0.06531
9.916,0.04765
9.92,0.01007
9.924,0.06597
9.928,0.08303
9.932,0.0025
9.936,0.03602
9.94,-0.01253
9.944,-0.002
9.948,0.02627
9.952,-0.04883
9.956,0.03044
9.96,0.0259
9.964,0.00461
9.968,-0.03354
9.972,0.03407
9.976,0.04553
9.98,0.00634
9.984,0.01299
9.988,0.06182
9.992,0.07991
9.996,-0.00347
