t_seg,ecg_mV
0.0,-0.01933
0.004,-0.02976
0.008,-0.0124
0.012,-0.01053
0.016,-0.02379
0.02,-0.02001
0.024,-0.01252
0.028,0.00493
0.032,-0.03259
0.036,-0.01396
0.04,0.02734
0.044,-0.00929
0.048,-0.01523
0.052,0.01931
0.056,0.02193
0.06,0.0457
0.064,0.04804
0.068,0.05389
0.072,0.08033
0.076,0.06949
0.08,0.07241
0.084,0.06243
0.088,0.09863
0.092,0.05587
0.096,0.06941
0.1,0.08269
0.104,0.05151
0.108,0.02688
0.112,0.04849
0.116,0.04401
0.12,-0.00929
0.124,-0.01497
0.128,-0.04208
0.132,-0.00857
0.136,-0.02415
0.14,0.00581
0.144,-0.02201
0.148,0.00086
0.152,0.01066
0.156,-0.01357
0.16,0.02401
0.164,-0.03177
0.168,0.00023
0.172,-0.02961
0.176,0.00272
0.18,0.01646
0.184,-0.01503
0.188,0.00165
0.192,0.00325
0.196,-0.02954
0.2,-0.03064
0.204,-0.07056
0.208,-0.10753
0.212,-0.1173
0.216,-0.10941
0.22,0.00487
0.224,0.14954
0.228,0.34603
0.232,0.56744
0.236,0.78938
0.24,0.9314
0.244,1.00499
0.248,0.92749
0.252,0.80656
0.256,0.56943
0.26,0.3256
0.264,0.12411
0.268,-0.02277
0.272,-0.14754
0.276,-0.16535
0.28,-0.1852
0.284,-0.15077
0.288,-0.0812
0.292,-0.04544
0.296,-0.0099
0.3,-0.02309
0.304,0.00061
0.308,-0.02619
0.312,0.01475
0.316,-0.00276
0.32,-0.00106
0.324,0.00219
0.328,-0.01503
0.332,-0.01181
0.336,0.00144
0.34,0.00881
0.344,0.02299
0.348,-0.02012
0.352,-0.02137
0.356,0.00223
0.36,-0.00325
0.364,-0.00521
0.368,0.02282
0.372,-0.01248
0.376,-0.02773
0.38,0.02802
0.384,0.00133
0.388,-0.00817
0.392,-0.01916
0.396,-0.00074
0.4,0.01351
0.404,0.00043
0.408,0.01961
0.412,0.00071
0.416,0.01818
0.42,-0.00443
0.424,0.03882
0.428,0.00123
0.432,-0.01332
0.436,0.03103
0.44,0.02825
0.444,0.05438
0.448,0.03931
0.452,0.08686
0.456,0.07221
0.46,0.0796
0.464,0.10529
0.468,0.13187
0.472,0.10181
0.476,0.12644
0.48,0.12192
0.484,0.11901
0.488,0.13576
0.492,0.17524
0.496,0.16983
0.5,0.19473
0.504,0.19277
0.508,0.20603
0.512,0.188
0.516,0.19879
0.52,0.236
0.524,0.20994
0.528,0.21298
0.532,0.22102
0.536,0.19877
0.54,0.22198
0.544,0.18749
0.548,0.20872
0.552,0.1987
0.556,0.15153
0.56,0.17503
0.564,0.11894
0.568,0.12508
0.572,0.13034
0.576,0.11201
0.58,0.08287
0.584,0.08936
0.588,0.09795
0.592,0.06474
0.596,0.05052
0.6,0.06875
0.604,0.0366
0.608,0.01241
0.612,0.02916
0.616,-0.00151
0.62,0.01058
0.624,0.03347
0.628,-0.00468
0.632,0.01522
0.636,-0.01
0.64,-0.00338
0.644,0.01597
0.648,-0.0065
0.652,0.00507
0.656,-0.00391
0.66,0.00736
0.664,-0.00179
0.668,0.01888
0.672,-0.01236
0.676,-0.00449
0.68,-0.00896
0.684,-0.00394
0.688,-0.01085
0.692,-0.04094
0.696,-0.00815
0.7,0.01568
0.704,0.02752
0.708,0.01971
0.712,0.0416
0.716,-0.00879
0.72,-0.00117
0.724,-0.00996
0.728,0.00228
0.732,-0.00268
0.736,-0.00792
0.74,-0.01415
0.744,0.01704
0.748,0.01029
0.752,0.0169
0.756,0.0014
0.76,0.0136
0.764,-0.0104
0.768,0.01567
0.772,0.00256
0.776,0.02328
0.78,-0.00237
0.784,-0.00033
0.788,0.01293
0.792,0.00437
0.796,0.01674
0.8,-0.02517
0.804,0.03599
0.808,0.03022
0.812,0.02233
0.816,0.0112
0.82,0.00464
0.824,0.01589
0.828,-0.00018
0.832,0.00192
0.836,0.00788
0.84,0.05533
0.844,0.02933
0.848,0.00779
0.852,0.03988
0.856,0.03922
0.86,0.04869
0.864,0.07436
0.868,0.0917
0.872,0.10272
0.876,0.11071
0.88,0.11545
0.884,0.12051
0.888,0.09561
0.892,0.10414
0.896,0.10166
0.9,0.08228
0.904,0.07684
0.908,0.04657
0.912,0.06123
0.916,0.0525
0.92,0.04512
0.924,0.02364
0.928,0.02931
0.932,0.02803
0.936,0.00681
0.94,0.00495
0.944,-0.01242
0.948,0.00878
0.952,0.00211
0.956,-0.0031
0.96,0.01894
0.964,0.01671
0.968,0.01491
0.972,0.01553
0.976,0.02955
0.98,0.00976
0.984,0.01008
0.988,0.04331
0.992,-0.0019
0.996,-0.00856
1.0,-0.01327
1.004,-0.05698
1.008,-0.08928
1.012,-0.09539
1.016,-0.04248
1.02,0.05067
1.024,0.21224
1.028,0.44344
1.032,0.63098
1.036,0.82245
1.04,0.97834
1.044,1.01698
1.048,0.94484
1.052,0.74824
1.056,0.5571
1.06,0.30659
1.064,0.11707
1.068,-0.05041
1.072,-0.11311
1.076,-0.15691
1.08,-0.14458
1.084,-0.08895
1.088,-0.07714
1.092,0.01555
1.096,-0.0025
1.1,0.00045
1.104,0.00556
1.108,0.02488
1.112,0.01537
1.116,0.01927
1.12,0.02673
1.124,0.01845
1.128,0.00929
1.132,0.02195
1.136,0.01651
1.14,0.01958
1.144,0.03322
1.148,0.01961
1.152,0.01012
1.156,0.03937
1.16,0.03229
1.164,0.01416
1.168,0.04988
1.172,-0.00687
1.176,0.00842
1.18,0.02486
1.184,0.01894
1.188,0.00661
1.192,0.0117
1.196,0.0061
1.2,0.04439
1.204,-0.00447
1.208,0.01405
1.212,0.01444
1.216,0.02225
1.22,0.02576
1.224,0.06709
1.228,0.04766
1.232,0.04675
1.236,0.02279
1.24,0.03948
1.244,0.08458
1.248,0.07424
1.252,0.0836
1.256,0.05334
1.26,0.1067
1.264,0.13443
1.268,0.15175
1.272,0.14368
1.276,0.12951
1.28,0.17651
1.284,0.17414
1.288,0.15355
1.292,0.1931
1.296,0.20883
1.3,0.22702
1.304,0.2002
1.308,0.23396
1.312,0.2434
1.316,0.26092
1.32,0.22377
1.324,0.22381
1.328,0.25337
1.332,0.23308
1.336,0.23298
1.34,0.21611
1.344,0.21438
1.348,0.23035
1.352,0.20309
1.356,0.20148
1.36,0.20934
1.364,0.17853
1.368,0.13874
1.372,0.16008
1.376,0.12067
1.38,0.13839
1.384,0.13895
1.388,0.10058
1.392,0.07902
1.396,0.08858
1.4,0.06295
1.404,0.05949
1.408,0.05677
1.412,0.06525
1.416,0.03798
1.42,0.01132
1.424,0.04196
1.428,0.08044
1.432,0.06012
1.436,0.05323
1.44,0.05495
1.444,0.05871
1.448,0.06483
1.452,0.10776
1.456,0.12008
1.46,0.10388
1.464,0.11458
1.468,0.11476
1.472,0.13766
1.476,0.11523
1.48,0.12346
1.484,0.10886
1.488,0.08248
1.492,0.09312
1.496,0.08363
1.5,0.07546
1.504,0.05059
1.508,0.07861
1.512,0.01409
1.516,0.01332
1.52,0.03493
1.524,0.00274
1.528,0.0145
1.532,0.02459
1.536,0.02619
1.54,0.05053
1.544,0.03627
1.548,0.0138
1.552,0.02985
1.556,0.01774
1.56,0.02412
1.564,0.05935
1.568,0.01677
1.572,0.0097
1.576,-0.01361
1.58,0.0479
1.584,0.02821
1.588,0.0003
1.592,-0.01843
1.596,-0.05669
1.6,-0.07951
1.604,-0.07407
1.608,0.01112
1.612,0.12641
1.616,0.33748
1.62,0.52367
1.624,0.73733
1.628,0.89841
1.632,1.01659
1.636,0.99341
1.64,0.88824
1.644,0.68895
1.648,0.44932
1.652,0.26171
1.656,0.06711
1.66,-0.0645
1.664,-0.12382
1.668,-0.16121
1.672,-0.11322
1.676,-0.04714
1.68,-0.0306
1.684,-0.02012
1.688,0.00243
1.692,0.0083
1.696,0.01008
1.7,0.02744
1.704,0.01861
1.708,0.02127
1.712,0.00608
1.716,0.05841
1.72,0.04532
1.724,0.00306
1.728,0.00699
1.732,0.03812
1.736,0.03074
1.74,0.04328
1.744,0.05382
1.748,0.03761
1.752,0.02529
1.756,0.03853
1.76,0.04048
1.764,0.02288
1.768,0.0013
1.772,0.03643
1.776,0.03767
1.78,0.05087
1.784,0.0246
1.788,0.02171
1.792,0.04342
1.796,0.02961
1.8,0.04221
1.804,0.03753
1.808,0.02081
1.812,0.07011
1.816,0.06617
1.82,0.04023
1.824,0.09419
1.828,0.05571
1.832,0.0432
1.836,0.07325
1.84,0.08427
1.844,0.09923
1.848,0.13182
1.852,0.10923
1.856,0.13087
1.86,0.13332
1.864,0.16769
1.868,0.17635
1.872,0.18094
1.876,0.18477
1.88,0.19769
1.884,0.20979
1.888,0.21738
1.892,0.26169
1.896,0.23058
1.9,0.24907
1.904,0.2364
1.908,0.24835
1.912,0.22676
1.916,0.24857
1.92,0.23867
1.924,0.25427
1.928,0.23663
1.932,0.2375
1.936,0.19092
1.94,0.22847
1.944,0.17524
1.948,0.18424
1.952,0.17186
1.956,0.16663
1.96,0.16272
1.964,0.17405
1.968,0.12282
1.972,0.1655
1.976,0.12085
1.98,0.09852
1.984,0.06495
1.988,0.09546
1.992,0.06422
1.996,0.05865
2.0,0.06067
2.004,0.05072
2.008,0.06353
2.012,0.03923
2.016,0.0274
2.02,0.04407
2.024,0.05505
2.028,0.05433
2.032,0.01318
2.036,0.00088
2.04,0.0506
2.044,0.01406
2.048,0.02912
2.052,0.02249
2.056,0.05002
2.06,0.01554
2.064,-0.00684
2.068,0.0171
2.072,0.02711
2.076,0.04687
2.08,-0.00033
2.084,0.03818
2.088,0.03776
2.092,0.03985
2.096,0.03598
2.1,0.06444
2.104,0.07251
2.108,0.04983
2.112,0.04183
2.116,0.11158
2.12,0.13707
2.124,0.11546
2.128,0.15965
2.132,0.11676
2.136,0.12787
2.14,0.11053
2.144,0.11397
2.148,0.1027
2.152,0.08948
2.156,0.05418
2.16,0.06699
2.164,0.05218
2.168,0.0549
2.172,0.04858
2.176,0.03698
2.18,0.0129
2.184,0.05761
2.188,0.03434
2.192,0.03519
2.196,0.04017
2.2,0.03219
2.204,0.03206
2.208,0.04415
2.212,0.02486
2.216,0.04813
2.22,0.02484
2.224,0.03984
2.228,-0.00616
2.232,0.02562
2.236,0.04806
2.24,0.00448
2.244,0.02824
2.248,0.01462
2.252,-0.06986
2.256,-0.08451
2.26,-0.08912
2.264,-0.03576
2.268,0.06394
2.272,0.22661
2.276,0.43741
2.28,0.6389
2.284,0.85593
2.288,0.98378
2.292,1.02685
2.296,0.96438
2.3,0.77634
2.304,0.58403
2.308,0.36288
2.312,0.14056
2.316,-0.00748
2.32,-0.10967
2.324,-0.12562
2.328,-0.10977
2.332,-0.08019
2.336,-0.02094
2.34,-0.01312
2.344,-0.00094
2.348,0.00196
2.352,0.05113
2.356,0.01649
2.36,0.02743
2.364,0.03942
2.368,0.03595
2.372,0.03741
2.376,0.02642
2.38,0.00064
2.384,0.05522
2.388,0.03319
2.392,0.00924
2.396,0.05406
2.4,0.02205
2.404,0.007
2.408,0.05584
2.412,0.0388
2.416,0.02184
2.42,0.03094
2.424,0.0166
2.428,0.03863
2.432,0.00916
2.436,0.0172
2.44,0.0297
2.444,0.06872
2.448,0.00833
2.452,0.05145
2.456,0.05492
2.46,0.0451
2.464,0.0142
2.468,0.02338
2.472,0.03141
2.476,0.05651
2.48,0.06349
2.484,0.06962
2.488,0.06214
2.492,0.06378
2.496,0.08376
2.5,0.07896
2.504,0.12398
2.508,0.13042
2.512,0.12875
2.516,0.10825
2.52,0.14443
2.524,0.16883
2.528,0.15504
2.532,0.17612
2.536,0.18492
2.54,0.2236
2.544,0.21639
2.548,0.23905
2.552,0.21828
2.556,0.2424
2.56,0.22225
2.564,0.23498
2.568,0.22969
2.572,0.24745
2.576,0.24165
2.58,0.25684
2.584,0.22916
2.588,0.2512
2.592,0.22756
2.596,0.20648
2.6,0.20066
2.604,0.21603
2.608,0.16575
2.612,0.18705
2.616,0.17838
2.62,0.13832
2.624,0.13117
2.628,0.12212
2.632,0.10373
2.636,0.11214
2.64,0.09527
2.644,0.10304
2.648,0.09838
2.652,0.091
2.656,0.05647
2.66,0.0453
2.664,0.07607
2.668,0.0336
2.672,0.02674
2.676,-0.00965
2.68,0.04385
2.684,0.02566
2.688,0.04568
2.692,0.0339
2.696,0.0375
2.7,0.04316
2.704,0.02396
2.708,0.06681
2.712,0.01886
2.716,0.02492
2.72,0.04916
2.724,0.00937
2.728,0.00561
2.732,0.03191
2.736,0.02115
2.74,0.04637
2.744,0.04794
2.748,0.0421
2.752,0.03828
2.756,0.04115
2.76,0.03257
2.764,0.00722
2.768,0.01989
2.772,0.00525
2.776,0.02743
2.78,0.01628
2.784,0.02297
2.788,0.02617
2.792,0.01447
2.796,0.03597
2.8,0.04541
2.804,0.02251
2.808,0.06505
2.812,0.0139
2.816,0.04589
2.82,0.04958
2.824,0.03932
2.828,0.07024
2.832,0.06876
2.836,0.10191
2.84,0.11321
2.844,0.124
2.848,0.1317
2.852,0.1502
2.856,0.09642
2.86,0.10974
2.864,0.10096
2.868,0.10864
2.872,0.09447
2.876,0.07867
2.88,0.07509
2.884,0.03775
2.888,0.04299
2.892,0.01528
2.896,0.03708
2.9,0.055
2.904,0.04909
2.908,0.02705
2.912,0.01622
2.916,0.05836
2.92,0.03681
2.924,0.04526
2.928,0.03097
2.932,0.02004
2.936,0.0366
2.94,0.03469
2.944,0.04375
2.948,0.02684
2.952,0.01872
2.956,0.02749
2.96,0.01628
2.964,0.02188
2.968,-0.02524
2.972,-0.02789
2.976,-0.10177
2.98,-0.09121
2.984,-0.03116
2.988,0.13586
2.992,0.27045
2.996,0.4857
3.0,0.72016
3.004,0.8838
3.008,1.00748
3.012,1.01422
3.016,0.90378
3.02,0.72721
3.024,0.48465
3.028,0.26661
3.032,0.08294
3.036,-0.05342
3.04,-0.14395
3.044,-0.11127
3.048,-0.10777
3.052,-0.06682
3.056,-0.05386
3.06,0.01264
3.064,0.00821
3.068,0.01507
3.072,0.01016
3.076,0.01127
3.08,0.02215
3.084,0.00236
3.088,0.00736
3.092,0.02261
3.096,0.0162
3.1,0.00575
3.104,0.02096
3.108,0.01611
3.112,0.03057
3.116,0.0
3.12,0.02305
3.124,0.03635
3.128,0.02962
3.132,0.0188
3.136,0.04304
3.14,-0.00548
3.144,0.03982
3.148,0.01806
3.152,0.02152
3.156,0.00416
3.16,0.02483
3.164,0.02957
3.168,0.03381
3.172,0.02899
3.176,0.02473
3.18,0.04095
3.184,0.05619
3.188,0.0556
3.192,0.06048
3.196,0.06012
3.2,0.02832
3.204,0.06519
3.208,0.04451
3.212,0.06398
3.216,0.05268
3.22,0.10792
3.224,0.10754
3.228,0.07562
3.232,0.12045
3.236,0.11356
3.24,0.14373
3.244,0.12884
3.248,0.1675
3.252,0.18707
3.256,0.20333
3.26,0.1931
3.264,0.20131
3.268,0.18361
3.272,0.21683
3.276,0.22823
3.28,0.22955
3.284,0.23595
3.288,0.25734
3.292,0.21569
3.296,0.21373
3.3,0.20413
3.304,0.22418
3.308,0.24183
3.312,0.22265
3.316,0.18555
3.32,0.18828
3.324,0.16735
3.328,0.15878
3.332,0.19956
3.336,0.13692
3.34,0.13901
3.344,0.14077
3.348,0.12557
3.352,0.10675
3.356,0.05217
3.36,0.08889
3.364,0.07406
3.368,0.05876
3.372,0.06773
3.376,0.04491
3.38,0.05878
3.384,0.00655
3.388,0.02424
3.392,0.02786
3.396,0.02984
3.4,0.02845
3.404,0.02139
3.408,0.00164
3.412,0.00687
3.416,-0.00835
3.42,-0.00183
3.424,0.01027
3.428,0.02849
3.432,0.01038
3.436,0.01124
3.44,-0.01481
3.444,0.02883
3.448,0.03089
3.452,0.00295
3.456,0.0056
3.46,0.01835
3.464,-0.00826
3.468,-0.00798
3.472,0.03841
3.476,0.04078
3.48,0.00133
3.484,0.02055
3.488,0.00421
3.492,0.02559
3.496,0.03131
3.5,0.03242
3.504,0.01524
3.508,0.02551
3.512,0.01651
3.516,0.02851
3.52,0.02214
3.524,0.00957
3.528,0.01852
3.532,-0.00398
3.536,0.00131
3.54,-0.01385
3.544,-0.00395
3.548,0.02347
3.552,0.01579
3.556,-0.0137
3.56,0.00285
3.564,0.00266
3.568,0.00853
3.572,0.02073
3.576,0.00884
3.58,0.01686
3.584,0.02355
3.588,0.04163
3.592,0.03961
3.596,0.03991
3.6,0.09006
3.604,0.1025
3.608,0.09543
3.612,0.06329
3.616,0.11021
3.62,0.11374
3.624,0.11711
3.628,0.1437
3.632,0.08518
3.636,0.06485
3.64,0.07292
3.644,0.06588
3.648,0.03548
3.652,0.03661
3.656,0.01899
3.66,0.01415
3.664,0.01896
3.668,-0.00432
3.672,0.01219
3.676,-0.01136
3.68,-0.00749
3.684,-0.00167
3.688,-0.00059
3.692,-0.00023
3.696,0.01188
3.7,0.01389
3.704,0.0151
3.708,0.01652
3.712,0.01987
3.716,0.00339
3.72,0.01706
3.724,0.02291
3.728,-0.0219
3.732,0.0019
3.736,0.01104
3.74,-0.06258
3.744,-0.09508
3.748,-0.14467
3.752,-0.08736
3.756,0.05211
3.76,0.17139
3.764,0.38897
3.768,0.64365
3.772,0.79525
3.776,0.94506
3.78,0.99589
3.784,0.93354
3.788,0.73692
3.792,0.55557
3.796,0.35478
3.8,0.10586
3.804,-0.04293
3.808,-0.10895
3.812,-0.17563
3.816,-0.1658
3.82,-0.11838
3.824,-0.08203
3.828,-0.02804
3.832,-0.05094
3.836,-0.01639
3.84,0.03414
3.844,0.00433
3.848,0.01386
3.852,0.01621
3.856,-0.02158
3.86,0.01646
3.864,-0.00758
3.868,0.00249
3.872,-0.00963
3.876,-0.00583
3.88,-0.0018
3.884,-0.0199
3.888,-0.00991
3.892,-0.00494
3.896,-0.00778
3.9,0.00078
3.904,-0.02359
3.908,-0.01015
3.912,-0.00456
3.916,-0.00947
3.92,0.0206
3.924,0.00217
3.928,0.01269
3.932,-0.00392
3.936,0.00466
3.94,0.00284
3.944,0.01502
3.948,0.00607
3.952,-0.00917
3.956,0.01972
3.96,-0.00119
3.964,-0.00956
3.968,0.05323
3.972,0.01902
3.976,0.05221
3.98,0.06271
3.984,0.03466
3.988,0.05558
3.992,0.03122
3.996,0.0912
4.0,0.09395
4.004,0.07937
4.008,0.11237
4.012,0.1368
4.016,0.12143
4.02,0.15773
4.024,0.15202
4.028,0.16669
4.032,0.18109
4.036,0.18073
4.04,0.19959
4.044,0.20738
4.048,0.22894
4.052,0.22743
4.056,0.23175
4.06,0.21674
4.064,0.22281
4.068,0.19959
4.072,0.20816
4.076,0.20997
4.08,0.175
4.084,0.16369
4.088,0.17394
4.092,0.15288
4.096,0.15527
4.1,0.1495
4.104,0.1296
4.108,0.09823
4.112,0.11491
4.116,0.09248
4.12,0.0781
4.124,0.1119
4.128,0.04325
4.132,0.04196
4.136,0.06365
4.14,0.02525
4.144,0.02093
4.148,-0.00578
4.152,0.0196
4.156,0.02858
4.16,0.01375
4.164,-0.01494
4.168,0.00456
4.172,-0.00285
4.176,-0.01144
4.18,-0.00232
4.184,0.01574
4.188,-0.02031
4.192,-0.03069
4.196,-0.02353
4.2,-0.01603
4.204,-0.02633
4.208,-0.03892
4.212,0.00321
4.216,-0.00655
4.22,-0.02177
4.224,0.0082
4.228,0.00996
4.232,-0.00181
4.236,0.00899
4.24,0.00283
4.244,-0.01126
4.248,-0.03651
4.252,-0.00403
4.256,-0.04258
4.26,-0.01982
4.264,-0.03436
4.268,-0.01041
4.272,-0.01547
4.276,-0.02481
4.28,-0.02507
4.284,0.00455
4.288,-0.03935
4.292,-0.00626
4.296,-0.0372
4.3,-0.01838
4.304,-0.02269
4.308,-0.02518
4.312,-0.02131
4.316,-0.01036
4.32,-0.01224
4.324,-0.00499
4.328,-0.00602
4.332,-0.0048
4.336,0.00529
4.34,-0.03018
4.344,0.00068
4.348,-0.02015
4.352,0.00877
4.356,-0.01241
4.36,-0.01856
4.364,0.01186
4.368,-0.01084
4.372,-0.01486
4.376,0.00482
4.38,-0.03807
4.384,-0.01679
4.388,0.01058
4.392,-0.00579
4.396,-0.01136
4.4,-0.03184
4.404,-0.03956
4.408,-0.01781
4.412,-0.01417
4.416,-0.01052
4.42,-0.00613
4.424,0.00148
4.428,-0.00628
4.432,-0.02347
4.436,0.00448
4.44,0.00548
4.444,-0.01327
4.448,0.01224
4.452,0.02102
4.456,0.04019
4.46,0.04039
4.464,0.0662
4.468,0.06706
4.472,0.06562
4.476,0.08641
4.48,0.07702
4.484,0.08238
4.488,0.06978
4.492,0.0813
4.496,0.03727
4.5,0.05205
4.504,0.02103
4.508,-0.00561
4.512,-0.00042
4.516,-0.01465
4.52,0.00786
4.524,-0.01344
4.528,-0.00659
4.532,-0.00184
4.536,-0.00638
4.54,-0.01813
4.544,-0.00249
4.548,-0.01109
4.552,0.00387
4.556,-0.0116
4.56,-0.04169
4.564,-0.02699
4.568,-0.02519
4.572,-0.01653
4.576,-0.0334
4.58,0.00105
4.584,-0.01874
4.588,-0.03306
4.592,-0.0379
4.596,-0.05064
4.6,-0.09477
4.604,-0.1269
4.608,-0.17364
4.612,-0.11433
4.616,-0.03437
4.62,0.14953
4.624,0.33283
4.628,0.54793
4.632,0.77405
4.636,0.89582
4.64,0.95582
4.644,0.92009
4.648,0.78209
4.652,0.55687
4.656,0.35536
4.66,0.14834
4.664,-0.05281
4.668,-0.14296
4.672,-0.16831
4.676,-0.17326
4.68,-0.15574
4.684,-0.11784
4.688,-0.03744
4.692,-0.05028
4.696,0.00442
4.7,0.01307
4.704,-0.01916
4.708,-0.02051
4.712,-0.0175
4.716,-0.01099
4.72,-0.01626
4.724,-0.02569
4.728,-0.00627
4.732,-0.02967
4.736,0.01154
4.74,-0.0246
4.744,-0.00617
4.748,-0.00981
4.752,-0.01483
4.756,-0.00078
4.76,-0.01594
4.764,-0.02438
4.768,-0.03011
4.772,-0.0181
4.776,-0.01807
4.78,-0.0072
4.784,-0.04678
4.788,-0.02932
4.792,0.00055
4.796,-0.01455
4.8,0.01043
4.804,-0.00261
4.808,-0.00106
4.812,-0.01555
4.816,-0.01463
4.82,-0.02007
4.824,0.00145
4.828,-0.00052
4.832,0.01042
4.836,0.02378
4.84,0.00047
4.844,0.03649
4.848,0.04884
4.852,0.0409
4.856,0.04111
4.86,0.07031
4.864,0.08709
4.868,0.08013
4.872,0.09277
4.876,0.09856
4.88,0.13584
4.884,0.14044
4.888,0.17166
4.892,0.12941
4.896,0.17345
4.9,0.16184
4.904,0.1876
4.908,0.19234
4.912,0.17463
4.916,0.19234
4.92,0.21814
4.924,0.16766
4.928,0.20217
4.932,0.21344
4.936,0.16059
4.94,0.17862
4.944,0.15854
4.948,0.17745
4.952,0.132
4.956,0.14197
4.96,0.13147
4.964,0.11466
4.968,0.11196
4.972,0.11366
4.976,0.08781
4.98,0.05211
4.984,0.07926
4.988,0.03756
4.992,0.03971
4.996,0.02846
5.0,0.00732
5.004,-0.00527
5.008,-0.00567
5.012,0.02908
5.016,0.00502
5.02,0.00042
5.024,-0.02396
5.028,-0.03175
5.032,-0.05013
5.036,-0.0279
5.04,-0.01806
5.044,-0.0276
5.048,-0.0194
5.052,-0.02775
5.056,-0.04216
5.06,-0.02829
5.064,-0.00046
5.068,-0.01171
5.072,-0.02522
5.076,-0.04072
5.08,0.00604
5.084,-0.02019
5.088,-0.01708
5.092,-0.0166
5.096,-0.0491
5.1,-0.05398
5.104,-0.03284
5.108,-0.03151
5.112,0.00818
5.116,-0.04027
5.12,-0.00247
5.124,-0.06446
5.128,-0.02934
5.132,-0.0095
5.136,-0.0281
5.14,-0.06036
5.144,-0.04233
5.148,-0.03245
5.152,-0.02232
5.156,-0.03564
5.16,-0.01009
5.164,-0.0161
5.168,-0.02293
5.172,-0.01174
5.176,-0.06508
5.18,-0.01812
5.184,-0.00823
5.188,-0.02715
5.192,-0.03817
5.196,-0.03356
5.2,-0.0496
5.204,-0.01264
5.208,-0.01067
5.212,-0.01663
5.216,-0.04091
5.22,-0.00977
5.224,-0.03602
5.228,-0.0446
5.232,-0.03632
5.236,-0.01514
5.24,-0.01906
5.244,0.00573
5.248,-0.00312
5.252,0.01285
5.256,0.00626
5.26,0.02967
5.264,0.01621
5.268,0.02793
5.272,0.06079
5.276,0.04835
5.28,0.07399
5.284,0.07079
5.288,0.05126
5.292,0.06228
5.296,0.03269
5.3,0.0419
5.304,0.05106
5.308,-0.00197
5.312,-0.0204
5.316,-0.01282
5.32,-0.00305
5.324,-0.01535
5.328,-0.01391
5.332,-0.03226
5.336,-0.01483
5.34,-0.03605
5.344,-0.06486
5.348,-0.05711
5.352,-0.01707
5.356,-0.04233
5.36,-0.02935
5.364,-0.0124
5.368,-0.02717
5.372,-0.01209
5.376,-0.03281
5.38,-0.04049
5.384,-0.0016
5.388,-0.02669
5.392,-0.02641
5.396,-0.05003
5.4,-0.0679
5.404,-0.09529
5.408,-0.15167
5.412,-0.14115
5.416,-0.02872
5.42,0.09498
5.424,0.27369
5.428,0.49116
5.432,0.70416
5.436,0.89071
5.44,0.95743
5.444,0.93058
5.448,0.81176
5.452,0.62578
5.456,0.39363
5.46,0.1755
5.464,-0.0139
5.468,-0.14562
5.472,-0.21682
5.476,-0.20813
5.48,-0.15222
5.484,-0.11965
5.488,-0.09747
5.492,-0.04123
5.496,-0.02173
5.5,-0.02927
5.504,-0.0252
5.508,-0.02599
5.512,-0.01096
5.516,-0.04996
5.52,-0.02818
5.524,-0.015
5.528,-0.03192
5.532,-0.02611
5.536,-0.02535
5.54,-0.02891
5.544,-0.04626
5.548,-0.03759
5.552,-0.03114
5.556,-0.019
5.56,-0.02189
5.564,-0.02517
5.568,-0.01031
5.572,-0.01436
5.576,0.00313
5.58,-0.0411
5.584,-0.04318
5.588,-0.0312
5.592,-0.02368
5.596,-0.0266
5.6,-0.02996
5.604,-0.0252
5.608,-0.01191
5.612,-0.02601
5.616,-0.0222
5.62,-0.0008
5.624,0.00679
5.628,0.01379
5.632,0.00739
5.636,0.01017
5.64,0.03481
5.644,0.03168
5.648,0.06551
5.652,0.04111
5.656,0.0517
5.66,0.05354
5.664,0.05626
5.668,0.06484
5.672,0.09612
5.676,0.09682
5.68,0.11346
5.684,0.11394
5.688,0.15732
5.692,0.14995
5.696,0.1763
5.7,0.2025
5.704,0.17036
5.708,0.171
5.712,0.19315
5.716,0.18667
5.72,0.17676
5.724,0.20557
5.728,0.21141
5.732,0.16742
5.736,0.1996
5.74,0.17987
5.744,0.1496
5.748,0.13404
5.752,0.15625
5.756,0.12176
5.76,0.1024
5.764,0.08735
5.768,0.10367
5.772,0.09382
5.776,0.08168
5.78,0.06036
5.784,0.06586
5.788,0.06115
5.792,0.03654
5.796,-0.00176
5.8,0.014
5.804,0.01359
5.808,0.00639
5.812,3e-05
5.816,0.00813
5.82,-0.027
5.824,-0.0105
5.828,0.00614
5.832,-0.03631
5.836,-0.01489
5.84,-0.02015
5.844,-0.0279
5.848,0.00072
5.852,-0.0085
5.856,-0.03552
5.86,-0.00843
5.864,-0.01575
5.868,-0.02622
5.872,-0.00443
5.876,-0.04238
5.88,-0.04041
5.884,-0.00199
5.888,-0.02909
5.892,-0.01831
5.896,-0.01328
5.9,-0.00364
5.904,-0.03321
5.908,-0.01003
5.912,-0.03664
5.916,-0.04026
5.92,-0.02847
5.924,-0.05943
5.928,-0.02829
5.932,-0.03236
5.936,-0.03542
5.94,-0.03986
5.944,-0.05533
5.948,-0.02409
5.952,-0.01479
5.956,-0.01252
5.96,-0.01335
5.964,-0.05253
5.968,-0.02297
5.972,-0.03954
5.976,-0.03654
5.98,-0.02713
5.984,-0.03128
5.988,-0.00699
5.992,-0.02672
5.996,-0.0406
6.0,0.01151
6.004,-0.03052
6.008,0.02529
6.012,0.03523
6.016,0.0497
6.02,0.03542
6.024,0.06034
6.028,0.07425
6.032,0.063
6.036,0.06011
6.04,0.08236
6.044,0.0379
6.048,0.04058
6.052,0.01914
6.056,0.04087
6.06,-0.0119
6.064,-0.01152
6.068,0.00365
6.072,-0.02409
6.076,-0.02715
6.08,-0.01437
6.084,-0.01594
6.088,-0.03004
6.092,-0.05835
6.096,-0.02641
6.1,-0.0139
6.104,-0.00862
6.108,-0.03993
6.112,-0.01174
6.116,-0.01683
6.12,0.00527
6.124,-0.02361
6.128,-0.03528
6.132,-0.05524
6.136,-0.04418
6.14,-0.01015
6.144,-0.03507
6.148,-0.04909
6.152,-0.11147
6.156,-0.13224
6.16,-0.14128
6.164,-0.0872
6.168,0.00266
6.172,0.17372
6.176,0.37281
6.18,0.55656
6.184,0.79287
6.188,0.91176
6.192,0.97232
6.196,0.88146
6.2,0.72607
6.204,0.52524
6.208,0.29472
6.212,0.09669
6.216,-0.05767
6.22,-0.18679
6.224,-0.19941
6.228,-0.16566
6.232,-0.13093
6.236,-0.09576
6.24,-0.06811
6.244,-0.05191
6.248,-0.01159
6.252,-0.01588
6.256,-0.02607
6.26,-0.00393
6.264,-0.04608
6.268,-0.03169
6.272,-0.01342
6.276,-0.02185
6.28,-0.03549
6.284,-0.03476
6.288,-0.02991
6.292,-0.02805
6.296,-0.00706
6.3,-0.02939
6.304,-0.0212
6.308,-0.04464
6.312,-0.02481
6.316,-0.01102
6.32,-0.00951
6.324,-0.01305
6.328,-0.01702
6.332,-0.03835
6.336,-0.01029
6.34,-0.03381
6.344,-0.01617
6.348,0.01848
6.352,-0.02751
6.356,0.00432
6.36,-0.01051
6.364,-0.0284
6.368,0.01418
6.372,-0.00537
6.376,-0.0053
6.38,-0.01196
6.384,0.05424
6.388,0.0357
6.392,0.02879
6.396,0.01782
6.4,0.04847
6.404,0.06649
6.408,0.07371
6.412,0.06711
6.416,0.07972
6.42,0.11032
6.424,0.11197
6.428,0.12443
6.432,0.12552
6.436,0.12832
6.44,0.14183
6.444,0.17133
6.448,0.18465
6.452,0.16818
6.456,0.18623
6.46,0.19432
6.464,0.18576
6.468,0.20623
6.472,0.1961
6.476,0.20702
6.48,0.2024
6.484,0.18106
6.488,0.20745
6.492,0.17189
6.496,0.17176
6.5,0.15458
6.504,0.15774
6.508,0.16178
6.512,0.14505
6.516,0.10328
6.52,0.10954
6.524,0.09784
6.528,0.09016
6.532,0.04849
6.536,0.04119
6.54,0.07309
6.544,0.0392
6.548,0.04498
6.552,0.05618
6.556,0.02393
6.56,0.04147
6.564,0.02653
6.568,0.01907
6.572,-0.00685
6.576,-0.00657
6.58,-0.00384
6.584,-0.0188
6.588,-0.00041
6.592,-0.01563
6.596,-4e-05
6.6,-0.03502
6.604,-0.03147
6.608,-0.00543
6.612,-0.01377
6.616,-0.00013
6.62,-0.02982
6.624,-0.02163
6.628,0.00526
6.632,-0.01969
6.636,-0.02108
6.64,0.0041
6.644,-0.01436
6.648,0.02093
6.652,-0.02448
6.656,-0.01438
6.66,-0.01845
6.664,-0.03843
6.668,-0.02263
6.672,-0.03453
6.676,-0.00552
6.68,-0.0192
6.684,-0.01907
6.688,0.00489
6.692,-0.02282
6.696,-0.00603
6.7,-0.00964
6.704,-0.01824
6.708,-0.02208
6.712,-0.01187
6.716,-0.01802
6.72,-0.01488
6.724,-0.0229
6.728,-0.02675
6.732,-0.01102
6.736,-0.00822
6.74,-0.01862
6.744,0.02216
6.748,-0.03448
6.752,-0.00564
6.756,0.0113
6.76,0.02624
6.764,0.00996
6.768,0.03584
6.772,0.06464
6.776,0.06455
6.78,0.0888
6.784,0.06041
6.788,0.07656
6.792,0.08896
6.796,0.0872
6.8,0.0676
6.804,0.04947
6.808,0.07168
6.812,0.03095
6.816,0.0625
6.82,0.02981
6.824,0.00519
6.828,0.0286
6.832,0.01436
6.836,-0.01262
6.84,0.00883
6.844,-0.01225
6.848,-0.00785
6.852,0.01188
6.856,-0.02145
6.86,0.01774
6.864,-0.00195
6.868,0.00575
6.872,-0.01839
6.876,-0.0108
6.88,0.00377
6.884,0.01174
6.888,-0.02617
6.892,-0.01076
6.896,-0.01025
6.9,-0.01401
6.904,-0.0251
6.908,-0.04425
6.912,-0.06997
6.916,-0.14021
6.92,-0.12709
6.924,-0.09185
6.928,0.01097
6.932,0.19427
6.936,0.37232
6.94,0.59526
6.944,0.77135
6.948,0.95467
6.952,0.99499
6.956,0.95784
6.96,0.77844
6.964,0.55963
6.968,0.34507
6.972,0.11412
6.976,-0.03507
6.98,-0.12241
6.984,-0.17146
6.988,-0.16661
6.992,-0.10555
6.996,-0.07653
7.0,-0.05141
7.004,-0.01995
7.008,0.00102
7.012,0.00664
7.016,-0.00157
7.02,-0.01412
7.024,-0.0222
7.028,0.0051
7.032,-0.00244
7.036,-0.02986
7.04,0.02545
7.044,-0.03472
7.048,-0.01121
7.052,0.00369
7.056,-0.00998
7.06,0.00986
7.064,-0.01332
7.068,0.00101
7.072,-0.02893
7.076,-0.00495
7.08,0.0151
7.084,0.00741
7.088,-0.00827
7.092,0.01407
7.096,0.00534
7.1,-0.00488
7.104,0.00512
7.108,-0.01353
7.112,0.00251
7.116,-0.0158
7.12,0.0026
7.124,0.00971
7.128,0.01824
7.132,0.00909
7.136,0.00052
7.14,0.01214
7.144,0.02182
7.148,0.04833
7.152,0.04452
7.156,0.02265
7.16,0.07396
7.164,0.06893
7.168,0.07337
7.172,0.08676
7.176,0.1057
7.18,0.13925
7.184,0.1094
7.188,0.14339
7.192,0.13902
7.196,0.15103
7.2,0.18279
7.204,0.1684
7.208,0.19413
7.212,0.1814
7.216,0.21544
7.22,0.2278
7.224,0.21323
7.228,0.2019
7.232,0.23583
7.236,0.23249
7.24,0.19427
7.244,0.20409
7.248,0.2088
7.252,0.20394
7.256,0.18025
7.26,0.1951
7.264,0.15999
7.268,0.17585
7.272,0.13333
7.276,0.13786
7.28,0.10978
7.284,0.11165
7.288,0.08561
7.292,0.11729
7.296,0.0843
7.3,0.07985
7.304,0.07255
7.308,0.06187
7.312,0.0303
7.316,0.04908
7.32,0.01557
7.324,0.03508
7.328,0.02859
7.332,0.03033
7.336,0.03848
7.34,0.01504
7.344,0.00853
7.348,0.02228
7.352,0.03648
7.356,0.00087
7.36,-0.02503
7.364,0.00961
7.368,0.00371
7.372,-0.03149
7.376,-0.00876
7.38,0.01632
7.384,0.01461
7.388,0.01948
7.392,-0.0018
7.396,-0.00885
7.4,-0.02293
7.404,0.01038
7.408,0.00267
7.412,-0.00284
7.416,-0.0035
7.42,0.0024
7.424,0.01304
7.428,0.01357
7.432,0.03176
7.436,-0.00279
7.44,-0.01784
7.444,-0.00638
7.448,-0.00629
7.452,0.0213
7.456,0.00085
7.46,-0.01378
7.464,0.01274
7.468,0.01515
7.472,0.00759
7.476,0.03064
7.48,-0.00101
7.484,0.04017
7.488,0.01139
7.492,0.03776
7.496,-0.01223
7.5,0.0091
7.504,-0.01516
7.508,0.01675
7.512,0.04102
7.516,0.00457
7.52,0.01268
7.524,0.01967
7.528,0.0455
7.532,0.02905
7.536,0.05368
7.54,0.02991
7.544,0.08092
7.548,0.11009
7.552,0.11843
7.556,0.09022
7.56,0.11402
7.564,0.11548
7.568,0.08775
7.572,0.10626
7.576,0.08505
7.58,0.06537
7.584,0.09154
7.588,0.02578
7.592,0.02706
7.596,0.0253
7.6,0.02578
7.604,0.03605
7.608,0.05328
7.612,0.05586
7.616,0.01742
7.62,0.02481
7.624,0.04094
7.628,0.00414
7.632,0.0071
7.636,-0.00811
7.64,0.00525
7.644,-0.01078
7.648,0.01029
7.652,0.00659
7.656,0.00375
7.66,0.00556
7.664,0.02538
7.668,0.02333
7.672,0.00643
7.676,-0.00952
7.68,-0.0396
7.684,-0.07793
7.688,-0.09968
7.692,-0.10401
7.696,-0.0214
7.7,0.09173
7.704,0.28931
7.708,0.50792
7.712,0.71463
7.716,0.86719
7.72,1.02588
7.724,0.99095
7.728,0.86671
7.732,0.67065
7.736,0.48634
7.74,0.24015
7.744,0.03663
7.748,-0.06337
7.752,-0.14784
7.756,-0.15429
7.76,-0.09299
7.764,-0.04523
7.768,-0.01038
7.772,-0.01789
7.776,-0.00029
7.78,0.01983
7.784,0.01844
7.788,0.03994
7.792,0.02397
7.796,0.00279
7.8,0.02658
7.804,0.01333
7.808,0.00167
7.812,-0.00986
7.816,0.01803
7.82,0.0012
7.824,0.0174
7.828,-0.01192
7.832,0.05427
7.836,-0.00985
7.84,0.02765
7.844,0.06034
7.848,0.00975
7.852,0.01217
7.856,0.01709
7.86,0.0267
7.864,0.03747
7.868,0.02062
7.872,-0.02259
7.876,0.04833
7.88,0.02725
7.884,0.01818
7.888,0.03163
7.892,0.03042
7.896,0.03025
7.9,0.01913
7.904,0.03353
7.908,0.04907
7.912,0.05961
7.916,0.02935
7.92,0.05435
7.924,0.06787
7.928,0.06388
7.932,0.06692
7.936,0.10973
7.94,0.07816
7.944,0.1176
7.948,0.12767
7.952,0.15139
7.956,0.14557
7.96,0.17105
7.964,0.19299
7.968,0.16543
7.972,0.18317
7.976,0.19734
7.98,0.23178
7.984,0.21426
7.988,0.24174
7.992,0.21895
7.996,0.21428
8.0,0.22225
8.004,0.26261
8.008,0.2111
8.012,0.26393
8.016,0.21379
8.02,0.21055
8.024,0.20635
8.028,0.18904
8.032,0.1784
8.036,0.19259
8.04,0.18291
8.044,0.14908
8.048,0.17168
8.052,0.14175
8.056,0.13376
8.06,0.10307
8.064,0.10237
8.068,0.10258
8.072,0.07491
8.076,0.08633
8.08,0.05272
8.084,0.05132
8.088,0.06775
8.092,0.04441
8.096,0.06273
8.1,0.02748
8.104,0.01752
8.108,0.03946
8.112,0.04247
8.116,0.03146
8.12,0.0632
8.124,0.00941
8.128,0.03806
8.132,0.01499
8.136,0.02919
8.14,0.03559
8.144,0.00913
8.148,0.02086
8.152,0.00779
8.156,-0.0028
8.16,0.03219
8.164,0.01171
8.168,0.03293
8.172,0.03388
8.176,0.02983
8.18,0.03364
8.184,0.03204
8.188,0.01529
8.192,0.03547
8.196,0.02012
8.2,0.04096
8.204,0.02428
8.208,0.04583
8.212,0.0185
8.216,0.06022
8.22,0.04132
8.224,0.01029
8.228,-0.00189
8.232,0.01861
8.236,0.02211
8.24,0.05207
8.244,0.0231
8.248,0.01772
8.252,0.00147
8.256,0.0178
8.26,0.03085
8.264,0.01542
8.268,0.01655
8.272,0.0333
8.276,0.03141
8.28,0.06141
8.284,0.05429
8.288,0.05325
8.292,0.04369
8.296,0.06618
8.3,0.07228
8.304,0.08907
8.308,0.09312
8.312,0.11745
8.316,0.1201
8.32,0.11092
8.324,0.15691
8.328,0.12357
8.332,0.09509
8.336,0.07918
8.34,0.10192
8.344,0.07197
8.348,0.06173
8.352,0.05777
8.356,0.02277
8.36,0.04141
8.364,0.04933
8.368,0.03961
8.372,-0.01619
8.376,0.00702
8.38,0.06012
8.384,0.02035
8.388,0.02497
8.392,0.05623
8.396,0.04314
8.4,0.02966
8.404,0.03336
8.408,0.05135
8.412,0.0091
8.416,0.04837
8.42,0.01604
8.424,0.02791
8.428,0.0296
8.432,0.01298
8.436,0.003
8.44,0.00587
8.444,-0.03334
8.448,-0.08524
8.452,-0.068
8.456,-0.01113
8.46,0.11004
8.464,0.26549
8.468,0.4677
8.472,0.70917
8.476,0.88302
8.48,0.99382
8.484,1.03767
8.488,0.93879
8.492,0.7357
8.496,0.51952
8.5,0.29617
8.504,0.07454
8.508,-0.01361
8.512,-0.0896
8.516,-0.10901
8.52,-0.11187
8.524,-0.08134
8.528,-0.01434
8.532,-0.00244
8.536,0.02227
8.54,0.01386
8.544,0.01657
8.548,0.04154
8.552,0.03579
8.556,0.03463
8.56,0.01548
8.564,0.01382
8.568,0.03873
8.572,0.02392
8.576,0.05116
8.58,0.04988
8.584,0.04249
8.588,0.01586
8.592,0.01961
8.596,0.02352
8.6,0.02971
8.604,0.02771
8.608,0.02847
8.612,0.00996
8.616,0.0396
8.62,0.03735
8.624,0.02073
8.628,0.03379
8.632,0.03607
8.636,0.03458
8.64,0.04897
8.644,0.02527
8.648,0.04648
8.652,0.0302
8.656,0.04228
8.66,0.07089
8.664,0.03617
8.668,0.04732
8.672,0.03753
8.676,0.07513
8.68,0.07323
8.684,0.06317
8.688,0.07396
8.692,0.09408
8.696,0.09685
8.7,0.12144
8.704,0.1178
8.708,0.13753
8.712,0.14416
8.716,0.16786
8.72,0.19167
8.724,0.17506
8.728,0.18318
8.732,0.20733
8.736,0.22152
8.74,0.22159
8.744,0.23031
8.748,0.23437
8.752,0.26642
8.756,0.23227
8.76,0.23671
8.764,0.23889
8.768,0.21456
8.772,0.25953
8.776,0.23979
8.78,0.22728
8.784,0.22954
8.788,0.22154
8.792,0.19476
8.796,0.21347
8.8,0.2188
8.804,0.15535
8.808,0.16906
8.812,0.16658
8.816,0.13086
8.82,0.08464
8.824,0.11684
8.828,0.11255
8.832,0.10595
8.836,0.07802
8.84,0.08688
8.844,0.07157
8.848,0.07922
8.852,0.06876
8.856,0.06033
8.86,0.05055
8.864,0.05141
8.868,0.0677
8.872,0.05774
8.876,0.04569
8.88,0.04107
8.884,0.0592
8.888,0.01868
8.892,0.04989
8.896,0.0161
8.9,0.03188
8.904,0.02335
8.908,0.01725
8.912,0.03593
8.916,0.04029
8.92,0.01166
8.924,0.00678
8.928,0.07258
8.932,0.0249
8.936,0.03026
8.94,0.02234
8.944,0.0536
8.948,0.04509
8.952,0.02315
8.956,0.01514
8.96,0.04021
8.964,0.01591
8.968,0.02686
8.972,0.04693
8.976,0.04016
8.98,0.03595
8.984,0.04543
8.988,0.03345
8.992,0.03382
8.996,0.05031
9.0,0.0492
9.004,0.0703
9.008,0.07586
9.012,0.07868
9.016,0.06449
9.02,0.09619
9.024,0.11333
9.028,0.12634
9.032,0.16245
9.036,0.12897
9.04,0.11564
9.044,0.1223
9.048,0.13897
9.052,0.09441
9.056,0.09195
9.06,0.08706
9.064,0.08155
9.068,0.07617
9.072,0.07457
9.076,0.06561
9.08,0.01623
9.084,0.05071
9.088,0.02141
9.092,0.06529
9.096,0.0188
9.1,0.024
9.104,0.02965
9.108,0.01062
9.112,0.03627
9.116,0.02051
9.12,0.03207
9.124,0.024
9.128,0.04616
9.132,0.02907
9.136,0.02424
9.14,0.01116
9.144,0.00553
9.148,0.00549
9.152,-7e-05
9.156,-0.0269
9.16,-0.06306
9.164,-0.08538
9.168,-0.06299
9.172,0.00447
9.176,0.09449
9.18,0.31028
9.184,0.52597
9.188,0.74758
9.192,0.91137
9.196,1.01442
9.2,0.99923
9.204,0.88772
9.208,0.73754
9.212,0.48046
9.216,0.24338
9.22,0.06742
9.224,-0.05933
9.228,-0.11555
9.232,-0.12004
9.236,-0.0904
9.24,-0.08053
9.244,-0.01581
9.248,-0.00673
9.252,0.02806
9.256,0.02737
9.26,0.03625
9.264,0.01432
9.268,0.03026
9.272,0.03375
9.276,0.01878
9.28,0.02898
9.284,0.00798
9.288,0.04137
9.292,0.00878
9.296,0.04097
9.3,0.03723
9.304,0.03083
9.308,0.02641
9.312,0.02313
9.316,0.0165
9.32,0.01147
9.324,0.04132
9.328,0.02269
9.332,0.01102
9.336,0.05493
9.34,-0.00799
9.344,0.02624
9.348,0.02937
9.352,0.03454
9.356,0.0386
9.36,0.05305
9.364,0.01977
9.368,0.04353
9.372,0.05175
9.376,0.04487
9.38,0.04181
9.384,0.06381
9.388,0.0459
9.392,0.06844
9.396,0.09266
9.4,0.08162
9.404,0.07509
9.408,0.08878
9.412,0.1242
9.416,0.13884
9.42,0.12877
9.424,0.11211
9.428,0.15556
9.432,0.15515
9.436,0.19341
9.44,0.18584
9.444,0.16448
9.448,0.21173
9.452,0.20393
9.456,0.2094
9.46,0.22396
9.464,0.26358
9.468,0.21602
9.472,0.23368
9.476,0.23618
9.48,0.25673
9.484,0.2366
9.488,0.26809
9.492,0.20358
9.496,0.22047
9.5,0.22591
9.504,0.21003
9.508,0.17702
9.512,0.18331
9.516,0.19278
9.52,0.17208
9.524,0.16915
9.528,0.14708
9.532,0.1352
9.536,0.08011
9.54,0.10975
9.544,0.08828
9.548,0.11077
9.552,0.08644
9.556,0.08938
9.56,0.06391
9.564,0.07042
9.568,0.06501
9.572,0.06108
9.576,0.04982
9.58,0.05053
9.584,-0.00313
9.588,0.07035
9.592,0.0006
9.596,0.03288
9.6,0.05514
9.604,0.02087
9.608,0.03465
9.612,0.05617
9.616,0.0206
9.62,-0.00441
9.624,0.03376
9.628,0.06066
9.632,0.03543
9.636,-0.01312
9.64,0.04351
9.644,0.04944
9.648,0.00245
9.652,0.02638
9.656,0.02123
9.66,0.03499
9.664,0.0285
9.668,0.02686
9.672,-0.00957
9.676,0.01389
9.68,0.00458
9.684,0.04246
9.688,-0.01248
9.692,-0.02193
9.696,0.00214
9.7,0.03284
9.704,0.04349
9.708,0.00878
9.712,0.00666
9.716,0.00565
9.72,0.06772
9.724,0.03887
9.728,0.06434
9.732,0.0474
9.736,0.06421
9.74,0.0889
9.744,0.09505
9.748,0.10655
9.752,0.13003
9.756,0.12155
9.76,0.10304
9.764,0.11533
9.768,0.11308
9.772,0.08596
9.776,0.08221
9.78,0.08088
9.784,0.05594
9.788,0.04603
9.792,0.04526
9.796,0.02307
9.8,0.03149
9.804,0.04839
9.808,0.02952
9.812,0.02228
9.816,-0.00262
9.82,0.02321
9.824,0.03562
9.828,0.01938
9.832,0.01524
9.836,-0.01627
9.84,0.01563
9.844,0.01515
9.848,0.02138
9.852,0.0347
9.856,0.01428
9.86,0.02877
9.864,0.03514
9.868,0.02154
9.872,0.02291
9.876,-0.02229
9.88,-0.05614
9.884,-0.11822
9.888,-0.1148
9.892,-0.05965
9.896,0.07415
9.9,0.20736
9.904,0.45495
9.908,0.66045
9.912,0.85511
9.916,0.99181
9.92,1.00421
9.924,0.93874
9.928,0.7502
9.932,0.52949
9.936,0.3016
9.94,0.0949
9.944,-0.0663
9.948,-0.11961
9.952,-0.15362
9.956,-0.12121
9.96,-0.09487
9.964,-0.04325
9.968,-0.01609
9.972,-0.03597
9.976,0.00387
9.98,0.01011
9.984,0.01709
9.988,0.02449
9.992,0.00887
9.996,0.03053
