t_seg,ecg_mV
0.0,0.05427
0.004,0.02351
0.008,0.00325
0.012,0.04912
0.016,0.03084
0.02,0.03109
0.024,0.01646
0.028,0.01116
0.032,0.05046
0.036,0.00403
0.04,0.01755
0.044,0.0097
0.048,0.0486
0.052,0.03183
0.056,0.01642
0.06,0.03779
0.064,0.05631
0.068,0.01275
0.072,0.01384
0.076,0.03329
0.08,0.03097
0.084,0.01034
0.088,0.01785
0.092,0.02718
0.096,0.04048
0.1,0.00526
0.104,0.03769
0.108,0.03527
0.112,0.05858
0.116,-0.00822
0.12,0.02266
0.124,0.02191
0.128,0.05093
0.132,0.0102
0.136,0.01964
0.14,0.03197
0.144,0.0375
0.148,0.03569
0.152,0.00864
0.156,0.05808
0.16,0.01775
0.164,0.03515
0.168,0.04317
0.172,0.02297
0.176,0.03678
0.18,0.00529
0.184,0.02659
0.188,0.02025
0.192,0.00476
0.196,0.01787
0.2,0.01253
0.204,0.04328
0.208,0.01572
0.212,0.00434
0.216,0.02527
0.22,0.02313
0.224,0.06905
0.228,0.05677
0.232,0.03142
0.236,0.01635
0.24,0.06484
0.244,0.03328
0.248,0.00176
0.252,0.03514
0.256,0.00164
0.26,0.04857
0.264,0.03535
0.268,0.01045
0.272,0.01898
0.276,-0.00632
0.28,0.05628
0.284,0.03012
0.288,0.03943
0.292,0.04972
0.296,0.02218
0.3,0.01955
0.304,0.021
0.308,0.03366
0.312,0.0152
0.316,0.02305
0.32,0.03331
0.324,0.03112
0.328,0.01961
0.332,0.01116
0.336,0.01968
0.34,0.03937
0.344,0.0506
0.348,0.04766
0.352,0.02454
0.356,0.03965
0.36,0.0355
0.364,0.05361
0.368,0.01658
0.372,0.04874
0.376,0.03585
0.38,0.0272
0.384,0.06996
0.388,0.05962
0.392,0.00445
0.396,0.03186
0.4,0.04188
0.404,0.04805
0.408,0.01015
0.412,0.03708
0.416,0.03357
0.42,0.01723
0.424,0.04286
0.428,0.02128
0.432,0.02918
0.436,0.01392
0.44,0.03742
0.444,0.03802
0.448,0.02469
0.452,0.01591
0.456,0.02995
0.46,0.03407
0.464,0.03276
0.468,0.02581
0.472,0.04649
0.476,0.0243
0.48,0.031
0.484,0.05553
0.488,0.01607
0.492,0.03053
0.496,0.03469
0.5,0.01753
0.504,0.0073
0.508,0.01398
0.512,-0.00514
0.516,0.0299
0.52,0.02864
0.524,0.04141
0.528,0.06085
0.532,0.03277
0.536,0.03323
0.54,0.03802
0.544,0.0219
0.548,0.00508
0.552,0.01773
0.556,0.03312
0.56,0.0308
0.564,0.03273
0.568,0.02365
0.572,0.03702
0.576,0.03442
0.58,0.04231
0.584,0.03049
0.588,0.04598
0.592,0.07036
0.596,0.1065
0.6,0.09522
0.604,0.11528
0.608,0.14686
0.612,0.12847
0.616,0.12366
0.62,0.09738
0.624,0.12085
0.628,0.13966
0.632,0.09388
0.636,0.0931
0.64,0.08388
0.644,0.07864
0.648,0.04701
0.652,0.06799
0.656,0.0569
0.66,0.0249
0.664,-0.0093
0.668,0.04426
0.672,0.0347
0.676,0.03162
0.68,0.00043
0.684,0.01626
0.688,0.02493
0.692,0.03314
0.696,0.02746
0.7,0.04476
0.704,0.01049
0.708,0.00901
0.712,0.02801
0.716,0.04873
0.72,0.00725
0.724,0.00415
0.728,0.05196
0.732,0.00124
0.736,-0.0087
0.74,-0.0243
0.744,-0.09763
0.748,-0.08205
0.752,-0.02059
0.756,0.08777
0.76,0.25653
0.764,0.45626
0.768,0.67646
0.772,0.89185
0.776,0.96259
0.78,1.02768
0.784,0.93209
0.788,0.75585
0.792,0.53112
0.796,0.30198
0.8,0.11612
0.804,-0.06984
0.808,-0.10569
0.812,-0.12855
0.816,-0.11727
0.82,-0.07781
0.824,-0.01935
0.828,0.02983
0.832,0.04112
0.836,0.04543
0.84,-0.00259
0.844,0.05625
0.848,0.03022
0.852,0.0185
0.856,0.03364
0.86,0.04817
0.864,0.00089
0.868,0.04103
0.872,0.02024
0.876,0.03029
0.88,0.02372
0.884,0.04057
0.888,0.02991
0.892,0.01718
0.896,0.01457
0.9,0.02006
0.904,0.03811
0.908,0.01693
0.912,0.04218
0.916,0.04945
0.92,0.03424
0.924,-0.00169
0.928,0.03786
0.932,0.04086
0.936,0.04819
0.94,0.03934
0.944,0.05926
0.948,0.06263
0.952,0.04273
0.956,0.05727
0.96,0.07857
0.964,0.06274
0.968,0.06406
0.972,0.09451
0.976,0.03634
0.98,0.09841
0.984,0.07834
0.988,0.05709
0.992,0.11574
0.996,0.1338
1.0,0.12044
1.004,0.1412
1.008,0.16143
1.012,0.14876
1.016,0.17255
1.02,0.19104
1.024,0.1796
1.028,0.19992
1.032,0.1971
1.036,0.20469
1.04,0.22672
1.044,0.24164
1.048,0.24399
1.052,0.25435
1.056,0.25806
1.06,0.25794
1.064,0.23633
1.068,0.23679
1.072,0.21649
1.076,0.25604
1.08,0.23741
1.084,0.20969
1.088,0.20355
1.092,0.20727
1.096,0.16866
1.1,0.16375
1.104,0.14539
1.108,0.14646
1.112,0.15565
1.116,0.11587
1.12,0.13246
1.124,0.10826
1.128,0.08885
1.132,0.09733
1.136,0.05802
1.14,0.07097
1.144,0.06392
1.148,0.091
1.152,0.04454
1.156,0.05065
1.16,0.02351
1.164,0.0239
1.168,0.04712
1.172,0.06108
1.176,0.05205
1.18,0.00724
1.184,0.01315
1.188,0.00778
1.192,0.02577
1.196,0.04374
1.2,0.03985
1.204,0.02684
1.208,0.0254
1.212,-0.01225
1.216,-0.03188
1.22,0.01817
1.224,-0.00505
1.228,0.02095
1.232,0.00494
1.236,0.03299
1.24,0.01195
1.244,0.00638
1.248,0.01909
1.252,0.03796
1.256,0.01439
1.26,0.04226
1.264,0.00128
1.268,0.00085
1.272,0.01514
1.276,0.01973
1.28,0.02966
1.284,0.01856
1.288,0.01904
1.292,-0.00292
1.296,0.03954
1.3,0.01304
1.304,0.02402
1.308,0.02234
1.312,0.05126
1.316,-0.00641
1.32,0.02025
1.324,0.04378
1.328,-0.01397
1.332,0.01547
1.336,0.02442
1.34,0.03146
1.344,0.0147
1.348,0.05268
1.352,0.02925
1.356,0.0785
1.36,0.06739
1.364,0.06197
1.368,0.11474
1.372,0.10768
1.376,0.12093
1.38,0.13151
1.384,0.11374
1.388,0.10917
1.392,0.11743
1.396,0.12423
1.4,0.0978
1.404,0.07
1.408,0.09431
1.412,0.04386
1.416,0.04014
1.42,0.03314
1.424,0.0303
1.428,0.03455
1.432,0.03318
1.436,0.00957
1.44,0.00898
1.444,0.03413
1.448,0.03305
1.452,0.00548
1.456,0.03671
1.46,0.01719
1.464,0.02534
1.468,0.02405
1.472,0.02436
1.476,0.01269
1.48,0.02061
1.484,0.01067
1.488,0.01985
1.492,0.00978
1.496,-0.002
1.5,-0.01879
1.504,-0.04334
1.508,-0.08398
1.512,-0.09977
1.516,-0.06052
1.52,0.05947
1.524,0.24151
1.528,0.41923
1.532,0.63979
1.536,0.81921
1.54,0.9648
1.544,1.01067
1.548,0.97224
1.552,0.79454
1.556,0.57448
1.56,0.33173
1.564,0.13074
1.568,-0.01584
1.572,-0.11755
1.576,-0.16882
1.58,-0.13715
1.584,-0.09725
1.588,-0.07754
1.592,-0.0511
1.596,-0.00261
1.6,0.00628
1.604,0.01255
1.608,0.01842
1.612,0.0229
1.616,0.03259
1.62,-0.00187
1.624,0.02208
1.628,0.03677
1.632,0.03464
1.636,-0.00109
1.64,0.02025
1.644,0.01986
1.648,0.00756
1.652,-0.00343
1.656,0.01025
1.66,0.03314
1.664,0.0097
1.668,0.01271
1.672,0.01036
1.676,0.03225
1.68,0.01662
1.684,-0.01266
1.688,-0.02052
1.692,0.01551
1.696,0.00933
1.7,0.00982
1.704,0.0425
1.708,0.03996
1.712,0.02719
1.716,0.03978
1.72,0.05074
1.724,0.03356
1.728,0.02906
1.732,0.01612
1.736,0.05692
1.74,0.07477
1.744,0.04277
1.748,0.05838
1.752,0.06251
1.756,0.09278
1.76,0.08831
1.764,0.12341
1.768,0.09502
1.772,0.16666
1.776,0.15935
1.78,0.14382
1.784,0.14773
1.788,0.15532
1.792,0.18791
1.796,0.19404
1.8,0.19757
1.804,0.20489
1.808,0.21669
1.812,0.22016
1.816,0.21863
1.82,0.24778
1.824,0.25058
1.828,0.22663
1.832,0.23468
1.836,0.21343
1.84,0.22598
1.844,0.18031
1.848,0.20345
1.852,0.19653
1.856,0.17981
1.86,0.16037
1.864,0.15974
1.868,0.14488
1.872,0.15711
1.876,0.1018
1.88,0.08196
1.884,0.10261
1.888,0.09041
1.892,0.0746
1.896,0.06347
1.9,0.0779
1.904,0.08028
1.908,0.03946
1.912,0.06253
1.916,0.04425
1.92,0.04356
1.924,0.02636
1.928,0.02309
1.932,0.04183
1.936,0.0064
1.94,0.01805
1.944,0.02479
1.948,0.00361
1.952,-0.00119
1.956,0.00107
1.96,0.02624
1.964,0.01107
1.968,0.00271
1.972,-0.00415
1.976,0.01685
1.98,0.00659
1.984,0.0061
1.988,-0.00791
1.992,0.00108
1.996,-0.00609
2.0,0.01768
2.004,0.00569
2.008,-0.01753
2.012,0.01321
2.016,0.00022
2.02,0.03986
2.024,0.00287
2.028,0.01118
2.032,6e-05
2.036,-0.001
2.04,0.0044
2.044,0.00629
2.048,0.01234
2.052,0.03424
2.056,0.01483
2.06,0.02034
2.064,-0.02333
2.068,0.03197
2.072,-0.0301
2.076,0.01206
2.08,0.01874
2.084,0.00533
2.088,-0.01206
2.092,0.04279
2.096,0.01843
2.1,0.00562
2.104,0.0327
2.108,0.04328
2.112,-0.00919
2.116,0.00849
2.12,-0.02862
2.124,-0.013
2.128,0.00402
2.132,0.02645
2.136,0.01382
2.14,0.04921
2.144,0.0124
2.148,-0.03064
2.152,-0.00836
2.156,0.02608
2.16,0.01691
2.164,0.0008
2.168,0.0235
2.172,0.02034
2.176,0.02383
2.18,-0.01408
2.184,0.02711
2.188,0.00746
2.192,0.02315
2.196,0.07176
2.2,0.06719
2.204,0.08411
2.208,0.10413
2.212,0.08336
2.216,0.08446
2.22,0.09708
2.224,0.09513
2.228,0.07964
2.232,0.07499
2.236,0.09326
2.24,0.04773
2.244,0.0403
2.248,0.01604
2.252,0.0102
2.256,0.02287
2.26,0.0093
2.264,0.01222
2.268,-0.00452
2.272,0.0233
2.276,0.02592
2.28,-0.00277
2.284,0.01952
2.288,0.02636
2.292,-0.00436
2.296,-0.01482
2.3,0.01274
2.304,0.01426
2.308,-0.02924
2.312,-0.03513
2.316,-0.01425
2.32,0.02295
2.324,0.00149
2.328,-0.00228
2.332,-0.046
2.336,-0.05795
2.34,-0.11234
2.344,-0.1323
2.348,-0.09906
2.352,-0.04092
2.356,0.08943
2.36,0.26414
2.364,0.47408
2.368,0.69553
2.372,0.8612
2.376,0.98753
2.38,0.97143
2.384,0.89034
2.388,0.64126
2.392,0.44681
2.396,0.21275
2.4,0.03954
2.404,-0.10077
2.408,-0.17591
2.412,-0.16919
2.416,-0.13065
2.42,-0.09383
2.424,-0.043
2.428,-0.0313
2.432,-0.00451
2.436,-0.02207
2.44,-0.01872
2.444,0.00044
2.448,-0.0283
2.452,-0.02404
2.456,-0.00283
2.46,-0.02189
2.464,0.01416
2.468,0.00781
2.472,-0.02654
2.476,0.00077
2.48,-0.01695
2.484,-0.01063
2.488,-0.01206
2.492,-0.01559
2.496,-0.01211
2.5,-0.02151
2.504,-0.04145
2.508,-0.00518
2.512,-0.00686
2.516,-0.01835
2.52,-0.00103
2.524,-0.01624
2.528,0.01181
2.532,-0.01365
2.536,0.00906
2.54,0.01363
2.544,0.02529
2.548,-0.01586
2.552,0.00485
2.556,0.03342
2.56,-0.01595
2.564,0.00285
2.568,0.0054
2.572,0.02001
2.576,0.04374
2.58,0.03188
2.584,0.05729
2.588,0.0621
2.592,0.04195
2.596,0.07748
2.6,0.08179
2.604,0.10599
2.608,0.11781
2.612,0.11102
2.616,0.1171
2.62,0.15148
2.624,0.18076
2.628,0.16219
2.632,0.17716
2.636,0.16405
2.64,0.23219
2.644,0.20249
2.648,0.18681
2.652,0.20844
2.656,0.22874
2.66,0.22079
2.664,0.21022
2.668,0.19695
2.672,0.17154
2.676,0.17586
2.68,0.1851
2.684,0.1814
2.688,0.16448
2.692,0.1562
2.696,0.14989
2.7,0.11067
2.704,0.10019
2.708,0.0925
2.712,0.10823
2.716,0.08586
2.72,0.07606
2.724,0.0503
2.728,0.04369
2.732,0.04209
2.736,0.02169
2.74,0.01204
2.744,0.02117
2.748,0.00678
2.752,0.00656
2.756,0.02501
2.76,0.01533
2.764,-0.01208
2.768,-0.00447
2.772,-0.00666
2.776,-0.01653
2.78,-0.00324
2.784,-0.01412
2.788,-0.02249
2.792,-0.00447
2.796,-0.02588
2.8,-0.02794
2.804,-0.00056
2.808,-0.01376
2.812,-0.02297
2.816,-0.00361
2.82,-0.02668
2.824,-0.01556
2.828,-0.01675
2.832,-0.01545
2.836,-0.02534
2.84,-0.01038
2.844,0.01827
2.848,0.00092
2.852,-0.00531
2.856,-0.01706
2.86,-0.03441
2.864,0.01679
2.868,-0.02756
2.872,-0.00125
2.876,0.00039
2.88,-0.00497
2.884,-0.02471
2.888,-0.06229
2.892,-0.03884
2.896,-0.03256
2.9,-0.03051
2.904,0.00411
2.908,0.0011
2.912,-0.00789
2.916,0.00926
2.92,-0.00871
2.924,-0.01889
2.928,-0.02327
2.932,-0.02195
2.936,-0.0248
2.94,-0.00499
2.944,0.00027
2.948,-0.02836
2.952,-0.01011
2.956,-0.0299
2.96,-0.00084
2.964,-0.0405
2.968,-0.01625
2.972,-0.02217
2.976,-0.04623
2.98,-0.05226
2.984,-0.04427
2.988,-0.02849
2.992,-0.02014
2.996,-0.00231
3.0,-0.0096
3.004,-0.03335
3.008,-0.00975
3.012,0.01187
3.016,-0.02041
3.02,-0.02345
3.024,-0.03074
3.028,-0.02836
3.032,-0.00445
3.036,-0.03987
3.04,-0.01116
3.044,-0.01049
3.048,-0.02885
3.052,0.01979
3.056,-0.02723
3.06,-0.04284
3.064,-0.01206
3.068,-0.04429
3.072,-0.01707
3.076,-0.02789
3.08,-0.02222
3.084,-0.00877
3.088,-0.01992
3.092,-0.01581
3.096,-0.03065
3.1,-0.02289
3.104,-0.03732
3.108,-0.03086
3.112,-0.02039
3.116,-0.00063
3.12,-0.0062
3.124,-0.00623
3.128,-0.00432
3.132,-0.02115
3.136,0.01378
3.14,0.02637
3.144,0.05512
3.148,0.03782
3.152,0.02032
3.156,0.06317
3.16,0.08757
3.164,0.05696
3.168,0.07555
3.172,0.08321
3.176,0.06534
3.18,0.07543
3.184,0.05429
3.188,0.05347
3.192,-0.00337
3.196,0.02167
3.2,0.00585
3.204,0.00302
3.208,-0.02069
3.212,-0.00241
3.216,-0.03226
3.22,-0.00232
3.224,-0.03346
3.228,-0.00924
3.232,-0.03124
3.236,-0.02256
3.24,-0.02785
3.244,-0.02483
3.248,-0.018
3.252,-0.05182
3.256,0.00245
3.26,-0.01765
3.264,-0.023
3.268,-0.02816
3.272,-0.04708
3.276,-0.04784
3.28,-0.04029
3.284,-0.06261
3.288,-0.07635
3.292,-0.10802
3.296,-0.13065
3.3,-0.11589
3.304,-0.0373
3.308,0.12772
3.312,0.33119
3.316,0.52147
3.32,0.76176
3.324,0.9062
3.328,0.9659
3.332,0.93299
3.336,0.78836
3.34,0.5923
3.344,0.3232
3.348,0.15098
3.352,-0.04989
3.356,-0.1147
3.36,-0.19406
3.364,-0.21396
3.368,-0.12112
3.372,-0.12733
3.376,-0.09411
3.38,-0.0555
3.384,-0.02328
3.388,-0.02489
3.392,-0.01375
3.396,-0.02378
3.4,-0.00721
3.404,-0.01191
3.408,-0.00898
3.412,-0.00437
3.416,-0.04306
3.42,-0.01528
3.424,-0.02127
3.428,-0.02681
3.432,-0.03609
3.436,-0.02475
3.44,-0.02094
3.444,-0.06556
3.448,-0.02377
3.452,-0.02589
3.456,-0.02813
3.46,-0.02803
3.464,-0.03885
3.468,-0.03723
3.472,-0.03769
3.476,-0.05356
3.48,-0.03485
3.484,-0.01642
3.488,-0.00885
3.492,-0.03
3.496,-0.03532
3.5,-0.04203
3.504,-0.0012
3.508,-0.0023
3.512,-0.00012
3.516,-0.02309
3.52,0.01067
3.524,0.00973
3.528,0.01771
3.532,0.02695
3.536,0.04536
3.54,0.01128
3.544,0.04046
3.548,0.07893
3.552,0.05094
3.556,0.09125
3.56,0.0736
3.564,0.08585
3.568,0.10563
3.572,0.13061
3.576,0.1719
3.58,0.15598
3.584,0.15406
3.588,0.15321
3.592,0.17169
3.596,0.17196
3.6,0.17825
3.604,0.19866
3.608,0.18068
3.612,0.19316
3.616,0.1778
3.62,0.20604
3.624,0.19587
3.628,0.17258
3.632,0.13841
3.636,0.1301
3.64,0.13106
3.644,0.12298
3.648,0.15274
3.652,0.11803
3.656,0.09702
3.66,0.09508
3.664,0.09429
3.668,0.05575
3.672,0.04021
3.676,0.05705
3.68,0.03831
3.684,-0.00808
3.688,0.0147
3.692,-0.00626
3.696,0.02815
3.7,-0.0041
3.704,-0.02918
3.708,0.00774
3.712,-0.01508
3.716,-0.02259
3.72,-0.01728
3.724,-0.03311
3.728,-0.04128
3.732,-0.04095
3.736,-0.02613
3.74,-0.0143
3.744,-0.03631
3.748,-0.03929
3.752,0.00688
3.756,-0.02041
3.76,-0.04083
3.764,-0.04241
3.768,-0.02057
3.772,-0.01533
3.776,-0.04661
3.78,-0.02556
3.784,-0.04896
3.788,-0.03231
3.792,-0.0327
3.796,-0.01813
3.8,-0.01307
3.804,-0.03523
3.808,-0.05684
3.812,-0.01974
3.816,-0.05864
3.82,-0.02682
3.824,-0.00551
3.828,-0.03606
3.832,-0.02703
3.836,-0.04314
3.84,-0.0524
3.844,-0.01745
3.848,-0.04127
3.852,-0.00647
3.856,-0.03937
3.86,-0.04069
3.864,-0.03166
3.868,-0.02725
3.872,-0.03613
3.876,0.00322
3.88,-0.04804
3.884,-0.0256
3.888,-0.04169
3.892,-0.01536
3.896,-0.02595
3.9,-0.04028
3.904,-0.03635
3.908,-0.03286
3.912,-0.02886
3.916,-0.0483
3.92,0.00219
3.924,0.01334
3.928,0.02392
3.932,0.03425
3.936,-0.00155
3.94,-0.0011
3.944,0.0321
3.948,0.04538
3.952,0.07394
3.956,0.03277
3.96,0.06351
3.964,0.05417
3.968,0.04483
3.972,0.05458
3.976,0.03599
3.98,0.03668
3.984,0.0535
3.988,0.01662
3.992,0.00934
3.996,0.00358
4.0,-0.02782
4.004,-0.01019
4.008,-0.01853
4.012,-0.02796
4.016,-0.00275
4.02,-0.04835
4.024,-0.02415
4.028,-0.03917
4.032,-0.02318
4.036,-0.04817
4.04,-0.02524
4.044,-0.02948
4.048,-0.04398
4.052,-0.03835
4.056,-0.01125
4.06,-0.03386
4.064,-0.02398
4.068,-0.02369
4.072,-0.01739
4.076,-0.04788
4.08,-0.07064
4.084,-0.11168
4.088,-0.13146
4.092,-0.1324
4.096,-0.08716
4.1,0.02451
4.104,0.19529
4.108,0.3911
4.112,0.62032
4.116,0.80414
4.12,0.94849
4.124,0.96595
4.128,0.8856
4.132,0.70475
4.136,0.4589
4.14,0.22118
4.144,0.03033
4.148,-0.09248
4.152,-0.16295
4.156,-0.19588
4.16,-0.18432
4.164,-0.15514
4.168,-0.08091
4.172,-0.03403
4.176,-0.05545
4.18,-0.00473
4.184,-0.04481
4.188,-0.03999
4.192,-0.05768
4.196,-0.03767
4.2,-0.03112
4.204,-0.03295
4.208,-0.03364
4.212,0.00054
4.216,-0.0297
4.22,-0.04109
4.224,-0.02554
4.228,-0.02454
4.232,0.00422
4.236,-0.05505
4.24,-0.0348
4.244,-0.00995
4.248,-0.0187
4.252,-0.02088
4.256,-0.04802
4.26,-0.02049
4.264,-0.03481
4.268,-0.032
4.272,-0.03208
4.276,-0.01048
4.28,-0.01401
4.284,-0.02668
4.288,-0.00547
4.292,-0.01453
4.296,-0.03191
4.3,-0.03504
4.304,-0.00018
4.308,-0.00224
4.312,0.02195
4.316,-0.00138
4.32,0.01983
4.324,0.01003
4.328,0.0334
4.332,0.04543
4.336,0.03302
4.34,0.04801
4.344,0.06701
4.348,0.06823
4.352,0.12806
4.356,0.06704
4.36,0.12033
4.364,0.12678
4.368,0.10537
4.372,0.1516
4.376,0.14761
4.38,0.15092
4.384,0.18113
4.388,0.18618
4.392,0.1967
4.396,0.20048
4.4,0.17989
4.404,0.18772
4.408,0.18927
4.412,0.20196
4.416,0.19639
4.42,0.18379
4.424,0.1937
4.428,0.17363
4.432,0.16448
4.436,0.1329
4.44,0.13335
4.444,0.11434
4.448,0.07972
4.452,0.1046
4.456,0.09785
4.46,0.08452
4.464,0.08577
4.468,0.06628
4.472,0.03864
4.476,0.03788
4.48,0.01558
4.484,0.00776
4.488,0.00425
4.492,-0.00971
4.496,-0.00286
4.5,0.02093
4.504,0.01967
4.508,-0.0109
4.512,-0.02673
4.516,-0.02903
4.52,-0.00912
4.524,0.00445
4.528,-0.02528
4.532,-0.03834
4.536,-0.02268
4.54,-0.0194
4.544,-0.02205
4.548,-0.03657
4.552,-0.0308
4.556,-0.0279
4.56,-0.04965
4.564,-0.01534
4.568,-0.03348
4.572,-0.00909
4.576,-0.00465
4.58,-0.03908
4.584,-0.00973
4.588,0.00944
4.592,-0.04554
4.596,-0.04901
4.6,-0.02927
4.604,-0.03434
4.608,-0.05021
4.612,-0.02023
4.616,-0.01679
4.62,-0.02125
4.624,-0.02034
4.628,-0.01851
4.632,-0.01619
4.636,-0.02727
4.64,-0.02133
4.644,0.01161
4.648,0.00716
4.652,0.00417
4.656,0.05413
4.66,0.05523
4.664,0.0423
4.668,0.06262
4.672,0.0776
4.676,0.06833
4.68,0.09239
4.684,0.07127
4.688,0.04668
4.692,0.05755
4.696,0.03652
4.7,0.03355
4.704,0.02307
4.708,0.00978
4.712,0.02181
4.716,-0.00389
4.72,-0.01875
4.724,-0.02486
4.728,-0.01892
4.732,0.00708
4.736,-0.0136
4.74,-0.01437
4.744,-0.01824
4.748,-0.02206
4.752,-0.02726
4.756,-0.01586
4.76,-0.02827
4.764,-0.01944
4.768,-0.01467
4.772,-0.01634
4.776,-0.03096
4.78,-0.01464
4.784,-0.0193
4.788,-0.04296
4.792,-0.00083
4.796,-0.04361
4.8,-0.10755
4.804,-0.1368
4.808,-0.13265
4.812,-0.12064
4.816,-0.01574
4.82,0.12768
4.824,0.35654
4.828,0.55583
4.832,0.81474
4.836,0.92421
4.84,0.9791
4.844,0.93019
4.848,0.76937
4.852,0.5635
4.856,0.34455
4.86,0.09196
4.864,-0.06018
4.868,-0.14491
4.872,-0.16035
4.876,-0.18164
4.88,-0.1349
4.884,-0.0635
4.888,-0.06615
4.892,-0.05271
4.896,-0.03142
4.9,-0.0059
4.904,-0.00014
4.908,0.00079
4.912,-0.00667
4.916,-0.02041
4.92,0.01256
4.924,-0.01767
4.928,-0.01761
4.932,-0.0086
4.936,0.00702
4.94,-0.00494
4.944,-0.00448
4.948,-0.00935
4.952,-0.0255
4.956,-0.01494
4.96,-0.00572
4.964,-0.03417
4.968,0.01968
4.972,-0.0311
4.976,-0.03594
4.98,-0.03237
4.984,-0.01645
4.988,-0.01266
4.992,-0.01737
4.996,0.01733
5.0,-0.01555
5.004,0.01204
5.008,0.00728
5.012,-0.00033
5.016,-0.01646
5.02,-0.033
5.024,0.00631
5.028,0.02197
5.032,0.02879
5.036,0.02907
5.04,0.02139
5.044,0.02859
5.048,0.01765
5.052,0.07233
5.056,0.07624
5.06,0.09007
5.064,0.07048
5.068,0.10359
5.072,0.11701
5.076,0.12084
5.08,0.155
5.084,0.15852
5.088,0.15199
5.092,0.16979
5.096,0.15081
5.1,0.19088
5.104,0.19394
5.108,0.18788
5.112,0.19895
5.116,0.20145
5.12,0.22604
5.124,0.218
5.128,0.2154
5.132,0.20173
5.136,0.19709
5.14,0.17599
5.144,0.18048
5.148,0.16609
5.152,0.12799
5.156,0.15209
5.16,0.14195
5.164,0.14456
5.168,0.09621
5.172,0.09565
5.176,0.08456
5.18,0.08039
5.184,0.04516
5.188,0.04525
5.192,0.04172
5.196,0.03374
5.2,0.03226
5.204,0.03107
5.208,0.01838
5.212,0.01893
5.216,0.01211
5.22,0.01435
5.224,0.02627
5.228,0.00937
5.232,0.00982
5.236,0.02002
5.24,0.01403
5.244,-0.00771
5.248,-0.01253
5.252,-0.01202
5.256,-0.01369
5.26,-0.01425
5.264,0.01796
5.268,-0.00169
5.272,-0.01329
5.276,-0.01766
5.28,-0.01507
5.284,-0.04541
5.288,-0.00572
5.292,0.00061
5.296,-0.02985
5.3,-0.02114
5.304,0.0129
5.308,0.00012
5.312,-0.00917
5.316,-0.01656
5.32,0.01966
5.324,0.0089
5.328,0.02584
5.332,-0.0011
5.336,-0.02926
5.34,0.01579
5.344,-0.02124
5.348,0.00923
5.352,-0.00635
5.356,-0.01944
5.36,-0.01192
5.364,-0.00591
5.368,-0.00933
5.372,-0.012
5.376,-0.00551
5.38,0.01297
5.384,0.00019
5.388,0.02568
5.392,0.02017
5.396,0.0045
5.4,0.03735
5.404,0.04905
5.408,0.09372
5.412,0.07111
5.416,0.07328
5.42,0.10258
5.424,0.09788
5.428,0.09536
5.432,0.08147
5.436,0.11809
5.44,0.06152
5.444,0.0649
5.448,0.06826
5.452,0.02464
5.456,0.05154
5.46,0.0169
5.464,-0.00051
5.468,0.03896
5.472,0.00778
5.476,0.00384
5.48,-0.00289
5.484,-0.00312
5.488,0.00412
5.492,-0.00115
5.496,0.00035
5.5,0.00782
5.504,-0.01882
5.508,0.01443
5.512,-0.03138
5.516,-0.01045
5.52,-0.03094
5.524,-0.00543
5.528,-0.01445
5.532,0.01453
5.536,-0.03342
5.54,0.01171
5.544,-0.03951
5.548,-0.07933
5.552,-0.11232
5.556,-0.10267
5.56,-0.04591
5.564,0.05774
5.568,0.21414
5.572,0.4089
5.576,0.64123
5.58,0.80537
5.584,0.96953
5.588,1.01473
5.592,0.91214
5.596,0.74864
5.6,0.54522
5.604,0.29646
5.608,0.09962
5.612,-0.06124
5.616,-0.12471
5.62,-0.18071
5.624,-0.14705
5.628,-0.0984
5.632,-0.07499
5.636,-0.06805
5.64,-0.01568
5.644,-0.01058
5.648,0.00585
5.652,-0.00852
5.656,0.02385
5.66,-0.00027
5.664,0.00688
5.668,-0.00214
5.672,0.01461
5.676,-0.00541
5.68,-0.00646
5.684,-0.00916
5.688,-0.00725
5.692,-0.01439
5.696,0.01087
5.7,-0.00093
5.704,-0.00652
5.708,0.01435
5.712,0.01556
5.716,-0.00256
5.72,-0.00558
5.724,0.00449
5.728,-0.00352
5.732,-0.01283
5.736,0.02641
5.74,0.00049
5.744,-0.00011
5.748,0.0114
5.752,0.00486
5.756,0.03117
5.76,-0.0088
5.764,0.00751
5.768,0.04838
5.772,0.02918
5.776,0.03695
5.78,0.03194
5.784,0.05148
5.788,0.06947
5.792,0.02309
5.796,0.07935
5.8,0.06541
5.804,0.10371
5.808,0.12203
5.812,0.09757
5.816,0.11372
5.82,0.13895
5.824,0.13614
5.828,0.15034
5.832,0.16994
5.836,0.18485
5.84,0.18169
5.844,0.19995
5.848,0.2023
5.852,0.23057
5.856,0.22597
5.86,0.22906
5.864,0.22583
5.868,0.22882
5.872,0.22114
5.876,0.18613
5.88,0.20101
5.884,0.187
5.888,0.20773
5.892,0.2079
5.896,0.18413
5.9,0.19016
5.904,0.20772
5.908,0.16248
5.912,0.14877
5.916,0.17694
5.92,0.13849
5.924,0.11616
5.928,0.09167
5.932,0.08697
5.936,0.08656
5.94,0.04602
5.944,0.07782
5.948,0.05896
5.952,0.04266
5.956,0.06853
5.96,0.06018
5.964,0.02704
5.968,0.02111
5.972,0.01575
5.976,0.0537
5.98,0.02394
5.984,0.0031
5.988,-0.00279
5.992,0.03803
5.996,0.0235
6.0,0.03238
6.004,0.02141
6.008,-0.00513
6.012,0.03639
6.016,0.01857
6.02,-0.00011
6.024,0.02166
6.028,0.00063
6.032,0.03134
6.036,0.0171
6.04,0.00278
6.044,0.0316
6.048,0.01851
6.052,0.00615
6.056,-0.00101
6.06,0.00714
6.064,0.03243
6.068,-0.00069
6.072,0.03284
6.076,0.02348
6.08,0.02938
6.084,-0.00314
6.088,-0.01348
6.092,-0.00147
6.096,-0.00853
6.1,-0.00396
6.104,0.02609
6.108,0.01024
6.112,0.03243
6.116,-0.00538
6.12,0.02104
6.124,0.00706
6.128,-0.00728
6.132,0.01001
6.136,0.00539
6.14,0.00116
6.144,-0.00351
6.148,0.02531
6.152,0.02623
6.156,-0.01583
6.16,0.03402
6.164,0.01568
6.168,0.00554
6.172,0.00608
6.176,0.03683
6.18,-0.01454
6.184,0.00927
6.188,0.00682
6.192,0.01558
6.196,0.01545
6.2,0.01895
6.204,0.00327
6.208,0.01557
6.212,0.03714
6.216,0.01445
6.22,0.00184
6.224,0.02136
6.228,-0.00015
6.232,0.02415
6.236,0.02253
6.24,0.01482
6.244,0.0301
6.248,0.02116
6.252,0.01139
6.256,0.03539
6.26,0.02486
6.264,0.01034
6.268,0.04296
6.272,0.02561
6.276,0.02369
6.28,0.00521
6.284,0.04426
6.288,0.02857
6.292,0.02384
6.296,0.00543
6.3,0.00658
6.304,0.01742
6.308,0.02033
6.312,0.02457
6.316,0.01456
6.32,0.02848
6.324,0.02939
6.328,0.01156
6.332,0.03739
6.336,0.01209
6.34,0.02991
6.344,0.03823
6.348,0.02161
6.352,0.02697
6.356,0.01854
6.36,0.00751
6.364,0.01199
6.368,0.02944
6.372,0.0216
6.376,0.02793
6.38,0.01087
6.384,0.02671
6.388,0.02618
6.392,0.0364
6.396,0.08034
6.4,0.06831
6.404,0.06174
6.408,0.07875
6.412,0.0768
6.416,0.10535
6.42,0.0887
6.424,0.08918
6.428,0.13954
6.432,0.09311
6.436,0.13545
6.44,0.11101
6.444,0.12389
6.448,0.08015
6.452,0.07449
6.456,0.05152
6.46,0.06909
6.464,0.02438
6.468,0.03394
6.472,0.0618
6.476,0.02425
6.48,0.01626
6.484,0.03218
6.488,0.03139
6.492,0.0061
6.496,0.07605
6.5,0.00794
6.504,0.03768
6.508,0.02544
6.512,0.05157
6.516,0.01068
6.52,0.02194
6.524,0.04024
6.528,0.02169
6.532,0.01397
6.536,0.01961
6.54,0.02236
6.544,0.00255
6.548,-0.03931
6.552,-0.04569
6.556,-0.08752
6.56,-0.09109
6.564,-0.01703
6.568,0.09433
6.572,0.31919
6.576,0.49368
6.58,0.75092
6.584,0.92048
6.588,1.02535
6.592,0.99606
6.596,0.95674
6.6,0.68716
6.604,0.50467
6.608,0.25838
6.612,0.05089
6.616,-0.0567
6.62,-0.12852
6.624,-0.13653
6.628,-0.11734
6.632,-0.08399
6.636,-0.03306
6.64,0.01508
6.644,0.01447
6.648,0.03655
6.652,0.03283
6.656,0.04199
6.66,0.00874
6.664,0.04677
6.668,0.01649
6.672,0.00527
6.676,0.04232
6.68,0.03941
6.684,0.05837
6.688,0.02705
6.692,0.03732
6.696,0.01997
6.7,0.01211
6.704,0.04026
6.708,0.04237
6.712,0.00487
6.716,0.05205
6.72,0.01902
6.724,0.0589
6.728,0.03686
6.732,0.02941
6.736,0.00952
6.74,0.03166
6.744,0.01342
6.748,0.04092
6.752,0.02125
6.756,0.03003
6.76,0.02246
6.764,0.02522
6.768,0.06458
6.772,0.0484
6.776,0.07039
6.78,0.02897
6.784,0.06473
6.788,0.08287
6.792,0.07914
6.796,0.09337
6.8,0.07045
6.804,0.1035
6.808,0.09341
6.812,0.16074
6.816,0.12273
6.82,0.15183
6.824,0.15113
6.828,0.14995
6.832,0.14596
6.836,0.20223
6.84,0.22372
6.844,0.2159
6.848,0.22629
6.852,0.25312
6.856,0.23744
6.86,0.22397
6.864,0.24159
6.868,0.23531
6.872,0.26536
6.876,0.24521
6.88,0.24311
6.884,0.26588
6.888,0.23489
6.892,0.22792
6.896,0.20319
6.9,0.22769
6.904,0.19469
6.908,0.18325
6.912,0.17417
6.916,0.16822
6.92,0.15407
6.924,0.11868
6.928,0.07397
6.932,0.12797
6.936,0.10747
6.94,0.08029
6.944,0.09733
6.948,0.05865
6.952,0.05416
6.956,0.03897
6.96,0.05993
6.964,0.04364
6.968,0.06551
6.972,0.05706
6.976,0.04016
6.98,0.04727
6.984,0.03323
6.988,0.02915
6.992,0.01067
6.996,0.05324
7.0,0.06282
7.004,0.03817
7.008,0.04671
7.012,0.03251
7.016,0.03217
7.02,-0.00219
7.024,0.01464
7.028,0.01771
7.032,0.02708
7.036,0.04487
7.04,0.00283
7.044,0.00347
7.048,-0.00093
7.052,0.03556
7.056,0.06173
7.06,0.02384
7.064,0.02726
7.068,0.05512
7.072,0.01767
7.076,0.04567
7.08,0.03459
7.084,0.04663
7.088,0.00445
7.092,0.03023
7.096,0.02222
7.1,0.06199
7.104,0.04011
7.108,0.03305
7.112,0.04072
7.116,0.01369
7.12,-0.00954
7.124,0.0284
7.128,0.0435
7.132,0.00908
7.136,0.04706
7.14,0.01835
7.144,0.02658
7.148,0.0174
7.152,0.04875
7.156,0.00967
7.16,0.05295
7.164,0.02218
7.168,0.0471
7.172,0.02342
7.176,0.05173
7.18,0.02327
7.184,0.06083
7.188,0.06291
7.192,0.08037
7.196,0.08337
7.2,0.07094
7.204,0.09316
7.208,0.11389
7.212,0.11182
7.216,0.1177
7.22,0.11595
7.224,0.14696
7.228,0.12648
7.232,0.11636
7.236,0.1254
7.24,0.08232
7.244,0.08662
7.248,0.08944
7.252,0.05604
7.256,0.06961
7.26,0.04041
7.264,0.01858
7.268,0.03134
7.272,0.03523
7.276,0.01159
7.28,0.04811
7.284,0.05583
7.288,0.00861
7.292,0.02036
7.296,0.02093
7.3,0.01554
7.304,0.03256
7.308,0.05733
7.312,0.00281
7.316,0.03439
7.32,0.03804
7.324,0.0315
7.328,0.0068
7.332,0.03319
7.336,0.00277
7.34,-0.03633
7.344,-0.05255
7.348,-0.09558
7.352,-0.0858
7.356,0.0136
7.36,0.15324
7.364,0.30222
7.368,0.52148
7.372,0.72981
7.376,0.91839
7.38,1.0122
7.384,1.01821
7.388,0.91194
7.392,0.72532
7.396,0.47009
7.4,0.25122
7.404,0.0668
7.408,-0.07816
7.412,-0.13694
7.416,-0.13496
7.42,-0.10575
7.424,-0.0528
7.428,-0.01717
7.432,-0.0071
7.436,0.02994
7.44,0.02683
7.444,-0.00908
7.448,0.02497
7.452,0.00778
7.456,0.01971
7.46,0.00962
7.464,0.05005
7.468,0.0089
7.472,0.0258
7.476,0.03246
7.48,0.02479
7.484,0.00287
7.488,0.03392
7.492,0.04594
7.496,0.02307
7.5,0.03338
7.504,0.02822
7.508,0.0309
7.512,0.0561
7.516,0.0133
7.52,0.04663
7.524,0.01067
7.528,0.02274
7.532,0.01817
7.536,0.05431
7.54,0.03791
7.544,0.04573
7.548,0.04123
7.552,0.04597
7.556,0.02322
7.56,0.07551
7.564,0.06633
7.568,0.06418
7.572,0.06136
7.576,0.06824
7.58,0.06383
7.584,0.06536
7.588,0.10104
7.592,0.10927
7.596,0.11811
7.6,0.1216
7.604,0.09275
7.608,0.15756
7.612,0.13337
7.616,0.15571
7.62,0.14041
7.624,0.18942
7.628,0.17546
7.632,0.20525
7.636,0.24037
7.64,0.21929
7.644,0.24306
7.648,0.23464
7.652,0.26953
7.656,0.22498
7.66,0.21026
7.664,0.24626
7.668,0.24311
7.672,0.23114
7.676,0.25065
7.68,0.26172
7.684,0.21802
7.688,0.22982
7.692,0.20723
7.696,0.19206
7.7,0.17592
7.704,0.16929
7.708,0.16135
7.712,0.14938
7.716,0.16429
7.72,0.12155
7.724,0.09436
7.728,0.08895
7.732,0.09582
7.736,0.09794
7.74,0.06307
7.744,0.0817
7.748,0.07096
7.752,0.06054
7.756,0.06072
7.76,0.03472
7.764,0.0353
7.768,0.05284
7.772,0.02513
7.776,0.04437
7.78,0.02064
7.784,0.06708
7.788,0.00594
7.792,0.04887
7.796,0.03393
7.8,0.02487
7.804,0.01911
7.808,0.00509
7.812,0.03289
7.816,0.01408
7.82,0.00501
7.824,0.0361
7.828,0.01572
7.832,0.00731
7.836,0.01213
7.84,0.04037
7.844,-0.00424
7.848,0.03004
7.852,0.03665
7.856,0.02621
7.86,0.0236
7.864,0.00924
7.868,0.01597
7.872,0.00452
7.876,0.02383
7.88,0.00612
7.884,0.04142
7.888,0.0396
7.892,0.0258
7.896,0.05505
7.9,0.03699
7.904,0.05377
7.908,0.05639
7.912,0.10243
7.916,0.09902
7.92,0.10186
7.924,0.11259
7.928,0.11596
7.932,0.11452
7.936,0.12957
7.94,0.11543
7.944,0.08934
7.948,0.09456
7.952,0.08042
7.956,0.0612
7.96,0.05809
7.964,0.06136
7.968,0.05659
7.972,0.02608
7.976,0.0333
7.98,0.02358
7.984,0.02015
7.988,0.04492
7.992,0.03452
7.996,0.02297
8.0,0.01965
8.004,0.00727
8.008,0.01099
8.012,0.01677
8.016,0.01238
8.02,0.03597
8.024,0.04501
8.028,0.05878
8.032,-0.01015
8.036,0.00043
8.04,-0.00583
8.044,-0.00137
8.048,-0.015
8.052,-0.04739
8.056,-0.09197
8.06,-0.09914
8.064,-0.04475
8.068,0.05547
8.072,0.26157
8.076,0.45016
8.08,0.65049
8.084,0.84797
8.088,0.97608
8.092,0.99956
8.096,0.89678
8.1,0.74877
8.104,0.54908
8.108,0.30157
8.112,0.08218
8.116,-0.0535
8.12,-0.14239
8.124,-0.13559
8.128,-0.10693
8.132,-0.07395
8.136,-0.05346
8.14,-0.02021
8.144,0.02127
8.148,0.00956
8.152,0.03064
8.156,-0.01267
8.16,0.00654
8.164,0.0312
8.168,0.02473
8.172,0.02786
8.176,0.02023
8.18,0.01757
8.184,0.01491
8.188,0.04796
8.192,-0.02123
8.196,0.03351
8.2,-0.00388
8.204,-0.00034
8.208,0.03535
8.212,0.02562
8.216,0.0162
8.22,0.01023
8.224,0.02529
8.228,0.03098
8.232,0.0143
8.236,0.01521
8.24,0.01261
8.244,0.03465
8.248,0.00215
8.252,0.00267
8.256,0.02861
8.26,0.02363
8.264,0.00336
8.268,0.05271
8.272,0.04104
8.276,0.04449
8.28,0.03087
8.284,0.0391
8.288,0.06096
8.292,0.06497
8.296,0.05995
8.3,0.10137
8.304,0.06561
8.308,0.09033
8.312,0.10076
8.316,0.09489
8.32,0.14566
8.324,0.16277
8.328,0.14534
8.332,0.14132
8.336,0.19636
8.34,0.19244
8.344,0.21397
8.348,0.19427
8.352,0.21925
8.356,0.19839
8.36,0.22582
8.364,0.22616
8.368,0.22915
8.372,0.22765
8.376,0.21871
8.38,0.23477
8.384,0.24961
8.388,0.24376
8.392,0.19763
8.396,0.18261
8.4,0.21391
8.404,0.19042
8.408,0.17386
8.412,0.13967
8.416,0.15312
8.42,0.13283
8.424,0.12908
8.428,0.09216
8.432,0.13661
8.436,0.10655
8.44,0.05041
8.444,0.08808
8.448,0.03517
8.452,0.0452
8.456,0.04473
8.46,0.04933
8.464,0.04776
8.468,0.03872
8.472,0.033
8.476,0.00127
8.48,0.02791
8.484,0.04303
8.488,0.00107
8.492,0.03488
8.496,-0.00755
8.5,-0.0094
8.504,0.04914
8.508,-0.00512
8.512,0.01969
8.516,-0.00276
8.52,0.00469
8.524,0.02688
8.528,0.0108
8.532,-0.02575
8.536,0.00939
8.54,0.01798
8.544,-0.00831
8.548,0.02449
8.552,0.02636
8.556,-0.0044
8.56,0.0149
8.564,-0.00998
8.568,-0.00686
8.572,0.02055
8.576,-0.00826
8.58,0.02621
8.584,0.0182
8.588,0.01695
8.592,-0.00326
8.596,0.02715
8.6,0.01544
8.604,-0.00097
8.608,0.03979
8.612,0.00478
8.616,0.0246
8.62,-0.00153
8.624,0.01037
8.628,0.00093
8.632,0.0019
8.636,0.02663
8.64,0.03532
8.644,-0.01837
8.648,-0.00903
8.652,0.01747
8.656,-0.00302
8.66,-0.00265
8.664,0.02332
8.668,0.00174
8.672,-0.00798
8.676,0.00811
8.68,0.01344
8.684,0.02006
8.688,0.02696
8.692,0.03587
8.696,0.01507
8.7,0.05185
8.704,0.06305
8.708,0.06569
8.712,0.05941
8.716,0.08833
8.72,0.10798
8.724,0.08977
8.728,0.09999
8.732,0.10403
8.736,0.10395
8.74,0.0903
8.744,0.06542
8.748,0.05459
8.752,0.0573
8.756,0.04201
8.76,-0.01
8.764,0.01195
8.768,0.02716
8.772,0.01064
8.776,0.00311
8.78,-0.00087
8.784,0.00469
8.788,0.0111
8.792,0.00063
8.796,-0.01183
8.8,0.00735
8.804,0.02126
8.808,0.00792
8.812,0.01719
8.816,-0.00295
8.82,0.03396
8.824,-0.00519
8.828,0.00339
8.832,0.00016
8.836,-0.01335
8.84,0.0078
8.844,-0.03541
8.848,-0.06826
8.852,-0.1435
8.856,-0.1172
8.86,-0.07287
8.864,0.03387
8.868,0.20624
8.872,0.40823
8.876,0.63104
8.88,0.83527
8.884,0.95492
8.888,1.0283
8.892,0.92833
8.896,0.74204
8.9,0.49926
8.904,0.30138
8.908,0.10052
8.912,-0.02045
8.916,-0.1508
8.92,-0.17416
8.924,-0.17397
8.928,-0.10502
8.932,-0.04838
8.936,-0.01552
8.94,-0.00057
8.944,0.00692
8.948,0.00091
8.952,-0.02247
8.956,-0.00682
8.96,-0.00588
8.964,0.00374
8.968,-0.0078
8.972,-0.00899
8.976,0.00717
8.98,0.00843
8.984,-0.01134
8.988,-0.02695
8.992,-0.00438
8.996,0.00424
9.0,0.01834
9.004,0.00431
9.008,-0.01949
9.012,-0.02015
9.016,0.00818
9.02,-0.01974
9.024,0.00842
9.028,-0.00444
9.032,0.016
9.036,0.00839
9.04,0.00945
9.044,0.01637
9.048,-0.01558
9.052,-0.00173
9.056,0.01025
9.06,-0.02483
9.064,0.01091
9.068,0.01163
9.072,0.00908
9.076,0.0089
9.08,0.04427
9.084,0.03757
9.088,0.0468
9.092,0.06591
9.096,0.05923
9.1,0.06613
9.104,0.07061
9.108,0.09442
9.112,0.07199
9.116,0.12314
9.12,0.12282
9.124,0.13749
9.128,0.16112
9.132,0.14995
9.136,0.16966
9.14,0.17715
9.144,0.19499
9.148,0.2082
9.152,0.18932
9.156,0.18905
9.16,0.21515
9.164,0.20928
9.168,0.22867
9.172,0.24321
9.176,0.2163
9.18,0.21918
9.184,0.21771
9.188,0.20676
9.192,0.1817
9.196,0.18254
9.2,0.14842
9.204,0.15962
9.208,0.15739
9.212,0.10359
9.216,0.11187
9.22,0.08115
9.224,0.08412
9.228,0.08351
9.232,0.0489
9.236,0.05396
9.24,0.04656
9.244,0.04634
9.248,0.04071
9.252,0.02425
9.256,0.00475
9.26,0.04146
9.264,0.02646
9.268,0.02209
9.272,0.00597
9.276,-0.00226
9.28,0.00735
9.284,-0.0067
9.288,0.00342
9.292,-0.01375
9.296,-0.03458
9.3,0.01029
9.304,0.01516
9.308,-0.00101
9.312,-0.00344
9.316,-0.01733
9.32,0.02347
9.324,-0.00082
9.328,-0.02596
9.332,-0.01603
9.336,-0.00203
9.34,-0.03227
9.344,-0.0455
9.348,-0.00124
9.352,-0.01861
9.356,-0.03218
9.36,-0.02979
9.364,-0.03078
9.368,-0.01585
9.372,-0.01247
9.376,0.00176
9.38,-0.01066
9.384,-0.02847
9.388,-0.00685
9.392,0.01545
9.396,-0.0132
9.4,-0.02451
9.404,-0.03182
9.408,-0.00063
9.412,-0.03921
9.416,-0.00311
9.42,-0.00212
9.424,-0.01265
9.428,-0.01115
9.432,-0.03462
9.436,-0.02818
9.44,-0.02068
9.444,-0.03908
9.448,-0.0332
9.452,-0.02644
9.456,-0.01984
9.46,-0.029
9.464,-0.02077
9.468,-0.00609
9.472,-0.00749
9.476,-0.04829
9.48,-0.03217
9.484,-0.04172
9.488,-0.01546
9.492,-0.02948
9.496,-0.01996
9.5,-0.00436
9.504,0.00071
9.508,-0.02147
9.512,-0.02917
9.516,-0.00696
9.52,-0.00077
9.524,-0.00149
9.528,-0.01096
9.532,-0.00733
9.536,0.0142
9.54,-0.00808
9.544,-0.00753
9.548,0.00166
9.552,-0.00443
9.556,0.0102
9.56,0.04402
9.564,0.07294
9.568,0.05453
9.572,0.05094
9.576,0.09152
9.58,0.07625
9.584,0.08251
9.588,0.03538
9.592,0.0749
9.596,0.07381
9.6,0.06987
9.604,0.03594
9.608,0.04292
9.612,0.04815
9.616,0.00971
9.62,0.00628
9.624,-0.00527
9.628,-0.0073
9.632,-0.03453
9.636,-0.02764
9.64,-0.01416
9.644,-0.02471
9.648,-0.00825
9.652,-0.01156
9.656,-0.0124
9.66,-0.00943
9.664,-0.01712
9.668,-0.05908
9.672,-0.0383
9.676,-0.03178
9.68,-0.02355
9.684,-0.02816
9.688,-0.03882
9.692,-0.02315
9.696,-0.05621
9.7,-0.0877
9.704,-0.08882
9.708,-0.12466
9.712,-0.15108
9.716,-0.11827
9.72,0.02068
9.724,0.18044
9.728,0.38415
9.732,0.59542
9.736,0.79259
9.74,0.92923
9.744,0.95655
9.748,0.88719
9.752,0.73372
9.756,0.53703
9.76,0.31033
9.764,0.09019
9.768,-0.0548
9.772,-0.16995
9.776,-0.19758
9.78,-0.16699
9.784,-0.11955
9.788,-0.10348
9.792,-0.03991
9.796,-0.04463
9.8,-0.04209
9.804,-0.04849
9.808,-0.0313
9.812,-0.02185
9.816,-0.03668
9.82,0.01515
9.824,-0.00129
9.828,-0.00881
9.832,0.0057
9.836,-0.04655
9.84,-0.02162
9.844,-0.03961
9.848,-0.02661
9.852,-0.02342
9.856,-0.03591
9.86,-0.02814
9.864,-0.00701
9.868,-0.03167
9.872,-0.03326
9.876,0.00777
9.88,-0.02901
9.884,-0.03032
9.888,-0.00475
9.892,-0.02346
9.896,-0.02382
9.9,-0.02322
9.904,-0.02562
9.908,-0.0233
9.912,-0.0222
9.916,-0.01804
9.92,-0.02208
9.924,0.01223
9.928,-0.01655
9.932,-0.00956
9.936,0.00782
9.94,-0.00885
9.944,0.04032
9.948,0.00715
9.952,0.0453
9.956,0.06533
9.96,0.05173
9.964,0.03742
9.968,0.06471
9.972,0.10308
9.976,0.11296
9.98,0.12482
9.984,0.14437
9.988,0.13245
9.992,0.12585
9.996,0.16321
