t_seg,ecg_mV
0.0,0.05893
0.004,0.00946
0.008,0.02764
0.012,-0.02924
0.016,0.07336
0.02,0.01125
0.024,0.04975
0.028,0.01628
0.032,0.02801
0.036,0.00176
0.04,0.02949
0.044,0.04059
0.048,0.03157
0.052,0.00864
0.056,0.02209
0.06,0.06067
0.064,-0.03188
0.068,0.04393
0.072,0.00778
0.076,0.02068
0.08,0.02588
0.084,0.05556
0.088,0.14373
0.092,0.08384
0.096,0.12966
0.1,0.07471
0.104,0.0784
0.108,0.15058
0.112,0.13327
0.116,0.11842
0.12,0.08437
0.124,0.12132
0.128,0.08043
0.132,0.0511
0.136,0.02614
0.14,0.05389
0.144,0.03335
0.148,0.04237
0.152,0.06662
0.156,-0.01743
0.16,0.03779
0.164,0.01038
0.168,-0.04934
0.172,0.01527
0.176,0.01649
0.18,0.03342
0.184,0.03208
0.188,0.00446
0.192,0.01674
0.196,0.04485
0.2,-0.00493
0.204,0.0263
0.208,0.02877
0.212,-0.00257
0.216,0.02356
0.22,-0.05877
0.224,-0.06265
0.228,-0.07709
0.232,-0.15842
0.236,-0.14698
0.24,-0.00756
0.244,0.122
0.248,0.33575
0.252,0.49341
0.256,0.69793
0.26,0.85955
0.264,0.99697
0.268,1.02431
0.272,0.96653
0.276,0.75455
0.28,0.42285
0.284,0.32213
0.288,0.04777
0.292,-0.06956
0.296,-0.06516
0.3,-0.15629
0.304,-0.20381
0.308,-0.04769
0.312,-0.04364
0.316,0.03013
0.32,-0.00537
0.324,0.03376
0.328,0.01119
0.332,0.06862
0.336,0.0692
0.34,-0.03001
0.344,0.01374
0.348,-0.03371
0.352,-0.00945
0.356,0.08154
0.36,0.02857
0.364,0.07969
0.368,0.08567
0.372,0.03009
0.376,-0.03999
0.38,0.03252
0.384,-0.01386
0.388,0.02754
0.392,-0.01664
0.396,0.02109
0.4,0.04871
0.404,0.00574
0.408,-0.02014
0.412,0.06469
0.416,-0.01758
0.42,0.0268
0.424,0.0144
0.428,0.05833
0.432,0.03343
0.436,0.01601
0.44,0.02536
0.444,-0.00221
0.448,0.01678
0.452,0.07138
0.456,0.06578
0.46,0.04925
0.464,0.08637
0.468,0.08838
0.472,0.02897
0.476,0.08843
0.48,0.09775
0.484,0.14593
0.488,0.19315
0.492,0.06862
0.496,0.14823
0.5,0.12032
0.504,0.17071
0.508,0.18281
0.512,0.2013
0.516,0.20039
0.52,0.12867
0.524,0.24057
0.528,0.21331
0.532,0.20349
0.536,0.26387
0.54,0.217
0.544,0.18577
0.548,0.23493
0.552,0.19296
0.556,0.20957
0.56,0.31909
0.564,0.2204
0.568,0.20206
0.572,0.24023
0.576,0.252
0.58,0.23018
0.584,0.19581
0.588,0.13979
0.592,0.21139
0.596,0.16285
0.6,0.09633
0.604,0.13088
0.608,0.1133
0.612,0.10875
0.616,0.16148
0.62,0.12163
0.624,0.09385
0.628,0.13644
0.632,0.06839
0.636,0.0975
0.64,0.05463
0.644,0.02376
0.648,0.04908
0.652,0.0596
0.656,0.07458
0.66,0.08892
0.664,0.06272
0.668,-0.02557
0.672,0.05776
0.676,0.05498
0.68,0.01481
0.684,-0.01086
0.688,0.0236
0.692,0.04523
0.696,0.05368
0.7,0.04573
0.704,0.02032
0.708,0.02246
0.712,0.05476
0.716,0.00204
0.72,0.04077
0.724,0.05204
0.728,-0.01974
0.732,0.03844
0.736,0.00958
0.74,-0.0178
0.744,0.0316
0.748,0.06564
0.752,0.05736
0.756,0.0192
0.76,0.06675
0.764,0.06126
0.768,0.08311
0.772,0.07159
0.776,0.13279
0.78,0.09236
0.784,0.0757
0.788,0.04556
0.792,0.14066
0.796,0.11715
0.8,0.13372
0.804,0.12694
0.808,0.1561
0.812,0.09352
0.816,0.1144
0.82,0.0931
0.824,0.10729
0.828,0.11684
0.832,0.02085
0.836,0.04431
0.84,0.05065
0.844,0.05218
0.848,-0.00938
0.852,-0.01679
0.856,0.09114
0.86,0.0684
0.864,0.03426
0.868,-0.00069
0.872,0.0063
0.876,0.02322
0.88,0.04244
0.884,0.04119
0.888,0.0244
0.892,0.03641
0.896,0.02636
0.9,0.01242
0.904,0.04698
0.908,0.01325
0.912,0.00931
0.916,-0.02389
0.92,-0.02165
0.924,-0.0501
0.928,-0.03951
0.932,0.02574
0.936,0.07968
0.94,0.32956
0.944,0.53582
0.948,0.76382
0.952,0.94982
0.956,1.06523
0.96,0.9893
0.964,0.84024
0.968,0.66861
0.972,0.46055
0.976,0.29057
0.98,0.03627
0.984,-0.06726
0.988,-0.1259
0.992,-0.17216
0.996,-0.15618
1.0,-0.03632
1.004,0.02877
1.008,0.02473
1.012,-0.02587
1.016,-0.0049
1.02,0.01087
1.024,0.00568
1.028,0.01759
1.032,0.04354
1.036,-0.00139
1.04,0.03207
1.044,0.03256
1.048,0.04676
1.052,0.03954
1.056,-0.01367
1.06,0.03219
1.064,-0.01923
1.068,0.05004
1.072,0.03459
1.076,0.03851
1.08,0.01913
1.084,0.06765
1.088,0.08679
1.092,0.01903
1.096,0.00154
1.1,0.03378
1.104,0.14253
1.108,0.01708
1.112,0.04522
1.116,0.0734
1.12,0.06704
1.124,0.03712
1.128,0.1118
1.132,0.06116
1.136,0.07648
1.14,0.03231
1.144,0.03182
1.148,0.07499
1.152,0.07961
1.156,0.09487
1.16,0.10167
1.164,0.10536
1.168,0.13517
1.172,0.11066
1.176,0.093
1.18,0.13837
1.184,0.0784
1.188,0.18497
1.192,0.14247
1.196,0.13523
1.2,0.2441
1.204,0.16928
1.208,0.19176
1.212,0.24473
1.216,0.24387
1.22,0.2166
1.224,0.20282
1.228,0.20053
1.232,0.23899
1.236,0.23063
1.24,0.24647
1.244,0.23426
1.248,0.24324
1.252,0.18578
1.256,0.18992
1.26,0.23576
1.264,0.18831
1.268,0.20836
1.272,0.20516
1.276,0.13145
1.28,0.14929
1.284,0.22857
1.288,0.18083
1.292,0.20508
1.296,0.12203
1.3,0.10088
1.304,0.11568
1.308,0.14709
1.312,0.12967
1.316,0.09664
1.32,0.09156
1.324,0.14838
1.328,0.08386
1.332,0.06026
1.336,0.02944
1.34,0.07165
1.344,0.06477
1.348,0.06967
1.352,0.01974
1.356,0.04468
1.36,0.0432
1.364,-0.02716
1.368,0.02589
1.372,0.0165
1.376,0.04789
1.38,0.08501
1.384,0.02576
1.388,0.01744
1.392,0.02883
1.396,0.03063
1.4,0.01359
1.404,0.00521
1.408,0.01816
1.412,-0.01466
1.416,0.1018
1.42,0.04986
1.424,0.01649
1.428,0.08778
1.432,0.04654
1.436,0.08182
1.44,0.0649
1.444,0.04529
1.448,0.09381
1.452,0.09611
1.456,0.03755
1.46,0.12679
1.464,0.10644
1.468,0.08234
1.472,0.21084
1.476,0.09945
1.48,0.10603
1.484,0.11242
1.488,0.07912
1.492,0.00252
1.496,0.05395
1.5,0.03286
1.504,0.04019
1.508,0.02984
1.512,0.10339
1.516,0.02852
1.52,0.0239
1.524,0.01124
1.528,0.01277
1.532,0.01117
1.536,0.08826
1.54,0.0377
1.544,0.0009
1.548,0.0499
1.552,0.07325
1.556,0.01139
1.56,-0.01262
1.564,-0.00444
1.568,0.05846
1.572,0.04456
1.576,-0.00438
1.58,-0.01241
1.584,-0.086
1.588,-0.0642
1.592,-0.15596
1.596,-0.00871
1.6,0.05639
1.604,0.21508
1.608,0.38854
1.612,0.63463
1.616,0.81334
1.62,0.96419
1.624,0.99958
1.628,0.9737
1.632,0.76124
1.636,0.56075
1.64,0.35959
1.644,0.18033
1.648,-0.00939
1.652,-0.0379
1.656,-0.1751
1.66,-0.20364
1.664,-0.11613
1.668,0.00851
1.672,0.00551
1.676,-0.00187
1.68,0.00495
1.684,0.08798
1.688,-0.04516
1.692,0.04808
1.696,0.05683
1.7,-0.0006
1.704,-0.00811
1.708,0.08266
1.712,0.0077
1.716,0.05945
1.72,0.02585
1.724,0.0053
1.728,0.0177
1.732,0.01016
1.736,0.05309
1.74,0.05064
1.744,-0.01206
1.748,-0.00052
1.752,0.05315
1.756,0.06914
1.76,0.02646
1.764,0.0904
1.768,0.03198
1.772,0.02285
1.776,0.03596
1.78,0.01896
1.784,0.02057
1.788,-0.00934
1.792,0.01909
1.796,0.02033
1.8,0.06708
1.804,0.02341
1.808,0.00809
1.812,0.07853
1.816,0.01317
1.82,0.0686
1.824,0.0435
1.828,0.14035
1.832,0.12114
1.836,0.10777
1.84,0.06473
1.844,0.14812
1.848,0.06678
1.852,0.1522
1.856,0.1827
1.86,0.16316
1.864,0.11083
1.868,0.23421
1.872,0.15545
1.876,0.26846
1.88,0.20731
1.884,0.18741
1.888,0.19627
1.892,0.24921
1.896,0.27693
1.9,0.2726
1.904,0.20433
1.908,0.32605
1.912,0.21175
1.916,0.22067
1.92,0.27674
1.924,0.26018
1.928,0.21211
1.932,0.23002
1.936,0.23002
1.94,0.15974
1.944,0.11733
1.948,0.11631
1.952,0.12907
1.956,0.16177
1.96,0.16312
1.964,0.1385
1.968,0.11252
1.972,0.11454
1.976,0.09675
1.98,0.09213
1.984,0.08142
1.988,0.03028
1.992,0.11203
1.996,0.04437
2.0,0.16662
2.004,0.07814
2.008,0.18616
2.012,0.10537
2.016,0.13176
2.02,0.09518
2.024,0.14879
2.028,0.1899
2.032,0.1221
2.036,0.06636
2.04,0.10892
2.044,0.08167
2.048,0.06212
2.052,0.04068
2.056,-0.0312
2.06,0.00519
2.064,0.03284
2.068,0.04103
2.072,0.03139
2.076,0.00877
2.08,-0.01702
2.084,0.03891
2.088,0.06116
2.092,0.0292
2.096,0.02912
2.1,-0.01759
2.104,0.0105
2.108,0.01729
2.112,-0.02739
2.116,0.04774
2.12,0.04648
2.124,0.03382
2.128,-0.05208
2.132,-0.01221
2.136,-0.08217
2.14,-0.04161
2.144,-0.12689
2.148,-0.0607
2.152,0.06355
2.156,0.19734
2.16,0.40408
2.164,0.55293
2.168,0.8363
2.172,0.9604
2.176,1.06196
2.18,1.0019
2.184,0.81127
2.188,0.51202
2.192,0.33503
2.196,0.13694
2.2,-0.02359
2.204,-0.11931
2.208,-0.11439
2.212,-0.10531
2.216,-0.10944
2.22,-0.02739
2.224,-0.0302
2.228,-0.02233
2.232,-0.02063
2.236,0.10757
2.24,0.02863
2.244,-0.07994
2.248,0.01551
2.252,-0.0348
2.256,0.01359
2.26,0.01382
2.264,0.0358
2.268,0.0206
2.272,0.00872
2.276,0.01781
2.28,0.01461
2.284,0.02717
2.288,-0.02356
2.292,0.05447
2.296,-0.02013
2.3,0.0611
2.304,0.00343
2.308,0.01139
2.312,0.06522
2.316,0.01857
2.32,0.00798
2.324,0.07327
2.328,-0.02071
2.332,0.00936
2.336,0.01176
2.34,0.02218
2.344,0.06674
2.348,0.08437
2.352,-0.021
2.356,0.00633
2.36,0.06715
2.364,0.10229
2.368,0.08025
2.372,0.07292
2.376,0.0906
2.38,0.05871
2.384,0.0338
2.388,0.05952
2.392,0.11119
2.396,0.06975
2.4,0.05309
2.404,0.0195
2.408,0.14509
2.412,0.10222
2.416,0.15287
2.42,0.19261
2.424,0.16875
2.428,0.17103
2.432,0.25026
2.436,0.24902
2.44,0.17932
2.444,0.21828
2.448,0.21126
2.452,0.26055
2.456,0.2729
2.46,0.21322
2.464,0.21388
2.468,0.20777
2.472,0.22722
2.476,0.22197
2.48,0.25848
2.484,0.17231
2.488,0.1985
2.492,0.16531
2.496,0.16941
2.5,0.11771
2.504,0.10323
2.508,0.11618
2.512,0.16697
2.516,0.12158
2.52,0.1281
2.524,0.05763
2.528,0.11372
2.532,0.0199
2.536,0.0283
2.54,0.08945
2.544,0.00986
2.548,0.02188
2.552,0.0686
2.556,0.06639
2.56,-0.01716
2.564,-0.02231
2.568,0.03854
2.572,0.07246
2.576,-0.00161
2.58,0.03872
2.584,-7e-05
2.588,0.00705
2.592,0.04622
2.596,0.02458
2.6,0.00093
2.604,-0.0369
2.608,0.06883
2.612,-0.00786
2.616,-0.01911
2.62,-0.02553
2.624,0.03849
2.628,-0.00881
2.632,-0.03056
2.636,-0.00119
2.64,-0.00989
2.644,-0.01686
2.648,-0.05593
2.652,0.01
2.656,-0.00385
2.66,-0.02248
2.664,-0.01141
2.668,0.01604
2.672,-0.0857
2.676,-0.03776
2.68,0.06298
2.684,-0.03208
2.688,-0.02871
2.692,0.04356
2.696,-0.1027
2.7,0.0083
2.704,0.00595
2.708,-0.0613
2.712,0.06084
2.716,0.07196
2.72,0.00982
2.724,0.00045
2.728,0.04507
2.732,0.04827
2.736,0.04171
2.74,-0.02446
2.744,-0.01972
2.748,0.02824
2.752,0.07471
2.756,0.06943
2.76,0.08807
2.764,0.0389
2.768,0.14973
2.772,0.14259
2.776,0.06654
2.78,0.06364
2.784,0.09254
2.788,0.09971
2.792,0.10323
2.796,0.04663
2.8,0.09249
2.804,0.13512
2.808,0.06242
2.812,0.07342
2.816,0.02763
2.82,0.06681
2.824,0.03536
2.828,0.06828
2.832,0.05315
2.836,-0.04484
2.84,-0.01604
2.844,-0.01333
2.848,0.02806
2.852,-0.03346
2.856,-0.03471
2.86,0.04753
2.864,-0.03765
2.868,0.02753
2.872,0.03158
2.876,0.03029
2.88,-0.00757
2.884,-0.05546
2.888,-0.06541
2.892,-0.00136
2.896,-0.0103
2.9,-0.03908
2.904,-0.03526
2.908,-0.05853
2.912,-0.09705
2.916,-0.12712
2.92,0.04076
2.924,0.09498
2.928,0.45353
2.932,0.71304
2.936,0.82754
2.94,0.92108
2.944,0.95881
2.948,0.97161
2.952,0.77324
2.956,0.52517
2.96,0.25895
2.964,0.10227
2.968,-0.04184
2.972,-0.14615
2.976,-0.18004
2.98,-0.17107
2.984,-0.15284
2.988,-0.08934
2.992,-0.09944
2.996,-0.00986
3.0,0.0401
3.004,-0.07079
3.008,-0.00326
3.012,0.00391
3.016,-0.00799
3.02,-0.01485
3.024,0.00772
3.028,0.01064
3.032,-0.06843
3.036,0.04315
3.04,-0.02148
3.044,-0.00511
3.048,-0.01627
3.052,-0.01622
3.056,0.01102
3.06,0.07487
3.064,-0.02957
3.068,-0.07291
3.072,0.01434
3.076,-0.06589
3.08,0.00832
3.084,-0.06771
3.088,0.00811
3.092,0.00548
3.096,-0.00232
3.1,-0.05283
3.104,-0.0412
3.108,0.01129
3.112,0.03191
3.116,-0.02226
3.12,0.01309
3.124,0.03843
3.128,-0.00891
3.132,-0.01615
3.136,-0.03725
3.14,0.01302
3.144,0.06142
3.148,0.05431
3.152,0.04262
3.156,0.02891
3.16,0.03691
3.164,0.11222
3.168,0.08162
3.172,0.12477
3.176,0.15754
3.18,0.14214
3.184,0.18915
3.188,0.18714
3.192,0.1503
3.196,0.11226
3.2,0.11985
3.204,0.12388
3.208,0.19342
3.212,0.25329
3.216,0.23163
3.22,0.22416
3.224,0.21325
3.228,0.17763
3.232,0.15549
3.236,0.22465
3.24,0.11184
3.244,0.21253
3.248,0.14749
3.252,0.15083
3.256,0.17431
3.26,0.14498
3.264,0.13157
3.268,0.11374
3.272,0.04453
3.276,0.09201
3.28,0.09524
3.284,0.11832
3.288,0.05871
3.292,0.03602
3.296,0.11301
3.3,0.06691
3.304,0.00099
3.308,-0.03165
3.312,0.00454
3.316,0.0234
3.32,0.0463
3.324,-0.0462
3.328,0.00846
3.332,-0.01607
3.336,-0.02124
3.34,0.00545
3.344,0.01293
3.348,0.0784
3.352,-0.06963
3.356,-0.02947
3.36,0.0234
3.364,-0.05219
3.368,0.07275
3.372,-0.08586
3.376,0.05034
3.38,-0.04212
3.384,-0.00154
3.388,-0.00432
3.392,-0.02488
3.396,-0.01665
3.4,-0.04464
3.404,-0.00561
3.408,0.03021
3.412,-0.03453
3.416,-0.03429
3.42,0.00609
3.424,0.01078
3.428,0.04324
3.432,0.00594
3.436,0.00405
3.44,0.01074
3.444,0.08379
3.448,0.04147
3.452,0.10111
3.456,0.09742
3.46,0.04597
3.464,0.06452
3.468,0.0502
3.472,0.09649
3.476,0.02439
3.48,0.04814
3.484,0.03612
3.488,0.12815
3.492,0.02133
3.496,-0.06043
3.5,0.05077
3.504,-0.02059
3.508,-0.06222
3.512,-0.00846
3.516,-0.0007
3.52,-0.0078
3.524,-0.01636
3.528,-0.02481
3.532,-0.01214
3.536,-0.01464
3.54,0.00085
3.544,-0.03081
3.548,-0.0064
3.552,-0.00252
3.556,0.01501
3.56,-0.06628
3.564,-0.06523
3.568,-0.03959
3.572,0.035
3.576,-0.02183
3.58,-0.04805
3.584,-0.06844
3.588,-0.14648
3.592,-0.08729
3.596,-0.03425
3.6,-0.03452
3.604,0.12159
3.608,0.28308
3.612,0.46807
3.616,0.70915
3.62,0.86304
3.624,0.98282
3.628,0.97956
3.632,0.81921
3.636,0.63968
3.64,0.44593
3.644,0.14419
3.648,0.052
3.652,-0.09205
3.656,-0.12928
3.66,-0.16478
3.664,-0.20299
3.668,-0.11972
3.672,-0.06819
3.676,-0.0949
3.68,-0.0148
3.684,-0.01287
3.688,-0.02596
3.692,-0.0282
3.696,-0.01003
3.7,-0.00863
3.704,-0.00544
3.708,-0.0371
3.712,-0.05091
3.716,0.03298
3.72,0.03483
3.724,-0.06506
3.728,-0.01681
3.732,-0.05011
3.736,-0.05221
3.74,-0.01141
3.744,0.02577
3.748,0.00594
3.752,0.04518
3.756,-0.06115
3.76,-0.03228
3.764,-0.0122
3.768,-0.04664
3.772,-0.07432
3.776,-0.00059
3.78,-0.03623
3.784,-0.03209
3.788,-0.02272
3.792,-0.00931
3.796,-0.01642
3.8,-0.03952
3.804,0.02974
3.808,0.00934
3.812,-0.03091
3.816,0.04706
3.82,0.0466
3.824,0.05604
3.828,-0.00472
3.832,0.01288
3.836,0.07986
3.84,-0.00664
3.844,0.01369
3.848,0.01017
3.852,0.08949
3.856,0.07992
3.86,0.0771
3.864,0.16367
3.868,0.0689
3.872,0.15479
3.876,0.15571
3.88,0.09695
3.884,0.16556
3.888,0.18112
3.892,0.19892
3.896,0.10685
3.9,0.2147
3.904,0.17762
3.908,0.18994
3.912,0.20502
3.916,0.14463
3.92,0.17329
3.924,0.18809
3.928,0.15095
3.932,0.2027
3.936,0.15828
3.94,0.19657
3.944,0.12389
3.948,0.12898
3.952,0.08836
3.956,0.07621
3.96,0.02424
3.964,0.03009
3.968,0.0493
3.972,0.04489
3.976,0.0281
3.98,0.01
3.984,0.0188
3.988,0.08633
3.992,0.07828
3.996,-0.01008
4.0,-0.00913
4.004,0.09034
4.008,0.1225
4.012,0.08881
4.016,0.0327
4.02,0.0626
4.024,0.06023
4.028,0.1238
4.032,0.03878
4.036,0.08667
4.04,0.09381
4.044,0.04986
4.048,0.07643
4.052,0.09106
4.056,-0.08754
4.06,0.0047
4.064,-0.0913
4.068,0.01151
4.072,-0.0133
4.076,0.00389
4.08,-0.02346
4.084,-0.08758
4.088,-0.08389
4.092,0.01432
4.096,0.0401
4.1,-0.04456
4.104,-0.05748
4.108,-0.00401
4.112,-0.09694
4.116,-0.04008
4.12,-0.0376
4.124,0.01179
4.128,-0.02199
4.132,-0.03922
4.136,-0.12555
4.14,-0.02296
4.144,-0.16374
4.148,-0.23461
4.152,-0.16319
4.156,-0.02517
4.16,0.11094
4.164,0.24215
4.168,0.48914
4.172,0.6899
4.176,0.78889
4.18,0.95356
4.184,0.93073
4.188,0.81525
4.192,0.57684
4.196,0.40438
4.2,0.19133
4.204,0.10604
4.208,-0.11916
4.212,-0.14569
4.216,-0.14137
4.22,-0.19924
4.224,-0.14122
4.228,-0.05618
4.232,-0.07839
4.236,-0.05255
4.24,-0.03266
4.244,-0.0693
4.248,-0.0249
4.252,-0.04807
4.256,-0.03672
4.26,-0.05287
4.264,-0.05552
4.268,-0.0333
4.272,-0.03161
4.276,-0.06889
4.28,-0.04183
4.284,-0.01955
4.288,-0.02373
4.292,-0.00142
4.296,-0.06397
4.3,-0.07031
4.304,-0.0535
4.308,-0.07564
4.312,-0.05654
4.316,-0.04862
4.32,-0.05393
4.324,-0.0525
4.328,-0.02268
4.332,-0.05806
4.336,-0.04657
4.34,-0.02901
4.344,-0.0054
4.348,-0.06694
4.352,-0.00955
4.356,-0.0304
4.36,-0.04762
4.364,0.0189
4.368,-0.09586
4.372,-0.01732
4.376,0.0336
4.38,0.0238
4.384,0.04307
4.388,-0.02157
4.392,0.10602
4.396,0.03153
4.4,0.00511
4.404,0.11774
4.408,0.10688
4.412,0.02585
4.416,0.1006
4.42,0.15348
4.424,0.11552
4.428,0.20866
4.432,0.13952
4.436,0.10069
4.44,0.15334
4.444,0.119
4.448,0.16536
4.452,0.22756
4.456,0.1989
4.46,0.20597
4.464,0.15807
4.468,0.16595
4.472,0.20321
4.476,0.14217
4.48,0.18215
4.484,0.18197
4.488,0.21489
4.492,0.09905
4.496,0.14012
4.5,0.1763
4.504,0.08762
4.508,0.07461
4.512,0.03759
4.516,0.08719
4.52,0.06124
4.524,0.00624
4.528,0.07659
4.532,0.02391
4.536,0.08382
4.54,0.01672
4.544,0.04798
4.548,-0.02467
4.552,-0.01167
4.556,0.00548
4.56,-0.03514
4.564,-0.04057
4.568,-0.00213
4.572,-0.02982
4.576,0.07218
4.58,0.05024
4.584,0.02616
4.588,0.01001
4.592,0.00106
4.596,-0.00104
4.6,0.05764
4.604,0.03897
4.608,0.04497
4.612,0.09493
4.616,0.0355
4.62,0.07481
4.624,0.06898
4.628,0.07752
4.632,0.06444
4.636,-0.0227
4.64,-0.01324
4.644,-0.03381
4.648,-0.03997
4.652,0.04743
4.656,-0.02797
4.66,-0.07153
4.664,0.02902
4.668,-0.00614
4.672,0.00035
4.676,-0.01811
4.68,-0.01409
4.684,-0.03643
4.688,-0.03448
4.692,-0.00554
4.696,0.03133
4.7,0.0149
4.704,-0.04558
4.708,-0.01245
4.712,-0.03133
4.716,-0.03554
4.72,-0.02202
4.724,-0.04701
4.728,0.00652
4.732,-0.01432
4.736,-0.04987
4.74,-0.03105
4.744,-0.09911
4.748,-0.07799
4.752,-0.16835
4.756,-0.18576
4.76,-0.01907
4.764,0.1348
4.768,0.28779
4.772,0.49804
4.776,0.74665
4.78,0.93979
4.784,0.9722
4.788,0.90684
4.792,0.81544
4.796,0.57799
4.8,0.33304
4.804,0.09833
4.808,-0.01638
4.812,-0.11963
4.816,-0.19921
4.82,-0.19026
4.824,-0.13364
4.828,-0.11098
4.832,-0.07406
4.836,0.02627
4.84,-0.01533
4.844,0.02676
4.848,-0.06766
4.852,-0.03156
4.856,0.04559
4.86,-0.06137
4.864,-0.0409
4.868,-0.04425
4.872,-0.04146
4.876,-0.00109
4.88,-0.05941
4.884,-0.04954
4.888,-0.00861
4.892,0.01791
4.896,0.01778
4.9,-0.02343
4.904,-0.03885
4.908,0.00227
4.912,-0.04146
4.916,0.04139
4.92,-0.00055
4.924,0.0186
4.928,0.12688
4.932,0.13711
4.936,0.03984
4.94,0.11906
4.944,0.09334
4.948,0.0392
4.952,0.06261
4.956,0.00246
4.96,-0.05178
4.964,-0.00095
4.968,-0.03192
4.972,0.03639
4.976,0.01992
4.98,0.00562
4.984,0.04226
4.988,0.04958
4.992,0.03656
4.996,0.02156
5.0,0.01468
5.004,0.05743
5.008,0.10591
5.012,0.10948
5.016,0.15663
5.02,0.09313
5.024,0.13668
5.028,0.12234
5.032,0.15229
5.036,0.18576
5.04,0.15376
5.044,0.11371
5.048,0.12738
5.052,0.11955
5.056,0.07055
5.06,0.05496
5.064,0.1809
5.068,0.28597
5.072,0.47421
5.076,0.65068
5.08,0.84309
5.084,1.07779
5.088,1.16146
5.092,1.14499
5.096,1.01922
5.1,0.84697
5.104,0.53731
5.108,0.2805
5.112,0.13352
5.116,0.00227
5.12,-0.16475
5.124,-0.15315
5.128,-0.10455
5.132,-0.10652
5.136,-0.04577
5.14,0.02132
5.144,0.03879
5.148,0.0216
5.152,-0.00044
5.156,0.01641
5.16,-0.02346
5.164,-0.00397
5.168,-0.09964
5.172,-0.01599
5.176,0.03436
5.18,-0.00119
5.184,-0.05344
5.188,-0.04351
5.192,-0.0195
5.196,0.01001
5.2,0.02819
5.204,-0.04787
5.208,-0.0425
5.212,-0.01892
5.216,0.00921
5.22,-0.0248
5.224,-0.04631
5.228,-0.05093
5.232,-0.03343
5.236,0.0241
5.24,0.01815
5.244,-0.06991
5.248,0.01281
5.252,-0.02072
5.256,0.00027
5.26,0.02922
5.264,-0.04265
5.268,0.03036
5.272,-0.01957
5.276,-0.0526
5.28,-0.00026
5.284,0.01547
5.288,0.00825
5.292,0.01155
5.296,0.02601
5.3,0.06
5.304,0.14487
5.308,0.00342
5.312,0.07245
5.316,0.11283
5.32,0.09223
5.324,0.11913
5.328,0.14875
5.332,0.16376
5.336,0.22405
5.34,0.18908
5.344,0.13536
5.348,0.18157
5.352,0.18762
5.356,0.12518
5.36,0.25688
5.364,0.16146
5.368,0.24485
5.372,0.19726
5.376,0.21256
5.38,0.12783
5.384,0.14198
5.388,0.16199
5.392,0.13639
5.396,0.19876
5.4,0.17861
5.404,0.07669
5.408,0.09695
5.412,0.15395
5.416,0.0779
5.42,0.16091
5.424,0.09406
5.428,0.05409
5.432,0.07642
5.436,0.01025
5.44,0.04406
5.444,0.05165
5.448,0.07194
5.452,0.04426
5.456,0.02852
5.46,-0.00926
5.464,0.01414
5.468,-0.08694
5.472,0.01543
5.476,0.01217
5.48,-0.01081
5.484,-0.01349
5.488,-0.01422
5.492,-0.0193
5.496,-0.07323
5.5,0.03461
5.504,-0.0352
5.508,0.03384
5.512,0.02462
5.516,-0.06554
5.52,-0.02154
5.524,-0.00766
5.528,-0.00075
5.532,-0.07639
5.536,-0.01833
5.54,-0.02267
5.544,-0.03482
5.548,-0.05581
5.552,-0.1115
5.556,-0.02271
5.56,-0.01324
5.564,-0.04266
5.568,0.0084
5.572,-0.01279
5.576,-0.05895
5.58,0.05881
5.584,-0.00562
5.588,0.0253
5.592,-0.01465
5.596,0.01535
5.6,0.09692
5.604,0.03223
5.608,-0.03329
5.612,0.09992
5.616,0.06558
5.62,0.03705
5.624,0.08146
5.628,0.07863
5.632,0.10579
5.636,0.01498
5.64,0.02489
5.644,0.04761
5.648,-0.04223
5.652,0.00262
5.656,0.02735
5.66,0.01004
5.664,0.02746
5.668,0.04314
5.672,0.02131
5.676,0.01842
5.68,0.04619
5.684,0.01244
5.688,0.00247
5.692,-0.04446
5.696,-0.02698
5.7,-0.03612
5.704,-0.02624
5.708,0.03425
5.712,-0.01239
5.716,-0.04182
5.72,-0.02356
5.724,0.0033
5.728,0.00368
5.732,-0.01972
5.736,-0.10195
5.74,-0.08254
5.744,-0.14623
5.748,-0.09905
5.752,-0.13739
5.756,0.07473
5.76,0.25982
5.764,0.50188
5.768,0.70447
5.772,0.89286
5.776,0.98323
5.78,1.01188
5.784,0.84635
5.788,0.63425
5.792,0.38943
5.796,0.20754
5.8,0.07682
5.804,-0.03922
5.808,-0.16583
5.812,-0.2031
5.816,-0.08888
5.82,-0.07366
5.824,-0.04833
5.828,-0.0195
5.832,0.00784
5.836,0.039
5.84,0.01457
5.844,0.0323
5.848,0.02841
5.852,-0.0578
5.856,0.04305
5.86,0.01565
5.864,0.02839
5.868,-0.02536
5.872,-0.01145
5.876,-0.00568
5.88,-0.09248
5.884,0.02178
5.888,0.00966
5.892,-0.04969
5.896,0.0419
5.9,-0.02775
5.904,-0.01979
5.908,-0.0293
5.912,0.02648
5.916,0.03773
5.92,-0.02551
5.924,-0.05669
5.928,0.01839
5.932,-0.02689
5.936,0.04634
5.94,0.04539
5.944,-0.0248
5.948,0.03502
5.952,0.01353
5.956,-0.04405
5.96,0.0159
5.964,0.02692
5.968,0.04381
5.972,0.04351
5.976,0.04538
5.98,0.06528
5.984,0.06511
5.988,0.04125
5.992,0.09195
5.996,0.06962
6.0,0.14786
6.004,0.14084
6.008,0.14461
6.012,0.158
6.016,0.1029
6.02,0.12182
6.024,0.16133
6.028,0.17967
6.032,0.19628
6.036,0.23281
6.04,0.25304
6.044,0.25046
6.048,0.18558
6.052,0.25126
6.056,0.1767
6.06,0.22594
6.064,0.22648
6.068,0.23606
6.072,0.20649
6.076,0.17621
6.08,0.19661
6.084,0.14694
6.088,0.18238
6.092,0.16198
6.096,0.15243
6.1,0.15644
6.104,0.12762
6.108,0.20758
6.112,0.13418
6.116,0.1115
6.12,0.12898
6.124,0.07131
6.128,0.07541
6.132,0.0456
6.136,0.0822
6.14,0.00775
6.144,0.09108
6.148,6e-05
6.152,0.06666
6.156,0.02011
6.16,0.01659
6.164,-0.00734
6.168,0.04739
6.172,-0.01368
6.176,-0.04827
6.18,0.02291
6.184,-0.04832
6.188,-0.02269
6.192,0.01609
6.196,0.02224
6.2,0.04665
6.204,0.01228
6.208,0.05331
6.212,-0.05167
6.216,0.02347
6.22,-0.00451
6.224,0.06806
6.228,-0.0103
6.232,0.11212
6.236,0.11283
6.24,0.10322
6.244,0.04155
6.248,0.18523
6.252,0.11105
6.256,0.12222
6.26,0.15927
6.264,0.13797
6.268,0.07337
6.272,0.07419
6.276,0.02372
6.28,-0.0431
6.284,0.05279
6.288,0.03424
6.292,0.07502
6.296,0.02285
6.3,-0.02758
6.304,-0.06498
6.308,0.01596
6.312,0.0153
6.316,0.02766
6.32,-0.00818
6.324,-0.01658
6.328,0.01008
6.332,0.03387
6.336,0.03118
6.34,0.01529
6.344,0.03207
6.348,-0.00126
6.352,0.0054
6.356,-0.02303
6.36,0.06291
6.364,0.04877
6.368,-0.05288
6.372,0.0242
6.376,-0.07072
6.38,-0.05928
6.384,-0.13567
6.388,-0.01204
6.392,0.02698
6.396,0.25708
6.4,0.36789
6.404,0.65252
6.408,0.86845
6.412,0.94852
6.416,0.99292
6.42,0.97312
6.424,0.80973
6.428,0.57103
6.432,0.3384
6.436,0.14853
6.44,-0.06736
6.444,-0.1488
6.448,-0.16926
6.452,-0.14502
6.456,-0.11733
6.46,-0.05417
6.464,-0.03491
6.468,-0.01044
6.472,-0.01454
6.476,0.0515
6.48,0.00997
6.484,0.08658
6.488,0.12142
6.492,0.10714
6.496,0.05942
6.5,0.09432
6.504,0.11064
6.508,0.08015
6.512,0.09225
6.516,0.10582
6.52,0.04988
6.524,0.07188
6.528,0.13297
6.532,0.02719
6.536,0.02324
6.54,0.11686
6.544,0.13326
6.548,0.01779
6.552,0.04124
6.556,0.03526
6.56,0.03986
6.564,0.02609
6.568,0.01129
6.572,-0.03591
6.576,0.00659
6.58,-0.00289
6.584,-0.06425
6.588,0.0603
6.592,0.01399
6.596,0.04712
6.6,0.02552
6.604,0.02107
6.608,0.0512
6.612,-0.01672
6.616,0.03877
6.62,0.06549
6.624,0.03212
6.628,-0.06458
6.632,0.00959
6.636,0.03122
6.64,0.063
6.644,0.21479
6.648,0.47724
6.652,0.62965
6.656,0.87663
6.66,1.1421
6.664,1.15862
6.668,1.18383
6.672,1.07266
6.676,0.91452
6.68,0.68913
6.684,0.48317
6.688,0.21741
6.692,0.16108
6.696,0.07119
6.7,0.08231
6.704,0.10432
6.708,0.16191
6.712,0.14718
6.716,0.22241
6.72,0.21371
6.724,0.1817
6.728,0.19075
6.732,0.21207
6.736,0.18491
6.74,0.15723
6.744,0.10689
6.748,0.10662
6.752,0.11226
6.756,0.0841
6.76,0.10616
6.764,0.09635
6.768,0.04292
6.772,0.11425
6.776,0.09908
6.78,-0.00718
6.784,0.05751
6.788,0.05464
6.792,0.01604
6.796,0.08618
6.8,0.04363
6.804,0.02486
6.808,0.00972
6.812,0.07398
6.816,-0.00567
6.82,0.04325
6.824,0.09505
6.828,0.01399
6.832,0.0645
6.836,-0.03324
6.84,0.03498
6.844,0.07599
6.848,0.05873
6.852,-0.04721
6.856,0.02569
6.86,0.11659
6.864,0.08983
6.868,0.04877
6.872,0.11017
6.876,0.03348
6.88,0.15168
6.884,0.08772
6.888,0.1441
6.892,0.09573
6.896,0.06386
6.9,0.12618
6.904,0.17451
6.908,0.19412
6.912,0.18299
6.916,0.22365
6.92,0.1846
6.924,0.19493
6.928,0.19797
6.932,0.1869
6.936,0.27756
6.94,0.25777
6.944,0.23509
6.948,0.28972
6.952,0.25437
6.956,0.19465
6.96,0.25988
6.964,0.20549
6.968,0.28294
6.972,0.20123
6.976,0.2444
6.98,0.11455
6.984,0.20252
6.988,0.06688
6.992,0.21846
6.996,0.11706
7.0,0.10996
7.004,0.07342
7.008,0.06973
7.012,0.03909
7.016,0.08292
7.02,0.10972
7.024,0.05107
7.028,0.09704
7.032,0.10329
7.036,0.07953
7.04,0.04483
7.044,0.07474
7.048,0.05408
7.052,0.03473
7.056,0.0531
7.06,0.05186
7.064,0.07298
7.068,0.0101
7.072,-0.00461
7.076,0.05204
7.08,0.01657
7.084,-0.0002
7.088,0.00218
7.092,0.01937
7.096,0.00071
7.1,0.02962
7.104,0.03831
7.108,0.02814
7.112,0.04431
7.116,-0.00266
7.12,0.01434
7.124,-0.01783
7.128,0.03986
7.132,-0.00222
7.136,-0.04175
7.14,0.04305
7.144,0.02221
7.148,-0.03163
7.152,0.01305
7.156,0.05041
7.16,0.0188
7.164,0.04679
7.168,0.05146
7.172,0.04751
7.176,-0.01093
7.18,0.04199
7.184,0.04567
7.188,-0.03083
7.192,-0.00626
7.196,-0.04371
7.2,0.02233
7.204,0.03508
7.208,0.00818
7.212,0.02632
7.216,0.07007
7.22,-0.04107
7.224,0.06891
7.228,-0.006
7.232,0.03071
7.236,0.03016
7.24,0.03969
7.244,0.02281
7.248,0.03988
7.252,0.06709
7.256,0.05997
7.26,-0.03001
7.264,0.06573
7.268,0.08823
7.272,0.08377
7.276,0.04199
7.28,0.14032
7.284,0.11184
7.288,0.08034
7.292,0.12428
7.296,0.11822
7.3,0.16213
7.304,0.08618
7.308,0.10667
7.312,0.13444
7.316,0.0691
7.32,0.02207
7.324,0.04672
7.328,0.07385
7.332,-0.01605
7.336,0.04632
7.34,0.06033
7.344,0.09242
7.348,0.08897
7.352,0.0426
7.356,0.03929
7.36,0.06605
7.364,0.0631
7.368,-0.03658
7.372,0.04027
7.376,0.08941
7.38,0.00424
7.384,0.01815
7.388,-0.001
7.392,0.06051
7.396,0.02911
7.4,-0.00997
7.404,-0.06223
7.408,0.05768
7.412,-0.06333
7.416,-0.13192
7.42,-0.08498
7.424,0.03279
7.428,0.12528
7.432,0.2827
7.436,0.51737
7.44,0.8032
7.444,0.94722
7.448,1.02489
7.452,1.01272
7.456,0.79645
7.46,0.62248
7.464,0.428
7.468,0.17457
7.472,0.09715
7.476,-0.07486
7.48,-0.13768
7.484,-0.14866
7.488,-0.14336
7.492,-0.09745
7.496,-0.00733
7.5,-0.08188
7.504,0.03399
7.508,0.01976
7.512,-0.05142
7.516,0.0188
7.52,0.03198
7.524,-0.00448
7.528,0.04158
7.532,0.01309
7.536,0.04547
7.54,0.01429
7.544,0.04382
7.548,0.04118
7.552,-0.02657
7.556,0.04342
7.56,-0.02366
7.564,0.00737
7.568,0.02141
7.572,0.02204
7.576,0.03727
7.58,-0.00586
7.584,0.0023
7.588,0.01129
7.592,-0.0252
7.596,0.03558
7.6,0.04962
7.604,0.04714
7.608,-0.02114
7.612,0.04827
7.616,0.042
7.62,0.05643
7.624,0.13034
7.628,0.07688
7.632,0.06546
7.636,0.0567
7.64,0.09275
7.644,0.05829
7.648,0.15693
7.652,0.05151
7.656,0.1106
7.66,0.07562
7.664,0.0896
7.668,0.09724
7.672,0.14264
7.676,0.19507
7.68,0.1482
7.684,0.1409
7.688,0.18326
7.692,0.20194
7.696,0.18589
7.7,0.22607
7.704,0.20378
7.708,0.21446
7.712,0.25151
7.716,0.20524
7.72,0.22841
7.724,0.26651
7.728,0.27113
7.732,0.32928
7.736,0.26555
7.74,0.26346
7.744,0.25886
7.748,0.2704
7.752,0.18808
7.756,0.23647
7.76,0.23485
7.764,0.20862
7.768,0.22801
7.772,0.23844
7.776,0.16368
7.78,0.05694
7.784,0.19816
7.788,0.13349
7.792,0.0923
7.796,0.15442
7.8,0.08155
7.804,0.10418
7.808,0.10318
7.812,0.11273
7.816,0.09583
7.82,0.09215
7.824,0.09497
7.828,0.10209
7.832,0.00707
7.836,0.02393
7.84,0.03648
7.844,0.03917
7.848,0.06605
7.852,-0.04966
7.856,0.03447
7.86,-0.00714
7.864,0.04228
7.868,0.03269
7.872,0.02064
7.876,-0.01844
7.88,0.03047
7.884,-0.00454
7.888,0.09166
7.892,0.05121
7.896,0.01409
7.9,-0.00027
7.904,0.01756
7.908,0.04263
7.912,0.07016
7.916,0.06832
7.92,0.02402
7.924,-0.00103
7.928,0.09366
7.932,0.03956
7.936,0.04377
7.94,0.07447
7.944,0.07733
7.948,0.15446
7.952,0.12746
7.956,0.09258
7.96,0.19566
7.964,0.06969
7.968,0.12012
7.972,0.06821
7.976,0.07349
7.98,0.09636
7.984,0.09426
7.988,0.07657
7.992,0.06848
7.996,0.0597
8.0,0.0805
8.004,0.01377
8.008,0.07806
8.012,0.05887
8.016,-0.0042
8.02,0.04591
8.024,0.04344
8.028,0.04879
8.032,0.00431
8.036,0.02466
8.04,0.00995
8.044,-0.00744
8.048,-0.02985
8.052,-0.00924
8.056,0.00057
8.06,0.02083
8.064,0.01144
8.068,-0.0204
8.072,-0.02401
8.076,-0.07877
8.08,-0.01792
8.084,-0.09649
8.088,-0.0696
8.092,0.13881
8.096,0.35221
8.1,0.55082
8.104,0.74763
8.108,0.93528
8.112,0.98065
8.116,1.0091
8.12,0.8635
8.124,0.71819
8.128,0.48627
8.132,0.22892
8.136,0.05209
8.14,-0.10696
8.144,-0.13564
8.148,-0.17049
8.152,-0.15948
8.156,-0.14275
8.16,0.04956
8.164,0.06106
8.168,0.01717
8.172,-0.02233
8.176,-0.00104
8.18,0.05991
8.184,-0.01081
8.188,0.00343
8.192,-0.00147
8.196,0.0313
8.2,0.08508
8.204,0.05137
8.208,0.02578
8.212,0.03312
8.216,0.09533
8.22,-0.0172
8.224,0.02275
8.228,-0.04391
8.232,0.06252
8.236,-0.01325
8.24,-0.00745
8.244,0.06462
8.248,-0.03143
8.252,0.08857
8.256,0.01658
8.26,0.00524
8.264,0.05945
8.268,0.00825
8.272,0.04722
8.276,0.05908
8.28,0.01114
8.284,-0.01313
8.288,0.00105
8.292,0.06531
8.296,-0.04083
8.3,0.01447
8.304,0.03296
8.308,0.07708
8.312,0.0974
8.316,0.11219
8.32,0.12424
8.324,0.14105
8.328,0.1096
8.332,0.1386
8.336,0.16495
8.34,0.10626
8.344,0.14818
8.348,0.21364
8.352,0.18849
8.356,0.19662
8.36,0.20502
8.364,0.19548
8.368,0.19636
8.372,0.25077
8.376,0.20966
8.38,0.30432
8.384,0.24679
8.388,0.25244
8.392,0.18291
8.396,0.25081
8.4,0.21678
8.404,0.18002
8.408,0.24949
8.412,0.2217
8.416,0.18962
8.42,0.26588
8.424,0.3152
8.428,0.13887
8.432,0.2245
8.436,0.18147
8.44,0.06116
8.444,0.17452
8.448,0.11754
8.452,0.12114
8.456,0.1552
8.46,0.08509
8.464,0.14616
8.468,0.08065
8.472,0.09416
8.476,0.01562
8.48,0.07466
8.484,0.05427
8.488,0.01812
8.492,-0.01591
8.496,-0.0005
8.5,0.03639
8.504,0.01725
8.508,0.01873
8.512,0.08067
8.516,0.10118
8.52,0.05744
8.524,0.05179
8.528,0.11644
8.532,-0.01686
8.536,0.05504
8.54,-0.02018
8.544,0.01925
8.548,0.04118
8.552,0.02212
8.556,0.03292
8.56,0.00565
8.564,-0.00644
8.568,0.02812
8.572,0.05874
8.576,0.01089
8.58,0.04533
8.584,0.00411
8.588,0.03058
8.592,0.07563
8.596,0.11431
8.6,0.09613
8.604,0.14651
8.608,0.07229
8.612,0.0952
8.616,0.13658
8.62,0.14937
8.624,0.02506
8.628,0.09998
8.632,0.14397
8.636,0.04373
8.64,0.04862
8.644,0.08301
8.648,0.06123
8.652,0.01117
8.656,0.02161
8.66,0.06291
8.664,-0.03136
8.668,0.00494
8.672,0.0479
8.676,0.00955
8.68,-0.04651
8.684,0.02196
8.688,0.03712
8.692,0.02306
8.696,0.0026
8.7,0.00834
8.704,0.02325
8.708,-0.00306
8.712,-0.03126
8.716,0.04627
8.72,-0.01392
8.724,0.00885
8.728,0.05453
8.732,-0.05173
8.736,-0.07407
8.74,-0.09724
8.744,-0.11478
8.748,0.02243
8.752,0.16018
8.756,0.31832
8.76,0.57954
8.764,0.74471
8.768,0.89224
8.772,1.02402
8.776,1.02567
8.78,0.84423
8.784,0.67783
8.788,0.41416
8.792,0.25322
8.796,0.00367
8.8,-0.12427
8.804,-0.18965
8.808,-0.22776
8.812,-0.13612
8.816,-0.11115
8.82,-0.06918
8.824,0.03973
8.828,0.01122
8.832,0.02255
8.836,0.02123
8.84,-0.00261
8.844,-0.04324
8.848,0.04171
8.852,0.03885
8.856,0.02483
8.86,-0.00587
8.864,-0.01658
8.868,0.03522
8.872,-0.03336
8.876,0.05048
8.88,0.06134
8.884,-0.00502
8.888,-0.02852
8.892,0.05461
8.896,-0.02598
8.9,0.00746
8.904,-0.00211
8.908,0.02154
8.912,0.05503
8.916,0.02234
8.92,-0.01343
8.924,0.02737
8.928,0.01873
8.932,0.00516
8.936,-0.02055
8.94,0.0849
8.944,0.02147
8.948,-0.02633
8.952,0.04329
8.956,0.04723
8.96,-0.02022
8.964,-0.00746
8.968,0.0244
8.972,0.07164
8.976,0.00291
8.98,0.02199
8.984,0.07801
8.988,0.04365
8.992,0.16271
8.996,0.11704
9.0,0.14244
9.004,0.14608
9.008,0.13199
9.012,0.10935
9.016,0.22172
9.02,0.19999
9.024,0.15705
9.028,0.21062
9.032,0.14355
9.036,0.24477
9.04,0.20432
9.044,0.18642
9.048,0.19648
9.052,0.26463
9.056,0.26317
9.06,0.27391
9.064,0.25769
9.068,0.28082
9.072,0.20252
9.076,0.20673
9.08,0.16707
9.084,0.17363
9.088,0.21482
9.092,0.13939
9.096,0.19504
9.1,0.13991
9.104,0.11866
9.108,0.15265
9.112,0.09124
9.116,0.06917
9.12,0.1152
9.124,0.07144
9.128,0.11835
9.132,0.12032
9.136,0.09905
9.14,0.09861
9.144,0.15873
9.148,0.10951
9.152,0.11851
9.156,0.07999
9.16,0.16874
9.164,0.05468
9.168,0.12748
9.172,0.04071
9.176,0.05407
9.18,0.05294
9.184,0.00762
9.188,0.03925
9.192,0.0621
9.196,0.03886
9.2,-0.00433
9.204,0.03903
9.208,-0.02186
9.212,-0.01567
9.216,0.02439
9.22,-0.00843
9.224,0.02948
9.228,0.07847
9.232,-0.02346
9.236,0.03793
9.24,0.03049
9.244,0.00105
9.248,-0.02618
9.252,0.05809
9.256,-0.0265
9.26,0.00321
9.264,-0.01241
9.268,-0.04391
9.272,-0.07227
9.276,-0.0591
9.28,-0.11556
9.284,-0.13312
9.288,-0.02767
9.292,0.13036
9.296,0.25233
9.3,0.51983
9.304,0.72907
9.308,0.88266
9.312,0.98894
9.316,0.96467
9.32,0.88388
9.324,0.6306
9.328,0.44758
9.332,0.1608
9.336,0.03463
9.34,-0.09249
9.344,-0.14277
9.348,-0.10399
9.352,-0.11997
9.356,-0.0371
9.36,-0.05919
9.364,-0.00421
9.368,-0.04132
9.372,0.01746
9.376,-0.01011
9.38,0.03441
9.384,0.03471
9.388,0.01495
9.392,0.00996
9.396,-0.03318
9.4,-0.01765
9.404,0.02537
9.408,0.02625
9.412,0.03263
9.416,0.01013
9.42,0.00552
9.424,0.02166
9.428,0.00418
9.432,0.06037
9.436,0.06685
9.44,0.00783
9.444,0.00992
9.448,0.0296
9.452,-0.05944
9.456,-0.02887
9.46,-0.00841
9.464,0.03492
9.468,-0.03032
9.472,0.03191
9.476,-0.03035
9.48,0.00092
9.484,0.01747
9.488,0.05687
9.492,-0.01755
9.496,0.07123
9.5,0.0024
9.504,0.02523
9.508,0.01497
9.512,0.0262
9.516,0.05007
9.52,0.00696
9.524,-0.00669
9.528,0.04418
9.532,0.11366
9.536,0.09263
9.54,0.13834
9.544,0.16938
9.548,0.18093
9.552,0.17727
9.556,0.22356
9.56,0.27501
9.564,0.23304
9.568,0.23343
9.572,0.24461
9.576,0.27023
9.58,0.25411
9.584,0.30715
9.588,0.32616
9.592,0.30445
9.596,0.31322
9.6,0.29895
9.604,0.24504
9.608,0.20286
9.612,0.23837
9.616,0.13224
9.62,0.22239
9.624,0.20481
9.628,0.17999
9.632,0.17925
9.636,0.1279
9.64,0.16302
9.644,0.16664
9.648,0.08375
9.652,0.09056
9.656,0.09343
9.66,0.071
9.664,0.08594
9.668,0.09994
9.672,0.06072
9.676,-0.01604
9.68,0.03373
9.684,0.07129
9.688,-0.00838
9.692,-0.10858
9.696,-0.08621
9.7,-0.15112
9.704,-0.10757
9.708,-0.01379
9.712,0.10751
9.716,0.30004
9.72,0.50389
9.724,0.74507
9.728,0.88917
9.732,0.9983
9.736,0.97929
9.74,0.79933
9.744,0.67172
9.748,0.41417
9.752,0.16846
9.756,0.07907
9.76,-0.2031
9.764,-0.18125
9.768,-0.20272
9.772,-0.11457
9.776,-0.1011
9.78,-0.0881
9.784,-0.06505
9.788,-0.02249
9.792,0.03362
9.796,-0.02964
9.8,-0.05563
9.804,-0.01457
9.808,0.0061
9.812,-0.02339
9.816,0.00496
9.82,-0.02363
9.824,-0.03599
9.828,0.03365
9.832,-0.00262
9.836,-0.0219
9.84,-0.00739
9.844,-0.01476
9.848,-0.02115
9.852,-0.02555
9.856,-0.0101
9.86,0.00821
9.864,-0.02762
9.868,-0.02559
9.872,0.00515
9.876,0.01663
9.88,0.05492
9.884,0.04828
9.888,-0.05843
9.892,0.03982
9.896,0.04355
9.9,0.04872
9.904,-0.00282
9.908,-0.04381
9.912,0.01218
9.916,-0.01266
9.92,0.04206
9.924,0.09616
9.928,-0.00351
9.932,-0.0043
9.936,0.03028
9.94,0.02512
9.944,0.02752
9.948,0.02794
9.952,0.02901
9.956,0.06056
9.96,0.08921
9.964,0.15266
9.968,0.10653
9.972,0.06211
9.976,0.1601
9.98,0.18691
9.984,0.078
9.988,0.19414
9.992,0.17947
9.996,0.22359
