t_seg,ecg_mV
0.0,-0.04059
0.004,-0.02581
0.008,-0.01766
0.012,-0.03078
0.016,-0.02657
0.02,-0.01733
0.024,-0.0365
0.028,0.02183
0.032,-0.0198
0.036,-0.01355
0.04,-0.01753
0.044,-0.04728
0.048,-0.01549
0.052,-0.03109
0.056,-0.0099
0.06,-0.01623
0.064,-0.01666
0.068,-0.03561
0.072,-0.03226
0.076,-0.02789
0.08,-0.02023
0.084,-0.0201
0.088,-0.00445
0.092,-0.02774
0.096,-0.01743
0.1,-0.00056
0.104,-0.02708
0.108,0.00898
0.112,-0.02417
0.116,-0.01506
0.12,-0.03005
0.124,-0.01121
0.128,-0.00961
0.132,-0.01569
0.136,-0.04837
0.14,-0.02042
0.144,-0.03411
0.148,-0.02779
0.152,-0.05356
0.156,-0.03219
0.16,-0.01483
0.164,-0.02118
0.168,-0.01788
0.172,-0.00295
0.176,0.00098
0.18,-0.00876
0.184,-0.00633
0.188,-0.0044
0.192,-0.03915
0.196,-0.05438
0.2,-0.03664
0.204,-0.01046
0.208,-0.00454
0.212,-0.04408
0.216,-0.00407
0.22,0.00365
0.224,-0.03319
0.228,-0.02751
0.232,-0.02451
0.236,-0.01194
0.24,-0.02273
0.244,-0.02491
0.248,-0.03425
0.252,-0.0471
0.256,-0.01164
0.26,-0.02837
0.264,-0.03139
0.268,-0.0313
0.272,-0.0362
0.276,-0.0185
0.28,-0.02774
0.284,-0.03484
0.288,-0.00508
0.292,-0.00443
0.296,-0.00664
0.3,-0.02933
0.304,-0.01748
0.308,0.00338
0.312,-0.01791
0.316,-0.0147
0.32,-0.00661
0.324,-0.00058
0.328,-0.03308
0.332,-0.01066
0.336,-0.02344
0.34,-0.00613
0.344,-0.01168
0.348,-0.0125
0.352,-0.0168
0.356,-0.0118
0.36,-0.00651
0.364,8e-05
0.368,-0.00196
0.372,0.01931
0.376,0.04664
0.38,0.02368
0.384,0.04659
0.388,0.05012
0.392,0.08596
0.396,0.08666
0.4,0.0883
0.404,0.07644
0.408,0.08127
0.412,0.08119
0.416,0.04513
0.42,0.0329
0.424,0.04702
0.428,0.02264
0.432,0.01966
0.436,0.00564
0.44,-0.00949
0.444,-0.01897
0.448,0.00326
0.452,-0.00955
0.456,-0.01202
0.46,-0.00611
0.464,-0.00707
0.468,-0.00463
0.472,-0.02656
0.476,-0.04361
0.48,0.00081
0.484,-0.02818
0.488,-0.009
0.492,-0.0159
0.496,-0.01319
0.5,0.01706
0.504,-0.01489
0.508,0.00717
0.512,-0.00371
0.516,-0.00819
0.52,-0.03815
0.524,-0.08271
0.528,-0.12267
0.532,-0.12407
0.536,-0.05351
0.54,0.06378
0.544,0.27004
0.548,0.43117
0.552,0.66624
0.556,0.85846
0.56,0.95279
0.564,0.98536
0.568,0.88325
0.572,0.67458
0.576,0.44361
0.58,0.24868
0.584,0.04763
0.588,-0.10608
0.592,-0.1798
0.596,-0.18878
0.6,-0.14169
0.604,-0.12442
0.608,-0.06576
0.612,-0.02977
0.616,-0.04167
0.62,0.00238
0.624,0.01709
0.628,-0.01969
0.632,-0.03277
0.636,0.00036
0.64,0.00329
0.644,-0.00785
0.648,-0.01027
0.652,-0.00153
0.656,-0.03681
0.66,-0.0102
0.664,-0.02184
0.668,0.00435
0.672,-0.02518
0.676,-0.0159
0.68,-0.00764
0.684,-0.0377
0.688,-0.02069
0.692,-0.00515
0.696,0.01795
0.7,0.00907
0.704,0.00991
0.708,0.01448
0.712,0.00915
0.716,-0.00301
0.72,-0.01682
0.724,-0.02143
0.728,0.01767
0.732,-0.01642
0.736,-0.01227
0.74,0.01687
0.744,0.00487
0.748,0.0232
0.752,0.01237
0.756,0.03078
0.76,0.02054
0.764,0.04932
0.768,0.04597
0.772,0.07479
0.776,0.06242
0.78,0.059
0.784,0.07764
0.788,0.11167
0.792,0.11381
0.796,0.12284
0.8,0.13584
0.804,0.15586
0.808,0.14605
0.812,0.17383
0.816,0.20246
0.82,0.15881
0.824,0.18938
0.828,0.18693
0.832,0.21151
0.836,0.21675
0.84,0.21283
0.844,0.21401
0.848,0.1954
0.852,0.20878
0.856,0.22949
0.86,0.20922
0.864,0.20866
0.868,0.1764
0.872,0.1838
0.876,0.14053
0.88,0.15034
0.884,0.14293
0.888,0.10466
0.892,0.12832
0.896,0.09062
0.9,0.12676
0.904,0.0919
0.908,0.06894
0.912,0.0601
0.916,0.05593
0.92,0.03413
0.924,0.0572
0.928,0.02331
0.932,0.00467
0.936,0.01027
0.94,0.02198
0.944,0.00102
0.948,-0.00903
0.952,0.00603
0.956,0.00887
0.96,-0.00205
0.964,0.00493
0.968,0.01406
0.972,0.01194
0.976,0.01667
0.98,-0.00697
0.984,0.01448
0.988,0.00219
0.992,-0.02508
0.996,-0.00023
1.0,0.02676
1.004,0.00601
1.008,-0.02068
1.012,-0.02684
1.016,-0.00429
1.02,0.02859
1.024,0.00239
1.028,0.02752
1.032,-0.00531
1.036,-0.01066
1.04,-0.0171
1.044,-0.03071
1.048,-0.00234
1.052,-0.01245
1.056,0.0098
1.06,0.0122
1.064,-0.01563
1.068,-0.01325
1.072,-0.01536
1.076,-0.00024
1.08,0.00379
1.084,-0.02411
1.088,0.00379
1.092,-0.0256
1.096,-0.00633
1.1,-0.00025
1.104,0.01112
1.108,-0.00819
1.112,0.00989
1.116,-0.00275
1.12,0.00612
1.124,-0.02152
1.128,0.00384
1.132,0.04394
1.136,0.04234
1.14,0.06383
1.144,0.06875
1.148,0.08308
1.152,0.0573
1.156,0.10406
1.16,0.0966
1.164,0.07611
1.168,0.09315
1.172,0.11111
1.176,0.08251
1.18,0.05849
1.184,0.07762
1.188,0.01104
1.192,0.03636
1.196,0.01281
1.2,0.02999
1.204,0.0153
1.208,-0.00173
1.212,0.02339
1.216,-0.00428
1.22,0.00647
1.224,0.00712
1.228,-0.03578
1.232,0.02861
1.236,0.02148
1.24,-0.00994
1.244,-0.01518
1.248,0.00206
1.252,0.01648
1.256,0.0036
1.26,-0.00949
1.264,0.01773
1.268,-0.00862
1.272,0.01292
1.276,-0.02964
1.28,-0.02909
1.284,-0.08638
1.288,-0.11522
1.292,-0.10733
1.296,-0.02236
1.3,0.09832
1.304,0.27215
1.308,0.46599
1.312,0.71898
1.316,0.88777
1.32,0.97786
1.324,0.98422
1.328,0.87343
1.332,0.69269
1.336,0.49181
1.34,0.25976
1.344,0.05329
1.348,-0.09214
1.352,-0.12027
1.356,-0.18781
1.36,-0.14153
1.364,-0.07903
1.368,-0.05482
1.372,-0.01986
1.376,0.00922
1.38,0.01079
1.384,0.0196
1.388,-0.00534
1.392,0.01369
1.396,0.02677
1.4,0.01043
1.404,0.0108
1.408,0.02062
1.412,0.02456
1.416,0.00922
1.42,0.01948
1.424,0.03354
1.428,0.00628
1.432,0.03694
1.436,0.01748
1.44,0.04132
1.444,0.00091
1.448,0.03829
1.452,0.00879
1.456,0.02896
1.46,0.02215
1.464,-0.00377
1.468,0.03694
1.472,0.01364
1.476,0.01151
1.48,0.05076
1.484,0.02371
1.488,0.01717
1.492,0.00977
1.496,0.05686
1.5,0.01849
1.504,0.03552
1.508,0.03035
1.512,0.05452
1.516,0.05242
1.52,0.04803
1.524,0.03345
1.528,0.0728
1.532,0.06875
1.536,0.11776
1.54,0.10993
1.544,0.11927
1.548,0.13233
1.552,0.13711
1.556,0.15209
1.56,0.16076
1.564,0.16636
1.568,0.19284
1.572,0.20267
1.576,0.20448
1.58,0.21509
1.584,0.19042
1.588,0.2187
1.592,0.21691
1.596,0.24025
1.6,0.23583
1.604,0.21567
1.608,0.21483
1.612,0.21448
1.616,0.23303
1.62,0.22375
1.624,0.22661
1.628,0.22604
1.632,0.16365
1.636,0.15782
1.64,0.16234
1.644,0.17189
1.648,0.13847
1.652,0.12041
1.656,0.13493
1.66,0.10733
1.664,0.11017
1.668,0.09367
1.672,0.10478
1.676,0.06731
1.68,0.07446
1.684,0.06822
1.688,0.0737
1.692,0.04114
1.696,0.02381
1.7,0.02277
1.704,0.03348
1.708,0.02027
1.712,0.01714
1.716,0.03045
1.72,0.03525
1.724,0.02726
1.728,0.0279
1.732,0.01179
1.736,0.00854
1.74,0.02316
1.744,0.02544
1.748,0.03166
1.752,0.02639
1.756,0.01725
1.76,0.01103
1.764,-0.00687
1.768,0.02753
1.772,0.02106
1.776,0.0563
1.78,0.01926
1.784,0.00864
1.788,0.03963
1.792,0.02721
1.796,-0.00012
1.8,0.00739
1.804,0.00859
1.808,-0.00233
1.812,0.03074
1.816,0.01233
1.82,0.00576
1.824,0.00697
1.828,0.02909
1.832,-0.01359
1.836,0.01191
1.84,0.00102
1.844,-0.01259
1.848,0.0276
1.852,0.00919
1.856,0.00368
1.86,0.03131
1.864,0.03006
1.868,0.0039
1.872,0.03946
1.876,0.00045
1.88,0.01778
1.884,0.01186
1.888,0.04247
1.892,0.02578
1.896,0.04065
1.9,0.00983
1.904,0.02372
1.908,0.0107
1.912,0.00525
1.916,0.007
1.92,0.00335
1.924,0.00043
1.928,0.01044
1.932,-0.00488
1.936,0.00989
1.94,0.01807
1.944,-0.00032
1.948,0.0225
1.952,0.04739
1.956,0.02097
1.96,0.03391
1.964,0.02328
1.968,0.02212
1.972,0.03307
1.976,0.02278
1.98,0.03697
1.984,0.03358
1.988,0.00875
1.992,0.03705
1.996,0.07351
2.0,0.04529
2.004,0.04571
2.008,0.07602
2.012,0.08315
2.016,0.09084
2.02,0.0948
2.024,0.11062
2.028,0.15527
2.032,0.1132
2.036,0.14852
2.04,0.10188
2.044,0.09862
2.048,0.10135
2.052,0.10583
2.056,0.0641
2.06,0.06632
2.064,0.04621
2.068,0.04468
2.072,0.02306
2.076,0.02999
2.08,0.0092
2.084,0.03724
2.088,0.05357
2.092,0.01357
2.096,0.03698
2.1,0.02199
2.104,0.02461
2.108,0.03341
2.112,0.03768
2.116,0.02062
2.12,0.00875
2.124,0.0386
2.128,0.04108
2.132,0.01499
2.136,0.02624
2.14,0.02175
2.144,0.02828
2.148,-0.00701
2.152,-0.02144
2.156,-0.07008
2.16,-0.10427
2.164,-0.05931
2.168,0.02531
2.172,0.13104
2.176,0.35865
2.18,0.57386
2.184,0.77716
2.188,0.92364
2.192,1.02913
2.196,1.00614
2.2,0.87515
2.204,0.65871
2.208,0.4367
2.212,0.20893
2.216,0.04427
2.22,-0.06375
2.224,-0.10754
2.228,-0.12374
2.232,-0.09185
2.236,-0.07194
2.24,0.01304
2.244,-0.00359
2.248,0.02236
2.252,0.04896
2.256,0.06074
2.26,0.01035
2.264,0.01739
2.268,0.03619
2.272,0.00263
2.276,0.03499
2.28,0.0485
2.284,0.01425
2.288,0.04477
2.292,0.01094
2.296,0.03903
2.3,0.01808
2.304,0.04449
2.308,0.02409
2.312,0.02031
2.316,-0.00512
2.32,0.03329
2.324,0.02024
2.328,0.04515
2.332,0.06537
2.336,0.03597
2.34,0.00498
2.344,0.04625
2.348,0.03971
2.352,0.01613
2.356,0.03814
2.36,0.07596
2.364,0.0514
2.368,0.03357
2.372,0.03065
2.376,0.04029
2.38,0.05399
2.384,0.06476
2.388,0.06595
2.392,0.07491
2.396,0.0944
2.4,0.07968
2.404,0.10833
2.408,0.11429
2.412,0.13263
2.416,0.15073
2.42,0.11603
2.424,0.15725
2.428,0.13711
2.432,0.16436
2.436,0.2005
2.44,0.20464
2.444,0.2159
2.448,0.22077
2.452,0.23716
2.456,0.24429
2.46,0.2289
2.464,0.23849
2.468,0.22751
2.472,0.27069
2.476,0.2456
2.48,0.26118
2.484,0.22782
2.488,0.23067
2.492,0.25395
2.496,0.2428
2.5,0.21928
2.504,0.18232
2.508,0.20924
2.512,0.18236
2.516,0.19374
2.52,0.15905
2.524,0.14286
2.528,0.09774
2.532,0.13897
2.536,0.13851
2.54,0.07896
2.544,0.11059
2.548,0.09084
2.552,0.06172
2.556,0.08384
2.56,0.04065
2.564,0.06418
2.568,0.03619
2.572,0.04273
2.576,0.07196
2.58,0.01006
2.584,0.0275
2.588,0.04035
2.592,0.04059
2.596,0.02838
2.6,0.04754
2.604,0.01907
2.608,0.0106
2.612,0.03013
2.616,0.01067
2.62,0.02182
2.624,0.0236
2.628,0.01866
2.632,0.03352
2.636,0.04677
2.64,0.03937
2.644,0.04502
2.648,0.03123
2.652,0.04136
2.656,0.03071
2.66,0.05361
2.664,0.03732
2.668,0.02201
2.672,0.02664
2.676,0.04901
2.68,0.03654
2.684,0.01431
2.688,0.04187
2.692,0.01837
2.696,0.0154
2.7,0.03418
2.704,0.02816
2.708,0.02974
2.712,0.05018
2.716,0.03891
2.72,0.04031
2.724,0.02378
2.728,0.03321
2.732,0.00882
2.736,0.03135
2.74,0.03956
2.744,0.0192
2.748,0.02582
2.752,0.03898
2.756,0.0357
2.76,0.03172
2.764,0.01643
2.768,0.03758
2.772,0.02323
2.776,0.01119
2.78,0.0237
2.784,0.02769
2.788,0.03471
2.792,0.04117
2.796,0.02758
2.8,0.03022
2.804,0.01686
2.808,0.03297
2.812,0.0357
2.816,0.02839
2.82,0.01166
2.824,0.04271
2.828,0.03394
2.832,0.03961
2.836,0.00934
2.84,0.04394
2.844,0.04523
2.848,0.01895
2.852,0.01438
2.856,0.0343
2.86,0.0447
2.864,0.05269
2.868,0.02597
2.872,0.05215
2.876,0.04396
2.88,0.07202
2.884,0.077
2.888,0.09906
2.892,0.09954
2.896,0.11119
2.9,0.0962
2.904,0.13315
2.908,0.1172
2.912,0.15863
2.916,0.09781
2.92,0.12485
2.924,0.11444
2.928,0.07925
2.932,0.06388
2.936,0.07933
2.94,0.0616
2.944,0.04417
2.948,0.03314
2.952,0.03826
2.956,0.04748
2.96,0.00284
2.964,0.02827
2.968,0.04964
2.972,0.0375
2.976,0.02803
2.98,0.04233
2.984,0.01413
2.988,0.03093
2.992,0.05101
2.996,0.04916
3.0,0.0433
3.004,0.02139
3.008,0.02441
3.012,0.02366
3.016,0.0335
3.02,0.03669
3.024,0.00571
3.028,-0.03861
3.032,-0.07328
3.036,-0.09435
3.04,-0.06322
3.044,-0.00169
3.048,0.17627
3.052,0.3635
3.056,0.58869
3.06,0.76372
3.064,0.92647
3.068,1.00571
3.072,0.99506
3.076,0.8695
3.08,0.64407
3.084,0.42041
3.088,0.22567
3.092,0.03657
3.096,-0.08902
3.1,-0.12893
3.104,-0.13463
3.108,-0.10946
3.112,-0.06262
3.116,0.00233
3.12,0.00534
3.124,0.01238
3.128,0.01122
3.132,0.04268
3.136,0.02412
3.14,0.0495
3.144,0.04147
3.148,0.01526
3.152,0.05177
3.156,0.02069
3.16,0.02745
3.164,0.01862
3.168,0.03285
3.172,0.02115
3.176,0.00986
3.18,0.01659
3.184,0.02997
3.188,0.00627
3.192,0.02243
3.196,0.03507
3.2,0.02678
3.204,0.0366
3.208,0.0076
3.212,0.01832
3.216,0.03596
3.22,0.02396
3.224,0.05704
3.228,0.00658
3.232,0.02758
3.236,0.03365
3.24,0.04251
3.244,0.06985
3.248,0.0312
3.252,0.07416
3.256,0.06589
3.26,0.02153
3.264,0.02384
3.268,0.06292
3.272,0.0553
3.276,0.09374
3.28,0.11698
3.284,0.09745
3.288,0.13943
3.292,0.11872
3.296,0.1606
3.3,0.13327
3.304,0.15402
3.308,0.15836
3.312,0.16581
3.316,0.19717
3.32,0.18857
3.324,0.18812
3.328,0.21042
3.332,0.22822
3.336,0.2316
3.34,0.23361
3.344,0.23096
3.348,0.23075
3.352,0.22896
3.356,0.20395
3.36,0.24042
3.364,0.24254
3.368,0.23221
3.372,0.22134
3.376,0.19685
3.38,0.15837
3.384,0.16149
3.388,0.19884
3.392,0.1601
3.396,0.12262
3.4,0.12655
3.404,0.14857
3.408,0.146
3.412,0.11735
3.416,0.10181
3.42,0.0767
3.424,0.06428
3.428,0.07098
3.432,0.05032
3.436,0.05261
3.44,0.0619
3.444,0.068
3.448,0.05424
3.452,0.0781
3.456,0.02631
3.46,0.03954
3.464,0.02195
3.468,0.03382
3.472,0.03967
3.476,0.01194
3.48,0.06879
3.484,0.00205
3.488,0.03286
3.492,0.04357
3.496,0.02393
3.5,0.02009
3.504,0.0088
3.508,0.03838
3.512,0.01784
3.516,0.00949
3.52,0.02861
3.524,0.03048
3.528,0.03456
3.532,0.00051
3.536,0.00025
3.54,0.02487
3.544,0.01616
3.548,0.04049
3.552,0.01529
3.556,0.01755
3.56,0.01707
3.564,0.02302
3.568,0.01338
3.572,0.00831
3.576,0.01707
3.58,0.02377
3.584,0.01397
3.588,0.05055
3.592,0.02067
3.596,0.02244
3.6,0.02194
3.604,0.01098
3.608,0.02815
3.612,0.02076
3.616,0.01161
3.62,0.0193
3.624,0.04336
3.628,0.03228
3.632,0.0489
3.636,0.01454
3.64,0.00947
3.644,0.00013
3.648,0.02016
3.652,0.02038
3.656,0.00043
3.66,0.00945
3.664,0.03728
3.668,0.01974
3.672,0.00836
3.676,0.02331
3.68,0.00969
3.684,0.02864
3.688,0.01679
3.692,0.01275
3.696,0.04992
3.7,0.03798
3.704,0.0486
3.708,0.05644
3.712,0.08691
3.716,0.11354
3.72,0.09483
3.724,0.12063
3.728,0.13518
3.732,0.12151
3.736,0.1127
3.74,0.1185
3.744,0.12748
3.748,0.08546
3.752,0.05966
3.756,0.05898
3.76,0.04941
3.764,0.04685
3.768,0.04319
3.772,0.01919
3.776,0.03587
3.78,0.04402
3.784,0.04337
3.788,0.02502
3.792,0.02273
3.796,0.02256
3.8,0.03884
3.804,0.03412
3.808,-0.00846
3.812,0.02326
3.816,-0.01671
3.82,0.0066
3.824,0.00768
3.828,0.02678
3.832,0.00475
3.836,0.00875
3.84,-0.02581
3.844,0.00359
3.848,-0.02215
3.852,-0.0922
3.856,-0.09754
3.86,-0.08868
3.864,-0.0269
3.868,0.07683
3.872,0.25463
3.876,0.45754
3.88,0.67232
3.884,0.88145
3.888,0.97772
3.892,1.01662
3.896,0.92331
3.9,0.72597
3.904,0.50424
3.908,0.28402
3.912,0.07632
3.916,-0.07585
3.92,-0.13471
3.924,-0.1748
3.928,-0.13842
3.932,-0.08794
3.936,-0.06231
3.94,-0.01468
3.944,-0.00473
3.948,0.01657
3.952,0.02197
3.956,-0.00173
3.96,0.02001
3.964,-0.00011
3.968,-0.00937
3.972,-0.00166
3.976,0.02787
3.98,0.00913
3.984,0.01347
3.988,0.03087
3.992,-0.01829
3.996,0.03311
4.0,0.01327
4.004,0.03912
4.008,-0.01137
4.012,0.00929
4.016,0.00951
4.02,-0.00597
4.024,0.01637
4.028,0.01174
4.032,0.0419
4.036,-0.00456
4.04,0.01181
4.044,0.02787
4.048,0.01518
4.052,0.00234
4.056,0.04744
4.06,0.01083
4.064,0.01751
4.068,0.01565
4.072,0.01641
4.076,0.03319
4.08,0.02894
4.084,0.04049
4.088,0.06187
4.092,0.06435
4.096,0.06065
4.1,0.09472
4.104,0.08386
4.108,0.08891
4.112,0.1015
4.116,0.12255
4.12,0.12414
4.124,0.12883
4.128,0.16207
4.132,0.15941
4.136,0.15451
4.14,0.15748
4.144,0.18905
4.148,0.19035
4.152,0.20669
4.156,0.21949
4.16,0.25453
4.164,0.24557
4.168,0.24039
4.172,0.24429
4.176,0.22288
4.18,0.21295
4.184,0.22871
4.188,0.2279
4.192,0.21383
4.196,0.19236
4.2,0.16473
4.204,0.18206
4.208,0.15748
4.212,0.13152
4.216,0.13687
4.22,0.14503
4.224,0.08766
4.228,0.0892
4.232,0.10209
4.236,0.09233
4.24,0.05736
4.244,0.06956
4.248,0.03914
4.252,0.07281
4.256,0.05071
4.26,0.02841
4.264,0.02259
4.268,0.03503
4.272,0.03992
4.276,0.008
4.28,0.00404
4.284,0.00858
4.288,0.0083
4.292,-0.00108
4.296,0.03234
4.3,0.00726
4.304,0.01038
4.308,0.01536
4.312,0.0364
4.316,0.01094
4.32,0.01055
4.324,-0.00117
4.328,-0.02388
4.332,-0.02206
4.336,0.00138
4.34,-0.00215
4.344,-0.00714
4.348,-0.01288
4.352,0.01573
4.356,-0.00615
4.36,0.00842
4.364,-0.00259
4.368,0.00677
4.372,0.0115
4.376,-0.00637
4.38,0.00367
4.384,-0.01299
4.388,-0.01156
4.392,0.00525
4.396,-0.02766
4.4,-0.01064
4.404,-0.00552
4.408,0.02097
4.412,-0.01439
4.416,0.02623
4.42,-0.00615
4.424,0.0042
4.428,-0.00563
4.432,-0.01697
4.436,0.0072
4.44,-0.00575
4.444,0.00296
4.448,0.00564
4.452,-0.00721
4.456,0.01632
4.46,-0.00156
4.464,-0.00069
4.468,0.01046
4.472,-0.00916
4.476,-0.01498
4.48,0.01272
4.484,-0.00503
4.488,0.01404
4.492,4e-05
4.496,-0.00828
4.5,-0.01823
4.504,-0.00186
4.508,-0.00982
4.512,-0.01743
4.516,0.01713
4.52,0.00176
4.524,-0.01343
4.528,-0.01134
4.532,0.01774
4.536,0.00227
4.54,-0.00919
4.544,0.00681
4.548,0.00963
4.552,-0.00792
4.556,-0.00329
4.56,-0.00783
4.564,0.02096
4.568,-0.01825
4.572,-0.01254
4.576,0.01458
4.58,0.01464
4.584,-0.00287
4.588,0.02014
4.592,0.03179
4.596,0.02967
4.6,0.03448
4.604,0.0612
4.608,0.06075
4.612,0.08304
4.616,0.08947
4.62,0.11833
4.624,0.09402
4.628,0.08349
4.632,0.08133
4.636,0.04822
4.64,0.06882
4.644,0.06306
4.648,0.00585
4.652,0.01186
4.656,0.01463
4.66,-0.00143
4.664,0.00133
4.668,0.01542
4.672,-0.00362
4.676,-0.02212
4.68,-0.00043
4.684,0.01526
4.688,-0.02148
4.692,-0.02734
4.696,0.01319
4.7,0.01771
4.704,0.01879
4.708,-0.00466
4.712,0.00755
4.716,-0.02644
4.72,0.01172
4.724,-0.00476
4.728,-0.02655
4.732,-0.01896
4.736,-0.02493
4.74,-0.04682
4.744,-0.08892
4.748,-0.13826
4.752,-0.12911
4.756,-0.02945
4.76,0.12316
4.764,0.28966
4.768,0.52536
4.772,0.70645
4.776,0.88433
4.78,0.98993
4.784,0.94292
4.788,0.83926
4.792,0.63839
4.796,0.41106
4.8,0.1824
4.804,0.00838
4.808,-0.14026
4.812,-0.14192
4.816,-0.16801
4.82,-0.13498
4.824,-0.09964
4.828,-0.05183
4.832,-0.04683
4.836,-1e-05
4.84,-0.00994
4.844,0.00567
4.848,-0.01732
4.852,-0.00267
4.856,0.00821
4.86,-0.0166
4.864,-0.0207
4.868,-0.00752
4.872,-0.00371
4.876,-0.00726
4.88,-0.00359
4.884,-0.02958
4.888,-0.03128
4.892,-0.02551
4.896,-0.01022
4.9,-0.01525
4.904,0.00975
4.908,-0.0293
4.912,-0.00818
4.916,0.01121
4.92,0.02641
4.924,-0.02383
4.928,-0.01857
4.932,-0.03782
4.936,-0.02827
4.94,-0.01088
4.944,-0.00209
4.948,-0.00376
4.952,-0.00406
4.956,0.01139
4.96,0.00332
4.964,-0.01371
4.968,0.00251
4.972,0.02332
4.976,0.02041
4.98,-0.00806
4.984,0.01718
4.988,0.03843
4.992,0.04054
4.996,0.06243
5.0,0.04631
5.004,0.09646
5.008,0.08068
5.012,0.11024
5.016,0.13472
5.02,0.12216
5.024,0.12534
5.028,0.1616
5.032,0.17962
5.036,0.16841
5.04,0.15666
5.044,0.21112
5.048,0.21325
5.052,0.20405
5.056,0.21771
5.06,0.20171
5.064,0.17328
5.068,0.2198
5.072,0.18422
5.076,0.19819
5.08,0.20339
5.084,0.16348
5.088,0.17679
5.092,0.17338
5.096,0.15138
5.1,0.13692
5.104,0.1141
5.108,0.10906
5.112,0.08985
5.116,0.06501
5.12,0.09326
5.124,0.06622
5.128,0.03872
5.132,0.04807
5.136,0.03826
5.14,0.03644
5.144,0.03643
5.148,0.0057
5.152,0.00641
5.156,-0.00841
5.16,-0.01029
5.164,0.01842
5.168,0.00126
5.172,0.00083
5.176,0.02699
5.18,-0.00209
5.184,-0.00334
5.188,0.01149
5.192,-0.01902
5.196,-0.02849
5.2,-0.0207
5.204,-0.03128
5.208,-0.04496
5.212,-0.03712
5.216,-0.04593
5.22,0.00293
5.224,-0.01247
5.228,-0.01089
5.232,-0.01173
5.236,-0.03633
5.24,-0.01724
5.244,-0.01691
5.248,-0.00762
5.252,-0.03498
5.256,-0.00454
5.26,-0.00463
5.264,-0.02672
5.268,-0.0194
5.272,-0.03609
5.276,-0.00637
5.28,0.00249
5.284,-0.01324
5.288,-0.00461
5.292,-0.03867
5.296,-0.00945
5.3,-0.05281
5.304,-0.04569
5.308,-0.01561
5.312,-0.03212
5.316,-0.03272
5.32,-0.0454
5.324,-0.01803
5.328,-0.00011
5.332,-0.04472
5.336,-0.00769
5.34,-0.01357
5.344,-0.0524
5.348,-0.02674
5.352,-0.02848
5.356,-0.0289
5.36,-0.0506
5.364,-0.01476
5.368,-0.03902
5.372,-0.02758
5.376,-0.04229
5.38,-0.04199
5.384,-0.03492
5.388,-0.02484
5.392,-0.03827
5.396,0.01328
5.4,-0.0055
5.404,-0.00508
5.408,-0.00099
5.412,-0.02196
5.416,-0.02319
5.42,-0.04216
5.424,-0.02858
5.428,-0.04185
5.432,-0.00916
5.436,-0.0602
5.44,-0.03222
5.444,-0.02574
5.448,-0.02537
5.452,-0.01298
5.456,0.00507
5.46,-0.03795
5.464,-0.0291
5.468,-0.03229
5.472,-0.00123
5.476,-0.03261
5.48,-0.01054
5.484,0.00199
5.488,0.009
5.492,-0.00249
5.496,0.01564
5.5,0.02549
5.504,0.03354
5.508,0.0587
5.512,0.05902
5.516,0.08128
5.52,0.06271
5.524,0.06823
5.528,0.07875
5.532,0.02768
5.536,0.02611
5.54,0.01353
5.544,0.02436
5.548,0.03565
5.552,0.00332
5.556,-0.02029
5.56,-0.01749
5.564,-0.02392
5.568,-0.05404
5.572,-0.03827
5.576,-0.02535
5.58,-0.01757
5.584,0.00029
5.588,-0.04152
5.592,-0.03424
5.596,-0.03503
5.6,-0.02938
5.604,-0.04577
5.608,-0.03285
5.612,-0.04263
5.616,-0.03255
5.62,-0.03143
5.624,-0.03623
5.628,-0.0353
5.632,-0.05443
5.636,-0.08979
5.64,-0.14185
5.644,-0.15035
5.648,-0.13054
5.652,-0.01888
5.656,0.12268
5.66,0.27809
5.664,0.49427
5.668,0.71943
5.672,0.8727
5.676,0.97424
5.68,0.96235
5.684,0.81164
5.688,0.58747
5.692,0.35515
5.696,0.18897
5.7,-0.03725
5.704,-0.12031
5.708,-0.21432
5.712,-0.19489
5.716,-0.1523
5.72,-0.09264
5.724,-0.04924
5.728,-0.05799
5.732,-0.08117
5.736,-0.01607
5.74,-0.02867
5.744,-0.00126
5.748,-0.05654
5.752,-0.016
5.756,-0.01983
5.76,-0.00773
5.764,-0.03263
5.768,-0.02084
5.772,-0.01999
5.776,-0.03491
5.78,0.00109
5.784,-0.03882
5.788,-0.04174
5.792,-0.03975
5.796,-0.04784
5.8,-0.01671
5.804,0.00622
5.808,-0.02202
5.812,-0.0362
5.816,-0.02814
5.82,-0.02968
5.824,-0.03516
5.828,-0.02071
5.832,-0.022
5.836,-0.0183
5.84,0.00073
5.844,-0.00465
5.848,-0.02054
5.852,-0.02219
5.856,-0.01049
5.86,-0.01245
5.864,0.01056
5.868,-0.00281
5.872,0.03137
5.876,0.03505
5.88,0.02681
5.884,0.0229
5.888,0.01326
5.892,0.04281
5.896,0.08655
5.9,0.07768
5.904,0.0722
5.908,0.08585
5.912,0.08922
5.916,0.11016
5.92,0.15702
5.924,0.12048
5.928,0.17952
5.932,0.16326
5.936,0.16188
5.94,0.16431
5.944,0.17479
5.948,0.15686
5.952,0.20149
5.956,0.16242
5.96,0.19567
5.964,0.19747
5.968,0.19191
5.972,0.15397
5.976,0.16581
5.98,0.15077
5.984,0.16154
5.988,0.15841
5.992,0.12639
5.996,0.13429
6.0,0.10956
6.004,0.12163
6.008,0.09404
6.012,0.06923
6.016,0.0248
6.02,0.01921
6.024,0.02567
6.028,0.04408
6.032,0.00217
6.036,0.02822
6.04,-0.00219
6.044,-0.00219
6.048,-0.01254
6.052,-0.01128
6.056,-0.00517
6.06,0.00123
6.064,-0.00253
6.068,0.00546
6.072,-0.01847
6.076,-0.04654
6.08,-0.01198
6.084,-0.01903
6.088,-0.02677
6.092,-0.02258
6.096,-0.03402
6.1,-0.04961
6.104,-0.02661
6.108,-0.07378
6.112,-0.01817
6.116,-0.01577
6.12,-0.0447
6.124,-0.04789
6.128,-0.06585
6.132,-0.02859
6.136,-0.01757
6.14,-0.02914
6.144,-0.04708
6.148,-0.04973
6.152,-0.018
6.156,-0.02388
6.16,-0.03739
6.164,-0.05412
6.168,-0.02092
6.172,-0.03092
6.176,-0.03336
6.18,-0.00357
6.184,0.00161
6.188,0.02266
6.192,-0.0039
6.196,0.03615
6.2,0.0575
6.204,0.07519
6.208,0.07172
6.212,0.0764
6.216,0.08152
6.22,0.04858
6.224,0.03601
6.228,0.06401
6.232,0.03821
6.236,0.01203
6.24,0.00922
6.244,-0.01164
6.248,-0.01398
6.252,-0.02663
6.256,0.00276
6.26,-0.03522
6.264,-0.05171
6.268,-0.03138
6.272,-0.02369
6.276,-0.0254
6.28,-0.04604
6.284,-0.05873
6.288,-0.01868
6.292,-0.03137
6.296,-0.00254
6.3,-0.04749
6.304,-0.02234
6.308,-0.02262
6.312,-0.01856
6.316,-0.0315
6.32,-0.03039
6.324,-0.03659
6.328,-0.04331
6.332,-0.10001
6.336,-0.13289
6.34,-0.13618
6.344,-0.10063
6.348,0.00739
6.352,0.15472
6.356,0.33767
6.36,0.53858
6.364,0.75825
6.368,0.93671
6.372,0.99679
6.376,0.91028
6.38,0.77853
6.384,0.55834
6.388,0.32914
6.392,0.08956
6.396,-0.03139
6.4,-0.14357
6.404,-0.17448
6.408,-0.18765
6.412,-0.15153
6.416,-0.12467
6.42,-0.06348
6.424,-0.06738
6.428,-0.03505
6.432,-0.03163
6.436,-0.03716
6.44,-0.00252
6.444,-0.02732
6.448,-0.04378
6.452,-0.03225
6.456,-0.01087
6.46,-0.02978
6.464,-0.03555
6.468,-0.01666
6.472,-0.0147
6.476,-0.03696
6.48,-0.01626
6.484,0.00246
6.488,-0.0689
6.492,-0.0354
6.496,-0.0329
6.5,-0.02712
6.504,-0.03791
6.508,-0.03557
6.512,-0.01969
6.516,-0.03576
6.52,-0.01636
6.524,-0.01198
6.528,-0.03771
6.532,-0.02356
6.536,-0.02284
6.54,-0.00761
6.544,0.00121
6.548,0.01232
6.552,-0.00795
6.556,0.03294
6.56,-0.028
6.564,0.03506
6.568,0.01637
6.572,0.02189
6.576,0.02013
6.58,0.01165
6.584,0.03607
6.588,0.04222
6.592,0.05934
6.596,0.04177
6.6,0.08873
6.604,0.125
6.608,0.1052
6.612,0.13482
6.616,0.12405
6.62,0.14396
6.624,0.12499
6.628,0.19537
6.632,0.20118
6.636,0.19438
6.64,0.20896
6.644,0.16738
6.648,0.21299
6.652,0.20138
6.656,0.17968
6.66,0.18724
6.664,0.19464
6.668,0.18342
6.672,0.14434
6.676,0.18162
6.68,0.16846
6.684,0.15971
6.688,0.14169
6.692,0.11011
6.696,0.09951
6.7,0.09416
6.704,0.06799
6.708,0.07525
6.712,0.05469
6.716,0.06323
6.72,0.05534
6.724,0.04787
6.728,-0.00495
6.732,-0.00282
6.736,0.0253
6.74,0.02253
6.744,-0.0017
6.748,0.00142
6.752,-0.00045
6.756,0.01152
6.76,0.00851
6.764,-0.01859
6.768,-0.0343
6.772,-0.02973
6.776,-0.02127
6.78,-0.02327
6.784,-0.04258
6.788,-0.02161
6.792,-0.02024
6.796,-0.00341
6.8,-0.03066
6.804,-0.0333
6.808,-0.00515
6.812,-0.02269
6.816,-0.00858
6.82,-0.00582
6.824,-0.03903
6.828,-0.04947
6.832,-0.02476
6.836,-0.00422
6.84,-0.01061
6.844,-0.02296
6.848,0.00114
6.852,-0.01351
6.856,-0.01462
6.86,-0.02753
6.864,-0.01974
6.868,-0.02817
6.872,0.01126
6.876,-0.03451
6.88,-0.01592
6.884,-0.00795
6.888,-0.04416
6.892,-0.01435
6.896,-0.00376
6.9,-0.02466
6.904,-0.03006
6.908,-0.03025
6.912,-0.02188
6.916,-0.03034
6.92,0.00309
6.924,-0.01169
6.928,-0.01671
6.932,-0.00691
6.936,-0.01493
6.94,-0.01688
6.944,-0.04287
6.948,-0.03738
6.952,-0.01023
6.956,0.0108
6.96,-0.01453
6.964,-0.0162
6.968,0.02248
6.972,0.00204
6.976,0.03856
6.98,0.01422
6.984,0.05802
6.988,0.05442
6.992,0.05142
6.996,0.10026
7.0,0.04471
7.004,0.06361
7.008,0.09584
7.012,0.05367
7.016,0.09215
7.02,0.06555
7.024,0.0414
7.028,0.01878
7.032,0.0478
7.036,0.00707
7.04,-0.00147
7.044,-0.00212
7.048,0.0009
7.052,-0.00235
7.056,-0.0357
7.06,-0.01063
7.064,-0.01744
7.068,0.00929
7.072,-0.01987
7.076,-0.03837
7.08,-0.03757
7.084,-0.00867
7.088,0.00515
7.092,-0.01219
7.096,0.00485
7.1,-0.02924
7.104,0.00256
7.108,-0.01302
7.112,-0.0258
7.116,-0.02992
7.12,-0.05141
7.124,-0.07215
7.128,-0.12744
7.132,-0.13626
7.136,-0.08295
7.14,0.03543
7.144,0.24352
7.148,0.42983
7.152,0.65423
7.156,0.81365
7.16,0.95957
7.164,0.98472
7.168,0.88251
7.172,0.69939
7.176,0.4782
7.18,0.27964
7.184,0.07126
7.188,-0.10097
7.192,-0.18622
7.196,-0.1865
7.2,-0.19254
7.204,-0.09178
7.208,-0.063
7.212,-0.04949
7.216,-0.01114
7.22,-0.02402
7.224,-0.00433
7.228,-0.00797
7.232,-0.02825
7.236,0.01321
7.24,-0.01362
7.244,0.01696
7.248,-0.02202
7.252,0.00279
7.256,-0.01967
7.26,-0.00988
7.264,-0.01554
7.268,-0.03007
7.272,-0.02181
7.276,0.0248
7.28,-0.02907
7.284,-0.01486
7.288,0.00864
7.292,-0.00965
7.296,-0.02785
7.3,-0.00719
7.304,0.00087
7.308,0.00172
7.312,0.00838
7.316,0.00799
7.32,-0.0025
7.324,-0.00507
7.328,-0.02358
7.332,0.02709
7.336,0.00017
7.34,-0.02288
7.344,0.01791
7.348,-0.00522
7.352,0.02767
7.356,0.03206
7.36,0.01485
7.364,0.03015
7.368,0.02165
7.372,0.05909
7.376,0.06328
7.38,0.06361
7.384,0.08108
7.388,0.09165
7.392,0.10039
7.396,0.12509
7.4,0.12062
7.404,0.13348
7.408,0.14379
7.412,0.1624
7.416,0.17766
7.42,0.16818
7.424,0.19573
7.428,0.17808
7.432,0.19046
7.436,0.20578
7.44,0.20473
7.444,0.21096
7.448,0.16887
7.452,0.21354
7.456,0.18577
7.46,0.20645
7.464,0.16502
7.468,0.14205
7.472,0.16171
7.476,0.14398
7.48,0.16537
7.484,0.13918
7.488,0.10096
7.492,0.14018
7.496,0.07484
7.5,0.11662
7.504,0.08736
7.508,0.07578
7.512,0.05199
7.516,0.05385
7.52,0.03328
7.524,0.04481
7.528,0.03327
7.532,0.02749
7.536,0.02655
7.54,0.01776
7.544,-0.00663
7.548,0.01442
7.552,0.01303
7.556,0.01644
7.56,0.01157
7.564,-0.00114
7.568,0.00906
7.572,0.00108
7.576,-0.00938
7.58,-0.01052
7.584,-0.03474
7.588,0.00857
7.592,-0.03475
7.596,0.03182
7.6,0.00362
7.604,-0.02686
7.608,-0.00861
7.612,0.01226
7.616,-0.01468
7.62,-0.01358
7.624,-0.0004
7.628,0.00696
7.632,-0.0015
7.636,0.00258
7.64,-0.0017
7.644,-0.01276
7.648,0.00234
7.652,-0.00971
7.656,-0.01474
7.66,-0.01872
7.664,-0.01492
7.668,-0.02827
7.672,-0.00421
7.676,-0.03562
7.68,0.02292
7.684,-0.01944
7.688,0.00214
7.692,-0.01083
7.696,0.00548
7.7,0.02739
7.704,0.00731
7.708,0.02083
7.712,0.00857
7.716,-0.01581
7.72,-0.00275
7.724,-0.00307
7.728,-0.0187
7.732,-0.01755
7.736,0.01088
7.74,-0.01347
7.744,-0.00471
7.748,0.02576
7.752,0.0086
7.756,0.01461
7.76,0.01221
7.764,0.03415
7.768,0.01138
7.772,0.01912
7.776,-0.00665
7.78,0.00047
7.784,-0.02453
7.788,-0.00175
7.792,-0.00297
7.796,0.02813
7.8,0.01004
7.804,0.00683
7.808,0.01755
7.812,0.0119
7.816,-0.0029
7.82,0.00997
7.824,0.01723
7.828,-5e-05
7.832,-0.01024
7.836,0.02357
7.84,0.00121
7.844,-0.01516
7.848,0.0111
7.852,0.00353
7.856,-0.00067
7.86,0.01599
7.864,0.0374
7.868,0.04066
7.872,0.03078
7.876,0.05605
7.88,0.03744
7.884,0.09134
7.888,0.05815
7.892,0.07903
7.896,0.08125
7.9,0.10868
7.904,0.08791
7.908,0.09554
7.912,0.08138
7.916,0.09389
7.92,0.07832
7.924,0.05898
7.928,0.0496
7.932,0.06038
7.936,0.02512
7.94,-0.00389
7.944,0.02362
7.948,0.0238
7.952,0.01242
7.956,0.04569
7.96,-0.02666
7.964,-0.01516
7.968,0.00074
7.972,-0.01715
7.976,0.01516
7.98,-0.02074
7.984,0.00224
7.988,0.01118
7.992,-0.00224
7.996,0.00433
8.0,0.02145
8.004,0.01036
8.008,0.01205
8.012,0.0137
8.016,0.00835
8.02,-0.02913
8.024,-0.04837
8.028,-0.11168
8.032,-0.1037
8.036,-0.03388
8.04,0.09986
8.044,0.25409
8.048,0.46097
8.052,0.70037
8.056,0.88165
8.06,0.97416
8.064,0.99971
8.068,0.8884
8.072,0.74489
8.076,0.51557
8.08,0.28423
8.084,0.07699
8.088,-0.08008
8.092,-0.13958
8.096,-0.16732
8.1,-0.12886
8.104,-0.09843
8.108,-0.066
8.112,-0.0249
8.116,0.00554
8.12,0.00025
8.124,0.01498
8.128,0.05157
8.132,0.01968
8.136,0.00569
8.14,0.01067
8.144,-0.03052
8.148,0.04063
8.152,-0.00388
8.156,0.01064
8.16,0.02432
8.164,0.00087
8.168,0.00399
8.172,0.01636
8.176,-0.00367
8.18,-0.00022
8.184,0.00818
8.188,-0.00212
8.192,0.04844
8.196,0.01389
8.2,0.0327
8.204,0.00211
8.208,0.03973
8.212,0.02937
8.216,0.02612
8.22,0.0279
8.224,0.0547
8.228,0.04439
8.232,0.03434
8.236,0.03172
8.24,0.01444
8.244,0.03278
8.248,0.05391
8.252,0.07266
8.256,0.07065
8.26,0.05819
8.264,0.06473
8.268,0.05368
8.272,0.08629
8.276,0.08786
8.28,0.10438
8.284,0.12831
8.288,0.12192
8.292,0.13725
8.296,0.13309
8.3,0.16048
8.304,0.15758
8.308,0.13783
8.312,0.18577
8.316,0.17439
8.32,0.1987
8.324,0.21731
8.328,0.21623
8.332,0.25627
8.336,0.24151
8.34,0.24858
8.344,0.26355
8.348,0.23049
8.352,0.2309
8.356,0.20289
8.36,0.21339
8.364,0.22312
8.368,0.19462
8.372,0.22052
8.376,0.17873
8.38,0.17485
8.384,0.15549
8.388,0.13326
8.392,0.14741
8.396,0.15834
8.4,0.11842
8.404,0.09691
8.408,0.08875
8.412,0.11961
8.416,0.07172
8.42,0.0724
8.424,0.07236
8.428,0.05465
8.432,0.04433
8.436,0.06251
8.44,0.03495
8.444,0.03473
8.448,0.02844
8.452,0.01727
8.456,0.03929
8.46,0.0208
8.464,0.02434
8.468,0.01586
8.472,0.01619
8.476,0.0266
8.48,0.02316
8.484,0.02916
8.488,0.01884
8.492,-0.01081
8.496,0.03199
8.5,0.03039
8.504,0.03814
8.508,0.00763
8.512,0.01531
8.516,0.03829
8.52,0.00183
8.524,-0.0059
8.528,0.00966
8.532,0.0229
8.536,-0.00794
8.54,-0.00489
8.544,0.03367
8.548,0.02386
8.552,0.01223
8.556,0.01812
8.56,0.02021
8.564,0.02062
8.568,0.03969
8.572,0.0138
8.576,0.03919
8.58,0.05938
8.584,0.03518
8.588,0.01802
8.592,0.01512
8.596,0.01724
8.6,0.02376
8.604,0.0107
8.608,0.00584
8.612,0.014
8.616,0.0042
8.62,0.03128
8.624,0.02894
8.628,0.03845
8.632,0.04391
8.636,0.04399
8.64,0.01676
8.644,0.02961
8.648,0.00801
8.652,0.06426
8.656,0.01109
8.66,0.00455
8.664,0.02602
8.668,0.0432
8.672,0.06436
8.676,0.05812
8.68,0.05031
8.684,0.07089
8.688,0.10057
8.692,0.10318
8.696,0.11604
8.7,0.11971
8.704,0.13115
8.708,0.10847
8.712,0.1313
8.716,0.1308
8.72,0.08837
8.724,0.10532
8.728,0.07983
8.732,0.09856
8.736,0.06431
8.74,0.0692
8.744,0.04187
8.748,0.04454
8.752,0.05285
8.756,0.03738
8.76,0.02652
8.764,0.03544
8.768,0.01729
8.772,0.03311
8.776,0.01307
8.78,-0.01432
8.784,0.01764
8.788,0.01331
8.792,0.02746
8.796,0.01795
8.8,0.02375
8.804,0.01658
8.808,0.04323
8.812,0.03375
8.816,0.01171
8.82,0.02047
8.824,-0.02371
8.828,-0.01463
8.832,-0.06587
8.836,-0.09092
8.84,-0.06202
8.844,0.02066
8.848,0.15459
8.852,0.33654
8.856,0.5504
8.86,0.79817
8.864,0.93905
8.868,1.02467
8.872,0.99523
8.876,0.85385
8.88,0.69017
8.884,0.47499
8.888,0.19134
8.892,0.03202
8.896,-0.07567
8.9,-0.15817
8.904,-0.14078
8.908,-0.11981
8.912,-0.07201
8.916,-0.00011
8.92,0.0182
8.924,0.04005
8.928,0.0209
8.932,0.02848
8.936,0.01703
8.94,0.0194
8.944,0.02879
8.948,-0.00048
8.952,0.04811
8.956,0.02306
8.96,0.02322
8.964,-0.00478
8.968,0.03929
8.972,0.02988
8.976,0.0166
8.98,0.05346
8.984,0.03307
8.988,0.04701
8.992,0.02019
8.996,0.03489
9.0,0.02095
9.004,0.02393
9.008,0.05617
9.012,0.00314
9.016,0.0211
9.02,0.02141
9.024,0.04333
9.028,0.00188
9.032,0.03437
9.036,0.05478
9.04,0.04503
9.044,0.02675
9.048,0.04791
9.052,0.05451
9.056,0.06577
9.06,0.06212
9.064,0.05869
9.068,0.05331
9.072,0.05761
9.076,0.10084
9.08,0.10336
9.084,0.10669
9.088,0.10902
9.092,0.11243
9.096,0.11608
9.1,0.11246
9.104,0.16435
9.108,0.17573
9.112,0.17659
9.116,0.21833
9.12,0.22714
9.124,0.24438
9.128,0.2299
9.132,0.23771
9.136,0.2081
9.14,0.23495
9.144,0.23792
9.148,0.26817
9.152,0.23971
9.156,0.26483
9.16,0.24084
9.164,0.24152
9.168,0.2472
9.172,0.23281
9.176,0.23622
9.18,0.2024
9.184,0.18206
9.188,0.15954
9.192,0.15768
9.196,0.1581
9.2,0.13609
9.204,0.14741
9.208,0.11663
9.212,0.12289
9.216,0.12257
9.22,0.08408
9.224,0.08419
9.228,0.07134
9.232,0.06071
9.236,0.07037
9.24,0.0753
9.244,0.05593
9.248,0.04297
9.252,0.03731
9.256,0.05583
9.26,0.01699
9.264,0.0516
9.268,0.0462
9.272,0.05613
9.276,0.02589
9.28,0.04127
9.284,0.02797
9.288,0.05243
9.292,0.04902
9.296,0.03245
9.3,-0.00223
9.304,0.03338
9.308,0.02209
9.312,0.04302
9.316,0.01306
9.32,0.00944
9.324,0.03381
9.328,0.00978
9.332,0.01074
9.336,0.02195
9.34,0.02322
9.344,0.03987
9.348,0.01437
9.352,0.04514
9.356,0.02995
9.36,0.02824
9.364,0.00491
9.368,0.02934
9.372,0.04123
9.376,0.01832
9.38,0.01762
9.384,0.03599
9.388,0.01067
9.392,0.01379
9.396,0.00634
9.4,0.03988
9.404,0.02984
9.408,0.00145
9.412,0.02542
9.416,0.03655
9.42,0.0315
9.424,0.04625
9.428,0.03912
9.432,0.04117
9.436,0.05351
9.44,0.01058
9.444,0.0389
9.448,0.02283
9.452,0.04699
9.456,0.03669
9.46,0.02797
9.464,0.02171
9.468,0.02374
9.472,0.01358
9.476,0.03649
9.48,0.03596
9.484,0.0243
9.488,0.01647
9.492,0.04018
9.496,0.0328
9.5,0.02022
9.504,0.03046
9.508,0.00863
9.512,0.04231
9.516,0.03209
9.52,0.05463
9.524,0.01543
9.528,0.01771
9.532,0.04348
9.536,0.01299
9.54,0.03217
9.544,0.05237
9.548,0.02708
9.552,0.0433
9.556,0.06466
9.56,0.08901
9.564,0.09995
9.568,0.07322
9.572,0.09006
9.576,0.11621
9.58,0.10022
9.584,0.14468
9.588,0.13192
9.592,0.11529
9.596,0.13279
9.6,0.09424
9.604,0.06939
9.608,0.11807
9.612,0.09504
9.616,0.08915
9.62,0.05219
9.624,0.06596
9.628,0.04063
9.632,0.01783
9.636,0.03344
9.64,0.03266
9.644,0.01345
9.648,0.01286
9.652,0.03005
9.656,0.01626
9.66,0.03293
9.664,0.0596
9.668,0.01405
9.672,0.04946
9.676,0.01646
9.68,0.07341
9.684,0.05025
9.688,0.03084
9.692,0.03443
9.696,0.04545
9.7,0.0443
9.704,0.03944
9.708,-0.01255
9.712,-0.0405
9.716,-0.06463
9.72,-0.07586
9.724,-0.00389
9.728,0.09416
9.732,0.26816
9.736,0.45841
9.74,0.67036
9.744,0.87193
9.748,0.99278
9.752,1.03454
9.756,0.93843
9.76,0.74265
9.764,0.53522
9.768,0.28378
9.772,0.0933
9.776,-0.05036
9.78,-0.13503
9.784,-0.15587
9.788,-0.12459
9.792,-0.078
9.796,-0.0178
9.8,-0.02709
9.804,0.00456
9.808,0.03706
9.812,0.00821
9.816,0.03245
9.82,0.0194
9.824,0.04247
9.828,0.04384
9.832,0.02461
9.836,0.03446
9.84,0.03146
9.844,0.01922
9.848,0.04831
9.852,0.0375
9.856,0.0471
9.86,0.01493
9.864,0.02745
9.868,0.04278
9.872,0.03377
9.876,0.05064
9.88,0.01697
9.884,0.01306
9.888,0.0234
9.892,0.00605
9.896,0.04033
9.9,0.01524
9.904,0.04126
9.908,0.04683
9.912,0.04622
9.916,0.04664
9.92,0.02019
9.924,0.04833
9.928,0.03596
9.932,0.05675
9.936,0.06679
9.94,0.05464
9.944,0.05235
9.948,0.05287
9.952,0.0969
9.956,0.06802
9.96,0.09963
9.964,0.11112
9.968,0.10633
9.972,0.12057
9.976,0.1255
9.98,0.16869
9.984,0.16921
9.988,0.14264
9.992,0.1806
9.996,0.15698
