t_seg,ecg_mV
0.0,0.03382
0.004,0.04697
0.008,0.05521
0.012,0.04495
0.016,0.03727
0.02,0.05093
0.024,0.0365
0.028,0.03817
0.032,0.0345
0.036,0.04076
0.04,0.0298
0.044,0.05166
0.048,0.03043
0.052,0.04613
0.056,0.03156
0.06,0.02025
0.064,0.0213
0.068,0.0276
0.072,0.02446
0.076,0.04237
0.08,0.04187
0.084,0.017
0.088,0.02496
0.092,0.03174
0.096,0.02054
0.1,0.03367
0.104,0.02232
0.108,0.03705
0.112,0.024
0.116,0.05754
0.12,0.02808
0.124,0.02919
0.128,0.04305
0.132,0.02362
0.136,0.02262
0.14,0.03416
0.144,0.05081
0.148,0.01375
0.152,0.03208
0.156,0.02964
0.16,0.03595
0.164,0.02976
0.168,0.04093
0.172,0.04756
0.176,0.03677
0.18,0.03688
0.184,0.05694
0.188,0.06411
0.192,0.03857
0.196,0.07011
0.2,0.08545
0.204,0.11549
0.208,0.08046
0.212,0.11701
0.216,0.11021
0.22,0.1296
0.224,0.09522
0.228,0.13269
0.232,0.14463
0.236,0.11812
0.24,0.10593
0.244,0.09233
0.248,0.10868
0.252,0.06423
0.256,0.03486
0.26,0.0474
0.264,0.05002
0.268,0.04462
0.272,0.03983
0.276,0.02312
0.28,0.03325
0.284,0.02559
0.288,0.00783
0.292,0.04255
0.296,0.04987
0.3,0.03988
0.304,0.05676
0.308,0.03375
0.312,0.042
0.316,0.01817
0.32,-0.00132
0.324,0.0106
0.328,0.03609
0.332,0.01476
0.336,-0.01173
0.34,-0.01333
0.344,-0.01093
0.348,-0.05382
0.352,-0.06574
0.356,-0.03113
0.36,0.07037
0.364,0.25261
0.368,0.46326
0.372,0.67356
0.376,0.89203
0.38,0.98796
0.384,1.01708
0.388,0.93776
0.392,0.74529
0.396,0.54614
0.4,0.29286
0.404,0.1113
0.408,-0.04146
0.412,-0.10735
0.416,-0.12147
0.42,-0.1514
0.424,-0.07013
0.428,-0.0532
0.432,0.00147
0.436,-0.00328
0.44,0.03828
0.444,0.04898
0.448,0.02707
0.452,0.01279
0.456,0.02244
0.46,0.00637
0.464,0.03087
0.468,0.04242
0.472,0.01934
0.476,0.03549
0.48,0.03382
0.484,0.02537
0.488,0.04374
0.492,0.03195
0.496,0.02446
0.5,0.03271
0.504,0.033
0.508,0.03511
0.512,0.02672
0.516,0.03869
0.52,0.02978
0.524,0.04275
0.528,0.05627
0.532,0.05658
0.536,0.01592
0.54,0.02571
0.544,0.00124
0.548,0.01148
0.552,0.01445
0.556,0.04127
0.56,0.04412
0.564,0.02804
0.568,0.02855
0.572,0.05133
0.576,0.0683
0.58,0.06812
0.584,0.07773
0.588,0.08123
0.592,0.12479
0.596,0.10882
0.6,0.10483
0.604,0.10587
0.608,0.11609
0.612,0.13867
0.616,0.1315
0.62,0.18789
0.624,0.18885
0.628,0.19535
0.632,0.20909
0.636,0.20436
0.64,0.21835
0.644,0.21277
0.648,0.214
0.652,0.21673
0.656,0.25475
0.66,0.23293
0.664,0.24028
0.668,0.22965
0.672,0.26918
0.676,0.22553
0.68,0.22103
0.684,0.20567
0.688,0.20673
0.692,0.19658
0.696,0.21437
0.7,0.15767
0.704,0.18683
0.708,0.16038
0.712,0.09997
0.716,0.12128
0.72,0.13786
0.724,0.11452
0.728,0.09525
0.732,0.0794
0.736,0.0756
0.74,0.08253
0.744,0.06176
0.748,0.07648
0.752,0.07797
0.756,0.04836
0.76,0.05821
0.764,0.0185
0.768,0.02827
0.772,0.05015
0.776,0.04
0.78,0.04811
0.784,0.03269
0.788,0.03492
0.792,0.02098
0.796,0.0105
0.8,0.0443
0.804,0.03132
0.808,0.04943
0.812,0.02034
0.816,0.04813
0.82,0.01832
0.824,0.02841
0.828,0.0226
0.832,0.03147
0.836,0.0133
0.84,0.0335
0.844,0.01501
0.848,0.00742
0.852,0.01348
0.856,0.0125
0.86,0.02851
0.864,0.02411
0.868,0.0291
0.872,0.00659
0.876,-0.01388
0.88,0.04792
0.884,0.01023
0.888,0.01091
0.892,0.01297
0.896,-0.03408
0.9,0.01254
0.904,0.01824
0.908,0.03545
0.912,0.04087
0.916,-0.01518
0.92,0.02147
0.924,0.02359
0.928,-0.00266
0.932,-0.00435
0.936,0.00387
0.94,0.01807
0.944,0.00312
0.948,0.0333
0.952,0.02102
0.956,0.02968
0.96,0.03331
0.964,0.04312
0.968,0.01112
0.972,0.05468
0.976,0.01951
0.98,0.01267
0.984,0.02395
0.988,0.02228
0.992,-0.01393
0.996,0.01405
1.0,0.03459
1.004,0.01379
1.008,0.02165
1.012,0.0344
1.016,0.01182
1.02,0.01345
1.024,0.02317
1.028,0.02005
1.032,0.00538
1.036,0.00715
1.04,-0.00173
1.044,0.00343
1.048,0.02352
1.052,0.01667
1.056,0.01879
1.06,0.01148
1.064,0.04162
1.068,0.02391
1.072,0.03642
1.076,0.0201
1.08,-0.00754
1.084,-0.0049
1.088,0.02167
1.092,0.02109
1.096,0.03027
1.1,0.01052
1.104,-0.00721
1.108,0.01635
1.112,0.02402
1.116,0.02377
1.12,0.02199
1.124,0.00147
1.128,0.01886
1.132,0.00605
1.136,0.01469
1.14,0.02324
1.144,0.02397
1.148,0.07183
1.152,0.04693
1.156,0.06594
1.16,0.04758
1.164,0.05925
1.168,0.08066
1.172,0.11344
1.176,0.11091
1.18,0.1172
1.184,0.14416
1.188,0.12307
1.192,0.09445
1.196,0.10318
1.2,0.06008
1.204,0.04716
1.208,0.08472
1.212,0.03949
1.216,0.02513
1.22,0.03038
1.224,0.01523
1.228,-0.00228
1.232,-0.00184
1.236,0.00455
1.24,0.00756
1.244,-0.00196
1.248,0.00481
1.252,-0.00914
1.256,-0.00018
1.26,0.00166
1.264,0.0196
1.268,0.0178
1.272,0.01296
1.276,-0.00035
1.28,0.00308
1.284,-0.02421
1.288,0.01735
1.292,-0.0277
1.296,-0.01313
1.3,-0.05131
1.304,-0.10126
1.308,-0.08657
1.312,-0.06752
1.316,0.00105
1.32,0.13753
1.324,0.33075
1.328,0.56011
1.332,0.74243
1.336,0.93154
1.34,1.00629
1.344,0.96717
1.348,0.86168
1.352,0.6353
1.356,0.40296
1.36,0.18105
1.364,0.01261
1.368,-0.11945
1.372,-0.14615
1.376,-0.15913
1.38,-0.12288
1.384,-0.06501
1.388,-0.05693
1.392,-0.03312
1.396,-0.02757
1.4,-0.02548
1.404,0.0213
1.408,0.02563
1.412,0.01353
1.416,0.00581
1.42,-0.0193
1.424,0.01343
1.428,0.00575
1.432,-0.00733
1.436,-0.00416
1.44,0.00423
1.444,-0.00408
1.448,0.00012
1.452,-0.01735
1.456,-0.01033
1.46,-0.00291
1.464,0.00061
1.468,0.01894
1.472,-0.00564
1.476,0.00512
1.48,0.00285
1.484,8e-05
1.488,-0.0234
1.492,0.0251
1.496,-0.03071
1.5,0.02383
1.504,0.02261
1.508,0.0096
1.512,0.02662
1.516,0.01348
1.52,0.02635
1.524,0.00461
1.528,0.01251
1.532,0.03476
1.536,0.03615
1.54,0.0479
1.544,0.05923
1.548,0.05053
1.552,0.0793
1.556,0.06101
1.56,0.08911
1.564,0.0997
1.568,0.10719
1.572,0.10043
1.576,0.14872
1.58,0.11248
1.584,0.14425
1.588,0.18723
1.592,0.19026
1.596,0.19662
1.6,0.19392
1.604,0.19686
1.608,0.19764
1.612,0.2107
1.616,0.20439
1.62,0.21285
1.624,0.20878
1.628,0.18896
1.632,0.21924
1.636,0.21108
1.64,0.17884
1.644,0.1669
1.648,0.16615
1.652,0.15752
1.656,0.17293
1.66,0.14218
1.664,0.14822
1.668,0.1227
1.672,0.12749
1.676,0.11682
1.68,0.09623
1.684,0.06618
1.688,0.08755
1.692,0.04711
1.696,0.07037
1.7,0.04214
1.704,0.04041
1.708,0.01497
1.712,0.00964
1.716,0.01234
1.72,0.02472
1.724,0.02514
1.728,-0.01588
1.732,0.01519
1.736,-0.01048
1.74,0.0052
1.744,-0.01991
1.748,0.00206
1.752,-0.01193
1.756,-0.00184
1.76,-0.01558
1.764,-0.02937
1.768,-0.01178
1.772,-0.00781
1.776,0.01659
1.78,0.01108
1.784,-0.02565
1.788,0.01885
1.792,-0.00472
1.796,-0.01153
1.8,-0.03427
1.804,0.00153
1.808,-0.00664
1.812,0.00123
1.816,0.02266
1.82,0.00362
1.824,0.00271
1.828,0.00094
1.832,-0.01895
1.836,-0.00415
1.84,-0.00937
1.844,0.00139
1.848,-0.01395
1.852,-0.00715
1.856,-0.01057
1.86,-0.01303
1.864,-0.00904
1.868,0.01894
1.872,-0.01624
1.876,0.00137
1.88,0.00962
1.884,-0.01997
1.888,0.01239
1.892,0.00399
1.896,0.01443
1.9,0.00138
1.904,-0.00514
1.908,-0.00587
1.912,0.02321
1.916,-0.01597
1.92,0.00971
1.924,-0.00296
1.928,-0.00873
1.932,-0.01761
1.936,-0.01766
1.94,-0.00558
1.944,-0.01171
1.948,0.00548
1.952,-0.00724
1.956,0.01135
1.96,0.01153
1.964,-0.05274
1.968,-0.01662
1.972,-0.00801
1.976,0.00605
1.98,-0.0077
1.984,-0.02249
1.988,-0.005
1.992,0.01034
1.996,-0.02114
2.0,0.00203
2.004,-0.00624
2.008,0.01828
2.012,-0.00595
2.016,0.01863
2.02,-0.00344
2.024,0.04515
2.028,0.02906
2.032,0.02319
2.036,0.04967
2.04,0.04324
2.044,0.0584
2.048,0.11004
2.052,0.07708
2.056,0.07084
2.06,0.09185
2.064,0.08643
2.068,0.05563
2.072,0.04493
2.076,0.03175
2.08,0.02844
2.084,0.03143
2.088,-0.0119
2.092,0.00786
2.096,0.01028
2.1,-0.01477
2.104,0.01079
2.108,0.01191
2.112,-0.00315
2.116,0.00959
2.12,-0.01274
2.124,-0.00457
2.128,-0.01488
2.132,0.00679
2.136,-0.01915
2.14,-0.0142
2.144,-0.00317
2.148,-0.00299
2.152,-0.00323
2.156,-0.04843
2.16,-0.03157
2.164,0.00529
2.168,-0.04355
2.172,-0.07885
2.176,-0.09409
2.18,-0.15644
2.184,-0.10857
2.188,-0.06723
2.192,0.09804
2.196,0.24299
2.2,0.47388
2.204,0.68633
2.208,0.86247
2.212,0.97697
2.216,0.94179
2.22,0.83502
2.224,0.66659
2.228,0.40906
2.232,0.18374
2.236,0.02869
2.24,-0.12102
2.244,-0.18155
2.248,-0.1895
2.252,-0.18274
2.256,-0.13425
2.26,-0.06699
2.264,-0.01747
2.268,-0.02182
2.272,-0.05462
2.276,-0.0379
2.28,-0.00557
2.284,-0.01347
2.288,-0.01796
2.292,-0.03268
2.296,-0.0227
2.3,0.00412
2.304,-0.02005
2.308,-0.05681
2.312,-0.02733
2.316,-0.02798
2.32,-0.01529
2.324,-0.04669
2.328,-0.03131
2.332,-0.03142
2.336,-0.01656
2.34,0.00907
2.344,-0.00123
2.348,0.00406
2.352,-0.01631
2.356,-0.00798
2.36,-0.04477
2.364,-0.02332
2.368,-0.00165
2.372,-0.02103
2.376,-0.01244
2.38,-0.01524
2.384,-0.00981
2.388,-0.00301
2.392,-0.0108
2.396,-0.01073
2.4,0.01078
2.404,0.03355
2.408,0.01738
2.412,0.00065
2.416,0.02244
2.42,0.02807
2.424,0.05855
2.428,0.07129
2.432,0.05329
2.436,0.05028
2.44,0.05908
2.444,0.10974
2.448,0.10466
2.452,0.12807
2.456,0.12114
2.46,0.16004
2.464,0.15138
2.468,0.19495
2.472,0.16134
2.476,0.19581
2.48,0.18652
2.484,0.18002
2.488,0.17562
2.492,0.18166
2.496,0.19447
2.5,0.1861
2.504,0.19006
2.508,0.18802
2.512,0.20191
2.516,0.17766
2.52,0.14936
2.524,0.17051
2.528,0.12545
2.532,0.12254
2.536,0.11716
2.54,0.08869
2.544,0.07593
2.548,0.06159
2.552,0.08202
2.556,0.073
2.56,0.03007
2.564,0.03634
2.568,0.03218
2.572,0.03002
2.576,0.00982
2.58,-0.00389
2.584,0.00734
2.588,-0.00029
2.592,0.00356
2.596,-0.01137
2.6,-0.02834
2.604,-0.01688
2.608,-0.00411
2.612,-0.02246
2.616,-0.01489
2.62,-0.02865
2.624,-0.01604
2.628,-0.02231
2.632,-0.0327
2.636,-0.00815
2.64,-0.026
2.644,-0.00524
2.648,-0.03863
2.652,-0.03215
2.656,-0.00539
2.66,-0.06506
2.664,-0.02073
2.668,-0.01181
2.672,-0.0098
2.676,-0.03141
2.68,-0.03435
2.684,-0.01661
2.688,-0.02302
2.692,-0.03085
2.696,-0.02978
2.7,-0.03256
2.704,-0.04612
2.708,-0.0212
2.712,-0.03063
2.716,-0.01921
2.72,-0.03857
2.724,-0.03904
2.728,-0.0317
2.732,-0.00265
2.736,-0.02439
2.74,-0.01232
2.744,-0.03275
2.748,-0.01985
2.752,-0.03719
2.756,-0.0364
2.76,-0.00806
2.764,-0.03468
2.768,-0.03524
2.772,-0.01746
2.776,-0.02715
2.78,-0.02751
2.784,-0.01749
2.788,-0.02762
2.792,-0.04539
2.796,-0.01145
2.8,-0.00868
2.804,-0.0294
2.808,-0.02429
2.812,-0.02478
2.816,0.01454
2.82,0.00965
2.824,-0.00369
2.828,0.02902
2.832,0.02382
2.836,0.02044
2.84,0.07713
2.844,0.07816
2.848,0.05572
2.852,0.07102
2.856,0.02934
2.86,0.05303
2.864,0.03768
2.868,0.04925
2.872,0.02515
2.876,0.01275
2.88,-0.03039
2.884,-0.02258
2.888,-0.01966
2.892,-0.01714
2.896,-0.0146
2.9,-0.03632
2.904,-0.01805
2.908,-0.0289
2.912,-0.02941
2.916,-0.03575
2.92,-0.02908
2.924,-0.02501
2.928,-0.04691
2.932,-0.04607
2.936,-0.03039
2.94,-0.02604
2.944,-0.03225
2.948,-0.02917
2.952,-0.03742
2.956,-0.03527
2.96,-0.03436
2.964,-0.03903
2.968,-0.08574
2.972,-0.11318
2.976,-0.13288
2.98,-0.11466
2.984,-0.03197
2.988,0.14734
2.992,0.33148
2.996,0.53317
3.0,0.75169
3.004,0.91117
3.008,0.94221
3.012,0.93847
3.016,0.75323
3.02,0.56125
3.024,0.32407
3.028,0.10617
3.032,-0.03265
3.036,-0.13943
3.04,-0.20524
3.044,-0.18612
3.048,-0.16022
3.052,-0.12156
3.056,-0.08764
3.06,-0.0517
3.064,-0.0245
3.068,-0.03405
3.072,-0.02703
3.076,-0.03332
3.08,-0.03928
3.084,-0.05022
3.088,-0.03117
3.092,-0.0379
3.096,-0.00123
3.1,-0.03312
3.104,0.00126
3.108,-0.01958
3.112,-0.01135
3.116,-0.03224
3.12,-0.01396
3.124,-0.01102
3.128,-0.01145
3.132,-0.03108
3.136,-0.04539
3.14,-0.03505
3.144,-0.04966
3.148,-0.04151
3.152,-0.04826
3.156,-0.0284
3.16,-0.05583
3.164,-0.0045
3.168,-0.02654
3.172,-0.0074
3.176,-0.02822
3.18,0.0144
3.184,-0.03266
3.188,0.00887
3.192,0.00125
3.196,-0.01864
3.2,-0.00489
3.204,-0.00724
3.208,0.02225
3.212,0.01863
3.216,0.05235
3.22,0.04087
3.224,0.0589
3.228,0.0641
3.232,0.08932
3.236,0.06399
3.24,0.10535
3.244,0.11799
3.248,0.10054
3.252,0.15318
3.256,0.14933
3.26,0.14774
3.264,0.16309
3.268,0.17851
3.272,0.1598
3.276,0.16615
3.28,0.18191
3.284,0.20885
3.288,0.17123
3.292,0.17327
3.296,0.19549
3.3,0.17215
3.304,0.18604
3.308,0.17944
3.312,0.13333
3.316,0.15832
3.32,0.12041
3.324,0.1473
3.328,0.10631
3.332,0.07963
3.336,0.09338
3.34,0.09047
3.344,0.08179
3.348,0.07173
3.352,0.0529
3.356,0.04642
3.36,0.02667
3.364,0.00521
3.368,0.01491
3.372,0.02923
3.376,0.01382
3.38,0.00842
3.384,-0.00762
3.388,-0.01563
3.392,-0.02314
3.396,-0.00858
3.4,-0.02044
3.404,-0.02411
3.408,-0.01849
3.412,-0.02853
3.416,-0.02769
3.42,-0.00206
3.424,-0.01134
3.428,-0.03582
3.432,-0.04857
3.436,-0.02597
3.44,-0.04275
3.444,-0.02232
3.448,-0.04874
3.452,-0.01449
3.456,-0.02107
3.46,-0.0454
3.464,-0.04306
3.468,-0.05156
3.472,-0.00144
3.476,-0.03385
3.48,-0.00187
3.484,-0.06319
3.488,-0.01339
3.492,-0.03663
3.496,-0.02572
3.5,-0.02896
3.504,-0.06144
3.508,-0.07948
3.512,-0.03996
3.516,-0.02595
3.52,-0.03452
3.524,-0.02604
3.528,-0.0275
3.532,-0.01864
3.536,-0.02035
3.54,-0.0086
3.544,-0.00271
3.548,-0.02859
3.552,-0.02931
3.556,-0.02702
3.56,-0.0489
3.564,-0.0462
3.568,-0.03158
3.572,-0.01744
3.576,-0.03611
3.58,-0.00187
3.584,-0.00194
3.588,-0.03365
3.592,-0.02623
3.596,-0.02044
3.6,-0.05276
3.604,-0.02953
3.608,-0.06158
3.612,-0.00854
3.616,-0.03275
3.62,-0.03723
3.624,-0.02685
3.628,-0.02523
3.632,-0.01868
3.636,-0.01699
3.64,-0.03591
3.644,-0.03843
3.648,-0.06145
3.652,-0.03797
3.656,-0.02348
3.66,-0.04291
3.664,-0.02722
3.668,-0.03005
3.672,-0.03742
3.676,-0.04527
3.68,-0.00659
3.684,-0.03562
3.688,-0.00785
3.692,-0.03695
3.696,-0.00478
3.7,-0.04137
3.704,-0.00608
3.708,-0.02159
3.712,-0.03638
3.716,-0.02221
3.72,-0.02738
3.724,-0.00429
3.728,-0.03466
3.732,-0.02649
3.736,-0.01552
3.74,-0.04009
3.744,-0.03652
3.748,-0.03355
3.752,-0.02405
3.756,-0.04185
3.76,-0.00642
3.764,-0.02709
3.768,-0.02438
3.772,-0.04869
3.776,-0.01716
3.78,-0.0187
3.784,-0.04389
3.788,0.0099
3.792,-0.00239
3.796,-0.05381
3.8,-0.00599
3.804,-0.03305
3.808,0.00786
3.812,0.00541
3.816,0.00474
3.82,0.02778
3.824,0.05661
3.828,0.0681
3.832,0.04109
3.836,0.05375
3.84,0.05993
3.844,0.09492
3.848,0.07225
3.852,0.06248
3.856,0.08903
3.86,0.02133
3.864,0.01907
3.868,-0.00857
3.872,-0.00944
3.876,0.01625
3.88,-0.00894
3.884,-0.02729
3.888,-0.02166
3.892,-0.00524
3.896,-0.01038
3.9,-0.00271
3.904,-0.051
3.908,-0.04499
3.912,-0.00454
3.916,-0.01651
3.92,-0.01605
3.924,-0.02132
3.928,-0.02904
3.932,-0.02842
3.936,0.00174
3.94,-0.02491
3.944,-0.00763
3.948,-0.03617
3.952,-0.03961
3.956,-0.07406
3.96,-0.08311
3.964,-0.11219
3.968,-0.15439
3.972,-0.08456
3.976,-0.03348
3.98,0.11366
3.984,0.33394
3.988,0.51883
3.992,0.74001
3.996,0.89835
4.0,0.95912
4.004,0.91396
4.008,0.81324
4.012,0.58018
4.016,0.347
4.02,0.15601
4.024,-0.02821
4.028,-0.1627
4.032,-0.16662
4.036,-0.15889
4.04,-0.13212
4.044,-0.08917
4.048,-0.07629
4.052,-0.02749
4.056,-0.02773
4.06,-0.0294
4.064,-0.01621
4.068,-0.00212
4.072,-0.01565
4.076,-0.02431
4.08,-0.01682
4.084,-0.026
4.088,-0.01153
4.092,0.00112
4.096,-0.00966
4.1,-0.0057
4.104,-0.02582
4.108,0.00134
4.112,0.00465
4.116,0.00265
4.12,-0.01084
4.124,-0.03011
4.128,0.00252
4.132,-0.00922
4.136,-0.02726
4.14,-0.00344
4.144,-0.01899
4.148,-0.00489
4.152,-0.02086
4.156,-0.03687
4.16,-0.02648
4.164,-0.00404
4.168,-0.00266
4.172,-0.01668
4.176,-0.02321
4.18,0.01922
4.184,0.0227
4.188,0.00428
4.192,-0.01341
4.196,0.0368
4.2,0.02131
4.204,0.05478
4.208,0.03847
4.212,0.04907
4.216,0.0626
4.22,0.0526
4.224,0.05912
4.228,0.10222
4.232,0.09128
4.236,0.1155
4.24,0.14702
4.244,0.13014
4.248,0.14241
4.252,0.16131
4.256,0.1632
4.26,0.17564
4.264,0.17171
4.268,0.21175
4.272,0.18321
4.276,0.18302
4.28,0.18953
4.284,0.22425
4.288,0.18885
4.292,0.21198
4.296,0.1742
4.3,0.16728
4.304,0.18583
4.308,0.1654
4.312,0.14414
4.316,0.16321
4.32,0.15612
4.324,0.11701
4.328,0.11835
4.332,0.09669
4.336,0.08512
4.34,0.09488
4.344,0.05104
4.348,0.02168
4.352,0.05968
4.356,0.01963
4.36,0.02375
4.364,0.02252
4.368,0.01429
4.372,-0.00064
4.376,0.01689
4.38,-0.00494
4.384,1e-05
4.388,-0.00295
4.392,-0.00747
4.396,-0.01781
4.4,0.01327
4.404,-0.00238
4.408,0.0028
4.412,-0.0271
4.416,0.00578
4.42,-0.02664
4.424,-0.02731
4.428,-0.01078
4.432,-0.02905
4.436,-0.02492
4.44,-0.01871
4.444,-0.0281
4.448,-0.01764
4.452,0.00633
4.456,-0.01902
4.46,-0.00292
4.464,-0.01881
4.468,-0.03737
4.472,0.02015
4.476,-0.00886
4.48,-0.01737
4.484,-0.00609
4.488,-0.00746
4.492,-0.00891
4.496,-0.00936
4.5,0.00399
4.504,-0.02849
4.508,-0.01817
4.512,0.00359
4.516,-0.00857
4.52,-0.02145
4.524,-0.01843
4.528,-0.00232
4.532,0.02018
4.536,-0.00367
4.54,-0.00496
4.544,-0.02034
4.548,-0.01793
4.552,0.01324
4.556,-0.00082
4.56,-0.01176
4.564,0.00345
4.568,0.00512
4.572,-0.01296
4.576,0.01485
4.58,-0.01154
4.584,-0.02016
4.588,0.00049
4.592,-0.00301
4.596,-0.00309
4.6,-0.00407
4.604,-0.01463
4.608,-0.03552
4.612,-0.02054
4.616,0.00669
4.62,0.0003
4.624,-0.00373
4.628,-0.01635
4.632,-0.00601
4.636,-0.00158
4.64,-0.00486
4.644,-0.01356
4.648,-0.01896
4.652,-0.01727
4.656,-0.00605
4.66,-0.00396
4.664,0.00112
4.668,-0.02204
4.672,-0.00614
4.676,0.00015
4.68,6e-05
4.684,0.03087
4.688,-0.002
4.692,0.02615
4.696,0.0803
4.7,0.07252
4.704,0.07758
4.708,0.08873
4.712,0.0656
4.716,0.09467
4.72,0.08426
4.724,0.07714
4.728,0.0882
4.732,0.09443
4.736,0.03829
4.74,0.03858
4.744,0.02749
4.748,0.03689
4.752,0.02048
4.756,0.03062
4.76,0.01745
4.764,0.00396
4.768,0.00286
4.772,-0.00198
4.776,0.02839
4.78,-0.00053
4.784,-0.01362
4.788,0.013
4.792,-0.01704
4.796,-0.0054
4.8,0.00652
4.804,-0.0047
4.808,-0.00977
4.812,-0.01894
4.816,0.0112
4.82,-0.00541
4.824,0.0076
4.828,0.02913
4.832,-0.00941
4.836,-0.06728
4.84,-0.08272
4.844,-0.12318
4.848,-0.09377
4.852,-0.02435
4.856,0.06854
4.86,0.27177
4.864,0.46628
4.868,0.70195
4.872,0.88853
4.876,0.97537
4.88,0.96116
4.884,0.84432
4.888,0.66681
4.892,0.46957
4.896,0.21832
4.9,0.0436
4.904,-0.07551
4.908,-0.15866
4.912,-0.17004
4.916,-0.1421
4.92,-0.10361
4.924,-0.02683
4.928,-0.0218
4.932,-0.02645
4.936,0.00055
4.94,-0.00443
4.944,-0.01431
4.948,0.00305
4.952,0.00178
4.956,0.00626
4.96,0.02075
4.964,0.01071
4.968,0.01301
4.972,-0.00115
4.976,0.00589
4.98,0.0061
4.984,-0.0157
4.988,-0.01072
4.992,0.0248
4.996,-0.00912
5.0,-0.02174
5.004,0.00071
5.008,-0.01449
5.012,0.02345
5.016,-0.02325
5.02,0.01116
5.024,-0.0148
5.028,-0.02455
5.032,0.03477
5.036,-0.00201
5.04,0.03281
5.044,0.01378
5.048,0.01492
5.052,-0.00707
5.056,-0.00481
5.06,0.016
5.064,0.0327
5.068,0.0542
5.072,0.04025
5.076,0.04752
5.08,0.03281
5.084,0.05301
5.088,0.04894
5.092,0.08392
5.096,0.09476
5.1,0.09842
5.104,0.12319
5.108,0.12372
5.112,0.15564
5.116,0.14042
5.12,0.14625
5.124,0.17806
5.128,0.17129
5.132,0.19442
5.136,0.19571
5.14,0.17747
5.144,0.20496
5.148,0.2325
5.152,0.22764
5.156,0.22967
5.16,0.22818
5.164,0.23829
5.168,0.23369
5.172,0.21086
5.176,0.21978
5.18,0.20471
5.184,0.18433
5.188,0.18455
5.192,0.16958
5.196,0.16738
5.2,0.14145
5.204,0.12935
5.208,0.10513
5.212,0.12951
5.216,0.10258
5.22,0.09419
5.224,0.08356
5.228,0.06484
5.232,0.06444
5.236,0.06426
5.24,0.06657
5.244,0.03606
5.248,0.04077
5.252,0.04361
5.256,0.03502
5.26,0.03806
5.264,-0.00955
5.268,0.04115
5.272,0.00874
5.276,0.00331
5.28,0.03828
5.284,-0.00845
5.288,0.0094
5.292,0.00878
5.296,0.00741
5.3,-0.01296
5.304,-0.00717
5.308,0.01931
5.312,0.00621
5.316,0.01596
5.32,1e-05
5.324,0.01467
5.328,-0.00395
5.332,-0.02947
5.336,0.0158
5.34,-0.01821
5.344,0.00343
5.348,0.01155
5.352,0.00602
5.356,0.02128
5.36,0.03327
5.364,0.00728
5.368,0.0186
5.372,-0.00745
5.376,0.03013
5.38,0.01879
5.384,0.01457
5.388,-0.02283
5.392,0.01695
5.396,0.02782
5.4,0.00326
5.404,0.02164
5.408,0.02935
5.412,-0.01365
5.416,0.01342
5.42,0.00955
5.424,0.02565
5.428,0.03153
5.432,-0.01599
5.436,0.01302
5.44,-0.0043
5.444,-0.00382
5.448,0.03181
5.452,-0.00825
5.456,0.02348
5.46,0.01205
5.464,0.01003
5.468,0.02405
5.472,0.00011
5.476,0.03507
5.48,-0.00483
5.484,0.00925
5.488,0.02533
5.492,0.03585
5.496,0.01606
5.5,0.02731
5.504,0.02803
5.508,-0.0015
5.512,0.0027
5.516,0.01482
5.52,-0.00094
5.524,0.00349
5.528,0.00478
5.532,0.03278
5.536,0.0217
5.54,-0.00217
5.544,0.05466
5.548,0.03441
5.552,-0.01671
5.556,0.02811
5.56,0.0102
5.564,0.01853
5.568,0.02574
5.572,0.01904
5.576,0.00452
5.58,0.00052
5.584,0.00692
5.588,0.03156
5.592,0.01972
5.596,0.06516
5.6,0.05978
5.604,0.05084
5.608,0.02474
5.612,0.07129
5.616,0.07586
5.62,0.11189
5.624,0.07948
5.628,0.1362
5.632,0.1314
5.636,0.12327
5.64,0.1231
5.644,0.12823
5.648,0.11465
5.652,0.11818
5.656,0.07775
5.66,0.07457
5.664,0.08674
5.668,0.07877
5.672,0.04787
5.676,0.04373
5.68,0.02318
5.684,0.01761
5.688,0.02216
5.692,0.01442
5.696,-0.01323
5.7,-0.00622
5.704,0.04774
5.708,0.01581
5.712,0.01601
5.716,0.0213
5.72,0.0247
5.724,0.00383
5.728,0.02258
5.732,0.01873
5.736,0.01563
5.74,0.02963
5.744,0.02283
5.748,0.04974
5.752,0.00527
5.756,-0.02258
5.76,-0.05006
5.764,-0.10175
5.768,-0.07526
5.772,-0.00425
5.776,0.1135
5.78,0.35245
5.784,0.54766
5.788,0.74721
5.792,0.91509
5.796,1.02234
5.8,1.01421
5.804,0.89263
5.808,0.69442
5.812,0.4834
5.816,0.27237
5.82,0.06912
5.824,-0.07297
5.828,-0.13392
5.832,-0.14593
5.836,-0.10694
5.84,-0.06649
5.844,-0.02719
5.848,0.01599
5.852,0.03021
5.856,0.01506
5.86,0.00025
5.864,0.02838
5.868,0.02825
5.872,-0.00499
5.876,0.04874
5.88,-0.01273
5.884,0.07371
5.888,0.02383
5.892,0.02325
5.896,0.01716
5.9,-0.0122
5.904,0.00228
5.908,0.0289
5.912,0.03345
5.916,0.01544
5.92,0.05113
5.924,0.00909
5.928,0.02394
5.932,0.03971
5.936,0.02297
5.94,0.02716
5.944,0.03947
5.948,0.02498
5.952,0.02359
5.956,0.03293
5.96,0.0255
5.964,0.02152
5.968,0.02912
5.972,0.02818
5.976,0.02871
5.98,0.03921
5.984,0.02528
5.988,0.05416
5.992,0.06429
5.996,0.05575
6.0,0.0818
6.004,0.06957
6.008,0.09025
6.012,0.09855
6.016,0.0938
6.02,0.12274
6.024,0.11086
6.028,0.13639
6.032,0.1569
6.036,0.1736
6.04,0.18224
6.044,0.19814
6.048,0.20949
6.052,0.23917
6.056,0.22956
6.06,0.21004
6.064,0.23845
6.068,0.25513
6.072,0.24419
6.076,0.23296
6.08,0.24101
6.084,0.22974
6.088,0.25578
6.092,0.20265
6.096,0.21839
6.1,0.22943
6.104,0.19812
6.108,0.21366
6.112,0.18394
6.116,0.18239
6.12,0.18861
6.124,0.15035
6.128,0.13945
6.132,0.13586
6.136,0.1074
6.14,0.14079
6.144,0.1242
6.148,0.11047
6.152,0.10057
6.156,0.08241
6.16,0.10365
6.164,0.11262
6.168,0.04992
6.172,0.0587
6.176,0.06215
6.18,0.07209
6.184,0.03651
6.188,0.05556
6.192,0.03574
6.196,0.03386
6.2,0.03672
6.204,0.05399
6.208,0.03708
6.212,0.03298
6.216,0.04119
6.22,0.03804
6.224,0.04377
6.228,0.02838
6.232,0.03338
6.236,0.04774
6.24,0.01898
6.244,0.0244
6.248,-0.00687
6.252,0.03777
6.256,0.06804
6.26,0.02816
6.264,0.03606
6.268,0.05371
6.272,0.02437
6.276,0.03942
6.28,0.01549
6.284,0.02309
6.288,0.0194
6.292,0.02172
6.296,0.05591
6.3,0.04743
6.304,0.00183
6.308,0.03392
6.312,0.02205
6.316,0.02381
6.32,0.02958
6.324,0.01365
6.328,0.01043
6.332,0.02391
6.336,0.03789
6.34,0.03168
6.344,0.00492
6.348,0.03111
6.352,-0.00365
6.356,0.02534
6.36,0.03384
6.364,0.02187
6.368,0.01983
6.372,0.0062
6.376,0.03183
6.38,0.04738
6.384,0.0299
6.388,-0.00186
6.392,0.05055
6.396,-0.00233
6.4,0.0173
6.404,0.03906
6.408,0.02216
6.412,0.03424
6.416,0.03561
6.42,0.02417
6.424,0.03569
6.428,0.03838
6.432,0.05046
6.436,0.02731
6.44,0.03564
6.444,0.06276
6.448,0.04282
6.452,0.03607
6.456,0.06296
6.46,0.05353
6.464,0.01912
6.468,0.02892
6.472,0.04712
6.476,0.04657
6.48,0.03184
6.484,0.00907
6.488,0.02892
6.492,0.02701
6.496,0.01378
6.5,0.01033
6.504,0.02099
6.508,0.02882
6.512,0.04267
6.516,0.02673
6.52,0.02899
6.524,-0.00159
6.528,0.03953
6.532,0.03684
6.536,0.01718
6.54,0.02492
6.544,0.03172
6.548,0.02017
6.552,0.03031
6.556,0.02904
6.56,0.03954
6.564,0.01517
6.568,0.05038
6.572,0.03028
6.576,0.02624
6.58,0.02271
6.584,0.01742
6.588,0.02887
6.592,0.03384
6.596,0.0676
6.6,0.05836
6.604,0.08277
6.608,0.06906
6.612,0.1061
6.616,0.0994
6.62,0.10888
6.624,0.12792
6.628,0.1486
6.632,0.13298
6.636,0.09544
6.64,0.09644
6.644,0.11632
6.648,0.08576
6.652,0.08079
6.656,0.04028
6.66,0.06091
6.664,0.0587
6.668,0.05501
6.672,0.04141
6.676,0.0048
6.68,0.02461
6.684,0.03601
6.688,0.0489
6.692,0.02558
6.696,0.02308
6.7,0.04067
6.704,0.02771
6.708,0.03578
6.712,0.00142
6.716,0.03805
6.72,0.05818
6.724,0.03068
6.728,0.06573
6.732,0.01814
6.736,0.04653
6.74,0.02052
6.744,-0.00648
6.748,-0.0089
6.752,-0.02044
6.756,-0.06131
6.76,-0.10041
6.764,-0.03205
6.768,0.07517
6.772,0.21773
6.776,0.42835
6.78,0.67013
6.784,0.83737
6.788,0.98344
6.792,1.01891
6.796,0.9565
6.8,0.78557
6.804,0.58113
6.808,0.31757
6.812,0.13586
6.816,-0.00207
6.82,-0.14069
6.824,-0.12216
6.828,-0.12045
6.832,-0.06618
6.836,-0.02386
6.84,-0.01707
6.844,-0.00283
6.848,0.04844
6.852,0.01811
6.856,0.05202
6.86,0.01369
6.864,0.02625
6.868,0.03911
6.872,0.02864
6.876,0.03638
6.88,0.03956
6.884,0.05069
6.888,0.02343
6.892,0.02136
6.896,0.01216
6.9,0.05029
6.904,0.02224
6.908,0.02246
6.912,0.01914
6.916,0.03648
6.92,0.01364
6.924,0.0195
6.928,0.03989
6.932,0.04706
6.936,0.03578
6.94,0.03776
6.944,0.02622
6.948,0.06476
6.952,0.04171
6.956,0.04519
6.96,0.04481
6.964,0.07486
6.968,0.04437
6.972,0.02365
6.976,0.05325
6.98,0.06211
6.984,0.05436
6.988,0.0772
6.992,0.07746
6.996,0.07629
7.0,0.10716
7.004,0.0938
7.008,0.10136
7.012,0.12463
7.016,0.15986
7.02,0.14464
7.024,0.1627
7.028,0.17385
7.032,0.18006
7.036,0.18955
7.04,0.16377
7.044,0.14705
7.048,0.23848
7.052,0.23644
7.056,0.22235
7.06,0.25652
7.064,0.24577
7.068,0.25801
7.072,0.25896
7.076,0.23937
7.08,0.23374
7.084,0.2592
7.088,0.24043
7.092,0.2069
7.096,0.22609
7.1,0.18924
7.104,0.21668
7.108,0.19367
7.112,0.18235
7.116,0.16114
7.12,0.16546
7.124,0.12267
7.128,0.1339
7.132,0.11473
7.136,0.09392
7.14,0.08846
7.144,0.09788
7.148,0.09108
7.152,0.0749
7.156,0.04498
7.16,0.0386
7.164,0.06467
7.168,0.0259
7.172,0.03626
7.176,0.03051
7.18,0.01274
7.184,0.02534
7.188,0.05198
7.192,0.04538
7.196,-0.00167
7.2,-0.02535
7.204,0.04235
7.208,0.01714
7.212,0.0334
7.216,0.0447
7.22,0.05072
7.224,0.04396
7.228,0.01575
7.232,-0.01249
7.236,0.03381
7.24,0.01005
7.244,0.04038
7.248,0.01081
7.252,0.01931
7.256,0.01782
7.26,0.02183
7.264,0.03813
7.268,0.05001
7.272,0.0146
7.276,0.06713
7.28,0.00017
7.284,0.02054
7.288,0.01102
7.292,0.01347
7.296,0.02567
7.3,0.04159
7.304,0.02298
7.308,0.03447
7.312,0.0218
7.316,0.01084
7.32,0.05918
7.324,0.05363
7.328,-0.00682
7.332,0.03766
7.336,0.01295
7.34,0.00734
7.344,0.02648
7.348,0.00677
7.352,0.02453
7.356,0.03704
7.36,0.01806
7.364,0.02517
7.368,0.01145
7.372,0.0183
7.376,0.0287
7.38,0.03987
7.384,0.03559
7.388,0.02296
7.392,0.03953
7.396,0.04763
7.4,0.02405
7.404,0.00438
7.408,0.02432
7.412,0.01211
7.416,0.03404
7.42,0.00108
7.424,0.02163
7.428,0.02338
7.432,0.01851
7.436,0.03948
7.44,0.03905
7.444,0.00906
7.448,0.01869
7.452,0.02402
7.456,0.04635
7.46,0.0126
7.464,0.03164
7.468,0.00995
7.472,0.02731
7.476,0.04226
7.48,-0.00535
7.484,0.0479
7.488,0.03257
7.492,0.01793
7.496,0.03059
7.5,-0.0
7.504,0.01546
7.508,0.00608
7.512,0.03249
7.516,0.04123
7.52,0.01047
7.524,0.03158
7.528,0.02201
7.532,0.01521
7.536,0.0496
7.54,0.00805
7.544,0.01404
7.548,0.01368
7.552,0.02377
7.556,-0.00077
7.56,0.02506
7.564,-0.02279
7.568,0.01004
7.572,0.00822
7.576,0.00969
7.58,0.00615
7.584,0.00574
7.588,0.00472
7.592,0.00639
7.596,0.00677
7.6,0.01927
7.604,0.02991
7.608,0.00539
7.612,-0.02242
7.616,0.03946
7.62,-0.00867
7.624,0.00477
7.628,0.02635
7.632,0.01641
7.636,0.01625
7.64,0.02779
7.644,0.03162
7.648,-0.00181
7.652,0.02313
7.656,0.0204
7.66,0.00682
7.664,0.03037
7.668,0.0244
7.672,0.02347
7.676,0.02388
7.68,0.0183
7.684,0.00937
7.688,0.03244
7.692,0.0128
7.696,0.01362
7.7,0.04955
7.704,0.00982
7.708,0.00581
7.712,0.02683
7.716,0.00488
7.72,-0.00934
7.724,0.02692
7.728,0.00282
7.732,0.00587
7.736,0.0219
7.74,0.03996
7.744,0.02573
7.748,0.01698
7.752,0.00974
7.756,0.00889
7.76,0.01295
7.764,0.01849
7.768,0.02117
7.772,-0.0043
7.776,0.04554
7.78,0.01817
7.784,0.01169
7.788,0.02199
7.792,0.04392
7.796,0.0299
7.8,0.06566
7.804,0.08103
7.808,0.09109
7.812,0.118
7.816,0.14448
7.82,0.08995
7.824,0.13366
7.828,0.11348
7.832,0.11313
7.836,0.10637
7.84,0.07132
7.844,0.09361
7.848,0.06413
7.852,0.05225
7.856,0.03347
7.86,0.01233
7.864,0.02654
7.868,0.03075
7.872,0.01291
7.876,0.04498
7.88,-0.00046
7.884,0.01095
7.888,0.0196
7.892,0.00562
7.896,0.01452
7.9,0.0051
7.904,0.01135
7.908,-0.00511
7.912,0.03549
7.916,0.02293
7.92,-0.00526
7.924,0.03234
7.928,0.00298
7.932,0.03146
7.936,0.00099
7.94,-0.02148
7.944,-0.08184
7.948,-0.09001
7.952,-0.12042
7.956,-0.06436
7.96,0.06535
7.964,0.15038
7.968,0.36749
7.972,0.61362
7.976,0.80945
7.98,0.95366
7.984,0.99247
7.988,0.9603
7.992,0.7883
7.996,0.57297
8.0,0.33458
8.004,0.11832
8.008,0.00592
8.012,-0.13451
8.016,-0.15084
8.02,-0.17579
8.024,-0.12968
8.028,-0.08646
8.032,-0.03979
8.036,-0.02125
8.04,-0.01609
8.044,-0.01771
8.048,0.00356
8.052,0.00057
8.056,0.01352
8.06,0.01989
8.064,-0.00859
8.068,0.02789
8.072,0.01327
8.076,0.03071
8.08,0.04063
8.084,-0.01097
8.088,0.02343
8.092,0.01771
8.096,-0.01244
8.1,-0.00229
8.104,0.03869
8.108,0.00102
8.112,-0.01212
8.116,0.03824
8.12,0.00702
8.124,-0.01061
8.128,0.00881
8.132,0.00045
8.136,-0.00448
8.14,-0.00116
8.144,0.00453
8.148,0.0229
8.152,0.00803
8.156,0.01372
8.16,0.00606
8.164,0.02325
8.168,0.02619
8.172,0.03292
8.176,0.0299
8.18,0.03407
8.184,0.02593
8.188,0.05329
8.192,0.07909
8.196,0.06277
8.2,0.07929
8.204,0.06784
8.208,0.09962
8.212,0.11003
8.216,0.12622
8.22,0.12182
8.224,0.13001
8.228,0.14305
8.232,0.15477
8.236,0.2112
8.24,0.17465
8.244,0.18436
8.248,0.19748
8.252,0.20411
8.256,0.22403
8.26,0.24638
8.264,0.21315
8.268,0.19271
8.272,0.22805
8.276,0.21508
8.28,0.2086
8.284,0.20722
8.288,0.20293
8.292,0.14382
8.296,0.16475
8.3,0.17452
8.304,0.16647
8.308,0.13101
8.312,0.12243
8.316,0.11308
8.32,0.12026
8.324,0.10617
8.328,0.07732
8.332,0.05084
8.336,0.05884
8.34,0.06829
8.344,0.044
8.348,0.03845
8.352,0.02774
8.356,0.00464
8.36,0.01825
8.364,0.01782
8.368,0.03424
8.372,0.03089
8.376,0.01036
8.38,-0.009
8.384,-0.01221
8.388,0.00778
8.392,-0.00612
8.396,-0.01062
8.4,-0.02378
8.404,0.01476
8.408,-0.00011
8.412,0.00749
8.416,-0.01919
8.42,-0.0015
8.424,0.00111
8.428,0.00072
8.432,-0.0153
8.436,-0.03577
8.44,0.01463
8.444,0.01048
8.448,0.00075
8.452,-0.01333
8.456,-0.00253
8.46,0.01586
8.464,0.01089
8.468,0.01646
8.472,-0.01192
8.476,-0.01396
8.48,-0.01666
8.484,-0.00369
8.488,-0.00124
8.492,-0.01083
8.496,-0.02411
8.5,-0.0046
8.504,-0.00578
8.508,-0.0087
8.512,-0.00998
8.516,-0.01758
8.52,0.01047
8.524,0.00276
8.528,-0.00853
8.532,-0.02305
8.536,-0.01093
8.54,-0.00464
8.544,-0.00751
8.548,-0.01223
8.552,-0.00361
8.556,-0.00717
8.56,-0.041
8.564,0.00202
8.568,0.02753
8.572,-0.02431
8.576,0.00544
8.58,-0.00229
8.584,-0.03978
8.588,-0.00461
8.592,-0.01304
8.596,-0.01394
8.6,-0.01781
8.604,-0.02113
8.608,0.01151
8.612,-0.02823
8.616,-0.01465
8.62,0.00413
8.624,-0.02163
8.628,-0.01967
8.632,-0.02085
8.636,-0.01338
8.64,0.01464
8.644,-0.00357
8.648,-0.014
8.652,0.01028
8.656,0.03493
8.66,0.03053
8.664,0.04235
8.668,0.05195
8.672,0.0898
8.676,0.06462
8.68,0.09513
8.684,0.04654
8.688,0.08161
8.692,0.07798
8.696,0.07607
8.7,0.07098
8.704,0.06283
8.708,0.08002
8.712,0.03323
8.716,0.00411
8.72,0.03036
8.724,0.01292
8.728,0.01956
8.732,0.01057
8.736,-0.03307
8.74,-0.01419
8.744,-0.01002
8.748,-0.00032
8.752,0.00494
8.756,-0.0009
8.76,-0.04662
8.764,0.00414
8.768,-0.00446
8.772,0.00456
8.776,-0.02819
8.78,-0.01255
8.784,-0.02257
8.788,-0.0028
8.792,-0.0376
8.796,0.00033
8.8,-0.04895
8.804,-0.04358
8.808,-0.10707
8.812,-0.12537
8.816,-0.11134
8.82,-0.05003
8.824,0.05637
8.828,0.28406
8.832,0.47415
8.836,0.68199
8.84,0.83453
8.844,0.96921
8.848,0.9783
8.852,0.84442
8.856,0.63122
8.86,0.39622
8.864,0.20893
8.868,0.00842
8.872,-0.118
8.876,-0.17128
8.88,-0.16924
8.884,-0.15818
8.888,-0.11354
8.892,-0.07224
8.896,-0.03367
8.9,-0.03024
8.904,-0.00872
8.908,0.00798
8.912,-0.012
8.916,0.00572
8.92,-0.03244
8.924,-0.00372
8.928,-0.0493
8.932,-0.02134
8.936,-0.01937
8.94,-0.01112
8.944,-0.01139
8.948,-0.03303
8.952,-0.00627
8.956,-0.04844
8.96,-0.02634
8.964,-0.01639
8.968,-0.00013
8.972,-0.01742
8.976,-0.02822
8.98,-0.02323
8.984,-0.00463
8.988,-0.0262
8.992,-0.01846
8.996,-0.02247
9.0,-0.00697
9.004,-0.0226
9.008,-0.00105
9.012,-0.02192
9.016,-0.02316
9.02,-0.00805
9.024,0.00641
9.028,-0.01182
9.032,0.00041
9.036,0.01816
9.04,0.0242
9.044,0.00345
9.048,0.04149
9.052,0.01905
9.056,0.05955
9.06,0.07484
9.064,0.06039
9.068,0.0867
9.072,0.08
9.076,0.08996
9.08,0.11178
9.084,0.14006
9.088,0.11515
9.092,0.15425
9.096,0.1429
9.1,0.17089
9.104,0.16385
9.108,0.20154
9.112,0.17937
9.116,0.1895
9.12,0.18874
9.124,0.18802
9.128,0.19537
9.132,0.17658
9.136,0.20121
9.14,0.17721
9.144,0.17648
9.148,0.19253
9.152,0.18889
9.156,0.13524
9.16,0.14649
9.164,0.11596
9.168,0.14463
9.172,0.1153
9.176,0.10469
9.18,0.08894
9.184,0.05266
9.188,0.05756
9.192,0.05405
9.196,0.02544
9.2,0.04403
9.204,0.0083
9.208,0.01432
9.212,0.00727
9.216,-0.01865
9.22,0.01672
9.224,0.00184
9.228,0.02097
9.232,0.00837
9.236,-0.04028
9.24,-0.001
9.244,-0.00925
9.248,0.00974
9.252,-0.03002
9.256,0.00054
9.26,-0.01525
9.264,-0.02583
9.268,-0.02545
9.272,-0.03877
9.276,0.0003
9.28,-0.01425
9.284,-0.03396
9.288,-0.01212
9.292,-0.01996
9.296,-0.02544
9.3,-0.03423
9.304,-0.02735
9.308,-0.01106
9.312,-0.03
9.316,-0.04059
9.32,-0.00534
9.324,-0.04168
9.328,-0.03232
9.332,-0.03642
9.336,-0.00909
9.34,-0.052
9.344,-0.03693
9.348,0.01506
9.352,-0.0267
9.356,-0.01782
9.36,-0.03935
9.364,-0.05326
9.368,-0.05096
9.372,-0.04174
9.376,-0.03439
9.38,-0.04192
9.384,-0.05146
9.388,-0.0462
9.392,-0.03852
9.396,-0.04458
9.4,-0.03488
9.404,0.00748
9.408,-0.02685
9.412,-0.01658
9.416,-0.02135
9.42,-0.02313
9.424,-0.04527
9.428,-0.00916
9.432,-0.02278
9.436,-0.04287
9.44,-0.03584
9.444,-0.03752
9.448,-0.0038
9.452,-0.03282
9.456,-0.03341
9.46,-0.0232
9.464,-0.00732
9.468,-0.03318
9.472,-0.03349
9.476,-0.03103
9.48,-0.00739
9.484,-0.03525
9.488,-0.01631
9.492,-0.0461
9.496,-0.01038
9.5,-0.01749
9.504,-0.04944
9.508,-0.03429
9.512,-0.03414
9.516,-0.03667
9.52,-0.03098
9.524,-0.01586
9.528,-0.0165
9.532,-0.04015
9.536,-0.04369
9.54,-0.027
9.544,-0.01168
9.548,-0.02595
9.552,-0.0209
9.556,-0.01065
9.56,0.02237
9.564,-0.03618
9.568,-0.03945
9.572,-0.02633
9.576,-0.03112
9.58,-0.02449
9.584,-0.02968
9.588,-0.02483
9.592,-0.04727
9.596,-0.0326
9.6,-0.04844
9.604,-0.03486
9.608,-0.01688
9.612,-0.00079
9.616,-0.00613
9.62,-0.00913
9.624,-0.03043
9.628,0.01978
9.632,-0.00783
9.636,0.00801
9.64,0.0603
9.644,0.03159
9.648,0.03743
9.652,0.0663
9.656,0.06434
9.66,0.07106
9.664,0.05971
9.668,0.07
9.672,0.0334
9.676,0.03434
9.68,0.04455
9.684,-0.01387
9.688,0.01678
9.692,0.00439
9.696,-0.02288
9.7,-0.04507
9.704,-0.02139
9.708,0.0079
9.712,-0.0315
9.716,-0.04536
9.72,-0.0685
9.724,-0.02934
9.728,-0.03829
9.732,-0.05966
9.736,-0.05628
9.74,-0.03057
9.744,-0.03886
9.748,-0.01287
9.752,-0.03332
9.756,-0.03065
9.76,-0.02107
9.764,-0.03308
9.768,-0.03542
9.772,-0.04991
9.776,-0.07024
9.78,-0.12142
9.784,-0.11769
9.788,-0.12013
9.792,-0.06907
9.796,0.03121
9.8,0.20154
9.804,0.43194
9.808,0.64413
9.812,0.83083
9.816,0.95992
9.82,0.95638
9.824,0.85629
9.828,0.66329
9.832,0.48016
9.836,0.23248
9.84,0.05129
9.844,-0.127
9.848,-0.1716
9.852,-0.18517
9.856,-0.17567
9.86,-0.13678
9.864,-0.07805
9.868,-0.06362
9.872,-0.02634
9.876,-0.05648
9.88,-0.00156
9.884,-0.0245
9.888,-0.05567
9.892,-0.02334
9.896,-0.03262
9.9,-0.03888
9.904,-0.0329
9.908,-0.05599
9.912,-0.02744
9.916,-0.03435
9.92,-0.0513
9.924,-0.02379
9.928,-0.04806
9.932,-0.0253
9.936,-0.0187
9.94,-0.01221
9.944,-0.04034
9.948,-0.02252
9.952,-0.03129
9.956,-0.00609
9.96,-0.03378
9.964,-0.04802
9.968,-0.03937
9.972,-0.03185
9.976,-0.04698
9.98,-0.01748
9.984,-0.02899
9.988,-0.03019
9.992,0.00073
9.996,-0.00667
