t_seg,ecg_mV
0.0,-0.00779
0.004,-0.02243
0.008,0.01194
0.012,0.00813
0.016,0.02946
0.02,0.04527
0.024,0.03541
0.028,0.07757
0.032,0.05126
0.036,0.08271
0.04,0.07892
0.044,0.06229
0.048,0.07546
0.052,0.03765
0.056,0.01476
0.06,0.02348
0.064,-0.00241
0.068,0.00023
0.072,-0.00327
0.076,0.00863
0.08,-0.02281
0.084,-0.02156
0.088,-0.01578
0.092,-0.01542
0.096,-0.0301
0.1,-0.01538
0.104,-0.04433
0.108,-0.03738
0.112,-0.0399
0.116,-0.0344
0.12,-0.02063
0.124,-0.02933
0.128,-0.01533
0.132,-0.04989
0.136,-0.0382
0.14,-0.01872
0.144,-0.03361
0.148,-0.04263
0.152,-0.0808
0.156,-0.07123
0.16,-0.13517
0.164,-0.13931
0.168,-0.14546
0.172,-0.06
0.176,0.11012
0.18,0.25827
0.184,0.47203
0.188,0.69446
0.192,0.84325
0.196,0.96148
0.2,0.94446
0.204,0.81577
0.208,0.60833
0.212,0.38905
0.216,0.16046
0.22,-0.0143
0.224,-0.14306
0.228,-0.18108
0.232,-0.19979
0.236,-0.14835
0.24,-0.13127
0.244,-0.08385
0.248,-0.06369
0.252,-0.03236
0.256,-0.01576
0.26,-0.01882
0.264,-0.00552
0.268,-0.02122
0.272,-0.05199
0.276,-0.02595
0.28,-0.01356
0.284,-0.01854
0.288,-0.02746
0.292,-0.02643
0.296,-0.02672
0.3,-0.05482
0.304,-0.04078
0.308,-0.02041
0.312,-0.01092
0.316,-0.03991
0.32,-0.03644
0.324,-0.02207
0.328,-0.02157
0.332,-0.03032
0.336,-0.03877
0.34,-0.01503
0.344,-0.01222
0.348,-0.04561
0.352,-0.04568
0.356,-0.01461
0.36,-0.01856
0.364,-0.03252
0.368,-0.02084
0.372,-0.01211
0.376,0.00475
0.38,0.00136
0.384,0.00649
0.388,0.01255
0.392,0.01049
0.396,0.01547
0.4,0.02082
0.404,0.04048
0.408,0.03165
0.412,0.02881
0.416,0.0736
0.42,0.07955
0.424,0.11624
0.428,0.1055
0.432,0.10038
0.436,0.10938
0.44,0.15643
0.444,0.15207
0.448,0.1286
0.452,0.15169
0.456,0.16836
0.46,0.19335
0.464,0.17485
0.468,0.15535
0.472,0.20089
0.476,0.17161
0.48,0.18828
0.484,0.16521
0.488,0.17968
0.492,0.18177
0.496,0.1479
0.5,0.15211
0.504,0.16325
0.508,0.14091
0.512,0.14854
0.516,0.11695
0.52,0.09729
0.524,0.08571
0.528,0.09897
0.532,0.09407
0.536,0.07131
0.54,0.06981
0.544,0.06008
0.548,0.01861
0.552,0.01673
0.556,0.02086
0.56,0.01811
0.564,0.01161
0.568,0.00218
0.572,-0.00983
0.576,-0.00366
0.58,-0.00718
0.584,-0.01582
0.588,-0.0053
0.592,-0.02035
0.596,-0.01943
0.6,-0.01543
0.604,-0.02953
0.608,0.00114
0.612,-0.03614
0.616,-0.01556
0.62,-0.04385
0.624,-0.02578
0.628,-0.0373
0.632,-0.03179
0.636,0.0011
0.64,-0.02962
0.644,-0.02041
0.648,-0.03235
0.652,9e-05
0.656,0.01717
0.66,-0.03945
0.664,-0.04714
0.668,-0.03659
0.672,-0.00612
0.676,-0.02514
0.68,-0.05504
0.684,-0.04243
0.688,-0.02013
0.692,-0.02555
0.696,-0.00235
0.7,-0.02075
0.704,-0.02858
0.708,-0.03175
0.712,-0.03398
0.716,-0.03918
0.72,-0.0263
0.724,-0.0105
0.728,-0.03351
0.732,-0.02774
0.736,-0.01965
0.74,-0.00368
0.744,-0.01998
0.748,-0.01985
0.752,-0.01203
0.756,-0.01985
0.76,-0.01949
0.764,-0.02727
0.768,-0.00277
0.772,-0.0184
0.776,-0.03154
0.78,-0.01344
0.784,-0.01952
0.788,-0.0442
0.792,-0.01758
0.796,-0.03107
0.8,-0.02511
0.804,-0.00938
0.808,-0.00584
0.812,-0.00825
0.816,-0.01258
0.82,0.00626
0.824,-0.02428
0.828,0.01984
0.832,0.01767
0.836,0.005
0.84,0.00174
0.844,0.03849
0.848,0.04832
0.852,0.04757
0.856,0.05949
0.86,0.08489
0.864,0.08777
0.868,0.07724
0.872,0.08162
0.876,0.0664
0.88,0.03568
0.884,0.02954
0.888,0.03598
0.892,0.01734
0.896,0.01446
0.9,0.01354
0.904,-0.01917
0.908,-0.02859
0.912,-0.00668
0.916,-0.01516
0.92,-0.01301
0.924,-0.01262
0.928,0.03203
0.932,-0.01663
0.936,-0.01505
0.94,-0.02202
0.944,-0.02671
0.948,-0.02842
0.952,-0.00076
0.956,-0.00465
0.96,-0.0346
0.964,-0.04625
0.968,-0.00425
0.972,-0.00467
0.976,-0.02988
0.98,-0.03984
0.984,-0.0695
0.988,-0.11994
0.992,-0.1498
0.996,-0.10796
1.0,-0.0157
1.004,0.11653
1.008,0.32094
1.012,0.51956
1.016,0.71535
1.02,0.9026
1.024,0.9735
1.028,0.9394
1.032,0.83049
1.036,0.62523
1.04,0.373
1.044,0.16021
1.048,-0.00874
1.052,-0.1483
1.056,-0.18253
1.06,-0.19426
1.064,-0.14748
1.068,-0.11418
1.072,-0.05534
1.076,-0.06751
1.08,0.00555
1.084,-0.04841
1.088,0.00896
1.092,-0.01478
1.096,-0.02468
1.1,0.026
1.104,-0.01824
1.108,-0.01153
1.112,-0.03319
1.116,-0.02214
1.12,-0.02157
1.124,-0.0053
1.128,-0.00649
1.132,0.0061
1.136,-0.01557
1.14,-0.01579
1.144,-0.04107
1.148,0.00141
1.152,-0.02587
1.156,-0.02988
1.16,0.01429
1.164,-0.02168
1.168,-0.03079
1.172,-0.02146
1.176,-0.01804
1.18,-0.01834
1.184,0.00244
1.188,-0.00597
1.192,0.01789
1.196,0.00561
1.2,0.01312
1.204,-0.02225
1.208,-0.00292
1.212,0.01771
1.216,0.0128
1.22,0.02217
1.224,0.03039
1.228,0.04841
1.232,0.04551
1.236,0.05074
1.24,0.05427
1.244,0.08316
1.248,0.098
1.252,0.10129
1.256,0.10246
1.26,0.11588
1.264,0.15433
1.268,0.15251
1.272,0.15588
1.276,0.17017
1.28,0.18206
1.284,0.19605
1.288,0.20398
1.292,0.16973
1.296,0.19439
1.3,0.21322
1.304,0.21365
1.308,0.20123
1.312,0.21682
1.316,0.20388
1.32,0.2001
1.324,0.17867
1.328,0.19946
1.332,0.19641
1.336,0.16548
1.34,0.16569
1.344,0.13358
1.348,0.12735
1.352,0.09879
1.356,0.0954
1.36,0.09932
1.364,0.06678
1.368,0.09187
1.372,0.08105
1.376,0.05546
1.38,0.06243
1.384,0.03022
1.388,0.02061
1.392,0.00458
1.396,0.02746
1.4,0.01266
1.404,0.04265
1.408,0.02979
1.412,0.01027
1.416,0.0048
1.42,0.00939
1.424,-0.01871
1.428,0.00395
1.432,0.02537
1.436,-0.00489
1.44,-0.01382
1.444,0.00607
1.448,-0.00932
1.452,-0.00084
1.456,-0.00366
1.46,-0.00875
1.464,-0.0019
1.468,-0.00744
1.472,0.01341
1.476,-0.02133
1.48,0.02162
1.484,-0.00556
1.488,0.03111
1.492,9e-05
1.496,-0.00196
1.5,0.01774
1.504,-0.01228
1.508,-0.02508
1.512,-0.02129
1.516,0.00401
1.52,-0.00447
1.524,0.01786
1.528,-0.00466
1.532,-0.00924
1.536,0.03713
1.54,0.01092
1.544,-0.01907
1.548,0.01102
1.552,-0.00709
1.556,0.00994
1.56,0.01784
1.564,-0.00323
1.568,-0.03163
1.572,0.00716
1.576,0.00973
1.58,-0.00584
1.584,-0.01417
1.588,-0.00811
1.592,-0.01148
1.596,0.00134
1.6,0.01587
1.604,0.03789
1.608,0.04354
1.612,0.05037
1.616,0.06304
1.62,0.07769
1.624,0.09925
1.628,0.10663
1.632,0.09691
1.636,0.09694
1.64,0.09524
1.644,0.07628
1.648,0.03927
1.652,0.09327
1.656,0.07067
1.66,0.05133
1.664,0.04555
1.668,0.02908
1.672,0.02995
1.676,0.01431
1.68,-0.01571
1.684,-0.00644
1.688,0.01311
1.692,0.02538
1.696,-0.0094
1.7,0.02266
1.704,0.00298
1.708,-0.01849
1.712,0.00497
1.716,-0.00304
1.72,0.03215
1.724,0.00774
1.728,0.00793
1.732,0.02538
1.736,0.02356
1.74,-0.00102
1.744,-0.01111
1.748,-0.01498
1.752,-0.03086
1.756,-0.08071
1.76,-0.10911
1.764,-0.08503
1.768,-0.01209
1.772,0.09505
1.776,0.26605
1.78,0.47907
1.784,0.69451
1.788,0.89308
1.792,0.98752
1.796,0.97997
1.8,0.88991
1.804,0.70164
1.808,0.44395
1.812,0.25402
1.816,0.05849
1.82,-0.08834
1.824,-0.15507
1.828,-0.1601
1.832,-0.12714
1.836,-0.08357
1.84,-0.05356
1.844,-0.01341
1.848,-0.01997
1.852,-0.02077
1.856,0.03199
1.86,0.00043
1.864,-0.00252
1.868,0.01585
1.872,-0.01155
1.876,0.01903
1.88,0.00236
1.884,-0.00273
1.888,-0.00822
1.892,-0.00436
1.896,-0.01964
1.9,0.01713
1.904,0.01351
1.908,0.01552
1.912,0.01382
1.916,0.01363
1.92,0.02237
1.924,-0.00103
1.928,0.03013
1.932,0.01224
1.936,0.01173
1.94,0.00394
1.944,-0.00903
1.948,0.01812
1.952,0.0157
1.956,0.01457
1.96,0.00911
1.964,-0.00998
1.968,0.01659
1.972,0.02294
1.976,0.03614
1.98,0.05048
1.984,0.02469
1.988,0.01962
1.992,0.06677
1.996,0.07032
2.0,0.06136
2.004,0.07623
2.008,0.06976
2.012,0.09901
2.016,0.12868
2.02,0.11814
2.024,0.10767
2.028,0.14366
2.032,0.16163
2.036,0.20137
2.04,0.19286
2.044,0.19041
2.048,0.20592
2.052,0.18618
2.056,0.21752
2.06,0.21035
2.064,0.22483
2.068,0.23263
2.072,0.25031
2.076,0.19542
2.08,0.24053
2.084,0.24104
2.088,0.20827
2.092,0.21853
2.096,0.19133
2.1,0.23048
2.104,0.19019
2.108,0.20264
2.112,0.19098
2.116,0.13226
2.12,0.13642
2.124,0.11682
2.128,0.11574
2.132,0.11372
2.136,0.1116
2.14,0.08798
2.144,0.08397
2.148,0.06543
2.152,0.06353
2.156,0.0401
2.16,0.06048
2.164,0.06615
2.168,0.02883
2.172,0.02498
2.176,0.01338
2.18,0.03089
2.184,-0.00812
2.188,0.01529
2.192,0.01242
2.196,0.03889
2.2,0.05311
2.204,0.02933
2.208,0.01792
2.212,0.03313
2.216,0.02674
2.22,0.01645
2.224,0.02353
2.228,0.02958
2.232,0.00337
2.236,0.01945
2.24,0.02249
2.244,0.03625
2.248,0.00647
2.252,0.01704
2.256,0.01388
2.26,0.02019
2.264,0.02147
2.268,0.05154
2.272,0.03331
2.276,0.00965
2.28,0.02479
2.284,0.02102
2.288,0.01957
2.292,0.05149
2.296,0.0193
2.3,0.04154
2.304,-0.00659
2.308,0.01762
2.312,-0.0095
2.316,0.04165
2.32,0.04566
2.324,0.00166
2.328,0.03739
2.332,0.03646
2.336,-8e-05
2.34,0.0361
2.344,0.02084
2.348,0.01331
2.352,0.01323
2.356,0.01738
2.36,0.00523
2.364,0.03499
2.368,0.02103
2.372,0.06256
2.376,0.05981
2.38,0.03248
2.384,0.05915
2.388,0.08753
2.392,0.10911
2.396,0.11317
2.4,0.11592
2.404,0.14211
2.408,0.12974
2.412,0.12025
2.416,0.11327
2.42,0.11432
2.424,0.09966
2.428,0.07681
2.432,0.0551
2.436,0.07104
2.44,0.07246
2.444,0.03051
2.448,0.03467
2.452,0.04389
2.456,0.02901
2.46,0.03672
2.464,0.0444
2.468,0.00758
2.472,0.0111
2.476,-0.00143
2.48,0.03377
2.484,0.0229
2.488,0.00071
2.492,0.04895
2.496,0.03495
2.5,-0.0095
2.504,0.01646
2.508,0.02837
2.512,0.0391
2.516,0.01528
2.52,-0.00991
2.524,-0.01279
2.528,-0.09155
2.532,-0.10388
2.536,-0.08777
2.54,-0.003
2.544,0.14737
2.548,0.34673
2.552,0.57067
2.556,0.75757
2.56,0.94227
2.564,1.03643
2.568,0.98574
2.572,0.86317
2.576,0.66238
2.58,0.41318
2.584,0.18522
2.588,0.0316
2.592,-0.0899
2.596,-0.15391
2.6,-0.12348
2.604,-0.1136
2.608,-0.05535
2.612,-0.0031
2.616,-0.00047
2.62,0.01195
2.624,0.02393
2.628,0.02648
2.632,0.01749
2.636,0.01122
2.64,-0.00125
2.644,0.03706
2.648,0.03036
2.652,0.01626
2.656,0.00108
2.66,0.03582
2.664,0.02417
2.668,0.01945
2.672,0.0445
2.676,0.02045
2.68,0.03751
2.684,0.01919
2.688,0.03715
2.692,0.02447
2.696,0.01351
2.7,0.03775
2.704,0.03253
2.708,0.03441
2.712,0.03678
2.716,0.03833
2.72,0.02598
2.724,0.02691
2.728,0.03765
2.732,0.02426
2.736,0.0354
2.74,0.04948
2.744,0.01825
2.748,0.03976
2.752,0.0385
2.756,0.02875
2.76,0.06485
2.764,0.07
2.768,0.09108
2.772,0.05591
2.776,0.08338
2.78,0.10263
2.784,0.11999
2.788,0.14365
2.792,0.11169
2.796,0.15339
2.8,0.17189
2.804,0.16587
2.808,0.17838
2.812,0.18986
2.816,0.19148
2.82,0.20189
2.824,0.22414
2.828,0.2543
2.832,0.22761
2.836,0.24894
2.84,0.25114
2.844,0.23508
2.848,0.24634
2.852,0.23597
2.856,0.25785
2.86,0.2433
2.864,0.2122
2.868,0.24291
2.872,0.19471
2.876,0.18432
2.88,0.19346
2.884,0.15221
2.888,0.12504
2.892,0.17131
2.896,0.14408
2.9,0.11879
2.904,0.13447
2.908,0.08688
2.912,0.10927
2.916,0.10141
2.92,0.07628
2.924,0.07508
2.928,0.0458
2.932,0.06577
2.936,0.04456
2.94,0.03718
2.944,0.04523
2.948,0.05381
2.952,0.04058
2.956,0.05365
2.96,0.04149
2.964,0.05171
2.968,0.05414
2.972,0.05008
2.976,0.01462
2.98,0.05372
2.984,0.02057
2.988,0.0106
2.992,0.00993
2.996,0.05202
3.0,0.02289
3.004,0.0011
3.008,0.04018
3.012,0.04545
3.016,0.02032
3.02,0.01897
3.024,0.03316
3.028,0.02007
3.032,0.03527
3.036,0.02452
3.04,0.05064
3.044,0.04265
3.048,0.02972
3.052,0.01199
3.056,0.02904
3.06,0.03581
3.064,0.02889
3.068,0.02482
3.072,0.03922
3.076,0.01627
3.08,0.01473
3.084,0.0285
3.088,0.00361
3.092,0.03515
3.096,0.01135
3.1,0.02505
3.104,0.02449
3.108,-0.00257
3.112,0.01822
3.116,0.0397
3.12,0.0128
3.124,0.04254
3.128,0.02025
3.132,0.03366
3.136,0.04332
3.14,0.0173
3.144,-0.01082
3.148,0.03414
3.152,0.06436
3.156,0.04655
3.16,0.02217
3.164,0.03425
3.168,0.04405
3.172,0.03144
3.176,0.03116
3.18,0.04326
3.184,0.025
3.188,0.03499
3.192,0.03242
3.196,0.04349
3.2,0.05451
3.204,0.07729
3.208,0.11582
3.212,0.07903
3.216,0.09983
3.22,0.14182
3.224,0.13858
3.228,0.08998
3.232,0.12186
3.236,0.13218
3.24,0.13383
3.244,0.09922
3.248,0.09052
3.252,0.08859
3.256,0.09037
3.26,0.0951
3.264,0.04413
3.268,0.0347
3.272,0.06585
3.276,0.03561
3.28,0.06653
3.284,0.02007
3.288,0.00642
3.292,0.06012
3.296,0.00844
3.3,0.03833
3.304,0.03581
3.308,0.04064
3.312,0.01035
3.316,0.01915
3.32,0.01898
3.324,0.05386
3.328,0.03187
3.332,0.01771
3.336,0.01367
3.34,0.02464
3.344,-0.02107
3.348,-0.0179
3.352,-0.0253
3.356,-0.079
3.36,-0.08982
3.364,-0.03901
3.368,0.07345
3.372,0.25604
3.376,0.43095
3.38,0.65966
3.384,0.84874
3.388,0.97434
3.392,1.02622
3.396,0.94725
3.4,0.76945
3.404,0.55576
3.408,0.34278
3.412,0.11331
3.416,-0.03175
3.42,-0.11033
3.424,-0.14912
3.428,-0.10315
3.432,-0.09541
3.436,-0.02779
3.44,-0.01146
3.444,0.01491
3.448,0.00931
3.452,0.04773
3.456,0.02087
3.46,0.03029
3.464,0.03437
3.468,0.02861
3.472,0.04458
3.476,0.02583
3.48,0.05124
3.484,0.05058
3.488,0.03707
3.492,-0.00818
3.496,0.02403
3.5,0.0222
3.504,0.04165
3.508,0.00993
3.512,0.02103
3.516,0.03667
3.52,0.02217
3.524,0.02893
3.528,0.07033
3.532,0.02089
3.536,0.02124
3.54,0.03812
3.544,0.02892
3.548,0.01754
3.552,0.06155
3.556,0.0424
3.56,0.03924
3.564,0.04572
3.568,0.04773
3.572,0.07135
3.576,0.07493
3.58,0.06172
3.584,0.06118
3.588,0.06924
3.592,0.10123
3.596,0.0858
3.6,0.10582
3.604,0.10446
3.608,0.09191
3.612,0.11676
3.616,0.13009
3.62,0.16928
3.624,0.18215
3.628,0.16361
3.632,0.19547
3.636,0.18339
3.64,0.2148
3.644,0.21218
3.648,0.2644
3.652,0.20847
3.656,0.22936
3.66,0.24586
3.664,0.24432
3.668,0.21972
3.672,0.24712
3.676,0.24093
3.68,0.25536
3.684,0.2287
3.688,0.23466
3.692,0.21114
3.696,0.22801
3.7,0.20357
3.704,0.19996
3.708,0.19002
3.712,0.18366
3.716,0.15224
3.72,0.16762
3.724,0.11963
3.728,0.12755
3.732,0.13387
3.736,0.11174
3.74,0.08431
3.744,0.07711
3.748,0.08009
3.752,0.06342
3.756,0.07723
3.76,0.03706
3.764,0.06634
3.768,0.05841
3.772,0.03406
3.776,0.05796
3.78,0.0526
3.784,0.02203
3.788,0.03864
3.792,0.0445
3.796,0.01823
3.8,0.03667
3.804,0.0238
3.808,0.0292
3.812,0.02108
3.816,0.01982
3.82,0.024
3.824,0.02008
3.828,0.0198
3.832,0.02877
3.836,0.0215
3.84,0.03051
3.844,0.03151
3.848,0.0165
3.852,0.03395
3.856,0.00961
3.86,0.00597
3.864,-0.01675
3.868,0.05183
3.872,0.02537
3.876,-0.01899
3.88,-0.0003
3.884,0.05509
3.888,0.05389
3.892,0.00579
3.896,0.03447
3.9,0.04133
3.904,0.0357
3.908,0.03222
3.912,0.0139
3.916,0.01657
3.92,0.0122
3.924,0.00121
3.928,0.02194
3.932,0.04391
3.936,0.01806
3.94,0.03625
3.944,0.03284
3.948,0.04635
3.952,0.0247
3.956,0.01876
3.96,0.03517
3.964,0.05422
3.968,0.00989
3.972,0.03573
3.976,0.03967
3.98,0.01842
3.984,0.04694
3.988,0.02106
3.992,0.03831
3.996,0.01376
4.0,0.02336
4.004,0.0345
4.008,0.03973
4.012,0.01694
4.016,0.01703
4.02,0.05591
4.024,0.03739
4.028,0.05803
4.032,0.06072
4.036,0.06746
4.04,0.09386
4.044,0.10036
4.048,0.13152
4.052,0.11113
4.056,0.11901
4.06,0.10566
4.064,0.10929
4.068,0.114
4.072,0.10638
4.076,0.11646
4.08,0.07329
4.084,0.08878
4.088,0.0478
4.092,0.05252
4.096,0.03261
4.1,0.02155
4.104,0.0293
4.108,0.02531
4.112,0.01549
4.116,0.01648
4.12,0.02099
4.124,0.02854
4.128,-0.00389
4.132,0.01166
4.136,0.04315
4.14,0.00561
4.144,-0.00281
4.148,0.01797
4.152,0.0269
4.156,0.00805
4.16,0.00848
4.164,0.01708
4.168,0.03098
4.172,0.02372
4.176,-0.04518
4.18,-0.07196
4.184,-0.09367
4.188,-0.07806
4.192,-0.01616
4.196,0.143
4.2,0.30195
4.204,0.50519
4.208,0.71549
4.212,0.87709
4.216,0.96982
4.22,0.97637
4.224,0.91801
4.228,0.70084
4.232,0.46974
4.236,0.26073
4.24,0.04757
4.244,-0.07518
4.248,-0.13539
4.252,-0.15676
4.256,-0.12259
4.26,-0.09498
4.264,-0.04767
4.268,0.003
4.272,0.00468
4.276,0.00072
4.28,-0.00266
4.284,0.00452
4.288,0.00053
4.292,0.00414
4.296,0.00724
4.3,0.02801
4.304,0.01831
4.308,0.00784
4.312,-0.01779
4.316,0.01587
4.32,0.05036
4.324,0.01071
4.328,0.05357
4.332,0.00762
4.336,0.03108
4.34,0.00281
4.344,0.0103
4.348,0.03089
4.352,0.02066
4.356,0.00977
4.36,0.02363
4.364,0.0003
4.368,-0.01004
4.372,0.01067
4.376,0.00135
4.38,0.02756
4.384,0.01615
4.388,0.01946
4.392,0.03881
4.396,0.02267
4.4,0.03381
4.404,0.04324
4.408,0.01837
4.412,0.03461
4.416,0.06239
4.42,0.06368
4.424,0.09423
4.428,0.10604
4.432,0.09285
4.436,0.07517
4.44,0.10837
4.444,0.11048
4.448,0.11543
4.452,0.1673
4.456,0.15741
4.46,0.15
4.464,0.18289
4.468,0.21708
4.472,0.2161
4.476,0.20479
4.48,0.22766
4.484,0.21664
4.488,0.244
4.492,0.2128
4.496,0.23507
4.5,0.25972
4.504,0.23267
4.508,0.22181
4.512,0.23201
4.516,0.18446
4.52,0.19653
4.524,0.1923
4.528,0.19848
4.532,0.1733
4.536,0.17398
4.54,0.14475
4.544,0.13271
4.548,0.11834
4.552,0.13094
4.556,0.07726
4.56,0.10079
4.564,0.09132
4.568,0.06127
4.572,0.08729
4.576,0.06633
4.58,0.03956
4.584,0.07928
4.588,0.0621
4.592,0.02942
4.596,0.00259
4.6,0.01411
4.604,0.02331
4.608,-0.0019
4.612,0.01449
4.616,0.05447
4.62,0.00079
4.624,0.00473
4.628,0.02438
4.632,0.01416
4.636,-0.00239
4.64,-0.01464
4.644,0.03422
4.648,0.01978
4.652,0.0392
4.656,0.01627
4.66,0.01124
4.664,0.00801
4.668,0.03316
4.672,0.01903
4.676,-0.01038
4.68,0.01422
4.684,0.00169
4.688,-0.00458
4.692,0.01071
4.696,0.00682
4.7,0.02913
4.704,-6e-05
4.708,0.00885
4.712,0.00172
4.716,0.01577
4.72,-0.00941
4.724,0.00199
4.728,0.01521
4.732,0.00596
4.736,0.02145
4.74,0.01747
4.744,0.02475
4.748,-0.02034
4.752,0.01906
4.756,-0.01477
4.76,0.02185
4.764,-0.00765
4.768,-0.01906
4.772,0.00111
4.776,-0.00167
4.78,0.01491
4.784,0.01257
4.788,-0.0251
4.792,0.01467
4.796,0.01138
4.8,0.00451
4.804,0.00567
4.808,0.00543
4.812,0.00351
4.816,-0.00151
4.82,0.03043
4.824,0.01242
4.828,0.03586
4.832,0.02872
4.836,0.01741
4.84,0.019
4.844,0.04285
4.848,0.06209
4.852,0.05249
4.856,0.07914
4.86,0.07238
4.864,0.08006
4.868,0.10567
4.872,0.0772
4.876,0.09597
4.88,0.0937
4.884,0.09137
4.888,0.09854
4.892,0.05722
4.896,0.05466
4.9,0.03377
4.904,0.0183
4.908,0.0058
4.912,0.03985
4.916,0.00998
4.92,0.00721
4.924,0.00434
4.928,0.00639
4.932,0.01902
4.936,-0.03666
4.94,-0.00295
4.944,-0.01194
4.948,-0.00605
4.952,-0.00849
4.956,-0.01275
4.96,-0.02228
4.964,-0.013
4.968,0.01259
4.972,-0.00602
4.976,-0.01046
4.98,-0.02317
4.984,-0.02397
4.988,-0.0578
4.992,-0.08802
4.996,-0.10456
5.0,-0.09862
5.004,-0.02424
5.008,0.12127
5.012,0.2936
5.016,0.48751
5.02,0.70801
5.024,0.88827
5.028,0.97716
5.032,0.98415
5.036,0.84723
5.04,0.64641
5.044,0.42582
5.048,0.19305
5.052,0.01176
5.056,-0.12156
5.06,-0.16618
5.064,-0.17507
5.068,-0.12278
5.072,-0.08965
5.076,-0.07107
5.08,-0.03338
5.084,-0.01307
5.088,-0.02305
5.092,-0.0062
5.096,-0.01279
5.1,-0.00788
5.104,-0.00167
5.108,0.01161
5.112,-0.01767
5.116,-0.0073
5.12,-0.01207
5.124,-0.00402
5.128,0.00027
5.132,-0.01604
5.136,-0.02414
5.14,0.00749
5.144,-0.00477
5.148,0.00067
5.152,-0.02435
5.156,-0.01674
5.16,0.01089
5.164,-0.00407
5.168,-0.01494
5.172,-0.01523
5.176,-0.00747
5.18,-0.01649
5.184,0.00111
5.188,0.03505
5.192,0.01235
5.196,-0.00011
5.2,-0.01996
5.204,-0.01295
5.208,0.0266
5.212,0.01473
5.216,0.00865
5.22,0.0441
5.224,0.03007
5.228,0.05044
5.232,0.05171
5.236,0.04377
5.24,0.03948
5.244,0.05741
5.248,0.05844
5.252,0.08047
5.256,0.13167
5.26,0.11443
5.264,0.13392
5.268,0.11674
5.272,0.14932
5.276,0.1527
5.28,0.15975
5.284,0.16851
5.288,0.17007
5.292,0.18484
5.296,0.23429
5.3,0.21337
5.304,0.20517
5.308,0.21009
5.312,0.20906
5.316,0.20285
5.32,0.19674
5.324,0.21449
5.328,0.20339
5.332,0.18045
5.336,0.17686
5.34,0.13623
5.344,0.12943
5.348,0.15235
5.352,0.12364
5.356,0.1314
5.36,0.07114
5.364,0.10275
5.368,0.0679
5.372,0.08683
5.376,0.06567
5.38,0.0477
5.384,0.06642
5.388,0.04186
5.392,0.03887
5.396,0.05061
5.4,0.00986
5.404,0.01776
5.408,0.00094
5.412,0.00282
5.416,-0.01001
5.42,0.00628
5.424,-0.01762
5.428,-0.00256
5.432,-0.01139
5.436,-0.01331
5.44,-0.00669
5.444,-0.01492
5.448,-0.0183
5.452,-0.00938
5.456,-0.00679
5.46,-0.0192
5.464,-0.00266
5.468,0.02114
5.472,-0.01792
5.476,-0.00779
5.48,0.00861
5.484,0.04265
5.488,0.02636
5.492,0.03567
5.496,0.03729
5.5,0.07693
5.504,0.05461
5.508,0.07363
5.512,0.09715
5.516,0.0968
5.52,0.09717
5.524,0.08845
5.528,0.05227
5.532,0.06102
5.536,0.04079
5.54,0.02695
5.544,0.01245
5.548,0.03259
5.552,0.00239
5.556,0.00684
5.56,-0.00468
5.564,-0.02802
5.568,0.01165
5.572,-0.00849
5.576,-0.01689
5.58,-0.00997
5.584,-0.04012
5.588,-0.03296
5.592,-0.01452
5.596,-0.02322
5.6,-0.00372
5.604,-0.00431
5.608,-0.0215
5.612,-0.02461
5.616,-0.04889
5.62,-0.01281
5.624,-0.00279
5.628,-0.03135
5.632,-0.05149
5.636,-0.09566
5.64,-0.11839
5.644,-0.13072
5.648,-0.12084
5.652,0.01962
5.656,0.14543
5.66,0.37233
5.664,0.56752
5.668,0.77942
5.672,0.94992
5.676,0.97775
5.68,0.92457
5.684,0.74554
5.688,0.56032
5.692,0.27132
5.696,0.11003
5.7,-0.0534
5.704,-0.15809
5.708,-0.18206
5.712,-0.20103
5.716,-0.12801
5.72,-0.06311
5.724,-0.04937
5.728,-0.0508
5.732,-0.04138
5.736,-0.03019
5.74,-0.01267
5.744,-0.03059
5.748,-0.02056
5.752,-0.00239
5.756,-0.01405
5.76,0.00313
5.764,-0.04126
5.768,-0.01548
5.772,0.00303
5.776,-0.02994
5.78,-0.01264
5.784,-0.01408
5.788,-0.03811
5.792,-0.02998
5.796,0.0049
5.8,-0.02204
5.804,-0.01015
5.808,-0.0128
5.812,-0.03172
5.816,0.00606
5.82,-0.01647
5.824,-7e-05
5.828,-0.01456
5.832,-0.0169
5.836,-0.0099
5.84,-0.01961
5.844,-0.01844
5.848,-0.00795
5.852,-0.00456
5.856,0.00473
5.86,0.00521
5.864,-0.01465
5.868,0.04001
5.872,0.01451
5.876,0.0129
5.88,0.01408
5.884,0.01781
5.888,0.06966
5.892,0.04783
5.896,0.06366
5.9,0.0694
5.904,0.09557
5.908,0.09415
5.912,0.12684
5.916,0.12622
5.92,0.13029
5.924,0.14849
5.928,0.17659
5.932,0.15953
5.936,0.16942
5.94,0.1755
5.944,0.19076
5.948,0.18537
5.952,0.19897
5.956,0.20015
5.96,0.20753
5.964,0.17775
5.968,0.19244
5.972,0.17838
5.976,0.16444
5.98,0.1709
5.984,0.14154
5.988,0.13627
5.992,0.16547
5.996,0.105
6.0,0.11485
6.004,0.1275
6.008,0.08398
6.012,0.07493
6.016,0.04884
6.02,0.06493
6.024,0.04558
6.028,0.03822
6.032,0.03917
6.036,0.04283
6.04,0.0254
6.044,-0.01405
6.048,-0.00535
6.052,-0.00399
6.056,0.01593
6.06,-0.01791
6.064,-0.04021
6.068,-0.00294
6.072,-0.01423
6.076,-0.02511
6.08,-0.0205
6.084,-0.03323
6.088,-0.03093
6.092,-0.02713
6.096,-0.00127
6.1,-0.00626
6.104,-0.01117
6.108,-0.04076
6.112,-0.04912
6.116,-0.00918
6.12,-0.04961
6.124,-0.02663
6.128,-0.04333
6.132,-0.04197
6.136,-0.04636
6.14,-0.0172
6.144,-0.03753
6.148,-0.02418
6.152,-0.02304
6.156,-0.03553
6.16,-0.02889
6.164,-0.0333
6.168,-0.02298
6.172,0.00765
6.176,-0.00902
6.18,-0.0491
6.184,-0.02521
6.188,-0.0301
6.192,-0.05471
6.196,-0.02199
6.2,-0.02411
6.204,0.01251
6.208,-0.02971
6.212,0.02088
6.216,0.01167
6.22,0.03603
6.224,0.02256
6.228,0.05378
6.232,0.06342
6.236,0.07117
6.24,0.04873
6.244,0.06613
6.248,0.04032
6.252,0.06799
6.256,0.07189
6.26,0.04453
6.264,0.03682
6.268,0.02501
6.272,0.01627
6.276,-0.00475
6.28,-0.02036
6.284,-0.00447
6.288,-0.02383
6.292,-0.03542
6.296,-0.03117
6.3,-0.03084
6.304,-0.02049
6.308,-0.01468
6.312,-0.04429
6.316,-0.03081
6.32,-0.05159
6.324,-0.05513
6.328,-0.04062
6.332,-0.01955
6.336,-0.05536
6.34,-0.05138
6.344,-0.0398
6.348,-0.01381
6.352,-0.03218
6.356,-0.08778
6.36,-0.07905
6.364,-0.1374
6.368,-0.16924
6.372,-0.13428
6.376,-0.06399
6.38,0.04859
6.384,0.27849
6.388,0.47617
6.392,0.69351
6.396,0.84062
6.4,0.96086
6.404,0.9716
6.408,0.82068
6.412,0.66911
6.416,0.42818
6.42,0.16248
6.424,-0.01659
6.428,-0.10894
6.432,-0.17999
6.436,-0.17124
6.44,-0.17481
6.444,-0.11287
6.448,-0.09185
6.452,-0.07641
6.456,-0.03366
6.46,-0.0052
6.464,-0.06006
6.468,-0.03865
6.472,0.00522
6.476,-0.01385
6.48,0.00502
6.484,-0.04178
6.488,-0.03321
6.492,-0.0551
6.496,-0.02769
6.5,-0.02471
6.504,-0.01936
6.508,-0.05173
6.512,-0.02106
6.516,-0.02689
6.52,-0.03779
6.524,-0.02665
6.528,-0.01705
6.532,-0.02753
6.536,-0.03149
6.54,-0.03402
6.544,-0.04539
6.548,-0.0362
6.552,-0.03048
6.556,-0.01228
6.56,-0.04722
6.564,-0.00205
6.568,-0.03521
6.572,-0.06148
6.576,0.01856
6.58,-0.0451
6.584,0.0022
6.588,-0.00092
6.592,0.01232
6.596,-0.00234
6.6,0.03498
6.604,0.0256
6.608,0.02404
6.612,0.03096
6.616,0.04955
6.62,0.03473
6.624,0.07288
6.628,0.07723
6.632,0.11223
6.636,0.1055
6.64,0.12034
6.644,0.15611
6.648,0.14368
6.652,0.15125
6.656,0.14357
6.66,0.1467
6.664,0.15832
6.668,0.16726
6.672,0.2066
6.676,0.18071
6.68,0.18742
6.684,0.16274
6.688,0.18611
6.692,0.2155
6.696,0.22587
6.7,0.19016
6.704,0.19138
6.708,0.13947
6.712,0.15041
6.716,0.14099
6.72,0.10168
6.724,0.10192
6.728,0.07395
6.732,0.08158
6.736,0.07538
6.74,0.03525
6.744,0.05039
6.748,0.03387
6.752,0.04273
6.756,0.0112
6.76,0.01523
6.764,0.01278
6.768,0.00883
6.772,-0.00129
6.776,0.00774
6.78,-0.02456
6.784,-0.00711
6.788,-0.00833
6.792,-0.02535
6.796,-0.0256
6.8,-0.03342
6.804,-0.01717
6.808,-0.02016
6.812,-0.04493
6.816,-0.03759
6.82,-0.03415
6.824,-0.02071
6.828,-0.00123
6.832,-0.032
6.836,-0.02905
6.84,-0.04057
6.844,-0.04217
6.848,-0.05011
6.852,-0.03397
6.856,-0.03252
6.86,-0.03037
6.864,-0.02651
6.868,-0.02429
6.872,-0.03134
6.876,-0.02151
6.88,0.0009
6.884,-0.01355
6.888,-0.03497
6.892,-0.01511
6.896,-0.0231
6.9,-0.03917
6.904,-0.00928
6.908,-0.00812
6.912,-0.03955
6.916,-0.01667
6.92,-0.03609
6.924,-0.03273
6.928,-0.03398
6.932,-0.00284
6.936,-0.046
6.94,-0.02175
6.944,-0.03309
6.948,-0.03943
6.952,-0.05386
6.956,-0.0176
6.96,-0.00352
6.964,0.01579
6.968,0.00651
6.972,0.02498
6.976,0.04434
6.98,0.0469
6.984,0.07694
6.988,0.08569
6.992,0.08989
6.996,0.07547
7.0,0.07942
7.004,0.06001
7.008,0.06664
7.012,0.03481
7.016,-0.01637
7.02,0.0273
7.024,-0.00552
7.028,-0.00845
7.032,-0.01638
7.036,-0.0277
7.04,-0.02934
7.044,-0.02157
7.048,-0.03319
7.052,-0.00087
7.056,-0.01516
7.06,-0.02669
7.064,-0.02837
7.068,-0.03873
7.072,-0.01276
7.076,-0.01099
7.08,-0.04717
7.084,-0.03828
7.088,-0.02664
7.092,-0.02363
7.096,-0.02799
7.1,-0.02669
7.104,-0.04623
7.108,-0.05255
7.112,-0.08827
7.116,-0.11767
7.12,-0.14565
7.124,-0.11492
7.128,-0.02087
7.132,0.11467
7.136,0.31873
7.14,0.53974
7.144,0.76235
7.148,0.88108
7.152,0.95542
7.156,0.91998
7.16,0.77984
7.164,0.5674
7.168,0.3368
7.172,0.10196
7.176,-0.07566
7.18,-0.16281
7.184,-0.1738
7.188,-0.17098
7.192,-0.12954
7.196,-0.11501
7.2,-0.08569
7.204,-0.04156
7.208,-0.03534
7.212,-0.03919
7.216,-0.06072
7.22,-0.05049
7.224,-0.03997
7.228,-0.0056
7.232,-0.04885
7.236,-0.02088
7.24,-0.0248
7.244,-0.04503
7.248,-0.00566
7.252,-0.02221
7.256,0.00625
7.26,-0.01709
7.264,-0.0151
7.268,-0.00261
7.272,-0.01322
7.276,-0.03037
7.28,0.00653
7.284,-0.02349
7.288,-0.03051
7.292,-0.03306
7.296,-0.03031
7.3,-0.03349
7.304,-0.02101
7.308,-0.0307
7.312,0.00406
7.316,-0.00293
7.32,-0.0311
7.324,-0.01883
7.328,-0.01846
7.332,0.01689
7.336,0.02199
7.34,-0.00834
7.344,0.00677
7.348,0.02035
7.352,0.01991
7.356,0.01746
7.36,0.03861
7.364,0.07724
7.368,0.02884
7.372,0.06157
7.376,0.05007
7.38,0.11499
7.384,0.11034
7.388,0.11167
7.392,0.13185
7.396,0.11608
7.4,0.1589
7.404,0.14473
7.408,0.18348
7.412,0.16996
7.416,0.17257
7.42,0.19335
7.424,0.20105
7.428,0.20869
7.432,0.19173
7.436,0.22348
7.44,0.1802
7.444,0.19474
7.448,0.19837
7.452,0.18585
7.456,0.18082
7.46,0.18168
7.464,0.1535
7.468,0.12677
7.472,0.12449
7.476,0.11805
7.48,0.10656
7.484,0.10099
7.488,0.09527
7.492,0.06273
7.496,0.06345
7.5,0.03609
7.504,0.03268
7.508,0.0197
7.512,0.03069
7.516,0.01897
7.52,0.00997
7.524,0.01019
7.528,-0.0043
7.532,-0.03015
7.536,-0.0108
7.54,0.01606
7.544,-0.01862
7.548,-0.0072
7.552,-0.00945
7.556,-0.03525
7.56,-0.04537
7.564,-0.00396
7.568,-0.01112
7.572,-0.02823
7.576,0.00702
7.58,-0.00152
7.584,0.02247
7.588,0.00821
7.592,-0.00977
7.596,-0.04047
7.6,-0.02196
7.604,-0.02227
7.608,-0.00485
7.612,-0.02079
7.616,-0.02523
7.62,0.00317
7.624,-0.01403
7.628,-0.0148
7.632,-0.01285
7.636,-0.01783
7.64,-0.00444
7.644,-0.01239
7.648,0.00165
7.652,-0.01876
7.656,-0.00783
7.66,-0.02351
7.664,-0.0294
7.668,0.00264
7.672,-0.0044
7.676,-0.00687
7.68,-0.00041
7.684,-0.01938
7.688,-0.00602
7.692,-0.04078
7.696,-0.0193
7.7,-0.00202
7.704,-0.00635
7.708,-0.00611
7.712,-0.01661
7.716,-0.01349
7.72,0.00182
7.724,-0.04801
7.728,0.00361
7.732,-0.00667
7.736,-0.02289
7.74,-0.00289
7.744,0.00546
7.748,-0.03674
7.752,-0.02738
7.756,-0.02916
7.76,-0.01668
7.764,-0.01155
7.768,-0.02038
7.772,-0.01943
7.776,0.01183
7.78,-0.00575
7.784,-0.02124
7.788,-0.02035
7.792,-0.01899
7.796,0.01058
7.8,0.01407
7.804,-0.00019
7.808,0.00917
7.812,0.05145
7.816,0.03894
7.82,0.05753
7.824,0.03974
7.828,0.07041
7.832,0.09088
7.836,0.08288
7.84,0.0833
7.844,0.06601
7.848,0.09627
7.852,0.08074
7.856,0.05362
7.86,0.04712
7.864,0.03282
7.868,0.05423
7.872,0.0114
7.876,0.00986
7.88,0.01313
7.884,0.00271
7.888,0.01038
7.892,-0.01092
7.896,-0.00654
7.9,-0.01797
7.904,0.00445
7.908,-0.00532
7.912,-0.01657
7.916,0.01286
7.92,0.01265
7.924,-0.01035
7.928,0.00472
7.932,-0.01426
7.936,-0.04348
7.94,-0.01836
7.944,-0.00203
7.948,-0.01463
7.952,-0.00998
7.956,-0.04872
7.96,-0.05606
7.964,-0.08954
7.968,-0.09494
7.972,-0.09594
7.976,-0.0105
7.98,0.12914
7.984,0.33014
7.988,0.55649
7.992,0.74446
7.996,0.89834
8.0,0.97109
8.004,0.93935
8.008,0.80513
8.012,0.61821
8.016,0.35494
8.02,0.16248
8.024,0.01881
8.028,-0.09927
8.032,-0.16634
8.036,-0.18416
8.04,-0.122
8.044,-0.08465
8.048,-0.06555
8.052,-0.03005
8.056,-0.01629
8.06,-0.01667
8.064,-0.00062
8.068,0.00748
8.072,-0.0014
8.076,0.0102
8.08,-0.01704
8.084,-0.00865
8.088,0.02397
8.092,-0.01568
8.096,-0.0105
8.1,-0.00913
8.104,-0.0159
8.108,-0.01027
8.112,-0.03081
8.116,-0.01399
8.12,0.01284
8.124,-0.02559
8.128,0.03135
8.132,-0.00245
8.136,-0.00725
8.14,0.0015
8.144,-0.00646
8.148,-0.00185
8.152,-0.02854
8.156,-0.0041
8.16,-0.01289
8.164,0.00868
8.168,0.02747
8.172,-0.01164
8.176,0.00983
8.18,0.00948
8.184,0.04381
8.188,0.02067
8.192,0.04431
8.196,0.04128
8.2,0.02705
8.204,0.06193
8.208,0.05794
8.212,0.08226
8.216,0.076
8.22,0.06997
8.224,0.0771
8.228,0.08734
8.232,0.1116
8.236,0.14051
8.24,0.12281
8.244,0.16776
8.248,0.15509
8.252,0.16941
8.256,0.1933
8.26,0.18117
8.264,0.20648
8.268,0.21745
8.272,0.19478
8.276,0.19484
8.28,0.21058
8.284,0.22564
8.288,0.24176
8.292,0.18524
8.296,0.19127
8.3,0.20346
8.304,0.21345
8.308,0.19868
8.312,0.19401
8.316,0.14347
8.32,0.15702
8.324,0.12317
8.328,0.11393
8.332,0.11912
8.336,0.11819
8.34,0.07718
8.344,0.08961
8.348,0.04512
8.352,0.05132
8.356,0.05699
8.36,0.03169
8.364,0.0606
8.368,0.02656
8.372,0.04384
8.376,0.0289
8.38,0.01344
8.384,0.00029
8.388,0.00014
8.392,0.00586
8.396,0.01516
8.4,-0.02415
8.404,0.03389
8.408,-0.00365
8.412,0.00743
8.416,0.02188
8.42,0.00215
8.424,0.02981
8.428,0.00458
8.432,0.00873
8.436,0.02587
8.44,0.02523
8.444,-0.01206
8.448,-0.02975
8.452,-0.00168
8.456,0.01191
8.46,0.00017
8.464,0.00366
8.468,0.00254
8.472,-0.03688
8.476,0.01062
8.48,0.01414
8.484,-0.0046
8.488,0.01739
8.492,0.00775
8.496,0.00537
8.5,0.01812
8.504,0.01293
8.508,0.041
8.512,0.03171
8.516,-0.0237
8.52,0.0194
8.524,0.01217
8.528,0.02358
8.532,0.00974
8.536,0.01123
8.54,0.04107
8.544,-0.0214
8.548,0.01047
8.552,-0.02748
8.556,-0.00333
8.56,0.01191
8.564,-0.012
8.568,0.00054
8.572,0.01688
8.576,0.00518
8.58,0.02469
8.584,-0.00049
8.588,0.04039
8.592,0.06046
8.596,0.02231
8.6,0.04574
8.604,0.04819
8.608,0.06615
8.612,0.10076
8.616,0.10818
8.62,0.10826
8.624,0.09816
8.628,0.11053
8.632,0.08841
8.636,0.08883
8.64,0.10238
8.644,0.0915
8.648,0.06544
8.652,0.05889
8.656,0.02905
8.66,0.04746
8.664,0.00313
8.668,0.00128
8.672,0.02013
8.676,0.01213
8.68,-0.00467
8.684,0.01827
8.688,0.03573
8.692,0.01969
8.696,-0.00618
8.7,-0.00097
8.704,0.01334
8.708,0.01799
8.712,0.00153
8.716,0.02029
8.72,0.02958
8.724,0.00216
8.728,0.0158
8.732,-0.00067
8.736,-0.01819
8.74,0.00423
8.744,-0.04388
8.748,-0.09432
8.752,-0.10428
8.756,-0.05701
8.76,0.04351
8.764,0.17108
8.768,0.40545
8.772,0.62037
8.776,0.8062
8.78,0.94816
8.784,1.02172
8.788,0.98398
8.792,0.82617
8.796,0.61188
8.8,0.356
8.804,0.15325
8.808,0.00552
8.812,-0.12612
8.816,-0.12096
8.82,-0.15724
8.824,-0.11821
8.828,-0.08809
8.832,-0.02033
8.836,-0.02237
8.84,0.00657
8.844,0.01797
8.848,0.0222
8.852,0.03699
8.856,0.00926
8.86,0.00164
8.864,0.00775
8.868,0.02402
8.872,0.00399
8.876,0.01582
8.88,-0.00529
8.884,0.03218
8.888,0.03203
8.892,0.04085
8.896,0.01624
8.9,0.01176
8.904,0.02783
8.908,0.01462
8.912,-0.01449
8.916,0.00096
8.92,0.02172
8.924,-0.00423
8.928,0.01056
8.932,0.0089
8.936,0.01005
8.94,0.01943
8.944,0.03492
8.948,0.03842
8.952,0.04578
8.956,-0.00043
8.96,0.03788
8.964,0.02127
8.968,0.03055
8.972,0.05372
8.976,0.02769
8.98,0.03578
8.984,0.05854
8.988,0.08878
8.992,0.05043
8.996,0.08727
9.0,0.12923
9.004,0.10877
9.008,0.10845
9.012,0.1317
9.016,0.12176
9.02,0.13998
9.024,0.19205
9.028,0.1844
9.032,0.18397
9.036,0.20844
9.04,0.22794
9.044,0.24854
9.048,0.21843
9.052,0.25996
9.056,0.25208
9.06,0.21844
9.064,0.26176
9.068,0.26002
9.072,0.25037
9.076,0.22988
9.08,0.22032
9.084,0.21832
9.088,0.17837
9.092,0.19054
9.096,0.19078
9.1,0.19595
9.104,0.15755
9.108,0.17265
9.112,0.15749
9.116,0.14009
9.12,0.12327
9.124,0.11486
9.128,0.09067
9.132,0.09337
9.136,0.09327
9.14,0.08332
9.144,0.05958
9.148,0.06465
9.152,0.04976
9.156,0.04071
9.16,0.0325
9.164,0.04791
9.168,0.03802
9.172,0.07507
9.176,0.02613
9.18,0.05179
9.184,0.03702
9.188,0.03311
9.192,0.04504
9.196,0.02056
9.2,0.03596
9.204,0.02431
9.208,0.00065
9.212,0.02234
9.216,0.01355
9.22,-0.00847
9.224,0.0495
9.228,0.03525
9.232,0.02713
9.236,0.01127
9.24,0.02743
9.244,0.01378
9.248,0.01446
9.252,0.0225
9.256,0.03242
9.26,-0.00527
9.264,0.01738
9.268,0.02569
9.272,0.02469
9.276,0.01179
9.28,0.02021
9.284,0.04572
9.288,0.02605
9.292,0.01496
9.296,0.04563
9.3,0.00771
9.304,0.02709
9.308,-0.00082
9.312,0.02191
9.316,0.01273
9.32,0.03062
9.324,0.04194
9.328,0.05392
9.332,0.03133
9.336,0.05738
9.34,0.07685
9.344,0.09514
9.348,0.07271
9.352,0.09188
9.356,0.10312
9.36,0.12032
9.364,0.13571
9.368,0.12179
9.372,0.11779
9.376,0.12972
9.38,0.11922
9.384,0.09831
9.388,0.09175
9.392,0.07294
9.396,0.06398
9.4,0.04598
9.404,0.06527
9.408,0.04532
9.412,0.00433
9.416,0.03486
9.42,0.03788
9.424,0.04003
9.428,0.02126
9.432,0.00571
9.436,0.03464
9.44,0.02397
9.444,0.03009
9.448,0.03937
9.452,0.01987
9.456,0.0133
9.46,0.02134
9.464,0.02053
9.468,0.0255
9.472,0.01615
9.476,-0.02428
9.48,-0.00122
9.484,-0.04467
9.488,-0.05235
9.492,-0.0835
9.496,-0.07969
9.5,-0.01719
9.504,0.08557
9.508,0.29146
9.512,0.46597
9.516,0.67193
9.52,0.86871
9.524,1.01844
9.528,1.02739
9.532,0.95009
9.536,0.7273
9.54,0.51234
9.544,0.27552
9.548,0.1145
9.552,-0.03458
9.556,-0.10836
9.56,-0.12561
9.564,-0.11461
9.568,-0.08265
9.572,-0.02587
9.576,0.0114
9.58,0.00204
9.584,0.02878
9.588,0.04267
9.592,0.03066
9.596,0.03219
9.6,0.03601
9.604,0.05177
9.608,0.02462
9.612,0.04553
9.616,0.02029
9.62,0.02855
9.624,0.02383
9.628,0.01386
9.632,0.01991
9.636,0.05045
9.64,0.02715
9.644,0.06649
9.648,0.01002
9.652,0.04373
9.656,0.02143
9.66,0.03744
9.664,0.03163
9.668,0.01656
9.672,0.02732
9.676,0.05097
9.68,0.02783
9.684,0.02196
9.688,0.03538
9.692,0.02438
9.696,0.05007
9.7,0.03777
9.704,0.02948
9.708,0.05069
9.712,0.06102
9.716,0.04379
9.72,0.05846
9.724,0.09417
9.728,0.09042
9.732,0.08931
9.736,0.09535
9.74,0.11551
9.744,0.11714
9.748,0.13263
9.752,0.12839
9.756,0.13067
9.76,0.15096
9.764,0.17818
9.768,0.16569
9.772,0.22663
9.776,0.184
9.78,0.21672
9.784,0.27094
9.788,0.21624
9.792,0.26052
9.796,0.28383
9.8,0.2368
9.804,0.25327
9.808,0.2465
9.812,0.24559
9.816,0.25192
9.82,0.22163
9.824,0.24558
9.828,0.22401
9.832,0.19551
9.836,0.21091
9.84,0.19218
9.844,0.18817
9.848,0.1659
9.852,0.15943
9.856,0.16901
9.86,0.11342
9.864,0.12498
9.868,0.11604
9.872,0.08149
9.876,0.10686
9.88,0.07661
9.884,0.08955
9.888,0.07877
9.892,0.06479
9.896,0.06394
9.9,0.04727
9.904,0.05282
9.908,0.03923
9.912,0.04028
9.916,0.02361
9.92,0.04027
9.924,0.04084
9.928,0.02988
9.932,0.03874
9.936,0.0113
9.94,0.04351
9.944,0.03106
9.948,0.00146
9.952,0.01428
9.956,0.00752
9.96,0.02743
9.964,0.03631
9.968,0.01923
9.972,0.03751
9.976,0.02356
9.98,0.02392
9.984,0.03468
9.988,0.038
9.992,0.04461
9.996,0.04008
