t_seg,ecg_mV
0.0,-0.00531
0.004,-0.02443
0.008,-0.02585
0.012,-0.03025
0.016,-0.00154
0.02,-0.04148
0.024,-0.00067
0.028,-0.0281
0.032,-0.0282
0.036,-0.02803
0.04,-0.01755
0.044,-0.02637
0.048,-0.03459
0.052,-0.00668
0.056,-0.00813
0.06,-0.02862
0.064,-0.02485
0.068,0.00517
0.072,-0.02678
0.076,-0.01595
0.08,-0.04258
0.084,-0.03016
0.088,-0.03843
0.092,-0.02653
0.096,-0.01989
0.1,-0.00477
0.104,-0.03179
0.108,-0.0249
0.112,0.00717
0.116,-0.00845
0.12,-0.01484
0.124,-0.02385
0.128,-0.02705
0.132,-0.03315
0.136,0.00991
0.14,-0.01327
0.144,-0.03375
0.148,-0.02293
0.152,-0.01505
0.156,-0.03496
0.16,-0.01167
0.164,-0.03498
0.168,-0.02899
0.172,-0.03133
0.176,-0.04533
0.18,-0.02586
0.184,-0.03095
0.188,-0.01149
0.192,-0.0041
0.196,0.01706
0.2,-0.00579
0.204,-0.01776
0.208,-0.00546
0.212,-0.03475
0.216,-0.01762
0.22,-0.02438
0.224,-0.03732
0.228,-0.0082
0.232,-0.02955
0.236,-0.04023
0.24,-0.03757
0.244,-0.04374
0.248,-0.02541
0.252,-0.04282
0.256,-0.03038
0.26,-0.00638
0.264,-0.03243
0.268,-0.01926
0.272,-0.01583
0.276,-0.01635
0.28,-0.01487
0.284,0.00276
0.288,0.00567
0.292,-0.01332
0.296,0.01669
0.3,0.00991
0.304,-0.01804
0.308,-0.01028
0.312,-0.02804
0.316,-0.01552
0.32,0.00911
0.324,-0.03086
0.328,-0.02812
0.332,-0.03305
0.336,-0.0318
0.34,-0.01824
0.344,-0.00207
0.348,0.00674
0.352,-0.00359
0.356,0.00375
0.36,-0.00516
0.364,-0.00911
0.368,0.0099
0.372,-0.02497
0.376,-0.00874
0.38,-0.00523
0.384,-0.04111
0.388,-0.01018
0.392,-0.00573
0.396,0.02567
0.4,0.00495
0.404,0.04021
0.408,0.01132
0.412,0.04757
0.416,0.0749
0.42,0.06254
0.424,0.09957
0.428,0.09744
0.432,0.09722
0.436,0.08867
0.44,0.10062
0.444,0.05484
0.448,0.05462
0.452,0.04072
0.456,0.01412
0.46,0.02526
0.464,0.0164
0.468,-0.00383
0.472,0.00567
0.476,0.00368
0.48,0.01748
0.484,-0.00044
0.488,-0.00745
0.492,0.01437
0.496,-0.01882
0.5,-0.01102
0.504,-0.00325
0.508,-0.00803
0.512,-0.01601
0.516,-0.01
0.52,-0.01015
0.524,-0.02931
0.528,-0.01214
0.532,-0.04515
0.536,-0.03322
0.54,0.00153
0.544,-0.02982
0.548,-0.06213
0.552,-0.12307
0.556,-0.13562
0.56,-0.10535
0.564,-0.02449
0.568,0.09924
0.572,0.30856
0.576,0.51089
0.58,0.72764
0.584,0.91179
0.588,0.96712
0.592,0.94718
0.596,0.84911
0.6,0.63274
0.604,0.36988
0.608,0.18508
0.612,-0.02988
0.616,-0.0993
0.62,-0.18483
0.624,-0.15897
0.628,-0.11447
0.632,-0.08757
0.636,-0.05953
0.64,0.00033
0.644,-0.04123
0.648,-0.00568
0.652,-0.02456
0.656,-0.03002
0.66,-0.00216
0.664,-0.02508
0.668,0.01095
0.672,-0.00666
0.676,-0.00387
0.68,-0.02375
0.684,0.00659
0.688,0.00179
0.692,-0.04028
0.696,-0.01813
0.7,0.00191
0.704,-0.01041
0.708,-0.04219
0.712,0.00084
0.716,-0.00544
0.72,-0.0102
0.724,-0.01138
0.728,-0.0057
0.732,0.0015
0.736,0.00709
0.74,-0.00675
0.744,0.0094
0.748,-0.02481
0.752,0.01511
0.756,0.0253
0.76,0.0121
0.764,0.00412
0.768,0.00045
0.772,0.01869
0.776,-0.00554
0.78,-0.00069
0.784,0.02283
0.788,0.0331
0.792,0.04626
0.796,0.04682
0.8,0.03521
0.804,0.06829
0.808,0.07884
0.812,0.08946
0.816,0.119
0.82,0.09153
0.824,0.11909
0.828,0.1365
0.832,0.172
0.836,0.16649
0.84,0.1811
0.844,0.19565
0.848,0.19402
0.852,0.2029
0.856,0.1955
0.86,0.24837
0.864,0.21737
0.868,0.21112
0.872,0.21448
0.876,0.2126
0.88,0.21328
0.884,0.19905
0.888,0.1931
0.892,0.18294
0.896,0.15036
0.9,0.19909
0.904,0.15783
0.908,0.15674
0.912,0.14421
0.916,0.13412
0.92,0.11687
0.924,0.10594
0.928,0.08628
0.932,0.10637
0.936,0.04236
0.94,0.05113
0.944,0.07303
0.948,0.03708
0.952,0.05412
0.956,0.01763
0.96,0.03594
0.964,0.02702
0.968,-0.00392
0.972,0.0438
0.976,0.01394
0.98,-0.00168
0.984,0.00637
0.988,0.00635
0.992,0.02622
0.996,0.00018
1.0,-0.02511
1.004,0.00545
1.008,-0.00222
1.012,0.0213
1.016,-0.02803
1.02,0.00642
1.024,0.0035
1.028,0.02591
1.032,0.01976
1.036,-0.01763
1.04,-0.00652
1.044,0.00063
1.048,-0.01385
1.052,-0.01576
1.056,0.02657
1.06,0.03077
1.064,0.016
1.068,0.00688
1.072,0.00521
1.076,-0.00233
1.08,0.01996
1.084,0.00334
1.088,0.01293
1.092,-0.00367
1.096,-0.00849
1.1,-0.01643
1.104,-0.00529
1.108,0.01194
1.112,-0.00779
1.116,0.01911
1.12,-0.00817
1.124,-0.01251
1.128,-0.00641
1.132,-0.01262
1.136,0.01389
1.14,0.02287
1.144,0.03069
1.148,-0.02084
1.152,-0.00555
1.156,-0.01842
1.16,0.01713
1.164,0.01484
1.168,-0.00281
1.172,-0.00409
1.176,0.01124
1.18,0.0005
1.184,-0.00053
1.188,-0.00107
1.192,0.00178
1.196,0.02258
1.2,0.01758
1.204,0.01359
1.208,0.00833
1.212,0.02284
1.216,0.00927
1.22,-0.01795
1.224,0.01136
1.228,0.00514
1.232,0.01052
1.236,0.02022
1.24,-0.00538
1.244,-0.0087
1.248,0.00064
1.252,-0.01936
1.256,0.01056
1.26,0.03023
1.264,0.03
1.268,0.02606
1.272,-0.00196
1.276,0.01598
1.28,0.03698
1.284,0.03379
1.288,0.05279
1.292,0.08118
1.296,0.06954
1.3,0.07866
1.304,0.10487
1.308,0.10686
1.312,0.13228
1.316,0.10946
1.32,0.09173
1.324,0.08675
1.328,0.10594
1.332,0.07802
1.336,0.05436
1.34,0.03661
1.344,0.0388
1.348,0.03321
1.352,0.01078
1.356,0.01335
1.36,0.01045
1.364,0.00938
1.368,0.00532
1.372,0.02272
1.376,-0.00116
1.38,-0.0013
1.384,0.00101
1.388,0.01342
1.392,0.00718
1.396,0.01501
1.4,0.04407
1.404,-0.0025
1.408,0.0296
1.412,0.02014
1.416,0.03421
1.42,0.01073
1.424,-0.00825
1.428,0.0039
1.432,-0.0451
1.436,-0.06082
1.44,-0.09881
1.444,-0.0557
1.448,-0.00949
1.452,0.1461
1.456,0.29282
1.46,0.55199
1.464,0.7287
1.468,0.89405
1.472,0.99452
1.476,0.9734
1.48,0.86887
1.484,0.6641
1.488,0.45129
1.492,0.22667
1.496,0.04771
1.5,-0.08359
1.504,-0.11794
1.508,-0.14262
1.512,-0.11526
1.516,-0.07365
1.52,-0.04357
1.524,-0.03208
1.528,0.00515
1.532,0.00647
1.536,0.02227
1.54,0.02123
1.544,0.00925
1.548,0.02544
1.552,0.011
1.556,0.00391
1.56,0.00737
1.564,0.04375
1.568,0.02088
1.572,-0.00078
1.576,0.00398
1.58,0.02363
1.584,0.02079
1.588,0.01191
1.592,0.01197
1.596,0.02832
1.6,-0.00538
1.604,-0.0228
1.608,0.03296
1.612,0.03648
1.616,-0.00113
1.62,0.00688
1.624,0.01769
1.628,0.02691
1.632,0.03145
1.636,0.00319
1.64,0.02982
1.644,0.02809
1.648,0.03147
1.652,0.02274
1.656,0.04522
1.66,0.07007
1.664,0.02977
1.668,0.05959
1.672,0.03906
1.676,0.0628
1.68,0.10556
1.684,0.07735
1.688,0.10021
1.692,0.10194
1.696,0.09348
1.7,0.10432
1.704,0.14421
1.708,0.13029
1.712,0.17127
1.716,0.16212
1.72,0.20536
1.724,0.20739
1.728,0.20909
1.732,0.20848
1.736,0.20554
1.74,0.24192
1.744,0.20911
1.748,0.22959
1.752,0.23824
1.756,0.22769
1.76,0.22525
1.764,0.2497
1.768,0.23478
1.772,0.22163
1.776,0.19301
1.78,0.18592
1.784,0.18045
1.788,0.20142
1.792,0.16842
1.796,0.17453
1.8,0.14805
1.804,0.11589
1.808,0.11659
1.812,0.13579
1.816,0.10543
1.82,0.12363
1.824,0.08299
1.828,0.11616
1.832,0.06123
1.836,0.05488
1.84,0.04087
1.844,0.04473
1.848,0.05377
1.852,0.03053
1.856,0.03024
1.86,0.03983
1.864,0.04424
1.868,0.02756
1.872,0.01867
1.876,0.02007
1.88,0.01929
1.884,0.01154
1.888,0.00888
1.892,0.05019
1.896,0.0302
1.9,0.01461
1.904,0.02636
1.908,0.02812
1.912,0.01923
1.916,0.03963
1.92,0.0445
1.924,0.03416
1.928,0.01988
1.932,0.04
1.936,0.03942
1.94,0.01471
1.944,0.03319
1.948,0.02225
1.952,-0.002
1.956,0.03174
1.96,0.05495
1.964,0.03414
1.968,0.02985
1.972,0.04071
1.976,0.01514
1.98,0.03211
1.984,0.00986
1.988,0.05483
1.992,0.03655
1.996,0.01828
2.0,0.035
2.004,0.03524
2.008,0.04917
2.012,0.01823
2.016,0.00923
2.02,0.00775
2.024,0.04363
2.028,0.00401
2.032,0.0108
2.036,0.06323
2.04,0.03903
2.044,-0.00432
2.048,0.03013
2.052,0.0246
2.056,0.05541
2.06,0.03707
2.064,0.00164
2.068,0.00852
2.072,0.01873
2.076,0.02354
2.08,0.0184
2.084,0.04374
2.088,0.03061
2.092,0.00799
2.096,0.05781
2.1,0.04901
2.104,0.05988
2.108,0.07505
2.112,0.09142
2.116,0.10606
2.12,0.11057
2.124,0.1116
2.128,0.10738
2.132,0.13274
2.136,0.1066
2.14,0.12422
2.144,0.11769
2.148,0.11101
2.152,0.09276
2.156,0.05336
2.16,0.03623
2.164,0.06771
2.168,0.03043
2.172,0.06178
2.176,0.02569
2.18,0.03746
2.184,0.00615
2.188,0.02023
2.192,0.04867
2.196,0.03607
2.2,0.03176
2.204,0.04296
2.208,0.03808
2.212,0.008
2.216,0.03817
2.22,0.03928
2.224,0.03439
2.228,-0.00137
2.232,0.04742
2.236,0.01011
2.24,0.01516
2.244,0.01852
2.248,-0.00735
2.252,-0.04534
2.256,-0.07498
2.26,-0.06597
2.264,-0.01516
2.268,0.10559
2.272,0.30035
2.276,0.49566
2.28,0.69185
2.284,0.89644
2.288,1.01325
2.292,1.02633
2.296,0.93675
2.3,0.73039
2.304,0.50889
2.308,0.29224
2.312,0.10487
2.316,-0.03621
2.32,-0.137
2.324,-0.12037
2.328,-0.11136
2.332,-0.08761
2.336,-0.02858
2.34,0.02372
2.344,0.01762
2.348,0.03992
2.352,0.02467
2.356,0.01002
2.36,0.03323
2.364,0.02517
2.368,0.02684
2.372,0.01766
2.376,0.00848
2.38,0.02284
2.384,0.02424
2.388,0.03755
2.392,0.03886
2.396,0.02219
2.4,0.01189
2.404,0.02956
2.408,0.03923
2.412,0.0266
2.416,-0.0025
2.42,0.04921
2.424,0.01322
2.428,0.01235
2.432,0.04241
2.436,0.03895
2.44,0.02861
2.444,0.03326
2.448,0.03921
2.452,0.02761
2.456,0.0564
2.46,0.0436
2.464,0.04728
2.468,0.03945
2.472,0.06861
2.476,0.07866
2.48,0.0738
2.484,0.04762
2.488,0.07159
2.492,0.074
2.496,0.0886
2.5,0.06853
2.504,0.12546
2.508,0.11046
2.512,0.1059
2.516,0.15483
2.52,0.1437
2.524,0.16531
2.528,0.17295
2.532,0.17519
2.536,0.19854
2.54,0.1994
2.544,0.20183
2.548,0.23806
2.552,0.24047
2.556,0.24824
2.56,0.25782
2.564,0.23924
2.568,0.25029
2.572,0.2529
2.576,0.24671
2.58,0.22557
2.584,0.23155
2.588,0.22595
2.592,0.18535
2.596,0.23087
2.6,0.21909
2.604,0.19149
2.608,0.19644
2.612,0.16447
2.616,0.14253
2.62,0.1419
2.624,0.14678
2.628,0.12763
2.632,0.10135
2.636,0.1331
2.64,0.11748
2.644,0.08648
2.648,0.10186
2.652,0.05656
2.656,0.0458
2.66,0.06142
2.664,0.04673
2.668,0.06378
2.672,0.04497
2.676,0.07337
2.68,0.0479
2.684,0.02052
2.688,0.05625
2.692,0.05472
2.696,0.03233
2.7,0.01655
2.704,0.07006
2.708,0.05273
2.712,0.06363
2.716,0.0212
2.72,0.02996
2.724,0.01407
2.728,0.01216
2.732,0.02239
2.736,0.03418
2.74,0.04391
2.744,0.03507
2.748,0.04622
2.752,0.03893
2.756,0.03974
2.76,0.026
2.764,0.04727
2.768,0.04352
2.772,0.03856
2.776,-0.00046
2.78,0.00926
2.784,0.03914
2.788,0.02535
2.792,0.03022
2.796,0.05019
2.8,0.04449
2.804,0.04109
2.808,0.02742
2.812,0.01823
2.816,0.03492
2.82,0.04046
2.824,0.04641
2.828,0.03198
2.832,0.02264
2.836,0.00221
2.84,0.0353
2.844,0.0262
2.848,0.05375
2.852,0.02705
2.856,0.00807
2.86,0.00976
2.864,0.02177
2.868,0.05567
2.872,0.01727
2.876,0.09177
2.88,0.06581
2.884,0.08757
2.888,0.07397
2.892,0.1079
2.896,0.10562
2.9,0.12715
2.904,0.13473
2.908,0.13531
2.912,0.17075
2.916,0.09564
2.92,0.11152
2.924,0.07763
2.928,0.05669
2.932,0.06946
2.936,0.06403
2.94,0.05985
2.944,0.04185
2.948,0.01493
2.952,0.01868
2.956,0.04407
2.96,0.02583
2.964,0.04128
2.968,0.03159
2.972,0.05186
2.976,0.01598
2.98,0.03172
2.984,0.04848
2.988,0.04634
2.992,0.00999
2.996,0.03513
3.0,0.04208
3.004,0.01848
3.008,0.01327
3.012,0.04296
3.016,0.00608
3.02,0.00644
3.024,-0.02409
3.028,-0.04539
3.032,-0.10284
3.036,-0.08296
3.04,-0.02812
3.044,0.15069
3.048,0.31059
3.052,0.53226
3.056,0.72944
3.06,0.89701
3.064,1.02393
3.068,1.01461
3.072,0.87229
3.076,0.69845
3.08,0.44133
3.084,0.24108
3.088,0.05472
3.092,-0.09031
3.096,-0.11467
3.1,-0.13151
3.104,-0.13016
3.108,-0.0662
3.112,-0.02118
3.116,-0.02042
3.12,0.01445
3.124,0.03259
3.128,-7e-05
3.132,0.04277
3.136,0.02919
3.14,0.04849
3.144,0.01405
3.148,0.02052
3.152,0.02823
3.156,0.03356
3.16,0.03374
3.164,0.02233
3.168,0.053
3.172,0.03304
3.176,0.02122
3.18,0.00854
3.184,0.0193
3.188,0.02868
3.192,0.04545
3.196,0.03915
3.2,0.04145
3.204,0.01111
3.208,0.02724
3.212,0.02951
3.216,0.02683
3.22,0.0433
3.224,0.03231
3.228,0.0461
3.232,0.02906
3.236,0.02047
3.24,0.05632
3.244,0.05177
3.248,0.05284
3.252,0.03296
3.256,0.04054
3.26,0.05651
3.264,0.07475
3.268,0.07653
3.272,0.09932
3.276,0.09591
3.28,0.1203
3.284,0.08972
3.288,0.14098
3.292,0.12767
3.296,0.1264
3.3,0.15616
3.304,0.13692
3.308,0.18293
3.312,0.19741
3.316,0.21162
3.32,0.20155
3.324,0.22084
3.328,0.23969
3.332,0.22917
3.336,0.24271
3.34,0.27059
3.344,0.26656
3.348,0.24826
3.352,0.2289
3.356,0.25472
3.36,0.24198
3.364,0.23601
3.368,0.237
3.372,0.22753
3.376,0.19494
3.38,0.1798
3.384,0.16593
3.388,0.14896
3.392,0.14086
3.396,0.1436
3.4,0.15317
3.404,0.10259
3.408,0.12112
3.412,0.10325
3.416,0.07989
3.42,0.0826
3.424,0.07001
3.428,0.06311
3.432,0.06078
3.436,0.04149
3.44,0.03446
3.444,0.05999
3.448,0.03502
3.452,0.01598
3.456,0.02293
3.46,0.05057
3.464,0.02862
3.468,0.04552
3.472,-0.00786
3.476,0.03696
3.48,0.01863
3.484,0.02364
3.488,0.04843
3.492,0.00112
3.496,0.01475
3.5,-0.00472
3.504,0.04793
3.508,0.00483
3.512,0.02094
3.516,-0.01323
3.52,0.03911
3.524,0.04173
3.528,0.0005
3.532,-7e-05
3.536,0.00852
3.54,0.01005
3.544,0.02682
3.548,0.03071
3.552,0.03121
3.556,0.00908
3.56,0.03404
3.564,-0.00414
3.568,0.0117
3.572,0.00941
3.576,0.05139
3.58,0.01954
3.584,0.00029
3.588,0.03287
3.592,0.01827
3.596,0.01424
3.6,0.0312
3.604,-0.00285
3.608,0.02282
3.612,0.01268
3.616,0.01686
3.62,0.0258
3.624,0.02652
3.628,0.01381
3.632,0.02612
3.636,0.0138
3.64,0.02661
3.644,0.01903
3.648,0.03842
3.652,0.03167
3.656,0.02625
3.66,0.00549
3.664,0.04433
3.668,0.00958
3.672,0.02505
3.676,0.02627
3.68,-0.00965
3.684,0.00386
3.688,0.04082
3.692,0.03345
3.696,0.04805
3.7,0.05038
3.704,0.05337
3.708,0.06511
3.712,0.09226
3.716,0.08297
3.72,0.12202
3.724,0.10552
3.728,0.10645
3.732,0.143
3.736,0.12244
3.74,0.10241
3.744,0.13164
3.748,0.07084
3.752,0.04952
3.756,0.03873
3.76,0.06329
3.764,0.02901
3.768,0.02279
3.772,0.01302
3.776,-0.01641
3.78,-0.01303
3.784,0.04154
3.788,0.0018
3.792,-0.0101
3.796,0.05277
3.8,0.00252
3.804,0.01309
3.808,0.00849
3.812,0.002
3.816,-0.00458
3.82,0.02673
3.824,-0.01261
3.828,0.01986
3.832,0.01717
3.836,0.0037
3.84,0.01312
3.844,-0.00716
3.848,-0.03059
3.852,-0.03786
3.856,-0.07449
3.86,-0.10218
3.864,-0.0417
3.868,0.09536
3.872,0.26671
3.876,0.47047
3.88,0.68939
3.884,0.90166
3.888,0.98792
3.892,1.02017
3.896,0.89126
3.9,0.71439
3.904,0.50625
3.908,0.25643
3.912,0.06607
3.916,-0.06558
3.92,-0.13697
3.924,-0.16908
3.928,-0.15893
3.932,-0.11812
3.936,-0.04276
3.94,-0.01304
3.944,0.01232
3.948,-0.00287
3.952,0.02628
3.956,0.00194
3.96,0.00091
3.964,-0.01217
3.968,0.02437
3.972,0.0044
3.976,0.01549
3.98,0.0135
3.984,0.03118
3.988,-0.00639
3.992,-0.01042
3.996,0.01848
4.0,0.01774
4.004,0.01064
4.008,0.01931
4.012,0.01702
4.016,0.02703
4.02,0.03509
4.024,0.03238
4.028,-0.00434
4.032,0.0153
4.036,0.00964
4.04,0.00479
4.044,0.01758
4.048,0.0263
4.052,0.01488
4.056,0.0011
4.06,0.0023
4.064,0.03515
4.068,0.01562
4.072,0.04168
4.076,0.03857
4.08,0.03937
4.084,0.04288
4.088,0.05113
4.092,0.06822
4.096,0.07974
4.1,0.06379
4.104,0.06805
4.108,0.10396
4.112,0.11878
4.116,0.09705
4.12,0.12489
4.124,0.14014
4.128,0.14958
4.132,0.14176
4.136,0.15813
4.14,0.19864
4.144,0.21777
4.148,0.19472
4.152,0.19545
4.156,0.23206
4.16,0.2351
4.164,0.22886
4.168,0.23751
4.172,0.23326
4.176,0.22405
4.18,0.20305
4.184,0.23874
4.188,0.20298
4.192,0.20026
4.196,0.17654
4.2,0.16395
4.204,0.14157
4.208,0.21125
4.212,0.17556
4.216,0.10402
4.22,0.08328
4.224,0.13599
4.228,0.05344
4.232,0.09017
4.236,0.08158
4.24,0.06714
4.244,0.04728
4.248,0.05987
4.252,0.06385
4.256,0.04672
4.26,0.01698
4.264,0.04147
4.268,0.02015
4.272,0.02556
4.276,0.00039
4.28,0.02823
4.284,0.01236
4.288,0.02865
4.292,0.0322
4.296,0.04739
4.3,0.04216
4.304,0.06199
4.308,0.05724
4.312,0.09979
4.316,0.11714
4.32,0.0862
4.324,0.11525
4.328,0.06575
4.332,0.09581
4.336,0.07886
4.34,0.08513
4.344,0.03209
4.348,0.0589
4.352,0.04583
4.356,0.01608
4.36,0.0218
4.364,-0.01069
4.368,-0.00832
4.372,0.01312
4.376,-0.01135
4.38,-0.01108
4.384,0.00711
4.388,0.00082
4.392,0.00091
4.396,-0.02386
4.4,0.0122
4.404,-0.01646
4.408,-0.00322
4.412,-0.01721
4.416,0.01068
4.42,-0.04515
4.424,0.02765
4.428,-0.0128
4.432,0.02002
4.436,-0.007
4.44,-0.01892
4.444,-0.0816
4.448,-0.08736
4.452,-0.12491
4.456,-0.08595
4.46,0.02221
4.464,0.16393
4.468,0.33257
4.472,0.5815
4.476,0.76277
4.48,0.91978
4.484,1.01038
4.488,0.97167
4.492,0.75261
4.496,0.5782
4.5,0.34567
4.504,0.13919
4.508,-0.04396
4.512,-0.13919
4.516,-0.17165
4.52,-0.18298
4.524,-0.12891
4.528,-0.08646
4.532,-0.05579
4.536,-0.03876
4.54,-0.02948
4.544,-0.00392
4.548,0.00553
4.552,0.00871
4.556,-0.0057
4.56,0.01151
4.564,-0.00503
4.568,0.00152
4.572,-0.03585
4.576,-0.04394
4.58,-0.01447
4.584,-0.04328
4.588,0.00083
4.592,7e-05
4.596,0.03167
4.6,-0.04049
4.604,-0.00218
4.608,0.0146
4.612,0.00496
4.616,-0.02254
4.62,-0.00167
4.624,-0.00397
4.628,-0.01345
4.632,0.01625
4.636,-0.00978
4.64,0.02903
4.644,-0.02439
4.648,-0.00666
4.652,-0.0056
4.656,0.00367
4.66,-0.00706
4.664,0.02611
4.668,0.00509
4.672,0.01642
4.676,0.02963
4.68,0.03792
4.684,0.01184
4.688,0.02641
4.692,0.07475
4.696,0.07519
4.7,0.06894
4.704,0.08271
4.708,0.11415
4.712,0.07311
4.716,0.1208
4.72,0.11337
4.724,0.15645
4.728,0.1561
4.732,0.15055
4.736,0.16876
4.74,0.17884
4.744,0.17846
4.748,0.19295
4.752,0.20673
4.756,0.22362
4.76,0.20696
4.764,0.21406
4.768,0.18809
4.772,0.22703
4.776,0.20711
4.78,0.20538
4.784,0.17353
4.788,0.18249
4.792,0.17747
4.796,0.15679
4.8,0.17023
4.804,0.1551
4.808,0.10986
4.812,0.1231
4.816,0.10807
4.82,0.10955
4.824,0.09493
4.828,0.08526
4.832,0.057
4.836,0.04734
4.84,0.03159
4.844,0.05179
4.848,0.04355
4.852,0.00216
4.856,0.01811
4.86,0.0162
4.864,0.00156
4.868,-0.0286
4.872,-0.00209
4.876,0.00511
4.88,-0.04215
4.884,-0.02706
4.888,0.01018
4.892,-0.00011
4.896,-0.02764
4.9,-0.00957
4.904,-0.02934
4.908,0.01703
4.912,-0.00824
4.916,-0.00902
4.92,-0.02094
4.924,-0.00331
4.928,-0.01824
4.932,5e-05
4.936,-0.01259
4.94,-0.03754
4.944,-0.02881
4.948,-0.03031
4.952,-0.04122
4.956,-0.02042
4.96,-0.00955
4.964,-0.02605
4.968,-0.02485
4.972,-0.04705
4.976,0.01161
4.98,0.018
4.984,-0.00207
4.988,-0.00358
4.992,-0.03194
4.996,-0.02832
5.0,-0.0439
5.004,-0.0537
5.008,-0.03801
5.012,-0.0019
5.016,-0.02299
5.02,-0.00983
5.024,-0.02562
5.028,-0.01432
5.032,0.01655
5.036,-0.02012
5.04,-0.02086
5.044,-0.01268
5.048,-0.0159
5.052,-0.0191
5.056,-0.03432
5.06,-0.01601
5.064,0.00539
5.068,0.00247
5.072,-0.02279
5.076,-0.02425
5.08,0.00421
5.084,0.00031
5.088,0.03084
5.092,0.06128
5.096,0.05913
5.1,0.06949
5.104,0.05995
5.108,0.09298
5.112,0.07347
5.116,0.08584
5.12,0.06643
5.124,0.04295
5.128,0.02491
5.132,0.03321
5.136,0.03132
5.14,0.01435
5.144,-0.01353
5.148,-0.00801
5.152,0.00366
5.156,-0.00061
5.16,-0.01466
5.164,-0.00237
5.168,-0.00852
5.172,0.00203
5.176,-0.04587
5.18,-0.00963
5.184,-0.04302
5.188,-0.01057
5.192,-0.01409
5.196,-0.01577
5.2,-0.04014
5.204,-0.06302
5.208,-0.03153
5.212,-0.01698
5.216,-0.02924
5.22,-0.0176
5.224,-0.06199
5.228,-0.07149
5.232,-0.11775
5.236,-0.1259
5.24,-0.13951
5.244,-0.06748
5.248,0.08668
5.252,0.25528
5.256,0.47446
5.26,0.67177
5.264,0.83457
5.268,0.96398
5.272,0.95715
5.276,0.84723
5.28,0.67781
5.284,0.4397
5.288,0.22412
5.292,0.02875
5.296,-0.10614
5.3,-0.18024
5.304,-0.18058
5.308,-0.16435
5.312,-0.158
5.316,-0.10553
5.32,-0.04145
5.324,-0.05034
5.328,-0.01647
5.332,-0.04371
5.336,-0.01977
5.34,-0.01977
5.344,-0.0411
5.348,-0.03553
5.352,-0.02528
5.356,-0.01894
5.36,-0.01521
5.364,-0.05822
5.368,-0.01968
5.372,-0.0443
5.376,-0.02302
5.38,-0.05227
5.384,-0.00932
5.388,-0.01667
5.392,-0.04803
5.396,-0.01879
5.4,-0.01577
5.404,-0.04618
5.408,-0.03379
5.412,-0.00859
5.416,-0.02635
5.42,-0.03717
5.424,-0.01552
5.428,-0.02319
5.432,-0.03091
5.436,-0.02894
5.44,-0.02463
5.444,-0.00019
5.448,-0.01512
5.452,-0.02424
5.456,-0.0176
5.46,0.03398
5.464,-0.00264
5.468,0.01258
5.472,-0.00379
5.476,0.05051
5.48,0.04377
5.484,0.02542
5.488,0.06405
5.492,0.05825
5.496,0.08564
5.5,0.07383
5.504,0.10197
5.508,0.13903
5.512,0.13491
5.516,0.14468
5.52,0.15522
5.524,0.15335
5.528,0.1685
5.532,0.16879
5.536,0.20764
5.54,0.18013
5.544,0.20647
5.548,0.19707
5.552,0.19732
5.556,0.20054
5.56,0.18308
5.564,0.17475
5.568,0.15215
5.572,0.17848
5.576,0.13744
5.58,0.15387
5.584,0.15682
5.588,0.12034
5.592,0.10593
5.596,0.10158
5.6,0.08955
5.604,0.10157
5.608,0.07307
5.612,0.06668
5.616,0.04148
5.62,0.02059
5.624,0.03099
5.628,0.0058
5.632,0.01175
5.636,0.00219
5.64,-0.01386
5.644,-0.00197
5.648,-0.04468
5.652,-0.03073
5.656,-0.02437
5.66,-0.04731
5.664,-0.02329
5.668,-0.02865
5.672,-0.0181
5.676,-0.00348
5.68,-0.01225
5.684,-0.05086
5.688,-0.01218
5.692,-0.03304
5.696,-0.03606
5.7,-0.01722
5.704,-0.05299
5.708,-0.01863
5.712,-0.04427
5.716,-0.03742
5.72,-0.01729
5.724,-0.02889
5.728,-0.03029
5.732,-0.04287
5.736,-0.00849
5.74,-0.04278
5.744,0.0009
5.748,-0.01454
5.752,-0.01994
5.756,-0.03167
5.76,-0.00323
5.764,-0.03038
5.768,-0.03422
5.772,-0.02969
5.776,-0.03784
5.78,-0.02601
5.784,-0.03036
5.788,-0.01424
5.792,-0.02571
5.796,-0.033
5.8,-0.03382
5.804,-0.05954
5.808,-0.03571
5.812,-0.01395
5.816,-0.00536
5.82,-0.05083
5.824,-0.01159
5.828,-0.02221
5.832,-0.03319
5.836,-0.05469
5.84,-0.00311
5.844,-0.01664
5.848,-0.04759
5.852,-0.02155
5.856,-0.0386
5.86,-0.03615
5.864,-0.03413
5.868,-0.04544
5.872,-0.02076
5.876,-0.01135
5.88,-0.03042
5.884,0.00397
5.888,-0.04237
5.892,-0.02279
5.896,-0.04977
5.9,-0.03267
5.904,-0.04939
5.908,-0.02154
5.912,-0.02522
5.916,-0.03465
5.92,-0.00972
5.924,-0.03091
5.928,-0.00832
5.932,0.02303
5.936,0.01366
5.94,0.0229
5.944,0.03051
5.948,0.03578
5.952,0.04448
5.956,0.07029
5.96,0.06558
5.964,0.07549
5.968,0.05902
5.972,0.08634
5.976,0.0445
5.98,0.03217
5.984,0.0357
5.988,0.02836
5.992,0.01318
5.996,-0.01328
6.0,-0.00268
6.004,0.00225
6.008,-0.01398
6.012,-0.02117
6.016,-0.03024
6.02,-0.01802
6.024,0.00087
6.028,-0.0265
6.032,-0.04441
6.036,-0.03876
6.04,-0.01501
6.044,-0.0381
6.048,-0.01861
6.052,-0.04175
6.056,-0.03251
6.06,-0.02418
6.064,-0.00139
6.068,-0.01623
6.072,-0.00102
6.076,-0.0333
6.08,-0.05459
6.084,-0.10031
6.088,-0.09249
6.092,-0.16263
6.096,-0.16355
6.1,-0.09808
6.104,0.03158
6.108,0.19826
6.112,0.38656
6.116,0.61367
6.12,0.79983
6.124,0.97121
6.128,0.96346
6.132,0.86207
6.136,0.69358
6.14,0.45284
6.144,0.22395
6.148,0.05942
6.152,-0.11091
6.156,-0.20127
6.16,-0.20325
6.164,-0.17031
6.168,-0.14462
6.172,-0.11733
6.176,-0.08179
6.18,-0.06784
6.184,-0.04592
6.188,-0.04168
6.192,-0.06308
6.196,-0.04908
6.2,-0.02604
6.204,-0.05447
6.208,-0.03907
6.212,-0.04945
6.216,-0.01106
6.22,-0.04124
6.224,-0.03057
6.228,-0.08127
6.232,-0.02785
6.236,-0.03437
6.24,-0.03451
6.244,-0.03262
6.248,-0.03534
6.252,-0.01945
6.256,-0.03798
6.26,-0.04453
6.264,-0.00853
6.268,-0.03629
6.272,-0.03358
6.276,-0.03343
6.28,-0.0189
6.284,-0.02413
6.288,-0.01252
6.292,-0.04398
6.296,-0.00973
6.3,-0.00445
6.304,-0.01944
6.308,-0.00499
6.312,-0.02816
6.316,-0.00764
6.32,0.00135
6.324,-0.01982
6.328,0.01179
6.332,0.05922
6.336,0.03517
6.34,0.05667
6.344,0.06107
6.348,0.07058
6.352,0.04934
6.356,0.10231
6.36,0.11385
6.364,0.13348
6.368,0.14821
6.372,0.15466
6.376,0.1524
6.38,0.15427
6.384,0.17252
6.388,0.17498
6.392,0.16788
6.396,0.20146
6.4,0.17256
6.404,0.1786
6.408,0.18403
6.412,0.18066
6.416,0.19331
6.42,0.17813
6.424,0.17724
6.428,0.18227
6.432,0.17527
6.436,0.14686
6.44,0.16203
6.444,0.13538
6.448,0.13862
6.452,0.11528
6.456,0.08098
6.46,0.07909
6.464,0.05451
6.468,0.06973
6.472,0.03163
6.476,0.06231
6.48,0.02543
6.484,0.03674
6.488,0.00705
6.492,0.00396
6.496,0.00691
6.5,0.01804
6.504,-0.00015
6.508,-0.01943
6.512,0.01357
6.516,-0.02822
6.52,-0.0285
6.524,-0.01827
6.528,-0.03851
6.532,-0.03724
6.536,-0.02868
6.54,-0.01572
6.544,-0.02932
6.548,-0.02226
6.552,-0.02301
6.556,-0.01754
6.56,-0.05208
6.564,-0.03236
6.568,-0.04237
6.572,-0.02504
6.576,-0.06041
6.58,-0.01192
6.584,-0.02625
6.588,-0.01435
6.592,-0.04667
6.596,-0.0154
6.6,-0.00942
6.604,0.00263
6.608,-0.02816
6.612,0.00412
6.616,-0.03304
6.62,-0.02852
6.624,-0.03879
6.628,-0.0345
6.632,-0.00611
6.636,-0.03165
6.64,-0.02035
6.644,-0.00725
6.648,-0.02401
6.652,-0.03445
6.656,0.00594
6.66,-0.01564
6.664,-0.03415
6.668,-0.00394
6.672,-0.01907
6.676,-0.00994
6.68,-0.03154
6.684,-0.04788
6.688,0.01703
6.692,-0.04446
6.696,0.00154
6.7,-0.03209
6.704,-0.01175
6.708,-0.02662
6.712,-0.03688
6.716,-0.02161
6.72,-0.04453
6.724,-0.03102
6.728,-0.05687
6.732,-0.01789
6.736,-0.04302
6.74,-0.01187
6.744,-0.0192
6.748,-0.02466
6.752,-0.02269
6.756,-0.03147
6.76,-0.02898
6.764,-0.0499
6.768,-0.01483
6.772,-0.03884
6.776,-0.01295
6.78,0.00564
6.784,-0.01607
6.788,-0.00276
6.792,0.01129
6.796,0.03954
6.8,0.04289
6.804,0.04723
6.808,0.0613
6.812,0.08309
6.816,0.06721
6.82,0.07853
6.824,0.09362
6.828,0.0604
6.832,0.06875
6.836,0.04273
6.84,0.02874
6.844,0.0033
6.848,0.00112
6.852,0.01201
6.856,-0.01666
6.86,-0.01835
6.864,0.00991
6.868,-0.01368
6.872,-0.01543
6.876,-0.02547
6.88,-0.02716
6.884,-0.01388
6.888,-0.02909
6.892,0.00644
6.896,-0.00245
6.9,0.01598
6.904,-0.02994
6.908,-0.02222
6.912,0.01407
6.916,-0.01616
6.92,-0.01935
6.924,-0.02349
6.928,-0.01282
6.932,-0.04421
6.936,-0.05863
6.94,-0.11924
6.944,-0.13568
6.948,-0.15702
6.952,-0.08471
6.956,0.01174
6.96,0.18428
6.964,0.4091
6.968,0.60684
6.972,0.80052
6.976,0.92557
6.98,0.99292
6.984,0.89044
6.988,0.73925
6.992,0.51799
6.996,0.29385
7.0,0.07795
7.004,-0.07349
7.008,-0.16091
7.012,-0.17234
7.016,-0.16961
7.02,-0.12239
7.024,-0.0833
7.028,-0.06172
7.032,-0.0335
7.036,-0.02228
7.04,0.0124
7.044,0.0138
7.048,-0.02172
7.052,0.01666
7.056,-0.02251
7.06,-0.03671
7.064,0.01765
7.068,-0.01298
7.072,0.00968
7.076,0.00194
7.08,-0.04112
7.084,-0.00452
7.088,-0.02149
7.092,-0.00773
7.096,-0.00655
7.1,0.00816
7.104,0.00971
7.108,0.00223
7.112,-0.02281
7.116,-0.0093
7.12,-0.0139
7.124,-0.01541
7.128,-0.0173
7.132,-0.01753
7.136,0.01954
7.14,0.01312
7.144,-0.0004
7.148,0.0019
7.152,-0.00115
7.156,-0.01081
7.16,0.00445
7.164,0.0032
7.168,0.01163
7.172,0.01435
7.176,0.02804
7.18,0.02434
7.184,0.04625
7.188,0.06631
7.192,0.04416
7.196,0.0748
7.2,0.0955
7.204,0.10682
7.208,0.11987
7.212,0.12798
7.216,0.12204
7.22,0.12086
7.224,0.17332
7.228,0.1697
7.232,0.18572
7.236,0.18838
7.24,0.18118
7.244,0.17625
7.248,0.2238
7.252,0.18918
7.256,0.18727
7.26,0.22232
7.264,0.20497
7.268,0.20659
7.272,0.15503
7.276,0.18418
7.28,0.17098
7.284,0.17402
7.288,0.14017
7.292,0.13469
7.296,0.15743
7.3,0.10622
7.304,0.12656
7.308,0.1244
7.312,0.10202
7.316,0.06763
7.32,0.07933
7.324,0.06671
7.328,0.06421
7.332,0.03774
7.336,0.03919
7.34,0.03823
7.344,0.05572
7.348,0.01874
7.352,0.01748
7.356,-0.00868
7.36,0.02714
7.364,0.0036
7.368,0.01684
7.372,0.02737
7.376,0.01488
7.38,0.03275
7.384,0.02552
7.388,0.02834
7.392,0.03879
7.396,0.06857
7.4,0.07837
7.404,0.08037
7.408,0.09175
7.412,0.11036
7.416,0.09671
7.42,0.08723
7.424,0.08097
7.428,0.06709
7.432,0.04775
7.436,0.07286
7.44,0.01038
7.444,-0.00355
7.448,0.02723
7.452,-0.00585
7.456,0.00271
7.46,0.01534
7.464,0.01489
7.468,-0.01215
7.472,-0.02339
7.476,-0.00376
7.48,0.01226
7.484,-0.01008
7.488,-0.01869
7.492,0.00182
7.496,-0.00957
7.5,-0.01542
7.504,0.0319
7.508,-0.00906
7.512,-0.01782
7.516,-0.01304
7.52,-0.0038
7.524,-0.03302
7.528,-0.04614
7.532,-0.05371
7.536,-0.06968
7.54,-0.13403
7.544,-0.11792
7.548,-0.02308
7.552,0.10224
7.556,0.30672
7.56,0.52186
7.564,0.70016
7.568,0.90584
7.572,0.96275
7.576,0.9503
7.58,0.85727
7.584,0.64241
7.588,0.42825
7.592,0.17103
7.596,0.02452
7.6,-0.10137
7.604,-0.16019
7.608,-0.17745
7.612,-0.12325
7.616,-0.07445
7.62,-0.03684
7.624,-0.01147
7.628,-0.01936
7.632,-0.0012
7.636,0.00826
7.64,0.0033
7.644,0.00545
7.648,0.01582
7.652,0.01883
7.656,-0.01157
7.66,-0.00817
7.664,-0.01914
7.668,-0.00345
7.672,-0.00053
7.676,-0.00995
7.68,-0.01313
7.684,0.00388
7.688,0.02375
7.692,0.00644
7.696,0.00771
7.7,-0.01905
7.704,-0.00183
7.708,-0.02268
7.712,0.01377
7.716,0.01462
7.72,0.00438
7.724,-0.0072
7.728,0.00489
7.732,-0.00302
7.736,0.00425
7.74,0.00505
7.744,-0.01222
7.748,0.02635
7.752,0.00794
7.756,0.03112
7.76,0.03863
7.764,0.01507
7.768,0.04553
7.772,0.07236
7.776,0.04917
7.78,0.06339
7.784,0.07772
7.788,0.07292
7.792,0.10132
7.796,0.09357
7.8,0.11916
7.804,0.13467
7.808,0.13822
7.812,0.14192
7.816,0.15291
7.82,0.17215
7.824,0.17477
7.828,0.21416
7.832,0.18132
7.836,0.2009
7.84,0.22518
7.844,0.19813
7.848,0.21575
7.852,0.19921
7.856,0.23479
7.86,0.19368
7.864,0.23021
7.868,0.20089
7.872,0.20866
7.876,0.20156
7.88,0.18379
7.884,0.17921
7.888,0.1682
7.892,0.19574
7.896,0.13818
7.9,0.12792
7.904,0.1133
7.908,0.07484
7.912,0.08707
7.916,0.07069
7.92,0.06543
7.924,0.05991
7.928,0.07728
7.932,0.05147
7.936,0.03994
7.94,0.05939
7.944,0.02945
7.948,0.03991
7.952,0.03687
7.956,0.04791
7.96,0.04188
7.964,0.03371
7.968,0.03134
7.972,0.01706
7.976,-0.0054
7.98,0.00578
7.984,0.04464
7.988,0.00356
7.992,0.01611
7.996,0.03881
8.0,0.00433
8.004,0.03889
8.008,0.02337
8.012,0.01187
8.016,0.00412
8.02,0.022
8.024,0.03145
8.028,0.02148
8.032,0.04247
8.036,0.05823
8.04,0.07514
8.044,0.07783
8.048,0.0786
8.052,0.08816
8.056,0.09451
8.06,0.08789
8.064,0.13264
8.068,0.09354
8.072,0.09795
8.076,0.10222
8.08,0.06521
8.084,0.06999
8.088,0.0236
8.092,0.05059
8.096,0.03106
8.1,0.0383
8.104,0.03246
8.108,0.02654
8.112,0.0089
8.116,0.0441
8.12,0.02406
8.124,0.02914
8.128,0.00164
8.132,0.02295
8.136,0.024
8.14,0.03674
8.144,0.01878
8.148,0.00309
8.152,0.01638
8.156,0.00743
8.16,0.00646
8.164,-0.02876
8.168,-0.01147
8.172,0.01547
8.176,-0.00813
8.18,0.00243
8.184,-0.01949
8.188,-0.08381
8.192,-0.06536
8.196,-0.11025
8.2,0.0018
8.204,0.08778
8.208,0.28258
8.212,0.49159
8.216,0.6935
8.22,0.89239
8.224,0.98927
8.228,1.0064
8.232,0.88044
8.236,0.71122
8.24,0.46979
8.244,0.26863
8.248,0.03313
8.252,-0.0748
8.256,-0.1228
8.26,-0.14175
8.264,-0.1147
8.268,-0.09328
8.272,-0.00238
8.276,0.0043
8.28,0.00804
8.284,0.01134
8.288,0.02392
8.292,-0.00778
8.296,0.04177
8.3,0.02187
8.304,0.00876
8.308,0.02906
8.312,0.01856
8.316,0.02825
8.32,0.03145
8.324,0.01959
8.328,0.00149
8.332,0.03608
8.336,0.00558
8.34,0.01189
8.344,-0.00196
8.348,0.01122
8.352,0.00568
8.356,0.01103
8.36,0.04446
8.364,0.0146
8.368,0.00354
8.372,0.02796
8.376,0.00982
8.38,0.01646
8.384,0.01675
8.388,0.00612
8.392,0.0084
8.396,0.05276
8.4,0.03319
8.404,0.05539
8.408,0.04547
8.412,0.04662
8.416,0.05047
8.42,0.07655
8.424,0.06537
8.428,0.0621
8.432,0.07563
8.436,0.06832
8.44,0.09394
8.444,0.09371
8.448,0.1024
8.452,0.11312
8.456,0.15718
8.46,0.14839
8.464,0.17351
8.468,0.16494
8.472,0.1568
8.476,0.18075
8.48,0.19224
8.484,0.19153
8.488,0.23338
8.492,0.22923
8.496,0.23922
8.5,0.25847
8.504,0.21648
8.508,0.23818
8.512,0.2234
8.516,0.27199
8.52,0.22112
8.524,0.21866
8.528,0.21279
8.532,0.2035
8.536,0.21046
8.54,0.2099
8.544,0.1633
8.548,0.15723
8.552,0.16178
8.556,0.16792
8.56,0.14195
8.564,0.09877
8.568,0.11008
8.572,0.08451
8.576,0.06766
8.58,0.08719
8.584,0.09002
8.588,0.05602
8.592,0.06913
8.596,0.06517
8.6,0.05297
8.604,0.03874
8.608,0.0311
8.612,0.02946
8.616,0.05174
8.62,0.04073
8.624,0.03065
8.628,0.05238
8.632,0.03151
8.636,0.03244
8.64,0.02642
8.644,0.03674
8.648,0.0293
8.652,0.03285
8.656,0.02942
8.66,0.00464
8.664,0.00644
8.668,0.01992
8.672,0.02865
8.676,0.00242
8.68,0.01599
8.684,0.00784
8.688,0.04681
8.692,0.0149
8.696,0.02545
8.7,0.0127
8.704,0.02637
8.708,0.02622
8.712,0.03681
8.716,0.03561
8.72,0.02981
8.724,0.0328
8.728,0.03217
8.732,0.03555
8.736,0.0187
8.74,0.0283
8.744,0.04174
8.748,0.04914
8.752,0.02796
8.756,0.00843
8.76,0.02506
8.764,0.0404
8.768,0.04938
8.772,0.03367
8.776,0.0315
8.78,0.03413
8.784,0.03331
8.788,0.02327
8.792,0.03307
8.796,0.03529
8.8,0.04554
8.804,0.04986
8.808,0.05136
8.812,0.06741
8.816,0.08366
8.82,0.0825
8.824,0.10773
8.828,0.13396
8.832,0.11791
8.836,0.12877
8.84,0.11413
8.844,0.12438
8.848,0.11997
8.852,0.11881
8.856,0.08936
8.86,0.06094
8.864,0.04041
8.868,0.08101
8.872,0.05805
8.876,0.0515
8.88,0.00809
8.884,0.03004
8.888,0.03689
8.892,0.01726
8.896,0.04956
8.9,0.03119
8.904,0.02478
8.908,0.00552
8.912,0.03224
8.916,0.02654
8.92,-0.00517
8.924,0.00597
8.928,0.01328
8.932,0.01711
8.936,0.03918
8.94,0.03637
8.944,0.02426
8.948,0.02237
8.952,0.0319
8.956,-0.05157
8.96,-0.08232
8.964,-0.09244
8.968,-0.08594
8.972,0.01853
8.976,0.1705
8.98,0.36596
8.984,0.5745
8.988,0.79754
8.992,0.95058
8.996,1.02088
9.0,0.99604
9.004,0.8665
9.008,0.64586
9.012,0.37546
9.016,0.19721
9.02,0.0137
9.024,-0.08211
9.028,-0.13917
9.032,-0.14077
9.036,-0.09781
9.04,-0.05829
9.044,-0.00224
9.048,-0.00832
9.052,0.00819
9.056,0.0329
9.06,0.00487
9.064,0.03404
9.068,0.04144
9.072,0.0279
9.076,0.03962
9.08,0.06082
9.084,0.025
9.088,0.02756
9.092,0.04828
9.096,0.06241
9.1,0.06079
9.104,0.02643
9.108,0.00727
9.112,0.02448
9.116,0.03342
9.12,0.02549
9.124,0.01154
9.128,0.02114
9.132,0.04004
9.136,0.03978
9.14,0.03066
9.144,0.02842
9.148,0.04474
9.152,0.02944
9.156,0.0674
9.16,0.04701
9.164,0.06705
9.168,0.02027
9.172,0.03451
9.176,0.06686
9.18,0.04049
9.184,0.05282
9.188,0.05395
9.192,0.0591
9.196,0.08585
9.2,0.07485
9.204,0.08299
9.208,0.09203
9.212,0.09102
9.216,0.14135
9.22,0.14791
9.224,0.12183
9.228,0.14681
9.232,0.13259
9.236,0.19063
9.24,0.1893
9.244,0.19213
9.248,0.19103
9.252,0.20335
9.256,0.22188
9.26,0.26005
9.264,0.22867
9.268,0.24402
9.272,0.26528
9.276,0.2457
9.28,0.22638
9.284,0.23072
9.288,0.21881
9.292,0.2325
9.296,0.21217
9.3,0.22639
9.304,0.21796
9.308,0.17866
9.312,0.21712
9.316,0.19895
9.32,0.16465
9.324,0.14912
9.328,0.15807
9.332,0.13502
9.336,0.11269
9.34,0.12024
9.344,0.10813
9.348,0.11421
9.352,0.06547
9.356,0.07143
9.36,0.07408
9.364,0.05901
9.368,0.06448
9.372,0.06176
9.376,0.05433
9.38,0.04971
9.384,0.04618
9.388,0.06085
9.392,0.0449
9.396,0.05083
9.4,0.05502
9.404,0.02252
9.408,0.01028
9.412,0.01781
9.416,0.04284
9.42,-0.01255
9.424,0.03275
9.428,0.0474
9.432,0.00287
9.436,0.01849
9.44,0.00472
9.444,0.00362
9.448,0.01864
9.452,0.01565
9.456,0.02413
9.46,0.05092
9.464,0.03209
9.468,0.04946
9.472,0.03823
9.476,0.01685
9.48,0.03969
9.484,0.03622
9.488,0.02852
9.492,0.03565
9.496,0.03209
9.5,0.00816
9.504,0.0294
9.508,0.04896
9.512,0.00415
9.516,0.05093
9.52,0.03289
9.524,0.062
9.528,0.03733
9.532,0.03592
9.536,0.05148
9.54,0.04298
9.544,0.0446
9.548,0.05091
9.552,0.02897
9.556,0.00528
9.56,0.0589
9.564,0.07564
9.568,0.08397
9.572,0.08692
9.576,0.10958
9.58,0.10651
9.584,0.10122
9.588,0.13753
9.592,0.12258
9.596,0.12694
9.6,0.11986
9.604,0.13746
9.608,0.11109
9.612,0.10561
9.616,0.07863
9.62,0.09604
9.624,0.07525
9.628,0.04568
9.632,0.05505
9.636,0.04023
9.64,-0.00828
9.644,0.02901
9.648,0.04391
9.652,0.01492
9.656,0.03967
9.66,0.00823
9.664,0.01291
9.668,0.01106
9.672,0.0427
9.676,0.04439
9.68,0.03094
9.684,0.00471
9.688,0.00829
9.692,0.04901
9.696,0.04779
9.7,0.02253
9.704,0.05059
9.708,0.01592
9.712,0.00513
9.716,-0.04292
9.72,-0.07582
9.724,-0.08116
9.728,-0.06929
9.732,0.03939
9.736,0.16231
9.74,0.37952
9.744,0.58722
9.748,0.77241
9.752,0.93611
9.756,1.0159
9.76,1.00361
9.764,0.82422
9.768,0.62008
9.772,0.4013
9.776,0.1648
9.78,0.01217
9.784,-0.1158
9.788,-0.1612
9.792,-0.13258
9.796,-0.08589
9.8,-0.05586
9.804,-0.04392
9.808,-0.00145
9.812,0.03674
9.816,-0.00271
9.82,0.01529
9.824,0.03849
9.828,0.03238
9.832,0.03068
9.836,0.05451
9.84,0.01492
9.844,0.02773
9.848,0.04214
9.852,0.02326
9.856,0.03883
9.86,0.02511
9.864,0.03224
9.868,0.03802
9.872,-0.00642
9.876,0.02884
9.88,0.01595
9.884,0.02312
9.888,0.04792
9.892,0.04856
9.896,0.01376
9.9,0.02048
9.904,-0.00094
9.908,0.05437
9.912,0.03059
9.916,0.02382
9.92,0.04975
9.924,0.03502
9.928,0.03574
9.932,0.02596
9.936,0.02887
9.94,0.03281
9.944,0.07424
9.948,0.06147
9.952,0.03184
9.956,0.05976
9.96,0.04849
9.964,0.08229
9.968,0.10781
9.972,0.13267
9.976,0.11627
9.98,0.12224
9.984,0.10938
9.988,0.15442
9.992,0.1543
9.996,0.16537
