t_seg,ecg_mV
0.0,-0.02202
0.004,-0.01789
0.008,-0.03054
0.012,-0.05892
0.016,-0.02538
0.02,-0.02744
0.024,-0.04077
0.028,-0.01752
0.032,-0.00771
0.036,-0.01673
0.04,-0.02751
0.044,-0.03819
0.048,-0.02154
0.052,-0.04875
0.056,-0.01691
0.06,-0.01825
0.064,-0.02835
0.068,-0.01463
0.072,-0.0368
0.076,-0.01734
0.08,-0.02233
0.084,-0.03066
0.088,-0.0186
0.092,-0.03953
0.096,-0.03461
0.1,-0.0532
0.104,-0.02885
0.108,-0.02078
0.112,-0.01925
0.116,-0.02347
0.12,-0.01962
0.124,-0.01594
0.128,-0.05201
0.132,-0.03552
0.136,-0.04257
0.14,-0.03583
0.144,-0.02745
0.148,-0.01464
0.152,-0.03659
0.156,-0.04057
0.16,-0.06089
0.164,-0.01192
0.168,-0.03842
0.172,-0.01013
0.176,-0.02334
0.18,-0.0393
0.184,-0.05355
0.188,-0.03931
0.192,-0.03267
0.196,-0.02968
0.2,-0.01975
0.204,-0.04839
0.208,-0.03644
0.212,-0.03467
0.216,-0.0143
0.22,-0.02208
0.224,-0.02941
0.228,-0.03271
0.232,-0.04795
0.236,-0.02955
0.24,-0.06533
0.244,-0.05172
0.248,-0.04353
0.252,-0.02574
0.256,-0.0249
0.26,-0.02463
0.264,-0.02038
0.268,-0.04036
0.272,-0.03511
0.276,-0.04526
0.28,-0.02622
0.284,-0.04807
0.288,-0.02575
0.292,0.00785
0.296,-0.00401
0.3,-0.03557
0.304,-0.04215
0.308,-0.02537
0.312,-0.03751
0.316,-0.03635
0.32,-1e-05
0.324,-0.04326
0.328,-0.02631
0.332,-0.03311
0.336,-0.00804
0.34,-0.02455
0.344,-0.0401
0.348,-0.01302
0.352,-0.02657
0.356,-0.04399
0.36,-0.04101
0.364,-0.05771
0.368,-0.03769
0.372,-0.03052
0.376,-0.03603
0.38,-0.04268
0.384,-0.03104
0.388,-0.03634
0.392,-0.02922
0.396,-0.02239
0.4,-0.02951
0.404,-0.04072
0.408,-0.04308
0.412,-0.02549
0.416,-0.05607
0.42,-0.02727
0.424,-0.02841
0.428,-0.08225
0.432,-0.05501
0.436,-0.03405
0.44,-0.05448
0.444,-0.02217
0.448,-0.01981
0.452,-0.02929
0.456,-0.03163
0.46,-0.02569
0.464,-0.02149
0.468,-0.02353
0.472,-0.02709
0.476,-0.02026
0.48,-0.0202
0.484,-0.03827
0.488,-0.00542
0.492,-0.05086
0.496,-0.02066
0.5,-0.04066
0.504,-0.02293
0.508,-0.02345
0.512,-0.01745
0.516,-0.02092
0.52,-0.01622
0.524,0.00529
0.528,-0.03689
0.532,-0.06917
0.536,-0.00427
0.54,-0.01137
0.544,-0.03247
0.548,-0.03059
0.552,-0.03539
0.556,-0.02362
0.56,-0.0284
0.564,0.00434
0.568,0.00701
0.572,0.01699
0.576,0.01557
0.58,0.05634
0.584,0.07938
0.588,0.05863
0.592,0.05802
0.596,0.0684
0.6,0.05653
0.604,0.06703
0.608,0.0577
0.612,0.06213
0.616,0.04721
0.62,0.04427
0.624,0.01015
0.628,-0.02205
0.632,0.02129
0.636,0.01524
0.64,-0.01747
0.644,-0.01873
0.648,0.01761
0.652,-0.00218
0.656,-0.03082
0.66,-0.04614
0.664,-0.02405
0.668,-0.02371
0.672,-0.01687
0.676,-0.0184
0.68,0.00918
0.684,-0.03112
0.688,-0.04525
0.692,-0.0309
0.696,-0.03128
0.7,-0.03383
0.704,-0.02768
0.708,-0.02283
0.712,-0.04612
0.716,-0.0538
0.72,-0.09913
0.724,-0.1689
0.728,-0.14516
0.732,-0.09332
0.736,0.02813
0.74,0.17401
0.744,0.40818
0.748,0.57852
0.752,0.78613
0.756,0.92618
0.76,0.9938
0.764,0.90425
0.768,0.72945
0.772,0.5274
0.776,0.25613
0.78,0.0677
0.784,-0.07175
0.788,-0.16878
0.792,-0.22017
0.796,-0.17705
0.8,-0.12468
0.804,-0.07187
0.808,-0.04642
0.812,-0.05644
0.816,-0.02794
0.82,-0.02867
0.824,-0.01133
0.828,-0.03411
0.832,-0.01303
0.836,-0.02353
0.84,-0.01939
0.844,-0.06874
0.848,-0.02964
0.852,-0.01183
0.856,-0.02168
0.86,-0.00518
0.864,-0.02993
0.868,-0.01512
0.872,0.00173
0.876,0.00105
0.88,-0.01925
0.884,-0.00734
0.888,-0.02384
0.892,-0.00563
0.896,-0.02972
0.9,-0.03188
0.904,-0.01535
0.908,-0.03246
0.912,-0.00641
0.916,-0.02177
0.92,-0.0333
0.924,-0.01286
0.928,-0.00544
0.932,-0.00097
0.936,-0.02004
0.94,-0.02384
0.944,-0.00385
0.948,-0.00044
0.952,-0.00344
0.956,-0.00955
0.96,0.00731
0.964,0.04448
0.968,0.03983
0.972,0.0354
0.976,0.02554
0.98,0.04707
0.984,0.08237
0.988,0.10584
0.992,0.13227
0.996,0.09334
1.0,0.11997
1.004,0.12591
1.008,0.13416
1.012,0.14274
1.016,0.18788
1.02,0.16974
1.024,0.18293
1.028,0.23023
1.032,0.21757
1.036,0.1903
1.04,0.17544
1.044,0.20193
1.048,0.19796
1.052,0.18055
1.056,0.21143
1.06,0.17447
1.064,0.16195
1.068,0.16599
1.072,0.16475
1.076,0.14359
1.08,0.1291
1.084,0.10419
1.088,0.10513
1.092,0.06251
1.096,0.08733
1.1,0.06299
1.104,0.04741
1.108,0.05387
1.112,0.04008
1.116,0.00991
1.12,0.01652
1.124,0.00141
1.128,0.0197
1.132,0.00308
1.136,-0.00905
1.14,-0.0014
1.144,-0.01237
1.148,-0.01715
1.152,-0.01458
1.156,-0.01762
1.16,0.01016
1.164,-0.01305
1.168,0.02584
1.172,0.00159
1.176,-0.02181
1.18,-0.01987
1.184,-0.00795
1.188,-0.02336
1.192,-0.03867
1.196,-0.0257
1.2,0.00389
1.204,-0.01913
1.208,-0.03398
1.212,-0.01165
1.216,0.00028
1.22,0.0069
1.224,-0.00824
1.228,-0.01411
1.232,-0.03659
1.236,-0.00818
1.24,-0.01389
1.244,-0.00584
1.248,-0.01458
1.252,-0.02169
1.256,-0.0048
1.26,-0.00706
1.264,-0.01952
1.268,-0.03539
1.272,-0.0147
1.276,-0.03805
1.28,-0.02929
1.284,-0.00927
1.288,-0.01632
1.292,-0.02335
1.296,-0.00335
1.3,-0.02797
1.304,-0.0261
1.308,-0.00645
1.312,-0.01583
1.316,-0.01534
1.32,-0.014
1.324,-0.01601
1.328,-0.02285
1.332,-0.00811
1.336,-0.00371
1.34,-0.01976
1.344,-0.0334
1.348,-0.03152
1.352,0.01874
1.356,0.01881
1.36,-0.03769
1.364,-0.03737
1.368,-0.01251
1.372,-0.00118
1.376,-0.00587
1.38,-0.02059
1.384,-0.02269
1.388,-0.03214
1.392,-0.01834
1.396,-0.00229
1.4,-0.0241
1.404,-0.0376
1.408,-0.02345
1.412,-0.00872
1.416,-0.0101
1.42,-0.02157
1.424,-0.02222
1.428,0.00862
1.432,-0.02865
1.436,-0.01001
1.44,-0.01793
1.444,-0.01731
1.448,-0.02617
1.452,-0.01229
1.456,-0.00567
1.46,-0.03262
1.464,0.00839
1.468,0.00546
1.472,0.01288
1.476,0.00376
1.48,0.05029
1.484,0.07465
1.488,0.04289
1.492,0.06359
1.496,0.07979
1.5,0.09454
1.504,0.09539
1.508,0.07702
1.512,0.07195
1.516,0.0547
1.52,0.04828
1.524,0.0402
1.528,0.04177
1.532,0.01575
1.536,0.00989
1.54,-0.03716
1.544,-0.02133
1.548,-0.01255
1.552,0.01196
1.556,0.00362
1.56,-0.00771
1.564,-0.00881
1.568,-0.00904
1.572,-0.00508
1.576,-0.03242
1.58,0.00326
1.584,-0.00868
1.588,-0.02429
1.592,-0.02572
1.596,-0.00049
1.6,-0.00059
1.604,0.0156
1.608,-0.03295
1.612,-0.02863
1.616,-0.01474
1.62,-0.07516
1.624,-0.08022
1.628,-0.11608
1.632,-0.11043
1.636,-0.04819
1.64,0.0627
1.644,0.24268
1.648,0.45378
1.652,0.6661
1.656,0.8406
1.66,0.95617
1.664,0.99
1.668,0.89996
1.672,0.70791
1.676,0.4753
1.68,0.22381
1.684,0.07015
1.688,-0.10384
1.692,-0.16457
1.696,-0.16597
1.7,-0.17689
1.704,-0.1322
1.708,-0.04525
1.712,-0.05279
1.716,-0.02342
1.72,0.03034
1.724,0.00091
1.728,-0.03116
1.732,-0.01305
1.736,0.0033
1.74,0.00724
1.744,0.00803
1.748,-0.01772
1.752,-0.00425
1.756,0.01039
1.76,-0.02513
1.764,0.00026
1.768,-0.00449
1.772,-0.00145
1.776,0.00364
1.78,-0.00149
1.784,0.00083
1.788,-0.00518
1.792,0.00434
1.796,0.0153
1.8,0.00484
1.804,-0.03723
1.808,0.02461
1.812,-0.0038
1.816,0.00225
1.82,-0.01744
1.824,-0.00728
1.828,0.00294
1.832,-0.01814
1.836,0.02585
1.84,0.01321
1.844,0.06246
1.848,0.04296
1.852,0.04402
1.856,0.06188
1.86,0.04942
1.864,0.03651
1.868,0.05371
1.872,0.04902
1.876,0.05535
1.88,0.0831
1.884,0.09264
1.888,0.10028
1.892,0.09237
1.896,0.12089
1.9,0.15073
1.904,0.15613
1.908,0.16567
1.912,0.17509
1.916,0.18371
1.92,0.2108
1.924,0.19833
1.928,0.21237
1.932,0.2094
1.936,0.22336
1.94,0.23282
1.944,0.21462
1.948,0.19762
1.952,0.22308
1.956,0.20908
1.96,0.21484
1.964,0.18814
1.968,0.16811
1.972,0.18324
1.976,0.15056
1.98,0.16196
1.984,0.13995
1.988,0.11197
1.992,0.14329
1.996,0.12457
2.0,0.0896
2.004,0.10165
2.008,0.07523
2.012,0.0839
2.016,0.0501
2.02,0.05361
2.024,0.05148
2.028,0.03296
2.032,0.04731
2.036,0.03468
2.04,-0.00203
2.044,0.03253
2.048,0.00618
2.052,-0.00485
2.056,-0.0105
2.06,-0.00465
2.064,0.00429
2.068,0.00803
2.072,0.00491
2.076,0.00736
2.08,-0.00416
2.084,0.00682
2.088,-0.01022
2.092,0.00091
2.096,0.01056
2.1,0.01681
2.104,0.01947
2.108,-0.00234
2.112,-0.03066
2.116,-0.00162
2.12,0.02
2.124,-0.02276
2.128,0.00902
2.132,0.00635
2.136,0.01604
2.14,-0.01171
2.144,0.01086
2.148,0.00198
2.152,0.01483
2.156,0.01481
2.16,0.01056
2.164,-0.02963
2.168,0.0032
2.172,0.02722
2.176,0.01543
2.18,0.00982
2.184,0.02607
2.188,0.00192
2.192,0.01602
2.196,0.01711
2.2,0.0032
2.204,0.01143
2.208,0.0107
2.212,-0.00519
2.216,0.01189
2.22,-0.01574
2.224,0.02154
2.228,0.00846
2.232,0.0316
2.236,0.00459
2.24,0.0002
2.244,0.01827
2.248,-0.00433
2.252,0.01743
2.256,0.04313
2.26,-0.00954
2.264,-0.01236
2.268,0.00332
2.272,0.02905
2.276,0.01973
2.28,0.0161
2.284,0.00199
2.288,0.01961
2.292,0.02769
2.296,0.02519
2.3,0.02761
2.304,0.01224
2.308,0.01571
2.312,-0.00991
2.316,0.0281
2.32,0.02873
2.324,0.00588
2.328,-0.00213
2.332,-0.00117
2.336,0.01836
2.34,0.00324
2.344,0.0154
2.348,0.03248
2.352,0.01064
2.356,0.00588
2.36,0.01008
2.364,0.01221
2.368,0.04528
2.372,0.01143
2.376,0.01737
2.38,0.01136
2.384,0.01574
2.388,-0.00052
2.392,0.0386
2.396,0.00932
2.4,-0.0177
2.404,0.00891
2.408,-0.00158
2.412,0.0064
2.416,0.04634
2.42,0.01254
2.424,0.01432
2.428,0.01904
2.432,0.04553
2.436,0.05222
2.44,0.05741
2.444,0.0349
2.448,0.04977
2.452,0.07413
2.456,0.09338
2.46,0.08364
2.464,0.11747
2.468,0.12875
2.472,0.13944
2.476,0.12355
2.48,0.1046
2.484,0.11059
2.488,0.06798
2.492,0.0617
2.496,0.06847
2.5,0.07542
2.504,0.05116
2.508,0.03321
2.512,0.02315
2.516,0.03144
2.52,0.03678
2.524,0.02902
2.528,0.04014
2.532,-0.01876
2.536,0.01807
2.54,0.01326
2.544,0.0195
2.548,0.02712
2.552,-0.00457
2.556,0.01373
2.56,0.02466
2.564,-0.00304
2.568,0.04381
2.572,0.02175
2.576,0.00317
2.58,0.01184
2.584,0.00276
2.588,-0.00511
2.592,-0.03612
2.596,-0.08573
2.6,-0.12616
2.604,-0.10339
2.608,-0.00923
2.612,0.14547
2.616,0.31962
2.62,0.59314
2.624,0.79257
2.628,0.95369
2.632,1.00802
2.636,0.97781
2.64,0.8461
2.644,0.64993
2.648,0.39145
2.652,0.19208
2.656,-0.00588
2.66,-0.08276
2.664,-0.1462
2.668,-0.15765
2.672,-0.10497
2.676,-0.06617
2.68,-0.02403
2.684,0.00381
2.688,-0.01169
2.692,0.00535
2.696,0.03941
2.7,0.03218
2.704,0.0404
2.708,0.03526
2.712,0.0263
2.716,0.03031
2.72,0.02227
2.724,0.00851
2.728,0.02108
2.732,0.0218
2.736,-0.0008
2.74,0.00826
2.744,0.02616
2.748,0.02176
2.752,0.01763
2.756,0.02967
2.76,0.00662
2.764,0.04548
2.768,0.02105
2.772,0.01553
2.776,0.02094
2.78,0.02311
2.784,0.02624
2.788,0.00856
2.792,0.03478
2.796,0.01253
2.8,0.03178
2.804,0.02158
2.808,0.03936
2.812,0.03739
2.816,0.0446
2.82,0.05656
2.824,0.07582
2.828,0.06761
2.832,0.05705
2.836,0.09709
2.84,0.09803
2.844,0.09948
2.848,0.09437
2.852,0.10073
2.856,0.11786
2.86,0.12484
2.864,0.16662
2.868,0.14271
2.872,0.18636
2.876,0.18645
2.88,0.18424
2.884,0.20205
2.888,0.23342
2.892,0.23714
2.896,0.21537
2.9,0.24448
2.904,0.23294
2.908,0.24587
2.912,0.20252
2.916,0.2717
2.92,0.24346
2.924,0.24823
2.928,0.23935
2.932,0.21149
2.936,0.23641
2.94,0.21193
2.944,0.21411
2.948,0.20748
2.952,0.14044
2.956,0.14975
2.96,0.15599
2.964,0.142
2.968,0.1299
2.972,0.09072
2.976,0.10038
2.98,0.08694
2.984,0.10119
2.988,0.07171
2.992,0.08159
2.996,0.05925
3.0,0.04495
3.004,0.05152
3.008,0.03431
3.012,0.04659
3.016,0.04634
3.02,0.06877
3.024,0.03285
3.028,0.047
3.032,0.04639
3.036,0.05724
3.04,0.03316
3.044,-0.01001
3.048,0.03155
3.052,0.04124
3.056,0.07187
3.06,0.00232
3.064,0.02149
3.068,0.01454
3.072,0.01705
3.076,0.03744
3.08,0.03398
3.084,0.03544
3.088,0.01989
3.092,0.00587
3.096,0.03897
3.1,0.00635
3.104,0.0172
3.108,0.03831
3.112,0.02224
3.116,0.02239
3.12,0.04859
3.124,0.04778
3.128,0.03688
3.132,0.03041
3.136,0.01568
3.14,0.0048
3.144,0.07574
3.148,0.05417
3.152,0.0281
3.156,0.01825
3.16,0.05111
3.164,0.0561
3.168,0.0567
3.172,0.08652
3.176,0.0851
3.18,0.09648
3.184,0.12153
3.188,0.10095
3.192,0.14463
3.196,0.14099
3.2,0.10888
3.204,0.12836
3.208,0.0997
3.212,0.10162
3.216,0.09024
3.22,0.08384
3.224,0.0628
3.228,0.08442
3.232,0.03932
3.236,0.05937
3.24,0.03338
3.244,0.0315
3.248,0.0197
3.252,0.01606
3.256,0.04757
3.26,0.03212
3.264,0.03625
3.268,0.02749
3.272,0.03915
3.276,0.05402
3.28,0.03673
3.284,0.03002
3.288,0.02168
3.292,0.01367
3.296,0.00302
3.3,0.01943
3.304,0.00415
3.308,0.00656
3.312,-0.00862
3.316,-0.04052
3.32,-0.10416
3.324,-0.08907
3.328,-0.02692
3.332,0.05231
3.336,0.2419
3.34,0.43243
3.344,0.63856
3.348,0.87781
3.352,0.98813
3.356,1.01037
3.36,0.9699
3.364,0.79438
3.368,0.55393
3.372,0.36782
3.376,0.12552
3.38,-0.03102
3.384,-0.11546
3.388,-0.18085
3.392,-0.10286
3.396,-0.11704
3.4,-0.0592
3.404,-0.01008
3.408,0.00895
3.412,0.01412
3.416,0.03193
3.42,0.04948
3.424,0.01046
3.428,0.00571
3.432,0.01678
3.436,0.05807
3.44,0.03035
3.444,0.03722
3.448,0.02887
3.452,0.02696
3.456,0.01755
3.46,0.00799
3.464,0.05686
3.468,0.02763
3.472,0.02752
3.476,0.03985
3.48,0.03124
3.484,-0.00542
3.488,0.06435
3.492,0.04652
3.496,0.02686
3.5,0.04463
3.504,0.02913
3.508,0.01962
3.512,0.03178
3.516,0.05173
3.52,0.06837
3.524,0.02418
3.528,0.03359
3.532,0.03177
3.536,0.04266
3.54,0.0592
3.544,0.0714
3.548,0.06213
3.552,0.05458
3.556,0.08523
3.56,0.08755
3.564,0.09111
3.568,0.08501
3.572,0.09498
3.576,0.09241
3.58,0.08032
3.584,0.16233
3.588,0.14501
3.592,0.16564
3.596,0.1896
3.6,0.2074
3.604,0.18828
3.608,0.19787
3.612,0.21529
3.616,0.22188
3.62,0.23814
3.624,0.24424
3.628,0.25728
3.632,0.25626
3.636,0.25602
3.64,0.21143
3.644,0.23917
3.648,0.23941
3.652,0.23352
3.656,0.25796
3.66,0.22872
3.664,0.18402
3.668,0.21335
3.672,0.21522
3.676,0.2197
3.68,0.17562
3.684,0.16964
3.688,0.15122
3.692,0.15708
3.696,0.08631
3.7,0.12797
3.704,0.07006
3.708,0.09138
3.712,0.11773
3.716,0.07501
3.72,0.0938
3.724,0.0552
3.728,0.06826
3.732,0.03827
3.736,0.03833
3.74,0.02123
3.744,0.0557
3.748,0.05289
3.752,0.0264
3.756,0.03473
3.76,0.04984
3.764,0.03337
3.768,0.00266
3.772,0.05139
3.776,0.01191
3.78,0.03561
3.784,0.0079
3.788,0.00783
3.792,0.02379
3.796,0.00803
3.8,0.02452
3.804,0.04311
3.808,0.02055
3.812,0.02287
3.816,0.01904
3.82,0.02748
3.824,0.04057
3.828,0.02495
3.832,0.04177
3.836,0.02968
3.84,0.03652
3.844,0.02497
3.848,0.04135
3.852,-0.00177
3.856,0.04175
3.86,0.02913
3.864,0.033
3.868,0.07236
3.872,0.02839
3.876,0.0235
3.88,0.01577
3.884,0.02631
3.888,0.01245
3.892,0.03414
3.896,0.01332
3.9,0.02032
3.904,0.01214
3.908,0.02525
3.912,0.04604
3.916,0.06311
3.92,0.06047
3.924,0.07636
3.928,0.09695
3.932,0.13193
3.936,0.1041
3.94,0.09529
3.944,0.11009
3.948,0.11333
3.952,0.1413
3.956,0.12968
3.96,0.13114
3.964,0.11151
3.968,0.09029
3.972,0.10021
3.976,0.07481
3.98,0.06053
3.984,0.06092
3.988,0.02985
3.992,0.05643
3.996,0.01914
4.0,0.0379
4.004,0.0349
4.008,0.04911
4.012,0.02833
4.016,0.04934
4.02,0.02991
4.024,0.00978
4.028,0.0541
4.032,0.04285
4.036,0.06517
4.04,0.04334
4.044,0.02151
4.048,0.00549
4.052,0.04681
4.056,0.01487
4.06,0.03044
4.064,0.0213
4.068,-0.00077
4.072,-0.0387
4.076,-0.05968
4.08,-0.0763
4.084,-0.0198
4.088,0.10281
4.092,0.3013
4.096,0.50574
4.1,0.70742
4.104,0.89418
4.108,1.02846
4.112,1.01688
4.116,0.91526
4.12,0.68978
4.124,0.45646
4.128,0.25745
4.132,0.07451
4.136,-0.07489
4.14,-0.14991
4.144,-0.13356
4.148,-0.12606
4.152,-0.06041
4.156,-0.04331
4.16,-0.00084
4.164,0.01597
4.168,-0.00122
4.172,0.00804
4.176,0.00838
4.18,0.01243
4.184,0.01267
4.188,0.0238
4.192,0.02541
4.196,0.0247
4.2,0.05779
4.204,0.02041
4.208,0.01779
4.212,0.04361
4.216,0.00956
4.22,0.05179
4.224,0.02933
4.228,0.0093
4.232,0.01984
4.236,0.00113
4.24,0.03158
4.244,0.02827
4.248,0.01842
4.252,0.02758
4.256,0.02369
4.26,0.0427
4.264,0.01564
4.268,0.04612
4.272,0.05231
4.276,0.04096
4.28,0.02188
4.284,0.04821
4.288,0.05512
4.292,0.04826
4.296,0.02439
4.3,0.03405
4.304,0.0538
4.308,0.05491
4.312,0.08224
4.316,0.08126
4.32,0.10857
4.324,0.08117
4.328,0.10566
4.332,0.10755
4.336,0.12323
4.34,0.14298
4.344,0.12429
4.348,0.18175
4.352,0.17358
4.356,0.17675
4.36,0.22014
4.364,0.19672
4.368,0.22756
4.372,0.21195
4.376,0.24019
4.38,0.23106
4.384,0.25201
4.388,0.27432
4.392,0.20751
4.396,0.26679
4.4,0.2377
4.404,0.21898
4.408,0.23983
4.412,0.21067
4.416,0.21741
4.42,0.1825
4.424,0.18224
4.428,0.17988
4.432,0.17652
4.436,0.14837
4.44,0.14261
4.444,0.11791
4.448,0.1087
4.452,0.11872
4.456,0.06568
4.46,0.06818
4.464,0.06862
4.468,0.06354
4.472,0.07417
4.476,0.04436
4.48,0.03851
4.484,0.0488
4.488,0.066
4.492,0.0198
4.496,0.04869
4.5,0.03935
4.504,0.00661
4.508,0.0164
4.512,0.01217
4.516,0.01245
4.52,0.01904
4.524,0.01335
4.528,0.03399
4.532,-0.00349
4.536,0.00416
4.54,0.02852
4.544,0.02586
4.548,0.00984
4.552,0.01109
4.556,0.00334
4.56,0.04067
4.564,-0.01262
4.568,0.03436
4.572,0.00413
4.576,0.03279
4.58,0.03421
4.584,0.0025
4.588,0.0183
4.592,0.04774
4.596,0.01038
4.6,0.00925
4.604,0.01256
4.608,0.00939
4.612,0.00407
4.616,0.0172
4.62,0.04837
4.624,-0.0043
4.628,0.03312
4.632,0.00154
4.636,0.01348
4.64,0.01175
4.644,-0.01087
4.648,0.02103
4.652,0.0136
4.656,-0.00669
4.66,0.02927
4.664,0.01005
4.668,0.00889
4.672,0.03404
4.676,0.00697
4.68,0.05537
4.684,0.03016
4.688,0.00959
4.692,0.00023
4.696,0.01668
4.7,0.03255
4.704,0.00147
4.708,-0.00076
4.712,0.0452
4.716,0.03071
4.72,0.04473
4.724,0.04916
4.728,0.07044
4.732,0.07906
4.736,0.09807
4.74,0.08671
4.744,0.09919
4.748,0.12921
4.752,0.10933
4.756,0.09706
4.76,0.10453
4.764,0.11171
4.768,0.08692
4.772,0.07952
4.776,0.06867
4.78,0.0194
4.784,0.04902
4.788,0.02349
4.792,0.04326
4.796,0.03536
4.8,0.0037
4.804,0.02244
4.808,0.02638
4.812,0.00189
4.816,0.03254
4.82,0.00826
4.824,0.02014
4.828,0.00879
4.832,0.00571
4.836,0.02913
4.84,0.00784
4.844,-0.00822
4.848,0.01009
4.852,0.02237
4.856,0.00872
4.86,0.03687
4.864,-0.00068
4.868,0.00138
4.872,-0.08386
4.876,-0.08557
4.88,-0.12918
4.884,-0.09484
4.888,0.02482
4.892,0.18108
4.896,0.37842
4.9,0.58062
4.904,0.7957
4.908,0.95044
4.912,0.99727
4.916,0.93643
4.92,0.78078
4.924,0.58448
4.928,0.3265
4.932,0.1373
4.936,-0.0086
4.94,-0.16368
4.944,-0.12823
4.948,-0.15905
4.952,-0.11583
4.956,-0.08029
4.96,-0.05051
4.964,-0.00662
4.968,-0.00313
4.972,0.01595
4.976,0.00563
4.98,0.01247
4.984,-0.0003
4.988,0.02821
4.992,0.01145
4.996,-0.01327
5.0,0.00625
5.004,0.02619
5.008,0.01159
5.012,0.03729
5.016,0.0001
5.02,0.00736
5.024,0.0188
5.028,0.01015
5.032,-0.02643
5.036,0.01055
5.04,0.0062
5.044,0.00809
5.048,0.00899
5.052,0.01491
5.056,0.0138
5.06,0.02035
5.064,-0.00625
5.068,-0.01265
5.072,0.01677
5.076,0.03496
5.08,0.0213
5.084,-0.01419
5.088,0.00109
5.092,0.03335
5.096,0.03248
5.1,0.00674
5.104,0.02515
5.108,0.06438
5.112,0.03233
5.116,0.08346
5.12,0.07013
5.124,0.07562
5.128,0.08164
5.132,0.08448
5.136,0.12313
5.14,0.08317
5.144,0.13048
5.148,0.12641
5.152,0.16179
5.156,0.16827
5.16,0.1832
5.164,0.17116
5.168,0.16984
5.172,0.19922
5.176,0.21608
5.18,0.23511
5.184,0.21937
5.188,0.21563
5.192,0.21145
5.196,0.21471
5.2,0.21982
5.204,0.21317
5.208,0.19514
5.212,0.22798
5.216,0.19952
5.22,0.20541
5.224,0.17957
5.228,0.15981
5.232,0.13514
5.236,0.12363
5.24,0.13413
5.244,0.12119
5.248,0.08792
5.252,0.10686
5.256,0.06687
5.26,0.04268
5.264,0.04608
5.268,0.0266
5.272,0.06587
5.276,0.04135
5.28,0.01271
5.284,0.01666
5.288,0.06556
5.292,0.0023
5.296,0.00082
5.3,0.02798
5.304,0.0022
5.308,0.03823
5.312,0.01983
5.316,0.036
5.32,0.01711
5.324,0.00399
5.328,0.0326
5.332,0.00553
5.336,0.00578
5.34,-0.00703
5.344,-0.04904
5.348,0.00337
5.352,0.00851
5.356,-0.00347
5.36,-0.00212
5.364,-0.01287
5.368,-0.02089
5.372,0.00348
5.376,-0.01274
5.38,-0.00184
5.384,0.00294
5.388,0.0204
5.392,0.00251
5.396,-0.01721
5.4,-0.02498
5.404,0.02559
5.408,-0.01781
5.412,-0.00248
5.416,-0.0078
5.42,-0.00253
5.424,-0.02281
5.428,-0.00534
5.432,0.0111
5.436,-0.0069
5.44,0.02302
5.444,0.01115
5.448,-0.01693
5.452,0.00427
5.456,-0.02363
5.46,-0.01929
5.464,-0.01141
5.468,-0.01299
5.472,-0.03137
5.476,0.00771
5.48,-0.00909
5.484,0.00141
5.488,-0.0147
5.492,-0.01376
5.496,-0.02939
5.5,-0.00281
5.504,0.00323
5.508,-0.00079
5.512,-0.01282
5.516,-0.01331
5.52,-0.01951
5.524,0.00887
5.528,-0.00847
5.532,-0.00949
5.536,-0.00994
5.54,-0.01767
5.544,-0.01809
5.548,-0.0214
5.552,-0.01908
5.556,-0.01904
5.56,-0.01045
5.564,0.00199
5.568,-0.03392
5.572,0.00916
5.576,-0.02963
5.58,-0.00973
5.584,0.01082
5.588,-0.01181
5.592,-0.0054
5.596,-0.0136
5.6,0.01302
5.604,0.01444
5.608,-0.00687
5.612,0.01054
5.616,0.02801
5.62,-0.0092
5.624,-0.00375
5.628,-0.00096
5.632,-0.02429
5.636,-0.0193
5.64,0.00201
5.644,-0.00251
5.648,-0.01229
5.652,-0.0109
5.656,0.01034
5.66,0.01065
5.664,-0.01566
5.668,-0.0306
5.672,-0.02813
5.676,-0.00673
5.68,-0.00387
5.684,-0.02055
5.688,-0.0438
5.692,-0.00928
5.696,-0.02981
5.7,-0.01014
5.704,-0.00625
5.708,0.01016
5.712,-0.0327
5.716,0.01814
5.72,0.00624
5.724,0.00497
5.728,-0.0185
5.732,0.014
5.736,0.02898
5.74,0.04945
5.744,0.01841
5.748,0.0831
5.752,0.03472
5.756,0.03709
5.76,0.06623
5.764,0.08379
5.768,0.10226
5.772,0.07501
5.776,0.08448
5.78,0.05458
5.784,0.0519
5.788,0.03829
5.792,0.03469
5.796,0.00661
5.8,0.01125
5.804,0.01729
5.808,0.00339
5.812,0.00168
5.816,0.02058
5.82,-0.01314
5.824,0.00507
5.828,-0.01527
5.832,-0.01865
5.836,-0.00842
5.84,-0.02671
5.844,-0.02036
5.848,-0.00062
5.852,-0.00043
5.856,0.00017
5.86,-0.00616
5.864,-0.01443
5.868,-0.01093
5.872,-0.03781
5.876,-0.0269
5.88,-0.04148
5.884,-0.03587
5.888,-0.06874
5.892,-0.104
5.896,-0.13706
5.9,-0.09055
5.904,0.02968
5.908,0.20946
5.912,0.40431
5.916,0.58107
5.92,0.83535
5.924,0.95269
5.928,0.98486
5.932,0.94167
5.936,0.75263
5.94,0.52011
5.944,0.30181
5.948,0.10529
5.952,-0.07646
5.956,-0.13382
5.96,-0.18783
5.964,-0.17757
5.968,-0.12617
5.972,-0.10183
5.976,-0.07663
5.98,-0.02332
5.984,-0.05709
5.988,-0.01324
5.992,-0.02371
5.996,-0.04159
6.0,-0.01074
6.004,-0.02759
6.008,-0.01916
6.012,-0.02776
6.016,-0.01777
6.02,-0.03175
6.024,-0.02712
6.028,-0.03902
6.032,-0.00442
6.036,-0.01533
6.04,-0.0079
6.044,-0.05215
6.048,-0.02623
6.052,-0.0217
6.056,-0.00164
6.06,-0.0178
6.064,-0.00083
6.068,-0.01184
6.072,-0.02708
6.076,-0.01201
6.08,-0.02417
6.084,-0.01736
6.088,-0.0078
6.092,0.00253
6.096,0.01049
6.1,-0.0136
6.104,-0.00649
6.108,-0.00526
6.112,-0.0059
6.116,0.01755
6.12,0.00368
6.124,0.00685
6.128,0.03043
6.132,0.02465
6.136,0.04381
6.14,0.06465
6.144,0.02565
6.148,0.05324
6.152,0.08817
6.156,0.09805
6.16,0.11928
6.164,0.12813
6.168,0.13551
6.172,0.15587
6.176,0.16263
6.18,0.18496
6.184,0.18852
6.188,0.18524
6.192,0.18513
6.196,0.17788
6.2,0.19233
6.204,0.16214
6.208,0.2106
6.212,0.20992
6.216,0.209
6.22,0.19698
6.224,0.20747
6.228,0.1724
6.232,0.17322
6.236,0.1586
6.24,0.12203
6.244,0.13859
6.248,0.11284
6.252,0.12394
6.256,0.09758
6.26,0.09862
6.264,0.06765
6.268,0.06034
6.272,0.04355
6.276,0.06096
6.28,0.03946
6.284,0.02336
6.288,0.01549
6.292,-0.00093
6.296,-0.00396
6.3,0.00077
6.304,0.01135
6.308,-0.02442
6.312,-0.00668
6.316,0.00169
6.32,-0.00951
6.324,-0.00061
6.328,0.00388
6.332,-0.02074
6.336,-0.01242
6.34,-0.02355
6.344,-0.02961
6.348,-0.02217
6.352,-0.05065
6.356,-0.02206
6.36,-0.05498
6.364,-0.01695
6.368,-0.03107
6.372,-0.03281
6.376,-0.0332
6.38,-0.00225
6.384,-0.00925
6.388,-0.04766
6.392,-0.02315
6.396,-0.04598
6.4,0.00673
6.404,-0.02157
6.408,-0.03028
6.412,-0.01248
6.416,-0.01902
6.42,-0.02544
6.424,-0.03342
6.428,-0.02153
6.432,-0.04605
6.436,-0.02456
6.44,-0.0112
6.444,-0.04641
6.448,-0.02812
6.452,-0.03322
6.456,-0.01978
6.46,-0.02319
6.464,-0.03261
6.468,-0.01567
6.472,-0.04082
6.476,-0.02565
6.48,-0.02168
6.484,-0.03112
6.488,-0.03077
6.492,-0.01768
6.496,-0.03356
6.5,-0.03902
6.504,-0.03769
6.508,-0.01919
6.512,-0.02774
6.516,-0.01395
6.52,-0.02055
6.524,-0.0664
6.528,-0.01696
6.532,-0.02689
6.536,-0.04353
6.54,-0.04883
6.544,-0.01081
6.548,-0.05612
6.552,-0.03639
6.556,-0.03656
6.56,-0.04178
6.564,0.00185
6.568,-0.04377
6.572,-0.04825
6.576,-0.02525
6.58,-0.04872
6.584,-0.01887
6.588,-0.0125
6.592,-0.01864
6.596,-0.03361
6.6,-0.04411
6.604,-0.01969
6.608,-0.01464
6.612,-0.00589
6.616,-0.04363
6.62,-0.03434
6.624,-0.01149
6.628,-0.03277
6.632,-0.03522
6.636,-0.03829
6.64,-0.04514
6.644,-0.01868
6.648,-0.06082
6.652,-0.01696
6.656,-0.0222
6.66,-0.00983
6.664,-0.04217
6.668,-0.05368
6.672,-0.04039
6.676,-0.01707
6.68,-0.03677
6.684,-0.01823
6.688,-0.05754
6.692,-0.02051
6.696,-0.02709
6.7,-0.03026
6.704,-0.04204
6.708,-0.03739
6.712,-0.04071
6.716,-0.01736
6.72,-0.02976
6.724,-0.04831
6.728,-0.03039
6.732,-0.02763
6.736,-0.01791
6.74,-0.03307
6.744,-0.04871
6.748,-0.0298
6.752,-0.00443
6.756,-0.03054
6.76,-0.00105
6.764,-0.00882
6.768,0.01055
6.772,0.03554
6.776,0.01863
6.78,0.06443
6.784,0.05362
6.788,0.04556
6.792,0.05381
6.796,0.0779
6.8,0.06454
6.804,0.0575
6.808,0.04518
6.812,0.03104
6.816,0.00448
6.82,-8e-05
6.824,0.01838
6.828,0.01019
6.832,-0.00783
6.836,-0.02642
6.84,-0.01143
6.844,-0.02156
6.848,-0.01286
6.852,-0.0154
6.856,-0.02223
6.86,-0.03806
6.864,-0.05425
6.868,-0.04431
6.872,-0.03588
6.876,-0.05953
6.88,-0.03194
6.884,-0.03244
6.888,-0.04301
6.892,-0.03434
6.896,-0.01368
6.9,-0.00033
6.904,-0.05514
6.908,-0.04881
6.912,-0.08163
6.916,-0.11326
6.92,-0.14331
6.924,-0.13814
6.928,-0.10629
6.932,0.03056
6.936,0.20199
6.94,0.40422
6.944,0.64003
6.948,0.80754
6.952,0.94185
6.956,0.95866
6.96,0.87414
6.964,0.67609
6.968,0.45872
6.972,0.23321
6.976,0.07627
6.98,-0.0659
6.984,-0.19374
6.988,-0.19222
6.992,-0.20808
6.996,-0.12121
7.0,-0.09321
7.004,-0.04378
7.008,-0.04319
7.012,-0.04365
7.016,-0.03608
7.02,-0.02519
7.024,-0.04492
7.028,-0.02533
7.032,-0.04866
7.036,-0.02251
7.04,-0.02794
7.044,-0.03162
7.048,-0.0387
7.052,-0.00735
7.056,-0.05147
7.06,-0.01927
7.064,-0.00198
7.068,-0.0408
7.072,-0.00595
7.076,0.01586
7.08,-0.0324
7.084,-0.03018
7.088,-0.03646
7.092,-0.05774
7.096,-0.02124
7.1,-0.02923
7.104,-0.02559
7.108,-0.01657
7.112,-0.0443
7.116,-0.03945
7.12,-0.04448
7.124,0.00133
7.128,-0.00638
7.132,-0.04009
7.136,-0.0173
7.14,-0.00296
7.144,0.00774
7.148,0.01588
7.152,-0.00526
7.156,0.0015
7.16,0.04968
7.164,0.03589
7.168,0.05601
7.172,0.0602
7.176,0.08618
7.18,0.08447
7.184,0.05571
7.188,0.0936
7.192,0.12094
7.196,0.12558
7.2,0.11659
7.204,0.14911
7.208,0.14564
7.212,0.15847
7.216,0.16365
7.22,0.19702
7.224,0.18718
7.228,0.17266
7.232,0.17629
7.236,0.19428
7.24,0.18048
7.244,0.2052
7.248,0.19003
7.252,0.16299
7.256,0.17865
7.26,0.169
7.264,0.15372
7.268,0.144
7.272,0.13954
7.276,0.12313
7.28,0.10213
7.284,0.08867
7.288,0.08579
7.292,0.07728
7.296,0.05081
7.3,0.06292
7.304,0.03773
7.308,0.0247
7.312,0.05695
7.316,0.01331
7.32,-0.00385
7.324,-0.00992
7.328,0.01176
7.332,-0.01561
7.336,-0.00382
7.34,-0.01757
7.344,-0.0105
7.348,-0.01725
7.352,-0.05004
7.356,-0.01
7.36,-0.02166
7.364,-0.01922
7.368,-0.01458
7.372,-0.02945
7.376,-0.01472
7.38,-0.03056
7.384,-0.04086
7.388,-0.05592
7.392,-0.02791
7.396,-0.02513
7.4,-0.01795
7.404,-0.05639
7.408,-0.02899
7.412,-0.02456
7.416,-0.02879
7.42,-0.04038
7.424,-0.02581
7.428,-0.04214
7.432,-0.0326
7.436,-0.01674
7.44,-0.02728
7.444,-0.03509
7.448,-0.03362
7.452,0.00215
7.456,-0.02414
7.46,-0.03917
7.464,-0.0558
7.468,-0.00868
7.472,-0.02143
7.476,-0.03896
7.48,-0.04556
7.484,-0.03041
7.488,-0.02212
7.492,-0.02611
7.496,-0.01818
7.5,-0.03301
7.504,-0.03121
7.508,-0.0451
7.512,-0.03115
7.516,-0.03312
7.52,-0.03211
7.524,-0.02135
7.528,-0.01909
7.532,-0.04559
7.536,-0.04501
7.54,-0.03444
7.544,-0.05167
7.548,-0.04296
7.552,-0.04468
7.556,-0.02407
7.56,-0.02679
7.564,-0.00248
7.568,-0.04039
7.572,-0.03055
7.576,-0.04851
7.58,-0.03045
7.584,-0.02004
7.588,-0.02968
7.592,-0.04258
7.596,-0.01014
7.6,-0.04243
7.604,-0.02758
7.608,-0.03684
7.612,-0.03999
7.616,-0.04851
7.62,-0.02628
7.624,-0.02184
7.628,-0.01342
7.632,-0.04524
7.636,-0.01004
7.64,-0.0001
7.644,-0.0281
7.648,0.00711
7.652,-0.00175
7.656,-0.02753
7.66,-0.01936
7.664,-0.02299
7.668,-0.02615
7.672,-0.00641
7.676,-0.02092
7.68,-0.01434
7.684,-0.02826
7.688,-0.00445
7.692,-0.01446
7.696,-0.01223
7.7,-0.00059
7.704,-0.00725
7.708,0.00531
7.712,0.04771
7.716,0.03234
7.72,0.07141
7.724,0.07166
7.728,0.08494
7.732,0.07867
7.736,0.08834
7.74,0.07027
7.744,0.06477
7.748,0.05301
7.752,0.04999
7.756,0.06445
7.76,0.01925
7.764,-0.00106
7.768,-0.00402
7.772,-0.01316
7.776,-0.0078
7.78,-0.00226
7.784,-0.00107
7.788,-0.00323
7.792,-0.02755
7.796,-0.03616
7.8,-0.0184
7.804,-0.01881
7.808,-0.01566
7.812,-0.0044
7.816,-0.02428
7.82,-0.01919
7.824,0.00491
7.828,-0.02406
7.832,-0.01265
7.836,-0.03344
7.84,-0.03032
7.844,-0.03019
7.848,-0.06122
7.852,-0.06089
7.856,-0.06806
7.86,-0.11937
7.864,-0.14698
7.868,-0.0862
7.872,0.02629
7.876,0.14675
7.88,0.36457
7.884,0.56775
7.888,0.78698
7.892,0.93072
7.896,0.99082
7.9,0.93604
7.904,0.77847
7.908,0.5372
7.912,0.31661
7.916,0.09048
7.92,-0.02759
7.924,-0.13451
7.928,-0.19234
7.932,-0.14689
7.936,-0.12622
7.94,-0.10239
7.944,-0.05342
7.948,-0.03823
7.952,-0.00971
7.956,0.01266
7.96,-0.05312
7.964,-0.03233
7.968,-0.03241
7.972,-0.04527
7.976,-0.03552
7.98,-0.0051
7.984,-0.02329
7.988,-0.00492
7.992,-0.03552
7.996,-0.01997
8.0,0.00689
8.004,-0.01962
8.008,-0.02834
8.012,0.02907
8.016,-0.01898
8.02,-0.01999
8.024,-0.03295
8.028,-0.00759
8.032,-0.01954
8.036,-0.02227
8.04,-0.00738
8.044,0.01791
8.048,0.00568
8.052,-0.00429
8.056,-0.00461
8.06,-0.04513
8.064,-0.02486
8.068,-0.02671
8.072,0.01991
8.076,0.00843
8.08,0.00707
8.084,-0.00654
8.088,0.01179
8.092,0.01241
8.096,0.02063
8.1,0.04531
8.104,0.05335
8.108,0.05774
8.112,0.07883
8.116,0.08055
8.12,0.0894
8.124,0.10777
8.128,0.14676
8.132,0.12706
8.136,0.12766
8.14,0.1431
8.144,0.14444
8.148,0.16269
8.152,0.17522
8.156,0.18389
8.16,0.21059
8.164,0.19755
8.168,0.19622
8.172,0.21386
8.176,0.21029
8.18,0.18987
8.184,0.20383
8.188,0.20371
8.192,0.21463
8.196,0.20094
8.2,0.16221
8.204,0.14444
8.208,0.16848
8.212,0.15963
8.216,0.14547
8.22,0.12778
8.224,0.1348
8.228,0.10817
8.232,0.0841
8.236,0.04633
8.24,0.06755
8.244,0.06014
8.248,0.05465
8.252,0.0581
8.256,0.02167
8.26,0.04948
8.264,0.02252
8.268,0.01451
8.272,0.00532
8.276,0.01662
8.28,0.00402
8.284,0.00559
8.288,0.01733
8.292,0.0059
8.296,-0.00818
8.3,0.00438
8.304,-0.02119
8.308,0.00482
8.312,-0.01584
8.316,-0.00243
8.32,-0.00644
8.324,0.00617
8.328,0.00707
8.332,0.01471
8.336,0.00775
8.34,-0.00593
8.344,-0.01731
8.348,0.00184
8.352,-0.03847
8.356,-0.00911
8.36,0.00416
8.364,-0.03003
8.368,0.00485
8.372,0.01284
8.376,-0.01127
8.38,-0.01627
8.384,-0.01659
8.388,-0.00165
8.392,-0.02554
8.396,-0.01315
8.4,-0.00049
8.404,-0.01486
8.408,-0.00244
8.412,0.02285
8.416,-0.00093
8.42,0.01032
8.424,0.01605
8.428,-0.00389
8.432,-3e-05
8.436,-0.00849
8.44,-0.01502
8.444,0.00716
8.448,-0.0018
8.452,-0.01061
8.456,-0.0012
8.46,-0.02043
8.464,-0.02187
8.468,-0.0043
8.472,0.00602
8.476,-0.0096
8.48,-0.01155
8.484,0.00799
8.488,-0.0023
8.492,-0.00538
8.496,-0.00401
8.5,-0.00897
8.504,-0.01388
8.508,-0.00025
8.512,-0.02015
8.516,-0.00322
8.52,0.00021
8.524,-0.00679
8.528,-0.01715
8.532,0.0134
8.536,-0.00932
8.54,-0.01049
8.544,-0.00523
8.548,0.01589
8.552,0.00738
8.556,0.01606
8.56,0.00834
8.564,0.03218
8.568,-0.00777
8.572,0.02103
8.576,0.01932
8.58,-0.00104
8.584,-0.00518
8.588,-0.01586
8.592,-0.00615
8.596,-0.00159
8.6,-0.01804
8.604,-0.01888
8.608,-0.00032
8.612,0.00543
8.616,0.01852
8.62,-0.0175
8.624,0.02023
8.628,0.02581
8.632,-0.02412
8.636,0.0236
8.64,-0.00377
8.644,0.00079
8.648,-0.00025
8.652,0.01273
8.656,0.04983
8.66,0.06565
8.664,0.03143
8.668,0.10504
8.672,0.08909
8.676,0.05954
8.68,0.10089
8.684,0.10896
8.688,0.08378
8.692,0.12698
8.696,0.09623
8.7,0.11477
8.704,0.08612
8.708,0.05982
8.712,0.05889
8.716,0.0473
8.72,0.02756
8.724,0.02343
8.728,-0.00725
8.732,0.02959
8.736,0.01453
8.74,-0.01211
8.744,0.01172
8.748,-0.008
8.752,0.01348
8.756,-0.01092
8.76,0.01221
8.764,-0.01086
8.768,-0.02415
8.772,0.00572
8.776,0.00555
8.78,0.02833
8.784,-0.00686
8.788,0.01045
8.792,0.01
8.796,-0.01816
8.8,0.01497
8.804,-0.02038
8.808,-0.04153
8.812,-0.08113
8.816,-0.07957
8.82,-0.10332
8.824,-0.05584
8.828,0.04849
8.832,0.2027
8.836,0.43373
8.84,0.64759
8.844,0.82193
8.848,0.93823
8.852,1.03263
8.856,0.89139
8.86,0.7641
8.864,0.54094
8.868,0.30487
8.872,0.08688
8.876,-0.04494
8.88,-0.13758
8.884,-0.16927
8.888,-0.16951
8.892,-0.1037
8.896,-0.03649
8.9,-0.0264
8.904,-0.00386
8.908,-0.02162
8.912,0.00882
8.916,0.01464
8.92,0.01751
8.924,0.00944
8.928,0.01004
8.932,-0.01024
8.936,0.02463
8.94,0.01091
8.944,0.01935
8.948,0.0177
8.952,0.03041
8.956,0.00721
8.96,0.01421
8.964,0.01112
8.968,0.0138
8.972,0.02667
8.976,0.01496
8.98,0.0069
8.984,0.04123
8.988,0.00099
8.992,-0.00468
8.996,0.0153
9.0,0.00466
9.004,0.01289
9.008,0.02538
9.012,0.01406
9.016,0.01882
9.02,0.01453
9.024,0.0358
9.028,0.02441
9.032,0.01981
9.036,0.03625
9.04,0.06656
9.044,0.06661
9.048,0.03678
9.052,0.04884
9.056,0.0545
9.06,0.09279
9.064,0.08318
9.068,0.08207
9.072,0.1126
9.076,0.11795
9.08,0.14653
9.084,0.11977
9.088,0.14975
9.092,0.15831
9.096,0.17901
9.1,0.1939
9.104,0.17848
9.108,0.22593
9.112,0.2004
9.116,0.23014
9.12,0.25673
9.124,0.24824
9.128,0.19498
9.132,0.23819
9.136,0.21637
9.14,0.26138
9.144,0.22574
9.148,0.22029
9.152,0.23626
9.156,0.21468
9.16,0.1831
9.164,0.21976
9.168,0.1616
9.172,0.14714
9.176,0.17913
9.18,0.12306
9.184,0.13417
9.188,0.10057
9.192,0.12403
9.196,0.09877
9.2,0.07341
9.204,0.0749
9.208,0.09797
9.212,0.06252
9.216,0.05699
9.22,0.07899
9.224,0.03825
9.228,0.03195
9.232,0.03133
9.236,0.02743
9.24,0.03445
9.244,0.00256
9.248,0.03004
9.252,0.02297
9.256,-0.0246
9.26,0.00376
9.264,-0.00143
9.268,0.03132
9.272,0.00642
9.276,0.00575
9.28,0.04318
9.284,0.04169
9.288,0.03333
9.292,0.0317
9.296,0.00212
9.3,0.03496
9.304,0.01593
9.308,0.00154
9.312,0.03742
9.316,0.00534
9.32,0.01933
9.324,0.02723
9.328,0.01219
9.332,0.04863
9.336,0.01832
9.34,0.04599
9.344,0.0269
9.348,0.01969
9.352,0.0111
9.356,0.00438
9.36,0.0116
9.364,0.04311
9.368,0.02565
9.372,0.03308
9.376,-0.01276
9.38,0.02703
9.384,-0.00119
9.388,0.03555
9.392,0.02234
9.396,0.02673
9.4,0.02569
9.404,0.01233
9.408,-0.00012
9.412,0.03245
9.416,0.03169
9.42,0.03128
9.424,0.03734
9.428,0.02249
9.432,0.02745
9.436,0.03586
9.44,0.00902
9.444,0.00032
9.448,0.01562
9.452,0.01019
9.456,0.00401
9.46,0.01975
9.464,0.00945
9.468,0.04859
9.472,0.02023
9.476,0.03058
9.48,0.00716
9.484,0.05251
9.488,0.02567
9.492,0.05634
9.496,0.03549
9.5,0.05745
9.504,0.06853
9.508,0.06152
9.512,0.0956
9.516,0.08019
9.52,0.13252
9.524,0.09287
9.528,0.13616
9.532,0.13194
9.536,0.10693
9.54,0.09834
9.544,0.13089
9.548,0.10505
9.552,0.07608
9.556,0.05369
9.56,0.07371
9.564,0.05335
9.568,0.01877
9.572,0.04792
9.576,0.01175
9.58,0.04241
9.584,0.05346
9.588,-0.02774
9.592,0.02916
9.596,0.01238
9.6,0.03167
9.604,0.02955
9.608,0.04208
9.612,0.03635
9.616,0.03301
9.62,0.01276
9.624,0.01923
9.628,0.02193
9.632,0.04315
9.636,0.00577
9.64,0.03041
9.644,0.02255
9.648,-0.01329
9.652,-0.03136
9.656,-0.08552
9.66,-0.09971
9.664,-0.04676
9.668,0.08506
9.672,0.2116
9.676,0.42859
9.68,0.63263
9.684,0.83489
9.688,0.94375
9.692,1.04578
9.696,0.98228
9.7,0.78856
9.704,0.61896
9.708,0.34337
9.712,0.15211
9.716,-0.02805
9.72,-0.13897
9.724,-0.16419
9.728,-0.1106
9.732,-0.0863
9.736,-0.01896
9.74,-0.00271
9.744,0.01441
9.748,-0.00088
9.752,0.0318
9.756,0.01267
9.76,0.00805
9.764,0.01177
9.768,-0.00468
9.772,0.01682
9.776,0.00705
9.78,0.043
9.784,0.04776
9.788,0.05543
9.792,0.04929
9.796,0.03042
9.8,0.02755
9.804,0.02082
9.808,0.05283
9.812,0.01887
9.816,0.03121
9.82,0.04594
9.824,0.01449
9.828,0.03887
9.832,0.03228
9.836,0.00281
9.84,0.02804
9.844,0.00459
9.848,0.03665
9.852,0.04064
9.856,0.02369
9.86,0.05173
9.864,0.03391
9.868,0.05911
9.872,0.06519
9.876,0.07387
9.88,-0.00223
9.884,0.0392
9.888,0.07696
9.892,0.07654
9.896,0.08316
9.9,0.09374
9.904,0.12878
9.908,0.13349
9.912,0.12039
9.916,0.15076
9.92,0.13899
9.924,0.13687
9.928,0.15887
9.932,0.16188
9.936,0.19434
9.94,0.1864
9.944,0.20707
9.948,0.20425
9.952,0.2283
9.956,0.23114
9.96,0.23217
9.964,0.26251
9.968,0.24112
9.972,0.23878
9.976,0.24593
9.98,0.2312
9.984,0.27726
9.988,0.23535
9.992,0.21479
9.996,0.18867
