t_seg,ecg_mV
0.0,0.00088
0.004,0.0901
0.008,0.00537
0.012,0.00536
0.016,-0.009
0.02,0.01972
0.024,0.06842
0.028,0.00204
0.032,0.01208
0.036,0.03873
0.04,-0.02849
0.044,0.04594
0.048,0.04271
0.052,0.05572
0.056,0.05605
0.06,0.05102
0.064,0.03014
0.068,-0.00423
0.072,0.02845
0.076,-0.01805
0.08,0.01559
0.084,0.00791
0.088,0.02551
0.092,0.03235
0.096,0.00089
0.1,0.01875
0.104,0.01753
0.108,-0.04015
0.112,0.01026
0.116,-0.03863
0.12,0.05868
0.124,0.01296
0.128,0.03457
0.132,0.07742
0.136,0.09529
0.14,0.15762
0.144,0.09085
0.148,0.18836
0.152,0.17604
0.156,0.12552
0.16,0.14929
0.164,0.15045
0.168,0.12247
0.172,0.06374
0.176,0.06761
0.18,0.08077
0.184,0.0873
0.188,0.07399
0.192,0.0449
0.196,0.045
0.2,0.03769
0.204,0.03772
0.208,-1e-05
0.212,-0.0391
0.216,0.04039
0.22,-0.0208
0.224,0.01929
0.228,0.00511
0.232,0.06441
0.236,0.00566
0.24,0.01045
0.244,0.0109
0.248,0.08758
0.252,0.05636
0.256,0.02307
0.26,0.04397
0.264,0.04349
0.268,0.05907
0.272,-0.0763
0.276,-0.09192
0.28,-0.10009
0.284,-0.05239
0.288,0.1005
0.292,0.27893
0.296,0.49896
0.3,0.66787
0.304,0.92296
0.308,1.0215
0.312,1.01073
0.316,0.97085
0.32,0.80206
0.324,0.53921
0.328,0.27877
0.332,0.13713
0.336,0.01102
0.34,-0.16045
0.344,-0.12448
0.348,-0.11768
0.352,-0.05913
0.356,-0.10154
0.36,-0.0312
0.364,0.03389
0.368,-0.00878
0.372,0.01323
0.376,0.05687
0.38,0.04299
0.384,0.00708
0.388,0.03196
0.392,0.05018
0.396,0.00469
0.4,0.03432
0.404,0.07337
0.408,-0.0083
0.412,0.0403
0.416,0.01159
0.42,0.05263
0.424,0.04471
0.428,0.01496
0.432,0.06835
0.436,-0.01128
0.44,0.0677
0.444,-0.0079
0.448,-0.00367
0.452,-0.00777
0.456,0.03696
0.46,0.00692
0.464,0.01429
0.468,0.02936
0.472,0.03088
0.476,0.0622
0.48,0.04619
0.484,0.04854
0.488,0.07554
0.492,0.10343
0.496,0.05848
0.5,0.05747
0.504,0.04732
0.508,0.11367
0.512,0.14751
0.516,0.13277
0.52,0.14021
0.524,0.10713
0.528,0.1446
0.532,0.15542
0.536,0.18473
0.54,0.17236
0.544,0.0804
0.548,0.15233
0.552,0.18667
0.556,0.17049
0.56,0.26098
0.564,0.2003
0.568,0.23711
0.572,0.30788
0.576,0.25267
0.58,0.1643
0.584,0.24632
0.588,0.2473
0.592,0.23994
0.596,0.25545
0.6,0.25721
0.604,0.17472
0.608,0.24994
0.612,0.23624
0.616,0.16999
0.62,0.25216
0.624,0.26367
0.628,0.1618
0.632,0.17525
0.636,0.12962
0.64,0.14328
0.644,0.1559
0.648,0.16199
0.652,0.15834
0.656,0.17778
0.66,0.10628
0.664,0.06531
0.668,0.01273
0.672,0.08152
0.676,0.1063
0.68,0.06889
0.684,0.02557
0.688,0.11078
0.692,0.09884
0.696,0.05186
0.7,0.06449
0.704,0.03465
0.708,-0.00054
0.712,0.03186
0.716,0.00595
0.72,0.05504
0.724,-0.02447
0.728,0.06379
0.732,0.01812
0.736,0.04876
0.74,0.03266
0.744,0.07871
0.748,-0.02979
0.752,0.06052
0.756,0.04112
0.76,0.02509
0.764,0.04191
0.768,0.00253
0.772,-0.00273
0.776,-0.01368
0.78,0.09422
0.784,0.08354
0.788,0.03414
0.792,0.02707
0.796,-0.03314
0.8,0.06811
0.804,0.02572
0.808,0.06573
0.812,0.03364
0.816,0.02746
0.82,0.00771
0.824,0.0556
0.828,0.00641
0.832,-0.02289
0.836,0.06869
0.84,0.02558
0.844,0.01046
0.848,0.03227
0.852,0.04816
0.856,0.07515
0.86,0.03643
0.864,0.02039
0.868,0.03119
0.872,0.08703
0.876,0.05471
0.88,-0.01672
0.884,0.01943
0.888,0.04331
0.892,-0.04982
0.896,0.06991
0.9,-0.01592
0.904,-0.04174
0.908,0.05402
0.912,0.02412
0.916,0.01327
0.92,-0.00983
0.924,0.05858
0.928,0.06005
0.932,0.09366
0.936,0.13046
0.94,0.02198
0.944,0.02182
0.948,0.01991
0.952,0.02898
0.956,0.03865
0.96,-0.00247
0.964,0.01647
0.968,0.03907
0.972,0.05017
0.976,0.03463
0.98,0.00692
0.984,0.02954
0.988,0.04127
0.992,0.02016
0.996,0.01494
1.0,-0.02102
1.004,0.07465
1.008,0.07435
1.012,0.09274
1.016,-0.00652
1.02,0.09906
1.024,0.09668
1.028,0.08343
1.032,0.10714
1.036,0.11035
1.04,0.10049
1.044,0.114
1.048,0.08694
1.052,0.1583
1.056,0.15845
1.06,0.05773
1.064,0.02207
1.068,0.03413
1.072,0.02059
1.076,0.01584
1.08,0.04034
1.084,-0.00097
1.088,0.00488
1.092,0.05535
1.096,-0.11905
1.1,0.05515
1.104,-0.02745
1.108,0.06913
1.112,-0.0085
1.116,0.02713
1.12,-0.01453
1.124,-7e-05
1.128,0.05463
1.132,0.03433
1.136,0.09929
1.14,0.00649
1.144,-0.04247
1.148,0.01639
1.152,0.00282
1.156,-0.05739
1.16,-0.07873
1.164,-0.13741
1.168,-0.02058
1.172,0.10836
1.176,0.26013
1.18,0.47997
1.184,0.65102
1.188,0.89645
1.192,0.97414
1.196,1.00779
1.2,0.92302
1.204,0.69526
1.208,0.50068
1.212,0.23686
1.216,0.17382
1.22,-0.06289
1.224,-0.15446
1.228,-0.19529
1.232,-0.16029
1.236,-0.05977
1.24,-0.05089
1.244,-0.05328
1.248,0.07677
1.252,0.03628
1.256,-0.01958
1.26,0.01769
1.264,0.00253
1.268,-0.03451
1.272,0.04748
1.276,-0.00706
1.28,0.01501
1.284,-0.02685
1.288,0.04772
1.292,0.03225
1.296,0.06462
1.3,0.02072
1.304,-0.01005
1.308,-0.02318
1.312,0.03297
1.316,0.02042
1.32,0.00915
1.324,0.03381
1.328,0.03559
1.332,0.00269
1.336,0.02881
1.34,0.10782
1.344,0.02022
1.348,0.0004
1.352,0.09155
1.356,0.06791
1.36,-0.01833
1.364,0.0047
1.368,0.0773
1.372,0.06869
1.376,0.06245
1.38,0.05904
1.384,0.04267
1.388,0.06961
1.392,0.03382
1.396,0.14342
1.4,0.08052
1.404,0.06913
1.408,0.11354
1.412,0.14636
1.416,0.17237
1.42,0.18978
1.424,0.1177
1.428,0.18614
1.432,0.19143
1.436,0.14753
1.44,0.23127
1.444,0.19648
1.448,0.13418
1.452,0.2191
1.456,0.21907
1.46,0.16147
1.464,0.25692
1.468,0.22344
1.472,0.21566
1.476,0.25091
1.48,0.29001
1.484,0.25279
1.488,0.26459
1.492,0.22167
1.496,0.19603
1.5,0.24913
1.504,0.18228
1.508,0.22535
1.512,0.23506
1.516,0.13313
1.52,0.21247
1.524,0.18047
1.528,0.0998
1.532,0.10765
1.536,0.08484
1.54,0.05029
1.544,0.08968
1.548,0.117
1.552,0.14609
1.556,0.12753
1.56,0.08796
1.564,0.10139
1.568,0.15089
1.572,0.06618
1.576,0.02604
1.58,0.14833
1.584,0.09394
1.588,0.17205
1.592,0.1659
1.596,0.15214
1.6,0.12867
1.604,0.14694
1.608,0.06882
1.612,0.06943
1.616,0.09027
1.62,0.1183
1.624,0.05706
1.628,0.06075
1.632,0.05415
1.636,0.02242
1.64,0.03277
1.644,0.00086
1.648,0.05325
1.652,0.04255
1.656,0.03538
1.66,-0.0594
1.664,-0.03373
1.668,-0.00197
1.672,0.02803
1.676,-0.01173
1.68,0.02818
1.684,0.03805
1.688,-0.07289
1.692,0.05018
1.696,0.06131
1.7,-0.01697
1.704,0.02665
1.708,-0.04221
1.712,-0.10995
1.716,-0.00177
1.72,-0.10873
1.724,-0.1188
1.728,-0.14268
1.732,-0.00438
1.736,0.16003
1.74,0.30517
1.744,0.58471
1.748,0.81112
1.752,0.94743
1.756,1.06478
1.76,1.02147
1.764,0.89322
1.768,0.66976
1.772,0.37012
1.776,0.18311
1.78,0.01083
1.784,-0.02246
1.788,-0.19667
1.792,-0.16608
1.796,-0.0996
1.8,-0.05876
1.804,0.02731
1.808,0.02334
1.812,0.07173
1.816,0.04082
1.82,0.09334
1.824,-0.03978
1.828,0.01647
1.832,-0.02546
1.836,-0.00489
1.84,0.09072
1.844,0.03371
1.848,0.03731
1.852,0.08966
1.856,-0.01098
1.86,0.00079
1.864,-0.00222
1.868,-0.0195
1.872,0.00546
1.876,-0.01827
1.88,0.05317
1.884,0.02426
1.888,0.06468
1.892,0.01335
1.896,0.09825
1.9,0.00598
1.904,0.00062
1.908,-0.0458
1.912,0.01397
1.916,0.00466
1.92,-0.00591
1.924,-0.01309
1.928,-0.00961
1.932,-0.00087
1.936,-0.02474
1.94,0.00743
1.944,0.03476
1.948,0.03051
1.952,0.05681
1.956,0.02815
1.96,0.09078
1.964,0.00058
1.968,0.08171
1.972,0.06568
1.976,0.15159
1.98,0.12584
1.984,0.06189
1.988,0.12409
1.992,0.12935
1.996,0.18189
2.0,0.18912
2.004,0.21375
2.008,0.16965
2.012,0.11011
2.016,0.1914
2.02,0.23613
2.024,0.21999
2.028,0.22069
2.032,0.23629
2.036,0.23323
2.04,0.20377
2.044,0.24308
2.048,0.22403
2.052,0.14411
2.056,0.19639
2.06,0.2179
2.064,0.22264
2.068,0.20536
2.072,0.17459
2.076,0.19938
2.08,0.08145
2.084,0.1247
2.088,0.08914
2.092,0.1155
2.096,0.12077
2.1,0.06667
2.104,0.12622
2.108,0.03732
2.112,-0.00224
2.116,0.02196
2.12,0.00636
2.124,0.08454
2.128,0.04842
2.132,-0.02112
2.136,0.02715
2.14,0.00648
2.144,0.05294
2.148,-0.05682
2.152,0.03798
2.156,0.01796
2.16,-0.04106
2.164,-0.0581
2.168,0.01007
2.172,-0.0075
2.176,0.00457
2.18,-0.02609
2.184,0.05785
2.188,0.01112
2.192,0.00769
2.196,-0.03412
2.2,0.02701
2.204,-0.00104
2.208,0.03024
2.212,-0.03329
2.216,0.07363
2.22,0.03732
2.224,-0.02401
2.228,-0.02578
2.232,0.00055
2.236,-0.00089
2.24,-0.03302
2.244,0.00044
2.248,0.04522
2.252,-0.0021
2.256,0.01754
2.26,-0.01314
2.264,-0.05658
2.268,0.03795
2.272,0.05515
2.276,0.02961
2.28,0.02785
2.284,-0.02026
2.288,0.01394
2.292,0.02752
2.296,0.05496
2.3,0.02346
2.304,0.06072
2.308,-0.02933
2.312,0.00183
2.316,0.01421
2.32,-0.00915
2.324,0.02589
2.328,-0.03995
2.332,0.01481
2.336,0.00569
2.34,0.03097
2.344,0.06964
2.348,0.04053
2.352,-0.05137
2.356,-0.01181
2.36,-0.05052
2.364,0.06697
2.368,0.04947
2.372,-0.00867
2.376,0.02427
2.38,0.01607
2.384,0.00828
2.388,0.01667
2.392,0.00677
2.396,0.04619
2.4,0.08105
2.404,0.05608
2.408,0.05875
2.412,0.09116
2.416,0.10619
2.42,0.07664
2.424,0.09851
2.428,0.09347
2.432,0.03685
2.436,0.08529
2.44,0.10034
2.444,-0.00104
2.448,0.05031
2.452,-0.01275
2.456,0.03916
2.46,-0.05973
2.464,-0.01637
2.468,-0.00314
2.472,0.00081
2.476,0.00623
2.48,-0.02552
2.484,0.05225
2.488,0.03999
2.492,-0.03544
2.496,-0.02944
2.5,-0.00678
2.504,-0.00275
2.508,0.02219
2.512,0.00818
2.516,-0.02199
2.52,0.05162
2.524,0.00149
2.528,0.01217
2.532,-0.08248
2.536,-0.01199
2.54,-0.0632
2.544,-0.10708
2.548,-0.09065
2.552,-0.0351
2.556,-0.02195
2.56,0.06406
2.564,0.26219
2.568,0.524
2.572,0.75889
2.576,0.86066
2.58,0.95923
2.584,1.00602
2.588,0.8561
2.592,0.64316
2.596,0.44284
2.6,0.23077
2.604,0.04261
2.608,-0.0771
2.612,-0.14096
2.616,-0.17535
2.62,-0.08673
2.624,-0.06853
2.628,-0.09014
2.632,0.00183
2.636,-0.02366
2.64,-0.00319
2.644,-0.00766
2.648,-0.00699
2.652,-0.03728
2.656,0.02789
2.66,0.00486
2.664,-0.00471
2.668,-0.00274
2.672,-0.04336
2.676,-0.04195
2.68,0.04374
2.684,-0.00488
2.688,-0.00229
2.692,0.02951
2.696,0.01903
2.7,0.01665
2.704,-0.03889
2.708,-0.05731
2.712,-0.02802
2.716,0.03898
2.72,-0.05562
2.724,-0.07039
2.728,-0.0051
2.732,0.03095
2.736,0.00755
2.74,-0.11366
2.744,0.07925
2.748,-0.03069
2.752,-0.00655
2.756,0.01549
2.76,-0.00649
2.764,0.07243
2.768,0.00157
2.772,0.00173
2.776,0.03662
2.78,-0.01161
2.784,0.05035
2.788,0.0179
2.792,0.00919
2.796,0.04954
2.8,0.04651
2.804,0.09956
2.808,0.0607
2.812,0.12544
2.816,0.10807
2.82,0.16124
2.824,0.11143
2.828,0.146
2.832,0.15949
2.836,0.18792
2.84,0.23376
2.844,0.10981
2.848,0.18098
2.852,0.19514
2.856,0.20833
2.86,0.20796
2.864,0.20382
2.868,0.17895
2.872,0.17427
2.876,0.25363
2.88,0.26768
2.884,0.14045
2.888,0.12194
2.892,0.20155
2.896,0.22454
2.9,0.19883
2.904,0.14794
2.908,0.13999
2.912,0.10401
2.916,0.11559
2.92,0.15181
2.924,0.08036
2.928,0.09875
2.932,0.01628
2.936,0.03016
2.94,0.00637
2.944,-0.0135
2.948,0.04299
2.952,0.05261
2.956,-0.02063
2.96,-0.0098
2.964,0.03283
2.968,0.04103
2.972,-0.06184
2.976,0.01324
2.98,-0.02226
2.984,-0.07685
2.988,-0.07479
2.992,0.02164
2.996,-0.01531
3.0,-0.07324
3.004,0.01842
3.008,-0.01441
3.012,-0.05837
3.016,-0.02512
3.02,-0.01077
3.024,-0.00953
3.028,-0.00437
3.032,-0.00186
3.036,0.03736
3.04,-0.02294
3.044,-0.03141
3.048,-0.01237
3.052,0.01374
3.056,-0.01467
3.06,0.02254
3.064,0.06271
3.068,-0.03815
3.072,-0.01269
3.076,-0.06208
3.08,-0.02857
3.084,-0.02495
3.088,-0.05541
3.092,-0.00349
3.096,-0.07029
3.1,-0.09409
3.104,-0.08601
3.108,0.01763
3.112,-0.0846
3.116,0.00957
3.12,-0.0195
3.124,-0.02806
3.128,-0.0216
3.132,0.01076
3.136,0.00963
3.14,-0.00812
3.144,-0.05422
3.148,-0.0049
3.152,-0.04725
3.156,0.00344
3.16,-0.00158
3.164,-0.0327
3.168,-0.03949
3.172,0.00096
3.176,-0.01112
3.18,0.02312
3.184,0.02678
3.188,-0.02715
3.192,0.02098
3.196,-0.02128
3.2,-0.01432
3.204,0.05549
3.208,-0.00629
3.212,-0.01417
3.216,0.02576
3.22,0.01077
3.224,-0.01393
3.228,-0.00427
3.232,-0.01798
3.236,-0.01843
3.24,0.01091
3.244,-0.03984
3.248,-0.02722
3.252,-0.03778
3.256,-0.00966
3.26,-0.03209
3.264,-0.00521
3.268,-0.03038
3.272,-0.01775
3.276,0.05159
3.28,0.01863
3.284,0.02003
3.288,-0.0725
3.292,-0.01297
3.296,-0.02338
3.3,0.09329
3.304,0.00271
3.308,-0.04759
3.312,0.0038
3.316,-0.01064
3.32,-0.02142
3.324,0.00981
3.328,-0.03004
3.332,-0.05105
3.336,-0.06525
3.34,-0.07753
3.344,-0.03356
3.348,-0.0494
3.352,-0.0218
3.356,-0.00089
3.36,0.03616
3.364,-0.08147
3.368,-0.00756
3.372,-0.05088
3.376,0.08047
3.38,0.07611
3.384,0.08125
3.388,0.01593
3.392,0.11476
3.396,0.0541
3.4,0.14304
3.404,0.06942
3.408,0.08268
3.412,0.10692
3.416,0.02263
3.42,0.04681
3.424,0.0051
3.428,0.03741
3.432,0.09295
3.436,-0.02476
3.44,-0.01745
3.444,-0.00482
3.448,-0.00719
3.452,-0.03325
3.456,-0.10732
3.46,-0.06308
3.464,0.0154
3.468,0.00144
3.472,0.02065
3.476,-0.00087
3.48,-0.02448
3.484,-0.03316
3.488,-0.00753
3.492,0.03742
3.496,-0.00775
3.5,-0.00474
3.504,-0.06204
3.508,-0.09433
3.512,-0.02799
3.516,-0.07917
3.52,-0.09833
3.524,-0.10685
3.528,-0.15027
3.532,-0.22337
3.536,-0.12556
3.54,0.00416
3.544,0.19958
3.548,0.40697
3.552,0.61318
3.556,0.86221
3.56,0.94144
3.564,0.93476
3.568,0.93259
3.572,0.74389
3.576,0.51845
3.58,0.24006
3.584,0.0402
3.588,-0.12138
3.592,-0.14778
3.596,-0.16368
3.6,-0.14592
3.604,-0.18596
3.608,-0.02411
3.612,-0.01207
3.616,0.01537
3.62,-0.0942
3.624,-0.04896
3.628,-0.02835
3.632,0.01562
3.636,0.0029
3.64,-0.07332
3.644,-0.03424
3.648,-0.01767
3.652,-0.07037
3.656,-0.04473
3.66,-0.04006
3.664,0.01357
3.668,-0.03017
3.672,-0.04887
3.676,-0.03166
3.68,-0.03294
3.684,-0.03479
3.688,-0.052
3.692,-0.04026
3.696,0.03059
3.7,-0.02133
3.704,-0.05749
3.708,0.06434
3.712,-0.00887
3.716,-0.02094
3.72,-0.02742
3.724,-0.02007
3.728,-0.04491
3.732,-0.07052
3.736,-0.00318
3.74,-0.02381
3.744,-0.01734
3.748,0.03473
3.752,0.00916
3.756,0.04314
3.76,-0.00162
3.764,-0.03188
3.768,0.04921
3.772,0.06361
3.776,0.00772
3.78,0.0366
3.784,0.09854
3.788,0.05741
3.792,0.11662
3.796,0.09324
3.8,0.13983
3.804,0.12002
3.808,0.14035
3.812,0.16845
3.816,0.12547
3.82,0.14857
3.824,0.18165
3.828,0.1585
3.832,0.1781
3.836,0.23672
3.84,0.22156
3.844,0.16882
3.848,0.18032
3.852,0.2335
3.856,0.24868
3.86,0.18454
3.864,0.11617
3.868,0.18655
3.872,0.12027
3.876,0.11028
3.88,0.10452
3.884,0.12338
3.888,0.15898
3.892,0.12552
3.896,0.07957
3.9,0.08381
3.904,0.10488
3.908,0.06904
3.912,0.09163
3.916,0.01091
3.92,-0.0036
3.924,0.07252
3.928,-0.03576
3.932,0.02489
3.936,0.05232
3.94,0.00144
3.944,-0.01069
3.948,-0.01035
3.952,0.03552
3.956,-0.0288
3.96,-0.02717
3.964,-0.02319
3.968,-0.01416
3.972,-0.05277
3.976,-0.05041
3.98,-0.05145
3.984,-0.07662
3.988,0.01751
3.992,-0.02601
3.996,-0.06361
4.0,-0.06463
4.004,-0.02464
4.008,-0.04433
4.012,-0.01208
4.016,-0.03643
4.02,0.06897
4.024,-0.01307
4.028,0.02036
4.032,-0.00053
4.036,-0.01937
4.04,-0.0489
4.044,0.00733
4.048,-0.02723
4.052,-0.10619
4.056,-0.01047
4.06,-0.02451
4.064,-0.02588
4.068,-0.01315
4.072,-0.04136
4.076,-0.03077
4.08,-0.00999
4.084,-0.03462
4.088,0.00718
4.092,-0.01672
4.096,0.03859
4.1,0.09448
4.104,0.05535
4.108,-0.00659
4.112,0.07637
4.116,0.0039
4.12,-0.00478
4.124,0.07309
4.128,-0.00612
4.132,0.06643
4.136,0.07905
4.14,0.12537
4.144,0.0328
4.148,0.00705
4.152,0.08573
4.156,0.066
4.16,0.02425
4.164,0.01427
4.168,-0.01176
4.172,0.00094
4.176,-0.02732
4.18,-0.00305
4.184,-0.03354
4.188,-0.00307
4.192,-0.02775
4.196,-0.02652
4.2,-0.02846
4.204,-0.01264
4.208,-0.00763
4.212,-0.00531
4.216,-0.01323
4.22,-0.04016
4.224,-0.03389
4.228,-0.0078
4.232,-0.0282
4.236,-0.06447
4.24,-0.01611
4.244,-0.00949
4.248,-0.05112
4.252,-0.11542
4.256,-0.16827
4.26,-0.11413
4.264,-0.0074
4.268,0.04401
4.272,0.28612
4.276,0.43642
4.28,0.67676
4.284,0.82227
4.288,0.97696
4.292,0.91526
4.296,0.80023
4.3,0.62246
4.304,0.35791
4.308,0.2146
4.312,-0.01642
4.316,-0.09572
4.32,-0.21329
4.324,-0.18211
4.328,-0.15777
4.332,-0.15202
4.336,-0.08088
4.34,-0.0512
4.344,-0.14077
4.348,-0.09906
4.352,-0.00309
4.356,-0.00973
4.36,-0.03794
4.364,0.00605
4.368,-0.13811
4.372,-0.03547
4.376,-0.02499
4.38,0.00216
4.384,-0.12115
4.388,-0.03912
4.392,-0.04737
4.396,-0.04947
4.4,-0.03892
4.404,-0.05517
4.408,-0.00441
4.412,-0.07142
4.416,-0.00249
4.42,0.01521
4.424,0.02879
4.428,0.00856
4.432,0.01312
4.436,-0.0189
4.44,0.01472
4.444,0.00514
4.448,-0.00989
4.452,-0.02068
4.456,-0.01765
4.46,-0.01143
4.464,-0.07452
4.468,-0.09109
4.472,0.00605
4.476,0.04013
4.48,0.03193
4.484,-0.07524
4.488,0.01931
4.492,0.02384
4.496,-0.00739
4.5,0.05771
4.504,0.06654
4.508,0.06322
4.512,0.04621
4.516,0.06352
4.52,0.04554
4.524,0.06342
4.528,0.15293
4.532,0.14226
4.536,0.14301
4.54,0.11025
4.544,0.10743
4.548,0.13604
4.552,0.20282
4.556,0.14277
4.56,0.21343
4.564,0.22235
4.568,0.20385
4.572,0.16193
4.576,0.20424
4.58,0.1377
4.584,0.19782
4.588,0.18136
4.592,0.10733
4.596,0.11605
4.6,0.13915
4.604,0.14294
4.608,0.19562
4.612,0.12312
4.616,0.11757
4.62,0.02464
4.624,0.0792
4.628,0.06463
4.632,0.02985
4.636,0.00946
4.64,0.032
4.644,-0.00726
4.648,-0.02898
4.652,-0.04232
4.656,-0.01452
4.66,0.03496
4.664,-0.00808
4.668,0.02191
4.672,0.04982
4.676,-0.00844
4.68,-0.08012
4.684,0.01089
4.688,-0.01207
4.692,0.00583
4.696,-0.03335
4.7,-0.01623
4.704,-0.01491
4.708,-0.03678
4.712,-0.09671
4.716,-0.07388
4.72,-0.09403
4.724,-0.00504
4.728,-0.07668
4.732,-0.05086
4.736,-0.04244
4.74,0.06198
4.744,0.02956
4.748,-0.00662
4.752,-0.10289
4.756,-0.06484
4.76,-0.01823
4.764,-0.03136
4.768,-0.04747
4.772,-0.03087
4.776,-0.04594
4.78,-0.06759
4.784,-0.06316
4.788,-0.03658
4.792,0.01296
4.796,-0.03719
4.8,-0.04967
4.804,-0.05245
4.808,0.01322
4.812,0.00346
4.816,-0.03873
4.82,-0.0085
4.824,-0.00855
4.828,0.01656
4.832,0.03745
4.836,0.00977
4.84,-0.00605
4.844,-0.06342
4.848,-0.05576
4.852,-0.00879
4.856,-0.04631
4.86,-0.07508
4.864,-0.06144
4.868,-0.06396
4.872,-0.06269
4.876,-0.01872
4.88,-0.0523
4.884,-0.06126
4.888,-0.03441
4.892,-0.06593
4.896,0.01488
4.9,0.00621
4.904,-0.05183
4.908,-0.05151
4.912,-0.06802
4.916,-0.08343
4.92,-0.03242
4.924,-0.02686
4.928,-0.05121
4.932,-3e-05
4.936,-0.04701
4.94,-0.03305
4.944,-0.01696
4.948,-0.07622
4.952,-0.02509
4.956,-0.07218
4.96,-0.01435
4.964,-0.07152
4.968,-0.00107
4.972,-0.05893
4.976,-0.01941
4.98,-0.03186
4.984,-0.02682
4.988,-0.05908
4.992,-0.03284
4.996,-0.02137
5.0,-0.06232
5.004,-0.00803
5.008,-0.02884
5.012,-0.00992
5.016,-0.01205
5.02,-0.05328
5.024,0.03145
5.028,0.00522
5.032,-0.05795
5.036,-0.05404
5.04,0.00894
5.044,-0.06668
5.048,0.00869
5.052,-0.08547
5.056,-0.0264
5.06,0.04237
5.064,-0.03076
5.068,-0.03209
5.072,-0.03068
5.076,0.00969
5.08,0.02678
5.084,-0.04893
5.088,-0.06672
5.092,-0.01831
5.096,0.05071
5.1,-0.00714
5.104,0.00084
5.108,0.04104
5.112,0.01128
5.116,-0.03362
5.12,0.04844
5.124,0.0601
5.128,0.09854
5.132,0.11421
5.136,0.07933
5.14,0.06728
5.144,0.0674
5.148,0.05621
5.152,0.08041
5.156,0.00583
5.16,-0.00671
5.164,-0.04086
5.168,0.02897
5.172,-0.0093
5.176,-0.05022
5.18,-0.01631
5.184,-0.02034
5.188,0.02285
5.192,-0.03648
5.196,0.03072
5.2,0.01444
5.204,0.01742
5.208,-0.06044
5.212,0.02545
5.216,-0.03926
5.22,-0.0805
5.224,-0.00161
5.228,0.04877
5.232,0.01359
5.236,-0.02761
5.24,-0.06441
5.244,-0.05553
5.248,0.0129
5.252,-0.01542
5.256,-0.13343
5.26,-0.11526
5.264,-0.11839
5.268,-0.06662
5.272,0.01441
5.276,0.23916
5.28,0.4001
5.284,0.67255
5.288,0.8295
5.292,0.97121
5.296,0.99525
5.3,0.86031
5.304,0.75748
5.308,0.51815
5.312,0.26868
5.316,0.04731
5.32,-0.07893
5.324,-0.12532
5.328,-0.19408
5.332,-0.17731
5.336,-0.08153
5.34,-0.08255
5.344,-0.09987
5.348,0.01503
5.352,-0.07292
5.356,-0.00274
5.36,-0.01818
5.364,0.01237
5.368,-0.06572
5.372,-0.03284
5.376,0.02242
5.38,0.02483
5.384,-0.00863
5.388,0.02912
5.392,-0.00344
5.396,-0.01401
5.4,-0.07618
5.404,-0.013
5.408,-0.07762
5.412,-0.01117
5.416,-0.04172
5.42,-0.02224
5.424,-0.0156
5.428,-0.01582
5.432,-0.05011
5.436,0.01336
5.44,-0.01326
5.444,0.01022
5.448,-0.00661
5.452,0.01822
5.456,-0.03126
5.46,0.05313
5.464,0.01448
5.468,-0.00868
5.472,0.01597
5.476,-0.00478
5.48,0.06561
5.484,0.01702
5.488,-0.01961
5.492,0.06761
5.496,0.03476
5.5,0.09733
5.504,0.0761
5.508,0.12504
5.512,0.09744
5.516,-0.00396
5.52,0.13512
5.524,0.15263
5.528,0.15095
5.532,0.13268
5.536,0.16332
5.54,0.07321
5.544,0.20442
5.548,0.20753
5.552,0.21862
5.556,0.15319
5.56,0.22841
5.564,0.17861
5.568,0.21336
5.572,0.24572
5.576,0.21147
5.58,0.17536
5.584,0.19437
5.588,0.2247
5.592,0.18494
5.596,0.13475
5.6,0.15861
5.604,0.15902
5.608,0.1358
5.612,0.17666
5.616,0.13917
5.62,0.16355
5.624,0.13935
5.628,0.05772
5.632,0.10546
5.636,0.11207
5.64,0.04416
5.644,0.0361
5.648,0.03637
5.652,0.01524
5.656,-0.00075
5.66,0.03195
5.664,0.02439
5.668,0.01425
5.672,0.00763
5.676,0.04497
5.68,-0.00884
5.684,0.00801
5.688,0.00966
5.692,-0.02999
5.696,-0.03506
5.7,0.00497
5.704,-0.01297
5.708,-0.10107
5.712,-0.00756
5.716,0.06017
5.72,0.01534
5.724,-0.00588
5.728,-0.007
5.732,-0.04105
5.736,-0.00117
5.74,0.00499
5.744,0.05739
5.748,0.04771
5.752,-0.03741
5.756,0.00388
5.76,0.0527
5.764,0.04142
5.768,0.07729
5.772,0.04792
5.776,0.0226
5.78,-0.03745
5.784,-0.00155
5.788,0.03283
5.792,-0.01587
5.796,0.02253
5.8,-0.01458
5.804,-0.04432
5.808,-0.06454
5.812,0.02459
5.816,-0.05487
5.82,0.03592
5.824,-0.01649
5.828,0.03906
5.832,0.00538
5.836,0.05606
5.84,0.00663
5.844,-0.01174
5.848,-0.02212
5.852,-0.02432
5.856,0.019
5.86,-0.06849
5.864,0.01512
5.868,-0.01631
5.872,0.02066
5.876,0.05725
5.88,-0.06495
5.884,-0.00228
5.888,0.05367
5.892,-0.02567
5.896,0.01681
5.9,0.04614
5.904,-0.04162
5.908,0.02904
5.912,0.04817
5.916,-0.02916
5.92,0.02071
5.924,-0.02614
5.928,0.01481
5.932,0.00485
5.936,-0.01128
5.94,0.07097
5.944,0.05667
5.948,0.07935
5.952,-0.01251
5.956,-0.03154
5.96,-0.08894
5.964,-0.01017
5.968,0.05176
5.972,-0.0479
5.976,0.02108
5.98,0.00628
5.984,0.04521
5.988,0.07992
5.992,0.01138
5.996,0.07159
6.0,0.00404
6.004,-0.00585
6.008,0.04477
6.012,-0.0061
6.016,-0.07178
6.02,-0.04478
6.024,-0.01139
6.028,0.05413
6.032,-0.03368
6.036,0.02471
6.04,0.02417
6.044,0.00163
6.048,-0.00831
6.052,-0.00405
6.056,-0.05387
6.06,0.03108
6.064,-0.0268
6.068,0.017
6.072,0.03188
6.076,0.02451
6.08,0.02009
6.084,0.07752
6.088,0.10861
6.092,0.11396
6.096,0.09252
6.1,0.11
6.104,0.06456
6.108,0.10052
6.112,0.11408
6.116,0.04988
6.12,0.05859
6.124,0.01058
6.128,0.01772
6.132,0.01936
6.136,-0.01287
6.14,0.06069
6.144,0.04302
6.148,0.09629
6.152,0.0202
6.156,0.03755
6.16,0.00467
6.164,0.059
6.168,-0.01688
6.172,-0.11852
6.176,0.02364
6.18,-0.018
6.184,0.02752
6.188,0.04157
6.192,6e-05
6.196,0.01542
6.2,-0.04109
6.204,0.0721
6.208,-0.02705
6.212,0.04223
6.216,0.0097
6.22,-0.09326
6.224,-0.14416
6.228,-0.07952
6.232,-0.08466
6.236,0.09975
6.24,0.37061
6.244,0.50516
6.248,0.63875
6.252,0.84353
6.256,1.03019
6.26,0.99566
6.264,0.90264
6.268,0.74025
6.272,0.49228
6.276,0.20926
6.28,0.0972
6.284,-0.07447
6.288,-0.12871
6.292,-0.19262
6.296,-0.1144
6.3,-0.11029
6.304,-0.04226
6.308,0.00861
6.312,0.01992
6.316,0.00803
6.32,-0.07123
6.324,-0.02667
6.328,0.04177
6.332,0.10061
6.336,0.02773
6.34,0.0057
6.344,0.02494
6.348,-0.04715
6.352,-0.00054
6.356,0.01768
6.36,-0.04966
6.364,0.04394
6.368,0.02408
6.372,0.06768
6.376,0.01595
6.38,0.00031
6.384,0.0506
6.388,-0.00737
6.392,-0.04302
6.396,-0.01689
6.4,0.00077
6.404,0.11301
6.408,0.00574
6.412,0.02579
6.416,-0.03489
6.42,0.07821
6.424,0.0183
6.428,0.0648
6.432,0.02022
6.436,-0.01955
6.44,0.01912
6.444,0.02429
6.448,0.02969
6.452,0.05604
6.456,0.0652
6.46,0.05124
6.464,0.09242
6.468,0.10399
6.472,0.06989
6.476,0.06134
6.48,0.13535
6.484,0.09657
6.488,0.09543
6.492,0.20241
6.496,0.15506
6.5,0.15257
6.504,0.24556
6.508,0.18332
6.512,0.22822
6.516,0.20029
6.52,0.23967
6.524,0.2386
6.528,0.31645
6.532,0.25097
6.536,0.20483
6.54,0.22107
6.544,0.22711
6.548,0.27297
6.552,0.25522
6.556,0.23378
6.56,0.2526
6.564,0.18012
6.568,0.13349
6.572,0.17522
6.576,0.18766
6.58,0.18715
6.584,0.15974
6.588,0.1354
6.592,0.14415
6.596,0.11405
6.6,0.04639
6.604,0.0171
6.608,0.08118
6.612,0.07742
6.616,0.11285
6.62,0.05687
6.624,0.0717
6.628,-0.00644
6.632,0.03112
6.636,-0.00719
6.64,0.07489
6.644,-0.00785
6.648,0.02598
6.652,0.07896
6.656,0.0501
6.66,0.04892
6.664,0.02636
6.668,0.02837
6.672,0.05919
6.676,-0.02827
6.68,0.02226
6.684,0.02015
6.688,0.01021
6.692,0.05147
6.696,0.03646
6.7,-0.01436
6.704,0.00305
6.708,0.04324
6.712,0.01776
6.716,0.06611
6.72,0.0264
6.724,0.01545
6.728,0.05588
6.732,0.08742
6.736,0.05527
6.74,0.08252
6.744,0.08636
6.748,0.17148
6.752,0.08849
6.756,0.10894
6.76,0.13735
6.764,0.12655
6.768,0.13
6.772,0.14503
6.776,0.14677
6.78,0.08842
6.784,0.07799
6.788,0.05939
6.792,0.0712
6.796,0.04513
6.8,0.01215
6.804,0.04412
6.808,-0.00013
6.812,-0.01547
6.816,0.08398
6.82,0.00693
6.824,0.02009
6.828,0.02263
6.832,0.02647
6.836,-0.04903
6.84,0.00825
6.844,0.02816
6.848,0.01315
6.852,0.0199
6.856,0.00561
6.86,-0.05745
6.864,0.04751
6.868,0.03882
6.872,0.04479
6.876,0.01609
6.88,-0.00713
6.884,-0.04571
6.888,-0.05033
6.892,-0.05707
6.896,0.06751
6.9,0.1104
6.904,0.29758
6.908,0.46476
6.912,0.69376
6.916,0.87587
6.92,0.96041
6.924,1.00122
6.928,0.90444
6.932,0.73726
6.936,0.47188
6.94,0.28312
6.944,0.06808
6.948,-0.02358
6.952,-0.16165
6.956,-0.13048
6.96,-0.12892
6.964,-0.03945
6.968,-0.02006
6.972,-0.04083
6.976,-0.02374
6.98,0.0301
6.984,-0.00671
6.988,0.02358
6.992,0.05028
6.996,0.14157
7.0,0.00494
7.004,0.00563
7.008,0.01994
7.012,0.06211
7.016,0.0108
7.02,0.00695
7.024,-0.02708
7.028,0.01856
7.032,0.04172
7.036,0.10515
7.04,0.03091
7.044,0.0187
7.048,0.08258
7.052,0.02227
7.056,0.04829
7.06,0.08284
7.064,0.05753
7.068,0.04662
7.072,0.01855
7.076,-0.00989
7.08,-0.00455
7.084,0.05501
7.088,0.0484
7.092,0.07437
7.096,0.00059
7.1,0.02412
7.104,0.00052
7.108,0.04296
7.112,0.07622
7.116,-0.00069
7.12,0.05618
7.124,0.11549
7.128,0.15699
7.132,0.06714
7.136,0.09764
7.14,0.14883
7.144,0.11688
7.148,0.09972
7.152,0.16744
7.156,0.24549
7.16,0.1519
7.164,0.17145
7.168,0.1654
7.172,0.18139
7.176,0.25825
7.18,0.23393
7.184,0.20262
7.188,0.26552
7.192,0.24877
7.196,0.22793
7.2,0.24554
7.204,0.23386
7.208,0.23158
7.212,0.20418
7.216,0.27084
7.22,0.23853
7.224,0.20966
7.228,0.20498
7.232,0.26144
7.236,0.24368
7.24,0.17761
7.244,0.1107
7.248,0.2101
7.252,0.15884
7.256,0.14508
7.26,0.10116
7.264,0.13442
7.268,0.12067
7.272,0.08875
7.276,0.04516
7.28,0.0576
7.284,0.07086
7.288,0.10252
7.292,0.05601
7.296,0.08915
7.3,0.06729
7.304,-0.00899
7.308,0.03534
7.312,0.02668
7.316,-0.02508
7.32,0.05906
7.324,0.00774
7.328,0.04527
7.332,0.06377
7.336,0.04605
7.34,0.03103
7.344,-0.00251
7.348,0.02133
7.352,0.05422
7.356,0.0721
7.36,0.09062
7.364,-0.03082
7.368,0.0565
7.372,0.01139
7.376,0.02666
7.38,0.00424
7.384,0.0564
7.388,-0.04469
7.392,0.03114
7.396,0.01258
7.4,-0.05436
7.404,0.04074
7.408,-0.00765
7.412,0.03106
7.416,0.06195
7.42,0.04835
7.424,0.00294
7.428,-0.04554
7.432,-0.00176
7.436,0.02475
7.44,0.0245
7.444,0.0077
7.448,-0.00677
7.452,0.05338
7.456,0.02099
7.46,0.0333
7.464,-0.00681
7.468,0.0232
7.472,0.08477
7.476,0.05342
7.48,0.00155
7.484,0.08519
7.488,-0.04774
7.492,0.00197
7.496,0.01046
7.5,0.07245
7.504,0.00649
7.508,0.06932
7.512,0.01729
7.516,0.00317
7.52,-0.00053
7.524,0.07952
7.528,0.05849
7.532,0.0249
7.536,0.03476
7.54,-0.00473
7.544,0.05999
7.548,0.0031
7.552,-0.01815
7.556,0.05461
7.56,0.05899
7.564,0.01573
7.568,0.05835
7.572,0.08012
7.576,0.01819
7.58,0.00607
7.584,0.05583
7.588,0.06156
7.592,0.08425
7.596,0.00159
7.6,0.04495
7.604,0.12948
7.608,0.08002
7.612,0.08881
7.616,0.14939
7.62,0.19467
7.624,0.05012
7.628,0.16777
7.632,0.10616
7.636,0.11379
7.64,0.12757
7.644,0.06039
7.648,0.14459
7.652,0.00645
7.656,0.11121
7.66,-0.01964
7.664,0.01762
7.668,0.05112
7.672,0.04983
7.676,0.03021
7.68,0.05384
7.684,0.01694
7.688,-0.03518
7.692,0.05652
7.696,0.02074
7.7,-0.02684
7.704,-0.01685
7.708,0.03998
7.712,0.02183
7.716,0.04258
7.72,-0.01038
7.724,0.03735
7.728,0.06365
7.732,-0.00566
7.736,-0.02535
7.74,0.03744
7.744,-0.06197
7.748,-0.03552
7.752,-0.06122
7.756,-0.06823
7.76,0.07423
7.764,0.27438
7.768,0.5626
7.772,0.76683
7.776,0.85621
7.78,1.00487
7.784,1.01437
7.788,0.91058
7.792,0.73605
7.796,0.56524
7.8,0.30096
7.804,0.11426
7.808,0.01262
7.812,-0.06708
7.816,-0.19077
7.82,-0.14751
7.824,-0.13608
7.828,-0.11903
7.832,0.01564
7.836,0.0673
7.84,-0.00321
7.844,0.0025
7.848,0.05185
7.852,0.03836
7.856,-0.02582
7.86,0.0482
7.864,-0.01352
7.868,-0.00772
7.872,0.01762
7.876,0.02839
7.88,-0.02146
7.884,0.07434
7.888,0.02934
7.892,0.02645
7.896,-0.04608
7.9,0.03852
7.904,0.02887
7.908,-0.01759
7.912,-0.03622
7.916,0.01477
7.92,-0.07523
7.924,0.0682
7.928,0.00226
7.932,0.03185
7.936,-0.03618
7.94,0.01502
7.944,0.02358
7.948,0.07749
7.952,0.03358
7.956,0.04129
7.96,0.08678
7.964,0.02945
7.968,0.03842
7.972,0.09591
7.976,0.04363
7.98,0.06556
7.984,0.0865
7.988,0.12551
7.992,0.06164
7.996,0.07169
8.0,0.07701
8.004,0.11284
8.008,0.13739
8.012,0.10218
8.016,0.15395
8.02,0.12124
8.024,0.13475
8.028,0.15262
8.032,0.22301
8.036,0.21317
8.04,0.23464
8.044,0.27971
8.048,0.26962
8.052,0.22758
8.056,0.23669
8.06,0.25357
8.064,0.24274
8.068,0.31516
8.072,0.23986
8.076,0.18149
8.08,0.19831
8.084,0.21645
8.088,0.2577
8.092,0.18878
8.096,0.27197
8.1,0.17594
8.104,0.17855
8.108,0.21941
8.112,0.1624
8.116,0.14499
8.12,0.09778
8.124,0.09861
8.128,0.06321
8.132,0.08251
8.136,0.06815
8.14,0.0905
8.144,0.07299
8.148,0.13677
8.152,0.07459
8.156,0.09419
8.16,0.08361
8.164,0.06211
8.168,0.07459
8.172,0.00269
8.176,0.02142
8.18,0.04498
8.184,0.05746
8.188,-0.00246
8.192,0.00216
8.196,0.04318
8.2,0.03159
8.204,-0.00421
8.208,0.08734
8.212,0.0379
8.216,0.02047
8.22,0.02464
8.224,0.01682
8.228,0.03113
8.232,0.04907
8.236,0.02638
8.24,-0.02379
8.244,0.0177
8.248,-0.02421
8.252,-0.00877
8.256,0.04502
8.26,0.06528
8.264,0.03185
8.268,-0.03785
8.272,0.01434
8.276,0.07434
8.28,0.01313
8.284,0.03285
8.288,-0.05772
8.292,-0.00533
8.296,0.02982
8.3,0.033
8.304,-0.02419
8.308,0.00706
8.312,0.04888
8.316,0.02884
8.32,0.05422
8.324,0.0296
8.328,-0.01999
8.332,-0.00083
8.336,0.02762
8.34,0.00309
8.344,-0.00318
8.348,0.02436
8.352,0.03929
8.356,-0.04586
8.36,0.02566
8.364,0.01475
8.368,0.02144
8.372,-0.03645
8.376,-0.00516
8.38,0.04364
8.384,-0.01466
8.388,0.02828
8.392,0.04228
8.396,0.00686
8.4,0.02135
8.404,0.01824
8.408,0.04511
8.412,0.04377
8.416,-0.01556
8.42,0.02041
8.424,-0.0014
8.428,0.02044
8.432,0.0439
8.436,0.00314
8.44,0.0968
8.444,0.12392
8.448,0.10003
8.452,0.09697
8.456,0.07019
8.46,0.13755
8.464,0.14552
8.468,0.12337
8.472,0.12775
8.476,0.07585
8.48,0.12454
8.484,0.06785
8.488,0.04874
8.492,0.08025
8.496,0.04889
8.5,0.03472
8.504,0.07579
8.508,0.09332
8.512,0.00746
8.516,-0.05192
8.52,0.03851
8.524,0.05871
8.528,0.02422
8.532,0.03224
8.536,0.04633
8.54,-0.04229
8.544,0.03368
8.548,0.03998
8.552,0.01653
8.556,0.02943
8.56,0.01901
8.564,0.00596
8.568,0.07324
8.572,-0.0314
8.576,0.0127
8.58,0.0249
8.584,0.00848
8.588,-0.04657
8.592,-0.08703
8.596,-0.12276
8.6,-0.00901
8.604,0.14318
8.608,0.27859
8.612,0.40687
8.616,0.72853
8.62,0.8802
8.624,1.01569
8.628,1.00119
8.632,0.8877
8.636,0.67518
8.64,0.42264
8.644,0.22861
8.648,0.0542
8.652,-0.13354
8.656,-0.12518
8.66,-0.18917
8.664,-0.11471
8.668,-0.06825
8.672,-0.05292
8.676,-0.03139
8.68,-0.00442
8.684,0.01494
8.688,-0.00815
8.692,0.01416
8.696,0.06326
8.7,-0.00392
8.704,-0.02847
8.708,-0.01711
8.712,-0.00049
8.716,0.01381
8.72,0.04766
8.724,0.07494
8.728,0.0406
8.732,0.03835
8.736,-0.02007
8.74,0.07275
8.744,-0.03852
8.748,0.01243
8.752,0.06675
8.756,0.09174
8.76,-0.01861
8.764,0.01268
8.768,0.0139
8.772,0.01945
8.776,0.01311
8.78,0.07603
8.784,-0.00039
8.788,-0.00242
8.792,-0.0277
8.796,-0.01933
8.8,0.01372
8.804,0.0639
8.808,0.02691
8.812,-0.00921
8.816,0.09547
8.82,0.03122
8.824,0.03276
8.828,0.02083
8.832,0.07689
8.836,0.09414
8.84,0.11345
8.844,0.13939
8.848,0.04673
8.852,0.07382
8.856,0.08549
8.86,0.09291
8.864,0.14138
8.868,0.19739
8.872,0.09948
8.876,0.16688
8.88,0.19925
8.884,0.23498
8.888,0.17885
8.892,0.19585
8.896,0.22164
8.9,0.21064
8.904,0.17773
8.908,0.19681
8.912,0.22649
8.916,0.24416
8.92,0.15318
8.924,0.2051
8.928,0.20094
8.932,0.20586
8.936,0.13192
8.94,0.21734
8.944,0.13336
8.948,0.17366
8.952,0.13318
8.956,0.17203
8.96,0.13438
8.964,0.07343
8.968,0.14669
8.972,0.11658
8.976,0.06762
8.98,0.0615
8.984,0.05384
8.988,0.05763
8.992,0.03961
8.996,0.06649
9.0,-0.01534
9.004,-0.01522
9.008,0.02697
9.012,0.01679
9.016,-0.00747
9.02,-0.01023
9.024,0.00531
9.028,-0.04669
9.032,0.01962
9.036,-0.00562
9.04,-0.04963
9.044,0.0801
9.048,0.00173
9.052,-0.01796
9.056,-0.00061
9.06,0.0274
9.064,-0.00339
9.068,0.05493
9.072,0.0896
9.076,-0.07731
9.08,0.00559
9.084,0.01946
9.088,-0.01369
9.092,0.02839
9.096,-0.03964
9.1,-0.049
9.104,-0.00821
9.108,0.06105
9.112,-0.01865
9.116,0.02187
9.12,-0.0037
9.124,0.01579
9.128,0.09972
9.132,-0.00414
9.136,0.0118
9.14,0.04505
9.144,0.03978
9.148,-0.02219
9.152,-0.04278
9.156,0.03221
9.16,-0.03945
9.164,0.01761
9.168,-0.00842
9.172,-0.00363
9.176,0.01304
9.18,0.03798
9.184,-0.03457
9.188,-0.01511
9.192,0.02712
9.196,-0.03038
9.2,0.04271
9.204,0.0193
9.208,-0.00034
9.212,0.01763
9.216,0.01699
9.22,0.021
9.224,0.02425
9.228,-0.03261
9.232,-0.04488
9.236,0.01379
9.24,0.08564
9.244,0.0544
9.248,-0.03496
9.252,0.01379
9.256,-0.00181
9.26,0.00775
9.264,0.0031
9.268,-0.03438
9.272,0.0334
9.276,-0.00886
9.28,0.00342
9.284,-0.06555
9.288,-0.05625
9.292,0.01229
9.296,0.05706
9.3,0.04227
9.304,0.02135
9.308,-0.04848
9.312,0.0003
9.316,-0.05139
9.32,0.04668
9.324,0.01943
9.328,-0.02172
9.332,0.00476
9.336,0.0117
9.34,-0.04985
9.344,-0.06657
9.348,-0.02919
9.352,0.00954
9.356,-0.06132
9.36,-0.04677
9.364,-0.01006
9.368,-0.02621
9.372,0.00085
9.376,0.0064
9.38,0.00904
9.384,0.00018
9.388,0.07291
9.392,-0.03712
9.396,0.01341
9.4,-0.00734
9.404,-0.01799
9.408,-0.00188
9.412,-0.01378
9.416,0.01574
9.42,0.03667
9.424,0.04323
9.428,0.01634
9.432,0.02388
9.436,0.01162
9.44,-0.01265
9.444,-0.03091
9.448,0.01961
9.452,0.00774
9.456,0.06753
9.46,0.0412
9.464,0.01696
9.468,0.07721
9.472,0.12465
9.476,0.1224
9.48,0.09919
9.484,0.11503
9.488,0.0462
9.492,0.08587
9.496,0.06137
9.5,0.09691
9.504,0.01946
9.508,-0.00524
9.512,-0.0241
9.516,-0.09067
9.52,-0.04117
9.524,-0.03315
9.528,-0.03505
9.532,-0.01437
9.536,-0.0481
9.54,-0.01155
9.544,0.02231
9.548,-0.02473
9.552,-0.01193
9.556,0.0176
9.56,-0.06136
9.564,0.00424
9.568,-0.03051
9.572,-0.00139
9.576,-0.03964
9.58,-0.00865
9.584,-0.04606
9.588,-0.00519
9.592,-0.05635
9.596,-0.04707
9.6,-0.06846
9.604,-0.18365
9.608,-0.15345
9.612,-0.04455
9.616,0.13598
9.62,0.22516
9.624,0.47503
9.628,0.69641
9.632,0.98631
9.636,0.92154
9.64,1.0228
9.644,0.8513
9.648,0.56676
9.652,0.47024
9.656,0.23699
9.66,0.05339
9.664,-0.06829
9.668,-0.19989
9.672,-0.1802
9.676,-0.15113
9.68,-0.14676
9.684,-0.10605
9.688,-0.0392
9.692,0.01049
9.696,-0.06829
9.7,-0.02963
9.704,-0.0091
9.708,-0.03791
9.712,-0.05117
9.716,-0.08716
9.72,-0.03247
9.724,-0.04312
9.728,0.00433
9.732,-0.01332
9.736,0.00437
9.74,-0.0461
9.744,0.0027
9.748,-0.01381
9.752,0.04035
9.756,-0.06154
9.76,-0.03365
9.764,0.03315
9.768,0.00419
9.772,-0.00343
9.776,0.03637
9.78,-0.00923
9.784,0.01766
9.788,-0.02024
9.792,0.03455
9.796,-0.00874
9.8,-0.04836
9.804,-0.01348
9.808,-0.04313
9.812,0.03615
9.816,-0.05636
9.82,0.06494
9.824,0.02443
9.828,-0.04889
9.832,-0.01216
9.836,0.04737
9.84,0.08996
9.844,0.00354
9.848,0.02337
9.852,0.10092
9.856,0.01281
9.86,0.09378
9.864,0.09647
9.868,0.132
9.872,0.11457
9.876,0.06905
9.88,0.19584
9.884,0.10222
9.888,0.21863
9.892,0.16454
9.896,0.1517
9.9,0.1558
9.904,0.17206
9.908,0.16021
9.912,0.21042
9.916,0.18574
9.92,0.23715
9.924,0.19374
9.928,0.14669
9.932,0.21389
9.936,0.20278
9.94,0.19322
9.944,0.17296
9.948,0.1671
9.952,0.07948
9.956,0.16203
9.96,0.09245
9.964,0.13496
9.968,0.12672
9.972,0.03695
9.976,0.12137
9.98,0.01347
9.984,0.05398
9.988,0.02596
9.992,-0.01133
9.996,0.04491
