t_seg,ecg_mV
0.0,0.00856
0.004,0.02384
0.008,-0.00447
0.012,0.06735
0.016,0.02569
0.02,0.06259
0.024,-0.00673
0.028,-0.01803
0.032,0.02211
0.036,-0.01446
0.04,-0.00644
0.044,0.05803
0.048,0.03056
0.052,-0.03045
0.056,0.06049
0.06,-0.02463
0.064,0.00309
0.068,-0.08306
0.072,-0.11281
0.076,-0.13079
0.08,-0.01258
0.084,0.12619
0.088,0.31939
0.092,0.54498
0.096,0.66681
0.1,0.87922
0.104,0.99362
0.108,1.04846
0.112,0.89706
0.116,0.66277
0.12,0.46849
0.124,0.18802
0.128,0.05849
0.132,-0.05361
0.136,-0.15087
0.14,-0.14778
0.144,-0.12776
0.148,-0.09559
0.152,-0.0338
0.156,-0.02395
0.16,-0.03163
0.164,-0.00034
0.168,-0.00845
0.172,0.02172
0.176,0.02671
0.18,-0.03938
0.184,0.04229
0.188,0.04818
0.192,0.05044
0.196,0.01835
0.2,0.00737
0.204,0.03957
0.208,0.02266
0.212,0.03849
0.216,-0.01244
0.22,0.0355
0.224,0.02127
0.228,-0.00505
0.232,0.11002
0.236,0.00453
0.24,0.00911
0.244,-0.01477
0.248,0.01734
0.252,-0.0363
0.256,0.02991
0.26,0.03334
0.264,0.04564
0.268,0.06526
0.272,0.0172
0.276,0.02613
0.28,0.00314
0.284,0.00544
0.288,0.03093
0.292,0.01863
0.296,-0.00317
0.3,-0.00818
0.304,0.02722
0.308,0.00844
0.312,0.05998
0.316,0.10298
0.32,0.06252
0.324,0.10188
0.328,0.13707
0.332,0.08296
0.336,0.14561
0.34,0.17958
0.344,0.16303
0.348,0.15683
0.352,0.29268
0.356,0.20197
0.36,0.21539
0.364,0.29798
0.368,0.28121
0.372,0.315
0.376,0.31379
0.38,0.29492
0.384,0.31591
0.388,0.32409
0.392,0.35829
0.396,0.26174
0.4,0.26626
0.404,0.2796
0.408,0.1772
0.412,0.19556
0.416,0.16718
0.42,0.16215
0.424,0.11071
0.428,0.20322
0.432,0.15618
0.436,0.10278
0.44,0.138
0.444,0.0573
0.448,0.01798
0.452,0.02378
0.456,0.0809
0.46,0.06737
0.464,0.02442
0.468,0.13918
0.472,0.05457
0.476,0.07031
0.48,0.0339
0.484,-0.02223
0.488,0.03651
0.492,0.00821
0.496,-0.10742
0.5,-0.13911
0.504,-0.11299
0.508,-0.0122
0.512,0.06639
0.516,0.2206
0.52,0.39454
0.524,0.63651
0.528,0.86951
0.532,0.99088
0.536,0.98425
0.54,0.88786
0.544,0.72495
0.548,0.51296
0.552,0.27589
0.556,0.10205
0.56,-0.05564
0.564,-0.1566
0.568,-0.20666
0.572,-0.20375
0.576,-0.13569
0.58,-0.10602
0.584,-0.04008
0.588,-0.01638
0.592,-0.01588
0.596,-0.07058
0.6,0.02423
0.604,-0.00316
0.608,-0.01203
0.612,-0.05628
0.616,-0.00837
0.62,-0.03359
0.624,0.0004
0.628,-0.00497
0.632,0.01213
0.636,0.0022
0.64,0.03801
0.644,-0.01142
0.648,-0.01478
0.652,-0.02118
0.656,0.04015
0.66,-0.0642
0.664,0.01542
0.668,-0.00176
0.672,0.01641
0.676,0.00123
0.68,0.01681
0.684,-0.01071
0.688,0.01582
0.692,0.0422
0.696,0.08522
0.7,0.07691
0.704,0.14438
0.708,0.07181
0.712,0.02782
0.716,0.10298
0.72,0.14926
0.724,0.1445
0.728,0.16042
0.732,0.16541
0.736,0.12557
0.74,0.15734
0.744,0.12675
0.748,0.15003
0.752,0.11115
0.756,0.09355
0.76,0.15028
0.764,0.07953
0.768,0.08891
0.772,0.09805
0.776,0.22181
0.78,0.14464
0.784,0.17294
0.788,0.18583
0.792,0.18416
0.796,0.19075
0.8,0.17114
0.804,0.18535
0.808,0.18807
0.812,0.21944
0.816,0.20111
0.82,0.16562
0.824,0.20597
0.828,0.22896
0.832,0.19211
0.836,0.12533
0.84,0.11219
0.844,0.10097
0.848,-0.01129
0.852,0.01424
0.856,0.05356
0.86,0.09511
0.864,0.22313
0.868,0.33675
0.872,0.4578
0.876,0.5778
0.88,0.7199
0.884,0.72117
0.888,0.70008
0.892,0.57651
0.896,0.43691
0.9,0.1875
0.904,0.10148
0.908,-0.09069
0.912,-0.13703
0.916,-0.20173
0.92,-0.11217
0.924,-0.15377
0.928,-0.16766
0.932,-0.08415
0.936,0.03484
0.94,0.03278
0.944,-0.03025
0.948,0.06485
0.952,-0.04336
0.956,-0.02157
0.96,-0.05367
0.964,0.00572
0.968,0.01051
0.972,-0.05577
0.976,-0.01638
0.98,-0.07302
0.984,-0.00669
0.988,0.01069
0.992,-0.04193
0.996,-0.05191
1.0,-0.00079
1.004,-0.01872
1.008,-0.09941
1.012,-0.07361
1.016,0.02317
1.02,0.00916
1.024,0.00838
1.028,-0.07481
1.032,0.01291
1.036,-0.03199
1.04,-0.0221
1.044,-0.04262
1.048,0.03732
1.052,0.0148
1.056,-0.02698
1.06,0.01757
1.064,-0.00479
1.068,0.0389
1.072,-0.03596
1.076,-0.01087
1.08,0.04988
1.084,-0.00744
1.088,0.03845
1.092,0.03021
1.096,0.02977
1.1,0.03758
1.104,-0.00602
1.108,0.07315
1.112,0.05733
1.116,0.14034
1.12,0.11814
1.124,0.12341
1.128,0.1681
1.132,0.14622
1.136,0.15394
1.14,0.21142
1.144,0.1766
1.148,0.20587
1.152,0.19575
1.156,0.17696
1.16,0.18932
1.164,0.20255
1.168,0.19781
1.172,0.23358
1.176,0.21014
1.18,0.19886
1.184,0.27597
1.188,0.21766
1.192,0.15805
1.196,0.19553
1.2,0.16106
1.204,0.08798
1.208,0.09911
1.212,0.09111
1.216,0.06491
1.22,0.05932
1.224,0.09545
1.228,0.0735
1.232,0.1195
1.236,0.01756
1.24,0.04018
1.244,0.03496
1.248,0.00531
1.252,0.07687
1.256,-0.02972
1.26,-0.01513
1.264,-0.0044
1.268,0.02324
1.272,0.01888
1.276,0.02365
1.28,0.00489
1.284,-0.02665
1.288,0.03986
1.292,0.08376
1.296,0.0299
1.3,0.06934
1.304,0.09172
1.308,0.10373
1.312,0.08374
1.316,0.05756
1.32,0.02444
1.324,0.09921
1.328,-0.02953
1.332,0.043
1.336,0.05573
1.34,0.02427
1.344,0.01545
1.348,0.02464
1.352,0.00195
1.356,-0.03342
1.36,-0.04509
1.364,0.0397
1.368,-0.04395
1.372,-0.03039
1.376,-0.03213
1.38,-0.02597
1.384,0.00185
1.388,-0.0201
1.392,-0.01679
1.396,-0.00712
1.4,-0.05061
1.404,-0.0517
1.408,-0.02632
1.412,-0.0008
1.416,0.02478
1.42,-0.02962
1.424,-0.11577
1.428,-0.11916
1.432,-0.12934
1.436,-0.07645
1.44,-0.02367
1.444,0.15278
1.448,0.30314
1.452,0.47802
1.456,0.69959
1.46,0.84276
1.464,0.88591
1.468,0.9112
1.472,0.8036
1.476,0.5985
1.48,0.36077
1.484,0.0649
1.488,-0.01129
1.492,-0.13318
1.496,-0.20049
1.5,-0.22526
1.504,-0.11449
1.508,-0.14285
1.512,-0.07203
1.516,-0.03489
1.52,-0.01138
1.524,0.10476
1.528,0.02603
1.532,-0.03817
1.536,0.00035
1.54,-0.00915
1.544,0.05254
1.548,-0.05156
1.552,0.027
1.556,0.00602
1.56,0.0115
1.564,-0.00937
1.568,-0.01369
1.572,-0.03053
1.576,-0.01392
1.58,-0.0355
1.584,0.00945
1.588,-0.03081
1.592,-0.02364
1.596,-0.03979
1.6,-0.03459
1.604,-0.06326
1.608,0.00468
1.612,-5e-05
1.616,0.02071
1.62,-0.03972
1.624,-0.02655
1.628,-0.00232
1.632,-0.00311
1.636,0.00219
1.64,-0.00388
1.644,-0.02853
1.648,-0.03226
1.652,-0.01175
1.656,0.04329
1.66,0.0076
1.664,0.01927
1.668,0.05547
1.672,0.05385
1.676,0.03369
1.68,0.06785
1.684,-0.00247
1.688,0.08095
1.692,0.05984
1.696,0.01019
1.7,0.16355
1.704,0.07366
1.708,0.15389
1.712,0.17362
1.716,0.1306
1.72,0.18475
1.724,0.2171
1.728,0.14212
1.732,0.17177
1.736,0.26791
1.74,0.22923
1.744,0.33272
1.748,0.32339
1.752,0.26455
1.756,0.29039
1.76,0.27873
1.764,0.26882
1.768,0.27789
1.772,0.23006
1.776,0.2908
1.78,0.18331
1.784,0.15989
1.788,0.10337
1.792,0.10674
1.796,0.11988
1.8,0.10836
1.804,0.09302
1.808,0.0293
1.812,0.00687
1.816,0.06102
1.82,-0.02409
1.824,-0.00743
1.828,0.04259
1.832,0.01722
1.836,-0.00448
1.84,0.00843
1.844,-0.0317
1.848,-0.04531
1.852,-0.07988
1.856,-0.02715
1.86,-0.03438
1.864,0.014
1.868,-0.03593
1.872,-0.02027
1.876,-0.13935
1.88,-0.08994
1.884,-0.15053
1.888,-0.05937
1.892,-0.01511
1.896,0.1297
1.9,0.23287
1.904,0.5661
1.908,0.76333
1.912,0.90131
1.916,0.94659
1.92,0.90946
1.924,0.83521
1.928,0.50428
1.932,0.37039
1.936,0.15275
1.94,-0.02154
1.944,-0.17023
1.948,-0.17002
1.952,-0.25711
1.956,-0.18001
1.96,-0.11617
1.964,-0.11174
1.968,-0.00943
1.972,-0.03408
1.976,0.02604
1.98,-0.02645
1.984,-0.03068
1.988,-0.02504
1.992,-0.04588
1.996,-0.0555
2.0,-0.04719
2.004,-0.09026
2.008,0.01328
2.012,-0.03813
2.016,0.00233
2.02,-0.01834
2.024,-0.07721
2.028,0.00565
2.032,0.01519
2.036,-0.01825
2.04,-0.05032
2.044,-0.03411
2.048,-0.03817
2.052,-0.0083
2.056,-0.0322
2.06,0.01305
2.064,-0.04766
2.068,-0.00567
2.072,-0.10834
2.076,0.05685
2.08,0.01047
2.084,-0.0069
2.088,-0.02847
2.092,-0.04318
2.096,-0.00703
2.1,-0.01844
2.104,0.03329
2.108,-0.03567
2.112,0.00341
2.116,-0.00452
2.12,0.07863
2.124,0.01158
2.128,-0.0274
2.132,0.05704
2.136,0.11065
2.14,0.07049
2.144,0.06413
2.148,0.08629
2.152,0.08505
2.156,0.05254
2.16,0.19374
2.164,0.14638
2.168,0.1223
2.172,0.1768
2.176,0.12306
2.18,0.15638
2.184,0.13876
2.188,0.15311
2.192,0.15802
2.196,0.19647
2.2,0.19381
2.204,0.2309
2.208,0.28041
2.212,0.16716
2.216,0.16807
2.22,0.15786
2.224,0.15664
2.228,0.13163
2.232,0.06847
2.236,0.05516
2.24,0.10991
2.244,0.13512
2.248,0.09072
2.252,0.11707
2.256,0.10425
2.26,0.04953
2.264,0.00531
2.268,0.01653
2.272,0.04119
2.276,-0.07286
2.28,0.0621
2.284,0.06882
2.288,-0.04082
2.292,-0.02709
2.296,0.01261
2.3,0.02258
2.304,-0.04386
2.308,-0.00602
2.312,-0.01638
2.316,-0.02106
2.32,0.03249
2.324,-0.01069
2.328,-0.06313
2.332,-0.00588
2.336,-0.03695
2.34,-0.01131
2.344,-0.00583
2.348,-0.06834
2.352,-0.09406
2.356,-0.02568
2.36,-0.00819
2.364,-0.01654
2.368,0.02577
2.372,-0.00575
2.376,-0.03493
2.38,0.00156
2.384,0.02161
2.388,0.06007
2.392,-0.01661
2.396,0.07812
2.4,0.10829
2.404,0.12341
2.408,0.07878
2.412,0.05299
2.416,0.07008
2.42,0.04489
2.424,0.01501
2.428,0.03388
2.432,0.02071
2.436,0.04374
2.44,-0.02025
2.444,0.00603
2.448,-0.03394
2.452,-0.02048
2.456,-0.05542
2.46,-0.05245
2.464,-0.00767
2.468,0.00992
2.472,-0.02074
2.476,-0.03571
2.48,-0.01224
2.484,-0.0319
2.488,-0.01068
2.492,-0.02713
2.496,-0.0059
2.5,0.01306
2.504,-0.02048
2.508,-0.06962
2.512,-0.00655
2.516,-0.01802
2.52,-0.04676
2.524,-0.01652
2.528,-0.04844
2.532,-0.06549
2.536,-0.10691
2.54,-0.13195
2.544,-0.08679
2.548,0.0251
2.552,0.25627
2.556,0.42482
2.56,0.63084
2.564,0.77193
2.568,1.00594
2.572,1.01099
2.576,0.91773
2.58,0.71739
2.584,0.44879
2.588,0.28357
2.592,0.09196
2.596,-0.0935
2.6,-0.19629
2.604,-0.16368
2.608,-0.17443
2.612,-0.14799
2.616,-0.10533
2.62,-0.05171
2.624,-0.05442
2.628,-0.08809
2.632,-0.07842
2.636,-0.07303
2.64,0.02204
2.644,0.04135
2.648,-0.04878
2.652,-0.04972
2.656,-0.08243
2.66,0.03762
2.664,0.04053
2.668,-0.03032
2.672,-0.02662
2.676,-0.01812
2.68,-0.02461
2.684,-0.0547
2.688,0.02049
2.692,-0.01971
2.696,0.00694
2.7,-0.0178
2.704,0.01524
2.708,-0.00625
2.712,-0.05892
2.716,0.00335
2.72,-0.02805
2.724,-0.07034
2.728,-0.04513
2.732,-0.02799
2.736,-0.05536
2.74,-0.04556
2.744,-0.02256
2.748,-0.04293
2.752,-0.04452
2.756,-0.01189
2.76,0.06572
2.764,0.09221
2.768,0.00462
2.772,0.02453
2.776,0.00344
2.78,0.0907
2.784,0.06312
2.788,0.12241
2.792,0.01885
2.796,0.05773
2.8,0.06545
2.804,0.09096
2.808,0.09397
2.812,0.13992
2.816,0.17198
2.82,0.11138
2.824,0.19058
2.828,0.1998
2.832,0.14449
2.836,0.19264
2.84,0.16956
2.844,0.16817
2.848,0.20442
2.852,0.17248
2.856,0.14302
2.86,0.2189
2.864,0.16429
2.868,0.12125
2.872,0.10633
2.876,0.16332
2.88,0.10334
2.884,0.15524
2.888,0.10261
2.892,0.17312
2.896,0.06567
2.9,0.07859
2.904,0.05534
2.908,0.06465
2.912,0.08995
2.916,0.05844
2.92,0.01301
2.924,0.03645
2.928,0.03001
2.932,0.02771
2.936,0.03554
2.94,-0.00299
2.944,0.00715
2.948,0.04348
2.952,0.00043
2.956,0.00965
2.96,0.01682
2.964,-0.02142
2.968,0.01095
2.972,-0.07282
2.976,-0.02202
2.98,0.04244
2.984,-0.0357
2.988,-0.06879
2.992,0.00326
2.996,-0.02162
3.0,0.0266
3.004,-0.05603
3.008,-0.07283
3.012,0.01015
3.016,-0.00148
3.02,-0.01772
3.024,-0.02402
3.028,0.01475
3.032,0.05226
3.036,-0.02873
3.04,0.02127
3.044,0.0098
3.048,0.04712
3.052,0.03916
3.056,0.07124
3.06,0.09962
3.064,0.02259
3.068,0.0508
3.072,0.06704
3.076,0.04111
3.08,0.07199
3.084,0.06524
3.088,0.10725
3.092,0.09578
3.096,0.02562
3.1,0.05531
3.104,0.01509
3.108,0.00227
3.112,-0.05507
3.116,-0.05277
3.12,0.01306
3.124,0.00629
3.128,-0.09213
3.132,-0.0296
3.136,-0.00494
3.14,0.00672
3.144,-0.02038
3.148,-0.03312
3.152,0.03714
3.156,-0.06588
3.16,-0.01917
3.164,-0.05915
3.168,-0.01541
3.172,-0.02298
3.176,-0.00877
3.18,-0.01508
3.184,-0.08452
3.188,-0.06657
3.192,-0.09519
3.196,-0.14693
3.2,-0.11466
3.204,-0.06328
3.208,0.0964
3.212,0.22677
3.216,0.53782
3.22,0.72377
3.224,0.84365
3.228,0.97619
3.232,0.96405
3.236,0.89158
3.24,0.67086
3.244,0.43159
3.248,0.25179
3.252,-0.04379
3.256,-0.05468
3.26,-0.18774
3.264,-0.21331
3.268,-0.09674
3.272,-0.15516
3.276,-0.01091
3.28,-0.00288
3.284,-0.01043
3.288,-0.10479
3.292,-0.01152
3.296,0.00254
3.3,-0.01998
3.304,-0.03588
3.308,-0.00944
3.312,0.03388
3.316,0.01967
3.32,0.01175
3.324,0.07413
3.328,-0.08123
3.332,-0.0319
3.336,0.0079
3.34,-0.02273
3.344,-0.01653
3.348,-0.03736
3.352,0.00835
3.356,-0.07259
3.36,0.06948
3.364,0.06711
3.368,0.02397
3.372,0.00545
3.376,-0.03314
3.38,-0.04002
3.384,-0.01
3.388,0.00741
3.392,-0.02725
3.396,0.01543
3.4,0.01483
3.404,0.02264
3.408,0.00976
3.412,0.01035
3.416,0.00178
3.42,0.06898
3.424,0.02369
3.428,0.01498
3.432,0.07335
3.436,0.07571
3.44,0.06886
3.444,0.04673
3.448,0.11826
3.452,0.05071
3.456,0.09473
3.46,0.13295
3.464,0.09817
3.468,0.18341
3.472,0.22279
3.476,0.21053
3.48,0.21185
3.484,0.21462
3.488,0.22826
3.492,0.28091
3.496,0.22329
3.5,0.33028
3.504,0.28257
3.508,0.29245
3.512,0.28711
3.516,0.27942
3.52,0.2258
3.524,0.2881
3.528,0.21192
3.532,0.17736
3.536,0.15125
3.54,0.17446
3.544,0.16207
3.548,0.15787
3.552,0.17835
3.556,0.10461
3.56,0.08179
3.564,0.06952
3.568,0.08834
3.572,0.10466
3.576,0.08949
3.58,0.01714
3.584,-0.01158
3.588,0.08026
3.592,0.08431
3.596,0.00663
3.6,-0.00066
3.604,0.03783
3.608,-0.00273
3.612,-0.01282
3.616,-0.0306
3.62,-0.01104
3.624,-0.06552
3.628,-0.13348
3.632,-0.08015
3.636,-0.0325
3.64,0.02157
3.644,0.16602
3.648,0.30118
3.652,0.59933
3.656,0.76617
3.66,0.91948
3.664,1.02083
3.668,0.88308
3.672,0.7272
3.676,0.54996
3.68,0.3036
3.684,0.18673
3.688,0.02925
3.692,-0.14426
3.696,-0.16452
3.7,-0.16131
3.704,-0.05532
3.708,-0.08798
3.712,-0.08733
3.716,-0.03971
3.72,-0.03101
3.724,0.03527
3.728,0.0657
3.732,0.00769
3.736,0.01908
3.74,-0.03832
3.744,0.0362
3.748,-0.03017
3.752,0.03864
3.756,-0.05885
3.76,0.09207
3.764,0.0333
3.768,-0.00679
3.772,-0.05156
3.776,-0.06103
3.78,0.05752
3.784,0.00857
3.788,0.05933
3.792,-0.00996
3.796,0.0316
3.8,-0.02374
3.804,-0.01583
3.808,-0.00089
3.812,-0.00776
3.816,-0.02664
3.82,0.03073
3.824,0.05495
3.828,-0.01538
3.832,-0.02443
3.836,0.01224
3.84,-0.01106
3.844,0.02806
3.848,0.02789
3.852,0.03418
3.856,0.03472
3.86,0.0301
3.864,0.03834
3.868,0.06424
3.872,0.03462
3.876,0.05529
3.88,0.11565
3.884,0.08691
3.888,0.03293
3.892,0.08512
3.896,0.1307
3.9,0.06488
3.904,0.11982
3.908,0.13269
3.912,0.19312
3.916,0.1894
3.92,0.21669
3.924,0.15007
3.928,0.17632
3.932,0.18342
3.936,0.19166
3.94,0.15937
3.944,0.26481
3.948,0.23465
3.952,0.27928
3.956,0.20159
3.96,0.1279
3.964,0.14405
3.968,0.21615
3.972,0.19238
3.976,0.20442
3.98,0.11913
3.984,0.14318
3.988,0.16571
3.992,0.07522
3.996,0.11158
4.0,0.17965
4.004,0.1129
4.008,0.06916
4.012,0.09542
4.016,0.11656
4.02,0.0311
4.024,0.04664
4.028,0.04382
4.032,0.02196
4.036,0.06655
4.04,0.03261
4.044,0.03552
4.048,0.02656
4.052,-0.01029
4.056,0.03658
4.06,0.03049
4.064,0.02264
4.068,0.01247
4.072,0.04026
4.076,-0.00123
4.08,0.05996
4.084,-0.03281
4.088,-0.06209
4.092,-0.06683
4.096,-0.06025
4.1,0.04317
4.104,-0.01456
4.108,-0.0339
4.112,0.01509
4.116,-0.06035
4.12,-0.00569
4.124,2e-05
4.128,0.03454
4.132,-0.04225
4.136,0.0161
4.14,-0.03454
4.144,0.02046
4.148,0.05348
4.152,-0.01219
4.156,-0.06397
4.16,0.08692
4.164,0.00623
4.168,0.02652
4.172,0.09066
4.176,-0.02605
4.18,0.01652
4.184,-0.00991
4.188,0.0209
4.192,0.0163
4.196,0.05471
4.2,0.06293
4.204,0.00408
4.208,-0.02043
4.212,0.05349
4.216,0.0044
4.22,0.01612
4.224,0.06214
4.228,0.05627
4.232,0.07426
4.236,0.12842
4.24,0.10989
4.244,0.12348
4.248,0.07615
4.252,0.09872
4.256,0.15788
4.26,0.10683
4.264,0.08248
4.268,0.13969
4.272,0.09548
4.276,0.05585
4.28,-0.00135
4.284,0.00311
4.288,0.04294
4.292,0.03173
4.296,0.04615
4.3,-0.00558
4.304,0.05254
4.308,-0.01988
4.312,-0.06043
4.316,0.04399
4.32,0.00673
4.324,0.00542
4.328,-0.02987
4.332,-0.0189
4.336,-0.00139
4.34,0.03709
4.344,0.00957
4.348,0.03293
4.352,0.02239
4.356,0.02042
4.36,-0.00715
4.364,-0.04177
4.368,-0.06515
4.372,-0.15625
4.376,-0.04803
4.38,-0.04457
4.384,0.01731
4.388,0.24764
4.392,0.4361
4.396,0.69457
4.4,0.88724
4.404,0.9837
4.408,0.92107
4.412,0.90213
4.416,0.78874
4.42,0.50033
4.424,0.32759
4.428,0.08089
4.432,-0.04818
4.436,-0.14458
4.44,-0.17305
4.444,-0.13712
4.448,-0.04913
4.452,-0.02486
4.456,-0.04227
4.46,-0.033
4.464,-0.00227
4.468,-0.01403
4.472,0.01552
4.476,0.0385
4.48,0.02868
4.484,-0.08712
4.488,0.03036
4.492,0.0381
4.496,0.04655
4.5,0.04838
4.504,0.03323
4.508,0.02577
4.512,0.0436
4.516,-0.01509
4.52,0.05377
4.524,-0.00273
4.528,0.01618
4.532,0.01945
4.536,0.03248
4.54,0.01884
4.544,0.08965
4.548,-0.07267
4.552,0.00285
4.556,0.0244
4.56,0.05918
4.564,0.01344
4.568,0.10525
4.572,0.10505
4.576,0.08854
4.58,0.12233
4.584,0.1067
4.588,0.11796
4.592,0.06464
4.596,0.12253
4.6,0.20448
4.604,0.11997
4.608,0.15682
4.612,0.14955
4.616,0.15034
4.62,0.15541
4.624,0.12789
4.628,0.1433
4.632,0.14479
4.636,0.18037
4.64,0.11804
4.644,0.14541
4.648,0.13687
4.652,0.18469
4.656,0.18324
4.66,0.24439
4.664,0.12871
4.668,0.18637
4.672,0.27265
4.676,0.15288
4.68,0.18896
4.684,0.24306
4.688,0.2315
4.692,0.22858
4.696,0.27981
4.7,0.25541
4.704,0.2155
4.708,0.25825
4.712,0.17213
4.716,0.11399
4.72,0.01846
4.724,0.11857
4.728,0.10894
4.732,0.24405
4.736,0.30638
4.74,0.49776
4.744,0.74859
4.748,0.81302
4.752,1.01655
4.756,1.06209
4.76,0.95151
4.764,0.93378
4.768,0.58119
4.772,0.33138
4.776,0.14969
4.78,-0.00113
4.784,-0.15291
4.788,-0.1325
4.792,-0.08369
4.796,-0.03781
4.8,-0.02056
4.804,0.00532
4.808,0.02932
4.812,0.04205
4.816,0.02624
4.82,0.03134
4.824,0.071
4.828,0.01582
4.832,0.04283
4.836,0.0503
4.84,0.0396
4.844,0.07766
4.848,0.09602
4.852,0.07017
4.856,0.07736
4.86,0.06797
4.864,0.07153
4.868,0.13213
4.872,0.16488
4.876,0.06973
4.88,0.10386
4.884,0.12225
4.888,0.17392
4.892,0.06072
4.896,0.0963
4.9,0.09098
4.904,0.08881
4.908,-0.01055
4.912,0.06529
4.916,0.08277
4.92,-0.02018
4.924,0.05555
4.928,0.0704
4.932,0.05604
4.936,-0.00523
4.94,0.04639
4.944,0.08893
4.948,0.02248
4.952,0.08799
4.956,0.05526
4.96,0.17473
4.964,0.0978
4.968,0.057
4.972,0.12721
4.976,0.07045
4.98,0.14988
4.984,0.11186
4.988,0.1549
4.992,0.11531
4.996,0.16572
5.0,0.12334
5.004,0.09622
5.008,0.13926
5.012,0.19401
5.016,0.44055
5.02,0.56504
5.024,0.77438
5.028,0.96724
5.032,1.22238
5.036,1.23918
5.04,1.26015
5.044,1.1142
5.048,0.83163
5.052,0.59002
5.056,0.37953
5.06,0.16534
5.064,0.13131
5.068,0.06186
5.072,0.10944
5.076,0.1048
5.08,0.0652
5.084,0.14845
5.088,0.07608
5.092,0.10899
5.096,0.07933
5.1,0.09812
5.104,0.06258
5.108,0.07468
5.112,0.07382
5.116,0.10969
5.12,0.13702
5.124,0.0806
5.128,-0.03252
5.132,0.05207
5.136,0.05785
5.14,0.02071
5.144,-0.02159
5.148,0.01141
5.152,0.03438
5.156,0.03229
5.16,0.03698
5.164,0.06695
5.168,0.06293
5.172,-0.00812
5.176,0.06957
5.18,0.03277
5.184,0.06011
5.188,0.09318
5.192,0.03525
5.196,0.00335
5.2,0.02865
5.204,0.04799
5.208,0.0581
5.212,0.11395
5.216,0.01073
5.22,0.14331
5.224,0.06525
5.228,0.09897
5.232,0.16312
5.236,0.11752
5.24,0.15696
5.244,0.16769
5.248,0.16712
5.252,0.15745
5.256,0.22523
5.26,0.18402
5.264,0.24793
5.268,0.24537
5.272,0.22965
5.276,0.18218
5.28,0.19982
5.284,0.19491
5.288,0.21942
5.292,0.17806
5.296,0.23738
5.3,0.25448
5.304,0.23676
5.308,0.22706
5.312,0.36604
5.316,0.22151
5.32,0.24898
5.324,0.26327
5.328,0.23053
5.332,0.24414
5.336,0.2339
5.34,0.17333
5.344,0.21265
5.348,0.24887
5.352,0.15404
5.356,0.13105
5.36,0.17803
5.364,0.09109
5.368,-0.01211
5.372,-0.01137
5.376,0.03081
5.38,0.1344
5.384,0.37192
5.388,0.61368
5.392,0.74571
5.396,0.89414
5.4,1.04575
5.404,1.0158
5.408,0.90595
5.412,0.79662
5.416,0.58624
5.42,0.28893
5.424,0.10243
5.428,-0.06167
5.432,-0.12008
5.436,-0.14015
5.44,-0.08429
5.444,-0.07115
5.448,-0.00155
5.452,0.01363
5.456,-0.00442
5.46,-0.03474
5.464,0.04776
5.468,-0.00863
5.472,0.02334
5.476,0.03013
5.48,0.00983
5.484,-0.00696
5.488,0.03345
5.492,-0.00593
5.496,0.01777
5.5,0.04105
5.504,0.04555
5.508,0.07378
5.512,0.05119
5.516,0.07939
5.52,0.069
5.524,0.06883
5.528,0.03876
5.532,-0.01476
5.536,0.01368
5.54,0.0624
5.544,0.07996
5.548,0.02788
5.552,0.01291
5.556,0.0597
5.56,0.04609
5.564,-0.00328
5.568,0.02917
5.572,0.00819
5.576,0.13854
5.58,0.0108
5.584,0.03152
5.588,0.03988
5.592,0.09356
5.596,0.02101
5.6,0.11775
5.604,0.09745
5.608,0.04698
5.612,0.11178
5.616,0.14088
5.62,0.1164
5.624,0.19966
5.628,0.11987
5.632,0.16842
5.636,0.15261
5.64,0.19213
5.644,0.27443
5.648,0.26639
5.652,0.28818
5.656,0.32152
5.66,0.33069
5.664,0.29884
5.668,0.27703
5.672,0.33536
5.676,0.38298
5.68,0.31843
5.684,0.22588
5.688,0.32697
5.692,0.30089
5.696,0.26586
5.7,0.25109
5.704,0.26071
5.708,0.26769
5.712,0.22767
5.716,0.1982
5.72,0.25864
5.724,0.17864
5.728,0.19002
5.732,0.11622
5.736,0.14237
5.74,0.11757
5.744,0.08166
5.748,0.07715
5.752,0.09436
5.756,0.09114
5.76,0.05912
5.764,0.0748
5.768,0.02801
5.772,0.05933
5.776,0.10724
5.78,0.05213
5.784,0.06805
5.788,-0.08273
5.792,-0.03519
5.796,-0.09376
5.8,-0.08942
5.804,-0.01191
5.808,0.08133
5.812,0.33093
5.816,0.60489
5.82,0.82607
5.824,1.00429
5.828,1.01813
5.832,1.0246
5.836,0.80321
5.84,0.60421
5.844,0.38215
5.848,0.23664
5.852,0.05505
5.856,-0.06955
5.86,-0.13638
5.864,-0.15825
5.868,-0.12118
5.872,0.028
5.876,-0.00394
5.88,-0.04723
5.884,-0.01367
5.888,0.029
5.892,0.01238
5.896,0.08417
5.9,0.08072
5.904,0.00381
5.908,0.0193
5.912,0.03609
5.916,0.00479
5.92,0.03292
5.924,-0.01767
5.928,0.06333
5.932,0.05632
5.936,0.05557
5.94,0.0827
5.944,-0.00728
5.948,0.00066
5.952,0.08145
5.956,0.05107
5.96,0.03772
5.964,0.0399
5.968,-0.0224
5.972,-0.0143
5.976,-0.03384
5.98,0.02566
5.984,0.1075
5.988,0.03743
5.992,0.01929
5.996,0.00507
6.0,0.06481
6.004,0.04961
6.008,0.03494
6.012,0.01723
6.016,0.05002
6.02,0.04504
6.024,0.07012
6.028,0.0619
6.032,0.05588
6.036,0.09928
6.04,0.09138
6.044,0.14627
6.048,0.16427
6.052,0.14486
6.056,0.1493
6.06,0.11447
6.064,0.12625
6.068,0.24019
6.072,0.12874
6.076,0.16856
6.08,0.22664
6.084,0.23217
6.088,0.20929
6.092,0.22545
6.096,0.24134
6.1,0.19989
6.104,0.26845
6.108,0.27995
6.112,0.194
6.116,0.24433
6.12,0.24152
6.124,0.28343
6.128,0.24981
6.132,0.20521
6.136,0.20395
6.14,0.18613
6.144,0.19373
6.148,0.14203
6.152,0.18554
6.156,0.13748
6.16,0.13552
6.164,0.15661
6.168,0.11697
6.172,0.0854
6.176,0.12994
6.18,0.04957
6.184,0.03874
6.188,0.09182
6.192,0.08194
6.196,0.13748
6.2,0.08292
6.204,0.06777
6.208,0.06403
6.212,-0.01596
6.216,0.02243
6.22,-0.05058
6.224,0.03578
6.228,-0.02355
6.232,0.01191
6.236,0.01303
6.24,0.08234
6.244,-0.00652
6.248,0.0445
6.252,0.05979
6.256,0.06495
6.26,0.09424
6.264,0.15627
6.268,0.08913
6.272,0.11867
6.276,0.10128
6.28,0.07345
6.284,0.15966
6.288,0.12067
6.292,0.09874
6.296,0.1268
6.3,0.06399
6.304,0.0916
6.308,0.01993
6.312,0.18096
6.316,0.00682
6.32,0.07209
6.324,-0.01283
6.328,0.05049
6.332,0.04951
6.336,0.01535
6.34,-0.02753
6.344,0.03808
6.348,0.04541
6.352,0.05626
6.356,-0.01277
6.36,0.01013
6.364,-0.0119
6.368,-0.00596
6.372,0.01395
6.376,-0.02124
6.38,-0.06
6.384,0.04935
6.388,0.09041
6.392,0.01506
6.396,-0.12273
6.4,-0.04907
6.404,-0.02973
6.408,-0.12335
6.412,-0.00907
6.416,0.11812
6.42,0.27262
6.424,0.4867
6.428,0.6553
6.432,0.8752
6.436,0.9386
6.44,0.9441
6.444,0.92639
6.448,0.7435
6.452,0.52525
6.456,0.22751
6.46,0.07907
6.464,-0.0992
6.468,-0.09713
6.472,-0.13561
6.476,-0.11472
6.48,-0.05097
6.484,-0.03088
6.488,-0.04819
6.492,-0.02765
6.496,0.04373
6.5,-0.00481
6.504,0.01815
6.508,0.07069
6.512,0.01582
6.516,0.01796
6.52,0.00921
6.524,0.03642
6.528,0.02401
6.532,0.04053
6.536,0.07381
6.54,0.03536
6.544,0.01589
6.548,0.02509
6.552,0.0132
6.556,0.06677
6.56,0.00272
6.564,0.00829
6.568,0.04505
6.572,-0.0236
6.576,0.04694
6.58,-0.03798
6.584,0.03762
6.588,0.00049
6.592,0.06086
6.596,-0.00611
6.6,-0.04875
6.604,0.02517
6.608,0.02042
6.612,0.0276
6.616,-0.026
6.62,0.04258
6.624,0.06587
6.628,0.02611
6.632,0.09005
6.636,0.05481
6.64,0.05573
6.644,0.06738
6.648,0.08446
6.652,0.17513
6.656,0.0907
6.66,0.11417
6.664,0.11374
6.668,0.15647
6.672,0.20188
6.676,0.17951
6.68,0.14557
6.684,0.21094
6.688,0.15802
6.692,0.23231
6.696,0.18364
6.7,0.19968
6.704,0.18969
6.708,0.24059
6.712,0.26886
6.716,0.24019
6.72,0.17727
6.724,0.2427
6.728,0.20533
6.732,0.22799
6.736,0.21822
6.74,0.26425
6.744,0.23581
6.748,0.17814
6.752,0.19395
6.756,0.14758
6.76,0.11034
6.764,0.10534
6.768,0.1181
6.772,0.11553
6.776,0.12833
6.78,0.0976
6.784,0.11547
6.788,0.06886
6.792,0.04221
6.796,0.06673
6.8,0.0635
6.804,0.03594
6.808,0.00666
6.812,0.02627
6.816,0.0179
6.82,0.02686
6.824,-0.01683
6.828,0.02627
6.832,-0.01184
6.836,0.02288
6.84,0.00403
6.844,-0.00956
6.848,0.05513
6.852,0.02524
6.856,-0.02571
6.86,0.03196
6.864,0.06999
6.868,0.03349
6.872,-0.03005
6.876,-0.00068
6.88,0.05838
6.884,0.05187
6.888,0.0678
6.892,-0.01542
6.896,-0.05923
6.9,-0.02593
6.904,-0.01315
6.908,0.09475
6.912,-0.0672
6.916,-0.04919
6.92,-0.03731
6.924,-0.05298
6.928,0.06242
6.932,0.03152
6.936,0.00316
6.94,0.03673
6.944,-0.03265
6.948,-0.02362
6.952,0.11223
6.956,1e-05
6.96,-0.0545
6.964,0.00936
6.968,-0.06733
6.972,0.09094
6.976,0.02108
6.98,0.06984
6.984,-0.01708
6.988,0.01226
6.992,0.03143
6.996,-0.01801
7.0,-0.04932
7.004,0.0221
7.008,0.01944
7.012,0.00416
7.016,0.03607
7.02,-0.01378
7.024,-0.02242
7.028,0.05355
7.032,-0.05395
7.036,0.00273
7.04,0.0296
7.044,0.01004
7.048,0.08494
7.052,0.06098
7.056,0.05264
7.06,0.03728
7.064,0.08944
7.068,0.08643
7.072,0.05481
7.076,0.08019
7.08,0.06472
7.084,0.13961
7.088,0.08465
7.092,0.07903
7.096,0.12229
7.1,0.11745
7.104,0.04614
7.108,0.12565
7.112,0.07252
7.116,0.02082
7.12,0.02033
7.124,0.03386
7.128,-0.04559
7.132,0.07062
7.136,0.0395
7.14,-0.009
7.144,0.03437
7.148,-0.0132
7.152,-0.017
7.156,-0.02308
7.16,-0.06407
7.164,-0.01977
7.168,0.05896
7.172,0.02552
7.176,0.02877
7.18,0.03522
7.184,-0.0655
7.188,-0.02768
7.192,0.01921
7.196,0.07569
7.2,-0.00781
7.204,0.02144
7.208,-0.01
7.212,-0.00422
7.216,-0.12453
7.22,-0.06626
7.224,-0.08412
7.228,0.00473
7.232,0.25031
7.236,0.4511
7.24,0.67572
7.244,0.89949
7.248,0.94327
7.252,0.98551
7.256,0.92535
7.26,0.68373
7.264,0.52493
7.268,0.25139
7.272,0.12315
7.276,-0.01328
7.28,-0.07766
7.284,-0.18143
7.288,-0.19676
7.292,-0.14941
7.296,-0.03732
7.3,-0.06622
7.304,-0.02563
7.308,-0.02867
7.312,0.05116
7.316,0.05156
7.32,-0.05669
7.324,-0.00504
7.328,0.00217
7.332,-0.06073
7.336,-0.01279
7.34,0.02553
7.344,0.057
7.348,-0.00126
7.352,-0.05257
7.356,-0.03598
7.36,-0.01386
7.364,-0.04731
7.368,-0.02513
7.372,-0.05519
7.376,0.00304
7.38,-0.0319
7.384,-0.01307
7.388,-0.02396
7.392,0.03781
7.396,0.0137
7.4,-0.01279
7.404,0.07428
7.408,0.0011
7.412,0.00787
7.416,-0.04113
7.42,-0.01418
7.424,0.00555
7.428,0.05958
7.432,0.00125
7.436,0.01003
7.44,0.0656
7.444,0.04582
7.448,-0.01403
7.452,0.104
7.456,0.0736
7.46,0.03793
7.464,0.11384
7.468,0.05815
7.472,0.0327
7.476,0.10385
7.48,0.14867
7.484,0.11497
7.488,0.14732
7.492,0.24847
7.496,0.20623
7.5,0.2366
7.504,0.24627
7.508,0.29524
7.512,0.29604
7.516,0.31001
7.52,0.37025
7.524,0.28913
7.528,0.28696
7.532,0.27367
7.536,0.35346
7.54,0.30604
7.544,0.25945
7.548,0.22778
7.552,0.25207
7.556,0.18251
7.56,0.14556
7.564,0.20092
7.568,0.13238
7.572,0.08933
7.576,0.19823
7.58,0.10627
7.584,0.03389
7.588,0.05288
7.592,0.12803
7.596,0.04614
7.6,0.07808
7.604,0.06045
7.608,0.01952
7.612,0.02253
7.616,0.03693
7.62,-0.00099
7.624,0.01465
7.628,0.0284
7.632,0.00981
7.636,-0.0043
7.64,-0.00301
7.644,-0.09822
7.648,-0.09385
7.652,-0.01423
7.656,0.08386
7.66,0.1965
7.664,0.34324
7.668,0.63381
7.672,0.78821
7.676,0.90499
7.68,0.99522
7.684,0.87994
7.688,0.69355
7.692,0.44845
7.696,0.29622
7.7,0.10311
7.704,-0.04253
7.708,-0.15441
7.712,-0.14868
7.716,-0.13297
7.72,-0.05314
7.724,-0.15307
7.728,-0.08263
7.732,-0.01581
7.736,0.01778
7.74,0.00581
7.744,-0.05673
7.748,-0.04409
7.752,-0.06005
7.756,0.00824
7.76,-0.0518
7.764,0.00038
7.768,-0.02887
7.772,0.01812
7.776,-0.01033
7.78,-0.03935
7.784,0.02395
7.788,-0.07079
7.792,-0.01988
7.796,-0.0637
7.8,-0.00725
7.804,-0.07169
7.808,0.0106
7.812,-0.03418
7.816,-0.02438
7.82,-0.05438
7.824,-0.02916
7.828,0.00317
7.832,0.01253
7.836,-0.00754
7.84,-0.00906
7.844,0.04643
7.848,-0.00876
7.852,-0.04502
7.856,-0.0068
7.86,0.00401
7.864,0.01217
7.868,0.00936
7.872,-0.04483
7.876,0.0308
7.88,-0.0351
7.884,0.10682
7.888,0.03003
7.892,0.07995
7.896,0.06764
7.9,0.08504
7.904,0.11603
7.908,0.08546
7.912,0.12276
7.916,0.10947
7.92,0.18258
7.924,0.09328
7.928,0.13773
7.932,0.12666
7.936,0.14988
7.94,0.1269
7.944,0.14956
7.948,0.23002
7.952,0.27719
7.956,0.19483
7.96,0.20817
7.964,0.25441
7.968,0.16144
7.972,0.25175
7.976,0.16997
7.98,0.09998
7.984,0.22011
7.988,0.13264
7.992,0.11741
7.996,0.14812
8.0,0.10491
8.004,0.13551
8.008,0.08383
8.012,0.09842
8.016,0.1051
8.02,0.0299
8.024,0.1005
8.028,0.01018
8.032,0.03441
8.036,0.02252
8.04,0.06376
8.044,0.04539
8.048,0.03297
8.052,0.0347
8.056,0.06608
8.06,0.03444
8.064,-0.07294
8.068,0.04007
8.072,0.01415
8.076,0.01784
8.08,0.06224
8.084,-0.01823
8.088,0.07878
8.092,0.03324
8.096,-0.00583
8.1,-0.01269
8.104,0.08749
8.108,0.10144
8.112,0.03544
8.116,0.09585
8.12,0.14122
8.124,0.06177
8.128,0.05532
8.132,0.07402
8.136,0.03807
8.14,0.08442
8.144,0.03506
8.148,-0.02456
8.152,0.00789
8.156,-0.01994
8.16,-0.07328
8.164,0.0039
8.168,-0.05035
8.172,-0.05367
8.176,-0.01328
8.18,-0.03901
8.184,-0.01249
8.188,-0.03517
8.192,-0.01528
8.196,-0.04325
8.2,0.00752
8.204,-0.09755
8.208,-0.00464
8.212,-0.02831
8.216,-0.03232
8.22,-0.08456
8.224,0.00809
8.228,-0.0527
8.232,-0.03204
8.236,-0.08793
8.24,-0.16766
8.244,-0.08482
8.248,-0.13161
8.252,-0.06698
8.256,0.14178
8.26,0.3463
8.264,0.5821
8.268,0.75085
8.272,0.95468
8.276,0.98759
8.28,0.91766
8.284,0.72342
8.288,0.55135
8.292,0.29169
8.296,0.10254
8.3,-0.04644
8.304,-0.1406
8.308,-0.15167
8.312,-0.2153
8.316,-0.19302
8.32,-0.09852
8.324,-0.03307
8.328,-0.09897
8.332,-0.05895
8.336,-0.01417
8.34,-0.09804
8.344,-0.00238
8.348,-0.00698
8.352,-0.02269
8.356,-0.02957
8.36,0.01994
8.364,-0.0309
8.368,0.01261
8.372,0.00077
8.376,0.04251
8.38,-0.01175
8.384,-0.06207
8.388,-0.02981
8.392,-0.04686
8.396,-0.01135
8.4,-0.0005
8.404,0.02919
8.408,0.00336
8.412,-0.06816
8.416,-0.05648
8.42,0.01002
8.424,-0.02275
8.428,-0.02098
8.432,0.00358
8.436,0.05352
8.44,-0.02082
8.444,-0.00695
8.448,-0.02215
8.452,0.0066
8.456,0.01031
8.46,0.00533
8.464,0.03801
8.468,-0.00553
8.472,0.05866
8.476,0.01592
8.48,-0.05217
8.484,0.04826
8.488,0.08148
8.492,0.01065
8.496,-0.00094
8.5,0.00079
8.504,0.07791
8.508,0.1065
8.512,0.09398
8.516,0.14334
8.52,0.14517
8.524,0.14969
8.528,0.18962
8.532,0.16361
8.536,0.14183
8.54,0.22728
8.544,0.15546
8.548,0.21511
8.552,0.17491
8.556,0.17549
8.56,0.22252
8.564,0.14436
8.568,0.15082
8.572,0.15816
8.576,0.18961
8.58,0.17986
8.584,0.11753
8.588,0.19136
8.592,0.13473
8.596,0.13474
8.6,0.14579
8.604,0.08846
8.608,0.06266
8.612,0.09534
8.616,0.07096
8.62,0.07989
8.624,0.04219
8.628,0.06119
8.632,0.0595
8.636,-0.00638
8.64,0.00763
8.644,-0.00906
8.648,0.03937
8.652,0.01152
8.656,0.02098
8.66,-0.00178
8.664,-0.07995
8.668,-0.03166
8.672,-0.02599
8.676,-0.05052
8.68,0.00448
8.684,-0.01408
8.688,-0.03117
8.692,0.00291
8.696,0.00585
8.7,0.00959
8.704,0.04913
8.708,-0.00966
8.712,0.07983
8.716,0.1067
8.72,0.07138
8.724,0.06862
8.728,0.05832
8.732,0.05059
8.736,0.06119
8.74,0.02623
8.744,0.08636
8.748,0.01162
8.752,0.05188
8.756,-0.0438
8.76,0.06151
8.764,-0.01374
8.768,0.0027
8.772,-0.06872
8.776,-0.00422
8.78,-0.03249
8.784,-0.07888
8.788,-0.05215
8.792,0.03888
8.796,-0.05371
8.8,-0.05361
8.804,-0.04654
8.808,-0.03357
8.812,-0.09889
8.816,-0.04599
8.82,0.0508
8.824,-0.04892
8.828,-0.05152
8.832,0.00146
8.836,-0.01228
8.84,-0.07959
8.844,-0.08938
8.848,-0.1756
8.852,-0.12434
8.856,-0.03278
8.86,0.16036
8.864,0.34192
8.868,0.51408
8.872,0.78628
8.876,0.86388
8.88,1.0034
8.884,0.89395
8.888,0.73378
8.892,0.59411
8.896,0.33783
8.9,0.1445
8.904,-0.03315
8.908,-0.0897
8.912,-0.21647
8.916,-0.20399
8.92,-0.15392
8.924,-0.13393
8.928,-0.15094
8.932,-0.10447
8.936,-0.00439
8.94,-0.05511
8.944,-0.01061
8.948,-0.00741
8.952,-0.0418
8.956,-0.05093
8.96,-0.00706
8.964,-0.00463
8.968,-0.05618
8.972,0.00415
8.976,0.01698
8.98,-0.03926
8.984,-0.02003
8.988,-0.07133
8.992,-0.03787
8.996,0.00364
9.0,-0.02782
9.004,-0.02857
9.008,0.02791
9.012,-0.02562
9.016,0.04699
9.02,-0.02568
9.024,-0.01519
9.028,-0.0945
9.032,0.03494
9.036,-0.07577
9.04,0.01797
9.044,-0.04005
9.048,-0.02975
9.052,-0.03083
9.056,0.00932
9.06,-0.01456
9.064,-0.02842
9.068,0.01903
9.072,-0.02134
9.076,0.00728
9.08,0.00471
9.084,0.04573
9.088,0.06475
9.092,0.00467
9.096,0.06766
9.1,0.04996
9.104,0.0338
9.108,0.13054
9.112,0.13793
9.116,0.1319
9.12,0.14694
9.124,0.17256
9.128,0.1358
9.132,0.15996
9.136,0.13496
9.14,0.20359
9.144,0.1895
9.148,0.15956
9.152,0.2293
9.156,0.20649
9.16,0.18125
9.164,0.21756
9.168,0.15482
9.172,0.15036
9.176,0.19042
9.18,0.15872
9.184,0.17343
9.188,0.1201
9.192,0.10668
9.196,0.15982
9.2,0.09278
9.204,0.09829
9.208,0.09266
9.212,0.07239
9.216,0.11337
9.22,0.06246
9.224,-0.00124
9.228,0.0759
9.232,0.07383
9.236,0.01762
9.24,0.01022
9.244,-0.02678
9.248,0.07711
9.252,0.05769
9.256,-0.06503
9.26,0.03544
9.264,-0.06417
9.268,0.00879
9.272,-0.00623
9.276,-0.0129
9.28,-0.06173
9.284,-0.03676
9.288,-0.01589
9.292,-0.08272
9.296,-0.02948
9.3,0.03645
9.304,-0.00177
9.308,-0.03418
9.312,-0.0352
9.316,-0.0353
9.32,-0.01986
9.324,0.01539
9.328,-0.00223
9.332,0.01227
9.336,0.09249
9.34,0.0511
9.344,0.08539
9.348,0.12306
9.352,0.1205
9.356,0.07842
9.36,0.08306
9.364,0.00728
9.368,0.01916
9.372,0.03592
9.376,-0.0074
9.38,0.03149
9.384,-0.00766
9.388,-0.03892
9.392,0.01803
9.396,-0.02396
9.4,-0.05645
9.404,-0.05406
9.408,-0.00184
9.412,0.04554
9.416,0.00559
9.42,0.01304
9.424,-0.09691
9.428,-0.0467
9.432,0.04318
9.436,-0.07427
9.44,-0.02078
9.444,-0.16099
9.448,-0.06033
9.452,0.02681
9.456,-0.09874
9.46,-0.07571
9.464,-0.06748
9.468,-0.12471
9.472,-0.13176
9.476,-0.15694
9.48,-0.04077
9.484,0.0409
9.488,0.20812
9.492,0.43553
9.496,0.72768
9.5,0.86458
9.504,0.93814
9.508,0.96535
9.512,0.80105
9.516,0.7153
9.52,0.4505
9.524,0.20309
9.528,0.13448
9.532,-0.06821
9.536,-0.20762
9.54,-0.1993
9.544,-0.18795
9.548,-0.11251
9.552,-0.07951
9.556,-0.0273
9.56,-0.01346
9.564,-0.06039
9.568,-0.03042
9.572,0.02249
9.576,-0.04034
9.58,-0.04445
9.584,-0.01313
9.588,-0.01119
9.592,0.02353
9.596,0.00021
9.6,-0.03559
9.604,-0.01607
9.608,-0.01457
9.612,0.0381
9.616,-0.01539
9.62,-0.05227
9.624,-0.04777
9.628,-0.03256
9.632,-0.00472
9.636,-0.00106
9.64,-0.07028
9.644,-0.00128
9.648,-0.03134
9.652,-0.01545
9.656,0.03179
9.66,0.00904
9.664,-0.01639
9.668,-0.01131
9.672,0.01427
9.676,-0.00583
9.68,-0.01865
9.684,-0.02032
9.688,0.00077
9.692,-0.0195
9.696,0.03365
9.7,0.0208
9.704,0.05215
9.708,0.10679
9.712,0.04836
9.716,0.04763
9.72,0.04306
9.724,0.07982
9.728,0.04094
9.732,0.06695
9.736,0.09925
9.74,0.10747
9.744,0.10484
9.748,0.11864
9.752,0.17897
9.756,0.13402
9.76,0.17175
9.764,0.20278
9.768,0.18189
9.772,0.15889
9.776,0.16711
9.78,0.11993
9.784,0.18484
9.788,0.20901
9.792,0.20694
9.796,0.19483
9.8,0.15759
9.804,0.12409
9.808,0.21991
9.812,0.14976
9.816,0.17322
9.82,0.1416
9.824,0.19334
9.828,0.14163
9.832,0.10196
9.836,0.0629
9.84,0.1143
9.844,0.07011
9.848,0.12047
9.852,0.14363
9.856,0.08361
9.86,0.0369
9.864,0.02356
9.868,0.03308
9.872,0.00334
9.876,-0.00014
9.88,0.0258
9.884,0.02936
9.888,0.02539
9.892,-0.02542
9.896,0.01136
9.9,0.01692
9.904,-0.0236
9.908,0.0097
9.912,-0.02966
9.916,-0.02335
9.92,-0.0282
9.924,-0.07444
9.928,-0.00987
9.932,0.01943
9.936,-0.03525
9.94,-0.05863
9.944,-0.05088
9.948,0.00089
9.952,-0.04764
9.956,-0.04463
9.96,-0.00037
9.964,-0.04964
9.968,-0.03239
9.972,-0.06894
9.976,0.00225
9.98,-0.04194
9.984,0.03353
9.988,0.00783
9.992,-0.0486
9.996,-0.02343
