t_seg,ecg_mV
0.0,0.05349
0.004,0.15382
0.008,0.15751
0.012,0.14252
0.016,0.13642
0.02,0.0882
0.024,0.14609
0.028,0.11244
0.032,-0.02652
0.036,0.07115
0.04,0.07851
0.044,-0.00129
0.048,0.06621
0.052,0.00439
0.056,-0.00727
0.06,0.00346
0.064,0.06762
0.068,0.01614
0.072,0.04607
0.076,0.01555
0.08,0.09144
0.084,-0.01382
0.088,0.01006
0.092,0.03976
0.096,0.03693
0.1,-0.03136
0.104,0.07238
0.108,0.01912
0.112,-0.03786
0.116,0.01993
0.12,0.00542
0.124,-0.10903
0.128,-0.01209
0.132,-0.0739
0.136,-0.11672
0.14,-0.05252
0.144,0.09905
0.148,0.25774
0.152,0.46795
0.156,0.64711
0.16,0.90895
0.164,0.99747
0.168,0.95962
0.172,0.87765
0.176,0.76922
0.18,0.49636
0.184,0.31421
0.188,0.07173
0.192,-0.02058
0.196,-0.10378
0.2,-0.16225
0.204,-0.15231
0.208,-0.06441
0.212,-0.02976
0.216,-0.04641
0.22,-0.063
0.224,0.07276
0.228,0.03506
0.232,0.02042
0.236,0.03857
0.24,0.00274
0.244,0.08267
0.248,-0.02438
0.252,0.06316
0.256,-0.00396
0.26,-0.03173
0.264,0.01924
0.268,0.00631
0.272,0.05141
0.276,0.05196
0.28,-0.06016
0.284,0.04937
0.288,0.04352
0.292,0.11233
0.296,0.01321
0.3,-0.08031
0.304,0.04564
0.308,0.02729
0.312,0.03412
0.316,0.01359
0.32,-0.00428
0.324,0.02628
0.328,0.03757
0.332,-0.00632
0.336,0.10277
0.34,0.0079
0.344,0.01625
0.348,-0.02931
0.352,0.1011
0.356,0.0178
0.36,0.08793
0.364,0.0839
0.368,0.02069
0.372,0.06305
0.376,0.02187
0.38,0.13531
0.384,0.08099
0.388,0.10163
0.392,0.07194
0.396,0.14795
0.4,0.16343
0.404,0.11569
0.408,0.18528
0.412,0.13446
0.416,0.22572
0.42,0.21488
0.424,0.246
0.428,0.22934
0.432,0.26569
0.436,0.23554
0.44,0.31294
0.444,0.25285
0.448,0.31532
0.452,0.29287
0.456,0.30363
0.46,0.31091
0.464,0.31888
0.468,0.36352
0.472,0.28903
0.476,0.27821
0.48,0.24402
0.484,0.28885
0.488,0.2348
0.492,0.15211
0.496,0.18187
0.5,0.12526
0.504,0.14158
0.508,0.09883
0.512,0.12858
0.516,0.09215
0.52,0.07666
0.524,0.05317
0.528,0.12539
0.532,0.01776
0.536,-0.01568
0.54,-0.00808
0.544,0.04948
0.548,0.06819
0.552,0.02216
0.556,0.01534
0.56,0.04567
0.564,-0.02295
0.568,0.04131
0.572,0.01914
0.576,0.04391
0.58,0.00641
0.584,-0.01815
0.588,-0.09576
0.592,-0.07284
0.596,-0.12393
0.6,-0.08975
0.604,0.07609
0.608,0.25255
0.612,0.45658
0.616,0.64503
0.62,0.82639
0.624,1.00551
0.628,1.0225
0.632,0.89538
0.636,0.70166
0.64,0.56449
0.644,0.36324
0.648,0.08495
0.652,-0.09209
0.656,-0.18447
0.66,-0.19146
0.664,-0.11963
0.668,-0.13977
0.672,-0.10777
0.676,-0.0649
0.68,-0.06237
0.684,-0.04966
0.688,0.00282
0.692,0.00608
0.696,0.02928
0.7,0.01203
0.704,-0.08162
0.708,0.05757
0.712,0.00609
0.716,0.01381
0.72,0.00571
0.724,0.02573
0.728,-0.03204
0.732,-0.01769
0.736,0.02291
0.74,0.06174
0.744,0.02773
0.748,-0.06452
0.752,0.05879
0.756,0.00023
0.76,0.00919
0.764,0.02019
0.768,0.06574
0.772,-0.00518
0.776,0.0163
0.78,0.09184
0.784,0.06766
0.788,0.04592
0.792,0.02214
0.796,0.02592
0.8,0.04431
0.804,0.02292
0.808,-0.00326
0.812,0.02032
0.816,0.03881
0.82,0.07072
0.824,0.06107
0.828,0.05747
0.832,0.05503
0.836,0.13224
0.84,0.12854
0.844,0.11527
0.848,0.12144
0.852,0.12592
0.856,0.10893
0.86,0.12021
0.864,0.14626
0.868,0.16294
0.872,0.19343
0.876,0.14953
0.88,0.23352
0.884,0.16154
0.888,0.21845
0.892,0.22055
0.896,0.23591
0.9,0.2263
0.904,0.31172
0.908,0.24505
0.912,0.19346
0.916,0.2114
0.92,0.22508
0.924,0.14907
0.928,0.21528
0.932,0.19437
0.936,0.19155
0.94,0.19825
0.944,0.15743
0.948,0.05141
0.952,0.12208
0.956,0.12245
0.96,0.20713
0.964,0.1118
0.968,0.17111
0.972,0.14975
0.976,0.12167
0.98,0.15471
0.984,0.1453
0.988,0.19527
0.992,0.16133
0.996,0.13402
1.0,0.09487
1.004,0.10588
1.008,0.10267
1.012,0.09377
1.016,0.07268
1.02,0.01381
1.024,0.02499
1.028,0.01977
1.032,0.01434
1.036,-0.02973
1.04,-0.00036
1.044,-0.03664
1.048,0.03701
1.052,0.03509
1.056,0.0077
1.06,0.01766
1.064,0.03874
1.068,-0.0363
1.072,0.02374
1.076,-0.02123
1.08,0.02787
1.084,0.0205
1.088,0.00115
1.092,0.02425
1.096,0.00153
1.1,-0.00088
1.104,-0.00544
1.108,-0.087
1.112,-0.13793
1.116,-0.15453
1.12,-0.13627
1.124,0.0809
1.128,0.19563
1.132,0.36519
1.136,0.60644
1.14,0.82536
1.144,0.92744
1.148,1.07082
1.152,0.9652
1.156,0.77541
1.16,0.5347
1.164,0.30469
1.168,0.05649
1.172,-0.00694
1.176,-0.13063
1.18,-0.16617
1.184,-0.15035
1.188,-0.06091
1.192,-0.06562
1.196,-0.01905
1.2,-0.05306
1.204,-0.01166
1.208,-0.01176
1.212,-0.06481
1.216,-0.0105
1.22,-0.02283
1.224,0.04572
1.228,0.00632
1.232,-0.03118
1.236,-0.04103
1.24,0.05647
1.244,0.01183
1.248,-0.05498
1.252,0.02271
1.256,-0.03449
1.26,-0.03831
1.264,-0.02713
1.268,-0.04729
1.272,-0.02041
1.276,0.00312
1.28,-0.02793
1.284,-0.0141
1.288,-0.00331
1.292,-0.07015
1.296,-0.01552
1.3,-0.03397
1.304,0.00804
1.308,0.04043
1.312,-0.02423
1.316,0.02635
1.32,-0.02701
1.324,-0.0458
1.328,-0.02043
1.332,0.00556
1.336,0.01855
1.34,0.01438
1.344,0.0137
1.348,0.06675
1.352,0.04803
1.356,0.03497
1.36,0.07057
1.364,0.05167
1.368,0.15229
1.372,0.14579
1.376,0.07534
1.38,0.08166
1.384,0.15181
1.388,0.12992
1.392,0.13675
1.396,0.13252
1.4,0.22569
1.404,0.12606
1.408,0.2071
1.412,0.23834
1.416,0.19412
1.42,0.16313
1.424,0.20559
1.428,0.24819
1.432,0.23257
1.436,0.21836
1.44,0.22098
1.444,0.1513
1.448,0.18029
1.452,0.13547
1.456,0.21271
1.46,0.17099
1.464,0.05439
1.468,0.16319
1.472,0.12391
1.476,0.14202
1.48,0.04116
1.484,0.10318
1.488,0.05236
1.492,0.09269
1.496,0.07592
1.5,0.04778
1.504,0.04205
1.508,0.02829
1.512,-0.00062
1.516,0.08667
1.52,0.06374
1.524,-0.0041
1.528,0.00438
1.532,0.00318
1.536,0.07984
1.54,0.01844
1.544,-0.01136
1.548,0.03027
1.552,-0.03075
1.556,-0.00173
1.56,0.06071
1.564,0.03099
1.568,0.06002
1.572,0.07413
1.576,0.08072
1.58,0.05977
1.584,0.04172
1.588,0.04446
1.592,0.02413
1.596,0.0661
1.6,0.01701
1.604,0.02895
1.608,0.00544
1.612,0.03199
1.616,0.0134
1.62,0.0137
1.624,-0.06459
1.628,0.02344
1.632,0.05332
1.636,0.00776
1.64,0.02905
1.644,-0.05969
1.648,-0.01641
1.652,-0.05021
1.656,0.0131
1.66,-0.03793
1.664,-0.00916
1.668,0.03547
1.672,0.02452
1.676,-0.03686
1.68,-0.01435
1.684,0.0095
1.688,0.00931
1.692,-0.07734
1.696,-0.06713
1.7,-0.08817
1.704,-0.15791
1.708,-0.12706
1.712,-0.11858
1.716,-0.0235
1.72,0.09616
1.724,0.24895
1.728,0.34344
1.732,0.42103
1.736,0.46115
1.74,0.47352
1.744,0.34496
1.748,0.23349
1.752,0.11804
1.756,-0.0202
1.76,-0.15516
1.764,-0.16185
1.768,-0.23039
1.772,-0.14108
1.776,-0.17639
1.78,-0.06999
1.784,-0.08782
1.788,0.00845
1.792,-0.01186
1.796,-0.049
1.8,0.02586
1.804,-0.05076
1.808,-0.02393
1.812,0.0262
1.816,-0.03448
1.82,0.02879
1.824,-0.05463
1.828,-0.06814
1.832,0.02473
1.836,0.01273
1.84,-0.0207
1.844,0.00406
1.848,-0.05072
1.852,-0.01114
1.856,0.00997
1.86,0.00763
1.864,0.01261
1.868,0.00375
1.872,0.02818
1.876,-0.07023
1.88,0.01783
1.884,0.03231
1.888,-0.07812
1.892,0.0143
1.896,0.05551
1.9,0.05164
1.904,-0.01906
1.908,0.05575
1.912,0.02262
1.916,0.01717
1.92,0.03182
1.924,0.09669
1.928,0.05865
1.932,0.16259
1.936,0.18553
1.94,0.14331
1.944,0.12649
1.948,0.10986
1.952,0.19882
1.956,0.08507
1.96,0.16107
1.964,0.13747
1.968,0.13584
1.972,0.1614
1.976,0.13471
1.98,0.12546
1.984,0.18825
1.988,0.18331
1.992,0.10966
1.996,0.16863
2.0,0.22251
2.004,0.17262
2.008,0.1943
2.012,0.29084
2.016,0.18972
2.02,0.21727
2.024,0.20116
2.028,0.15178
2.032,0.20866
2.036,0.18632
2.04,0.14164
2.044,0.20105
2.048,0.09306
2.052,0.09759
2.056,0.07076
2.06,0.07562
2.064,-0.00674
2.068,0.01134
2.072,0.01775
2.076,0.16429
2.08,0.2788
2.084,0.44961
2.088,0.68009
2.092,0.84191
2.096,0.93059
2.1,0.96989
2.104,0.92066
2.108,0.74753
2.112,0.57415
2.116,0.32083
2.12,0.07999
2.124,-0.07712
2.128,-0.09579
2.132,-0.15553
2.136,-0.16063
2.14,-0.20928
2.144,-0.05809
2.148,-0.05869
2.152,-0.01375
2.156,-0.05941
2.16,-0.05437
2.164,-0.09446
2.168,-0.02908
2.172,-0.00769
2.176,-0.02267
2.18,-0.00596
2.184,-0.04872
2.188,-0.02143
2.192,-0.04238
2.196,-0.07176
2.2,0.02077
2.204,-0.05795
2.208,0.02204
2.212,-0.04678
2.216,0.05799
2.22,-0.00126
2.224,-0.02078
2.228,-0.02805
2.232,-0.06435
2.236,-0.03998
2.24,-0.02701
2.244,-0.0159
2.248,-0.03056
2.252,-0.02716
2.256,0.02179
2.26,-0.06031
2.264,-0.00214
2.268,-0.04009
2.272,-0.01387
2.276,-0.01044
2.28,0.04798
2.284,0.05577
2.288,-0.05693
2.292,0.01814
2.296,-0.0214
2.3,0.00658
2.304,0.05129
2.308,0.05674
2.312,0.05713
2.316,0.05705
2.32,0.11747
2.324,0.09296
2.328,0.08192
2.332,0.10404
2.336,0.04815
2.34,0.13997
2.344,0.12104
2.348,0.15905
2.352,0.13835
2.356,0.13553
2.36,0.20294
2.364,0.16841
2.368,0.19443
2.372,0.20185
2.376,0.2234
2.38,0.14068
2.384,0.23453
2.388,0.18912
2.392,0.18981
2.396,0.18621
2.4,0.20908
2.404,0.12168
2.408,0.15256
2.412,0.10326
2.416,0.09021
2.42,0.1676
2.424,0.06182
2.428,0.14747
2.432,0.07854
2.436,0.09129
2.44,0.04865
2.444,0.03339
2.448,0.07434
2.452,-0.01103
2.456,0.03586
2.46,0.02836
2.464,0.03025
2.468,0.00103
2.472,-0.06849
2.476,0.07774
2.48,0.01719
2.484,-0.04983
2.488,-0.03925
2.492,0.03568
2.496,-0.05893
2.5,-0.09329
2.504,-0.00388
2.508,-0.01913
2.512,-0.00339
2.516,-0.09234
2.52,-0.04764
2.524,-0.05431
2.528,-0.0298
2.532,-0.06506
2.536,-0.04861
2.54,-0.03125
2.544,-0.02892
2.548,-0.04516
2.552,0.02732
2.556,-0.06176
2.56,-0.08842
2.564,0.03339
2.568,-0.06902
2.572,-0.04596
2.576,-0.04704
2.58,-0.02025
2.584,7e-05
2.588,-0.00074
2.592,-0.03612
2.596,-0.01935
2.6,-0.11114
2.604,0.02891
2.608,-0.11723
2.612,0.01327
2.616,-0.00697
2.62,-0.02996
2.624,0.01363
2.628,-0.00598
2.632,0.03956
2.636,-0.06306
2.64,-0.0012
2.644,0.04863
2.648,0.02934
2.652,0.08393
2.656,0.10978
2.66,0.06679
2.664,0.07611
2.668,0.07086
2.672,0.09852
2.676,-0.0243
2.68,-0.03058
2.684,0.00989
2.688,-0.00497
2.692,-0.03744
2.696,-0.03724
2.7,0.00679
2.704,0.00791
2.708,-0.0747
2.712,-0.0408
2.716,-0.03311
2.72,-0.03028
2.724,0.0032
2.728,-0.0793
2.732,-0.02101
2.736,-0.05249
2.74,-0.04382
2.744,-0.05432
2.748,-0.0803
2.752,-0.05351
2.756,-0.04251
2.76,-0.00689
2.764,-0.05501
2.768,-0.00907
2.772,-0.10991
2.776,-0.12277
2.78,-0.17029
2.784,-0.09741
2.788,-0.08355
2.792,0.0209
2.796,0.26349
2.8,0.46698
2.804,0.66422
2.808,0.82516
2.812,0.8801
2.816,0.96648
2.82,0.81161
2.824,0.67902
2.828,0.4193
2.832,0.14317
2.836,-0.0013
2.84,-0.11643
2.844,-0.22391
2.848,-0.22168
2.852,-0.20543
2.856,-0.18115
2.86,-0.11307
2.864,-0.03677
2.868,-0.06208
2.872,0.05308
2.876,-0.03592
2.88,-0.09949
2.884,-0.03946
2.888,0.00561
2.892,-0.07211
2.896,-0.00385
2.9,-0.00279
2.904,-0.07963
2.908,-0.01682
2.912,-0.02672
2.916,-0.01721
2.92,0.00308
2.924,0.0143
2.928,-0.03075
2.932,-0.01275
2.936,-0.015
2.94,-0.05926
2.944,-0.0077
2.948,0.00712
2.952,-0.01415
2.956,-0.03305
2.96,0.05564
2.964,0.01162
2.968,-0.02771
2.972,-0.08098
2.976,-0.01541
2.98,-0.00563
2.984,0.02137
2.988,0.0395
2.992,-0.03921
2.996,-0.04437
3.0,-0.05958
3.004,0.01472
3.008,0.06674
3.012,0.01022
3.016,0.03244
3.02,0.01339
3.024,-0.00122
3.028,0.03089
3.032,0.10585
3.036,0.0503
3.04,0.0428
3.044,0.10457
3.048,0.15661
3.052,0.09265
3.056,0.07787
3.06,0.11622
3.064,0.16492
3.068,0.15308
3.072,0.1444
3.076,0.22617
3.08,0.21506
3.084,0.16856
3.088,0.18408
3.092,0.19388
3.096,0.21799
3.1,0.18743
3.104,0.19574
3.108,0.22958
3.112,0.17398
3.116,0.16721
3.12,0.15869
3.124,0.15505
3.128,0.11433
3.132,0.17177
3.136,0.04599
3.14,0.05738
3.144,0.14463
3.148,0.06585
3.152,0.03853
3.156,0.04312
3.16,0.02667
3.164,0.05248
3.168,0.02685
3.172,0.03898
3.176,-0.01062
3.18,0.06411
3.184,0.00554
3.188,0.00802
3.192,0.08118
3.196,0.16073
3.2,0.03414
3.204,0.04922
3.208,0.03093
3.212,0.08678
3.216,0.02035
3.22,0.02927
3.224,0.05115
3.228,0.02113
3.232,0.05967
3.236,0.04974
3.24,-0.01468
3.244,0.03346
3.248,-0.0306
3.252,-0.01958
3.256,0.0201
3.26,0.01711
3.264,-0.02205
3.268,0.00606
3.272,-0.05228
3.276,0.01919
3.28,-0.07109
3.284,-0.04622
3.288,0.00873
3.292,-0.07744
3.296,-0.02002
3.3,-0.03602
3.304,0.02078
3.308,-0.04928
3.312,-0.09203
3.316,0.02859
3.32,-0.06841
3.324,0.00185
3.328,-0.06831
3.332,-0.09932
3.336,-0.03142
3.34,-0.18419
3.344,-0.14326
3.348,-0.08299
3.352,0.02961
3.356,0.20025
3.36,0.43462
3.364,0.65695
3.368,0.84979
3.372,0.97718
3.376,0.97986
3.38,0.91529
3.384,0.69757
3.388,0.48706
3.392,0.18976
3.396,0.16547
3.4,-0.04557
3.404,-0.16129
3.408,-0.17618
3.412,-0.21397
3.416,-0.11081
3.42,-0.14858
3.424,0.01642
3.428,-0.07437
3.432,-0.03258
3.436,0.02882
3.44,-0.04866
3.444,-0.06162
3.448,-0.02222
3.452,-0.00658
3.456,-0.01443
3.46,0.00569
3.464,0.05359
3.468,0.01275
3.472,-0.00168
3.476,0.00408
3.48,-0.01802
3.484,-0.03626
3.488,0.01392
3.492,-0.0456
3.496,-0.04468
3.5,-0.03146
3.504,-0.01306
3.508,0.0168
3.512,0.01443
3.516,-0.03898
3.52,0.01289
3.524,-0.03518
3.528,-0.01619
3.532,0.03002
3.536,-0.02253
3.54,-0.00196
3.544,-0.02075
3.548,-0.00916
3.552,0.00672
3.556,0.04466
3.56,0.0229
3.564,0.04589
3.568,0.05932
3.572,0.0427
3.576,0.02052
3.58,-0.00973
3.584,0.06458
3.588,0.0998
3.592,0.03839
3.596,0.02221
3.6,0.06405
3.604,0.09556
3.608,0.05088
3.612,0.14567
3.616,0.11571
3.62,0.14021
3.624,0.18027
3.628,0.15859
3.632,0.2424
3.636,0.23248
3.64,0.25387
3.644,0.34948
3.648,0.26452
3.652,0.33388
3.656,0.30853
3.66,0.30898
3.664,0.20086
3.668,0.25207
3.672,0.29205
3.676,0.21963
3.68,0.17655
3.684,0.16349
3.688,0.20166
3.692,0.23036
3.696,0.11432
3.7,0.16535
3.704,0.11617
3.708,0.09313
3.712,0.12
3.716,0.09379
3.72,0.11162
3.724,0.08422
3.728,0.05014
3.732,0.05953
3.736,0.04155
3.74,0.02722
3.744,0.03108
3.748,-0.01215
3.752,-0.01346
3.756,-0.08036
3.76,0.05961
3.764,-0.01723
3.768,-0.01923
3.772,-0.15406
3.776,-0.10117
3.78,-0.05178
3.784,-0.13364
3.788,-0.08158
3.792,-0.08406
3.796,0.10821
3.8,0.32335
3.804,0.47198
3.808,0.73471
3.812,0.8633
3.816,0.93602
3.82,0.99767
3.824,0.86702
3.828,0.69089
3.832,0.44471
3.836,0.20129
3.84,0.01756
3.844,-0.1029
3.848,-0.12611
3.852,-0.17929
3.856,-0.19618
3.86,-0.06486
3.864,-0.09869
3.868,-0.05754
3.872,-0.01725
3.876,0.01628
3.88,-0.06061
3.884,-0.02696
3.888,-0.00466
3.892,0.04565
3.896,-0.01894
3.9,-0.01463
3.904,0.0579
3.908,0.02637
3.912,0.0348
3.916,0.0389
3.92,0.02277
3.924,0.03484
3.928,0.10141
3.932,0.11116
3.936,0.02891
3.94,0.07016
3.944,0.08183
3.948,0.10246
3.952,-0.00849
3.956,0.10256
3.96,0.08538
3.964,0.07079
3.968,-0.00236
3.972,0.0241
3.976,0.10456
3.98,0.05682
3.984,0.04253
3.988,-0.02569
3.992,0.04488
3.996,-0.04933
4.0,0.03402
4.004,-0.00096
4.008,0.06178
4.012,-0.03828
4.016,-0.01002
4.02,-0.00482
4.024,0.03463
4.028,0.07288
4.032,-0.00121
4.036,0.06302
4.04,0.05067
4.044,0.07935
4.048,0.07144
4.052,0.09359
4.056,0.12759
4.06,0.11639
4.064,0.08105
4.068,0.06308
4.072,0.03587
4.076,0.10879
4.08,0.26863
4.084,0.4114
4.088,0.58863
4.092,0.85339
4.096,0.97917
4.1,1.14572
4.104,1.23019
4.108,1.05826
4.112,0.90228
4.116,0.80106
4.12,0.37841
4.124,0.31918
4.128,0.15372
4.132,-0.02244
4.136,-0.09642
4.14,-0.03008
4.144,0.02756
4.148,0.00338
4.152,0.0938
4.156,0.06732
4.16,0.18374
4.164,0.03458
4.168,0.10371
4.172,0.02308
4.176,0.05344
4.18,0.0341
4.184,-0.02842
4.188,0.11374
4.192,0.06456
4.196,0.05016
4.2,-0.01285
4.204,0.02169
4.208,0.05141
4.212,-0.00332
4.216,-0.04208
4.22,0.02395
4.224,0.04189
4.228,-0.01896
4.232,-0.03642
4.236,0.03263
4.24,-0.0002
4.244,-0.02589
4.248,-0.00077
4.252,0.05001
4.256,-0.02054
4.26,0.041
4.264,-0.04099
4.268,-0.02716
4.272,-0.01802
4.276,0.01516
4.28,0.02409
4.284,0.00116
4.288,0.04823
4.292,0.0141
4.296,0.01993
4.3,0.09023
4.304,0.06305
4.308,0.08047
4.312,0.09545
4.316,0.02622
4.32,0.06556
4.324,0.08961
4.328,0.11971
4.332,0.12349
4.336,0.15572
4.34,0.13718
4.344,0.21329
4.348,0.2616
4.352,0.27854
4.356,0.27677
4.36,0.2782
4.364,0.28061
4.368,0.3055
4.372,0.2132
4.376,0.30805
4.38,0.31893
4.384,0.24411
4.388,0.30794
4.392,0.20737
4.396,0.23807
4.4,0.19274
4.404,0.19486
4.408,0.24313
4.412,0.18852
4.416,0.23011
4.42,0.17249
4.424,0.15236
4.428,0.10549
4.432,0.10017
4.436,0.14403
4.44,0.07668
4.444,0.10836
4.448,-0.00184
4.452,0.11553
4.456,0.06148
4.46,0.04763
4.464,-0.01498
4.468,0.06689
4.472,0.00202
4.476,-0.06375
4.48,-0.0238
4.484,-0.04973
4.488,-0.06271
4.492,-0.14648
4.496,-0.05815
4.5,0.04958
4.504,0.16322
4.508,0.42102
4.512,0.62329
4.516,0.85178
4.52,0.93078
4.524,1.02394
4.528,0.94489
4.532,0.76174
4.536,0.57302
4.54,0.35781
4.544,0.10078
4.548,-0.025
4.552,-0.15877
4.556,-0.12931
4.56,-0.08298
4.564,-0.07404
4.568,-0.0202
4.572,-0.03484
4.576,-0.02117
4.58,0.04833
4.584,-0.08849
4.588,0.01409
4.592,0.02669
4.596,0.01448
4.6,0.07236
4.604,0.04853
4.608,0.05164
4.612,0.03736
4.616,0.06574
4.62,0.00712
4.624,0.03734
4.628,0.03339
4.632,-0.02122
4.636,0.00696
4.64,0.02692
4.644,-0.00042
4.648,0.01443
4.652,0.00833
4.656,0.00318
4.66,0.00919
4.664,-0.00472
4.668,-0.00634
4.672,0.03511
4.676,0.10767
4.68,0.08036
4.684,0.00296
4.688,0.06072
4.692,0.01723
4.696,0.07306
4.7,-0.02352
4.704,0.04415
4.708,0.07034
4.712,0.06742
4.716,0.11171
4.72,0.03288
4.724,0.08704
4.728,0.09828
4.732,0.0709
4.736,0.06372
4.74,0.03453
4.744,0.12081
4.748,0.14304
4.752,0.10208
4.756,0.18535
4.76,0.16129
4.764,0.18628
4.768,0.19966
4.772,0.17455
4.776,0.21704
4.78,0.21591
4.784,0.22705
4.788,0.15776
4.792,0.23641
4.796,0.26621
4.8,0.27086
4.804,0.25983
4.808,0.20988
4.812,0.25328
4.816,0.22493
4.82,0.25842
4.824,0.21666
4.828,0.2402
4.832,0.19569
4.836,0.14936
4.84,0.14134
4.844,0.18094
4.848,0.15205
4.852,0.18032
4.856,0.11559
4.86,0.12396
4.864,0.16587
4.868,0.05018
4.872,0.07976
4.876,0.02693
4.88,0.07347
4.884,0.07653
4.888,-0.02538
4.892,0.02725
4.896,0.06988
4.9,0.05934
4.904,0.0205
4.908,0.0128
4.912,0.08496
4.916,0.07865
4.92,-0.00792
4.924,0.00922
4.928,-0.00261
4.932,0.07542
4.936,0.0819
4.94,0.00987
4.944,0.01402
4.948,0.01899
4.952,0.01436
4.956,0.02974
4.96,0.02885
4.964,0.05028
4.968,0.0434
4.972,0.05008
4.976,0.06105
4.98,0.02183
4.984,0.11621
4.988,0.11478
4.992,0.10362
4.996,0.14331
5.0,0.10803
5.004,0.12282
5.008,0.08008
5.012,0.11083
5.016,0.11131
5.02,0.1472
5.024,0.09122
5.028,0.07264
5.032,0.05519
5.036,0.05934
5.04,0.08277
5.044,0.01424
5.048,0.07192
5.052,0.026
5.056,0.0389
5.06,0.03599
5.064,-0.00076
5.068,-0.0019
5.072,0.00049
5.076,0.08581
5.08,0.0523
5.084,-0.0097
5.088,0.0708
5.092,0.04016
5.096,0.02335
5.1,0.00483
5.104,-0.01383
5.108,0.07111
5.112,0.03889
5.116,-0.06476
5.12,-0.02439
5.124,-0.07483
5.128,-0.10985
5.132,-0.0809
5.136,-0.00594
5.14,0.10082
5.144,0.26819
5.148,0.51589
5.152,0.68583
5.156,0.91854
5.16,0.9881
5.164,1.03653
5.168,0.85463
5.172,0.70143
5.176,0.44541
5.18,0.20306
5.184,0.01162
5.188,-0.04906
5.192,-0.19693
5.196,-0.15354
5.2,-0.14264
5.204,-0.07322
5.208,-0.06402
5.212,0.02238
5.216,0.00908
5.22,-0.00779
5.224,0.01207
5.228,-0.04945
5.232,0.0359
5.236,-0.03844
5.24,0.03986
5.244,0.00394
5.248,0.03887
5.252,0.0568
5.256,0.03962
5.26,0.07918
5.264,0.04573
5.268,0.05285
5.272,0.02459
5.276,0.0763
5.28,0.04783
5.284,0.03161
5.288,-0.01928
5.292,-0.00714
5.296,0.01141
5.3,0.03726
5.304,0.08737
5.308,0.02344
5.312,0.04604
5.316,0.03265
5.32,-0.04687
5.324,0.0183
5.328,-0.02008
5.332,0.00516
5.336,0.0292
5.34,0.07691
5.344,0.0174
5.348,0.09119
5.352,0.02776
5.356,0.06307
5.36,-0.00222
5.364,0.04058
5.368,0.06677
5.372,0.09307
5.376,0.1391
5.38,0.14618
5.384,0.11302
5.388,0.15286
5.392,0.14353
5.396,0.13097
5.4,0.16309
5.404,0.17657
5.408,0.17643
5.412,0.24802
5.416,0.15291
5.42,0.22012
5.424,0.233
5.428,0.221
5.432,0.25216
5.436,0.25222
5.44,0.23015
5.444,0.3002
5.448,0.2207
5.452,0.23802
5.456,0.24693
5.46,0.27141
5.464,0.23879
5.468,0.21458
5.472,0.19615
5.476,0.1972
5.48,0.17952
5.484,0.1867
5.488,0.18535
5.492,0.1636
5.496,0.11254
5.5,0.07056
5.504,0.07854
5.508,0.06312
5.512,0.08615
5.516,0.05582
5.52,0.09901
5.524,0.0695
5.528,0.08137
5.532,0.03657
5.536,0.04651
5.54,0.09204
5.544,0.10078
5.548,-0.01468
5.552,0.03957
5.556,0.04558
5.56,0.06951
5.564,0.05647
5.568,-0.00826
5.572,0.03503
5.576,0.06709
5.58,0.00043
5.584,0.09852
5.588,0.08909
5.592,0.01817
5.596,0.13169
5.6,0.10825
5.604,0.14473
5.608,0.18232
5.612,0.16038
5.616,0.1302
5.62,0.10549
5.624,0.07659
5.628,0.18252
5.632,0.15806
5.636,0.07353
5.64,0.06698
5.644,0.08371
5.648,0.03763
5.652,0.05604
5.656,0.01623
5.66,0.04704
5.664,0.05795
5.668,0.00625
5.672,0.03687
5.676,0.07441
5.68,0.0211
5.684,0.0349
5.688,0.0015
5.692,0.04687
5.696,0.00696
5.7,0.05981
5.704,-0.03599
5.708,0.04136
5.712,0.02957
5.716,0.05317
5.72,0.0062
5.724,0.01372
5.728,-0.05305
5.732,-0.03002
5.736,-0.02313
5.74,0.02016
5.744,-0.0078
5.748,0.00684
5.752,0.13741
5.756,0.31802
5.76,0.46954
5.764,0.64675
5.768,0.94328
5.772,0.95799
5.776,1.02831
5.78,0.90992
5.784,0.70204
5.788,0.47051
5.792,0.27742
5.796,0.03052
5.8,-0.03509
5.804,-0.06703
5.808,-0.1323
5.812,-0.10415
5.816,-0.10005
5.82,-0.07543
5.824,-0.01368
5.828,0.07804
5.832,0.00415
5.836,0.00361
5.84,0.05914
5.844,0.07185
5.848,0.04964
5.852,0.01073
5.856,0.02649
5.86,0.10623
5.864,0.06955
5.868,0.04765
5.872,0.04154
5.876,-0.00395
5.88,-0.01183
5.884,-0.02536
5.888,0.02164
5.892,-0.03659
5.896,0.03475
5.9,0.03642
5.904,0.01419
5.908,-0.01395
5.912,0.03986
5.916,-0.01919
5.92,0.01698
5.924,-0.02578
5.928,0.06202
5.932,0.0091
5.936,0.08198
5.94,-0.03169
5.944,0.01167
5.948,-0.00813
5.952,-0.0292
5.956,0.00991
5.96,0.1108
5.964,-0.00056
5.968,0.0298
5.972,0.06167
5.976,0.05583
5.98,0.10124
5.984,0.10142
5.988,0.11665
5.992,0.09674
5.996,0.04493
6.0,0.1287
6.004,0.11198
6.008,0.15225
6.012,0.17872
6.016,0.18683
6.02,0.21596
6.024,0.24706
6.028,0.29864
6.032,0.20505
6.036,0.24359
6.04,0.30305
6.044,0.19902
6.048,0.26204
6.052,0.29348
6.056,0.30995
6.06,0.31036
6.064,0.27686
6.068,0.2378
6.072,0.23997
6.076,0.24227
6.08,0.24931
6.084,0.21132
6.088,0.18274
6.092,0.16123
6.096,0.16975
6.1,0.18806
6.104,0.14374
6.108,0.13495
6.112,0.12252
6.116,0.13421
6.12,0.17489
6.124,0.15019
6.128,0.08001
6.132,0.12173
6.136,0.07135
6.14,0.02055
6.144,0.04956
6.148,0.07223
6.152,0.06724
6.156,0.0239
6.16,-0.00396
6.164,0.11388
6.168,0.00663
6.172,0.08236
6.176,0.03987
6.18,0.04579
6.184,0.03501
6.188,-0.00117
6.192,0.01417
6.196,0.01397
6.2,0.01789
6.204,0.02256
6.208,0.03813
6.212,0.0857
6.216,-0.01533
6.22,0.03736
6.224,0.08469
6.228,0.04417
6.232,0.03769
6.236,0.03012
6.24,0.04191
6.244,0.07828
6.248,0.01397
6.252,0.07685
6.256,0.06583
6.26,0.1444
6.264,0.10158
6.268,0.16153
6.272,0.11286
6.276,0.1753
6.28,0.08103
6.284,0.17818
6.288,0.13565
6.292,0.15094
6.296,0.08392
6.3,0.08744
6.304,0.06191
6.308,0.04153
6.312,0.01815
6.316,0.04651
6.32,0.08953
6.324,0.07646
6.328,0.05979
6.332,0.0157
6.336,0.063
6.34,0.00046
6.344,0.01784
6.348,0.07317
6.352,0.06548
6.356,-0.02659
6.36,0.01806
6.364,0.0333
6.368,0.04393
6.372,-3e-05
6.376,0.04677
6.38,0.01803
6.384,-0.02106
6.388,0.02171
6.392,0.04793
6.396,0.041
6.4,0.01013
6.404,-0.08214
6.408,-0.11501
6.412,-0.05727
6.416,-0.00815
6.42,0.2475
6.424,0.43061
6.428,0.6081
6.432,0.77868
6.436,0.9421
6.44,1.0555
6.444,0.97471
6.448,0.89255
6.452,0.65508
6.456,0.38633
6.46,0.15032
6.464,0.06786
6.468,-0.08232
6.472,-0.19027
6.476,-0.12668
6.48,-0.12317
6.484,-0.08068
6.488,0.00991
6.492,-0.0202
6.496,0.0366
6.5,0.05342
6.504,0.05179
6.508,-0.02539
6.512,0.06729
6.516,0.03464
6.52,-0.04149
6.524,-0.00276
6.528,0.05571
6.532,0.03236
6.536,-0.00186
6.54,0.11421
6.544,-0.03722
6.548,0.0905
6.552,-0.00219
6.556,-0.0024
6.56,-0.02974
6.564,0.05264
6.568,0.07046
6.572,0.02509
6.576,-0.01004
6.58,0.05545
6.584,0.03194
6.588,0.06887
6.592,0.03599
6.596,0.04979
6.6,0.05942
6.604,0.01023
6.608,0.03811
6.612,0.05042
6.616,0.12265
6.62,0.0632
6.624,0.01134
6.628,0.03421
6.632,0.03771
6.636,0.12479
6.64,0.07004
6.644,0.03417
6.648,0.08912
6.652,0.05923
6.656,0.07751
6.66,0.06045
6.664,0.15082
6.668,0.17892
6.672,0.17138
6.676,0.20677
6.68,0.16469
6.684,0.22044
6.688,0.17848
6.692,0.17992
6.696,0.18233
6.7,0.29519
6.704,0.26874
6.708,0.32022
6.712,0.37626
6.716,0.34689
6.72,0.33503
6.724,0.38396
6.728,0.37445
6.732,0.36914
6.736,0.35691
6.74,0.35222
6.744,0.27903
6.748,0.25509
6.752,0.26291
6.756,0.22048
6.76,0.20079
6.764,0.16257
6.768,0.21988
6.772,0.15908
6.776,0.13867
6.78,0.12865
6.784,0.13457
6.788,0.0615
6.792,0.03703
6.796,0.09096
6.8,0.09875
6.804,0.0476
6.808,0.11535
6.812,0.04549
6.816,0.08488
6.82,0.07146
6.824,0.03113
6.828,0.08014
6.832,-0.03121
6.836,0.01584
6.84,0.00173
6.844,-0.06357
6.848,-0.08467
6.852,-0.09923
6.856,-0.13844
6.86,-0.03808
6.864,0.08588
6.868,0.35481
6.872,0.5262
6.876,0.763
6.88,0.87624
6.884,1.0021
6.888,1.0481
6.892,0.88352
6.896,0.69059
6.9,0.4796
6.904,0.20519
6.908,0.08388
6.912,-0.1012
6.916,-0.1126
6.92,-0.19631
6.924,-0.11879
6.928,-0.05154
6.932,0.01515
6.936,0.00428
6.94,-0.00447
6.944,-0.00829
6.948,0.02807
6.952,-0.00016
6.956,0.06495
6.96,0.01112
6.964,0.0595
6.968,0.02878
6.972,0.03225
6.976,0.01504
6.98,0.02267
6.984,0.00717
6.988,0.05792
6.992,0.0284
6.996,-0.04883
7.0,0.03091
7.004,0.03948
7.008,0.05807
7.012,-0.02927
7.016,-0.00654
7.02,0.00591
7.024,0.05661
7.028,0.05134
7.032,0.05933
7.036,-0.01594
7.04,-0.01567
7.044,0.00859
7.048,-0.0098
7.052,0.02181
7.056,0.02878
7.06,0.0287
7.064,0.00644
7.068,0.05468
7.072,0.01664
7.076,0.02583
7.08,0.00684
7.084,-0.00615
7.088,0.08951
7.092,0.04199
7.096,0.12075
7.1,0.02081
7.104,0.09448
7.108,0.09705
7.112,0.14855
7.116,0.07158
7.12,0.15423
7.124,0.14372
7.128,0.14877
7.132,0.20211
7.136,0.16579
7.14,0.21155
7.144,0.1785
7.148,0.22128
7.152,0.23246
7.156,0.29765
7.16,0.25985
7.164,0.24078
7.168,0.19285
7.172,0.2394
7.176,0.19273
7.18,0.19291
7.184,0.20758
7.188,0.24602
7.192,0.17967
7.196,0.21723
7.2,0.16595
7.204,0.13042
7.208,0.09708
7.212,0.16683
7.216,0.1208
7.22,0.06156
7.224,0.10219
7.228,0.10464
7.232,0.08324
7.236,0.11246
7.24,0.0919
7.244,0.06787
7.248,0.00792
7.252,0.07977
7.256,0.01354
7.26,0.05274
7.264,-0.01796
7.268,0.02073
7.272,0.0242
7.276,0.04217
7.28,0.05985
7.284,0.05353
7.288,-0.03871
7.292,-0.00404
7.296,0.01348
7.3,-0.01421
7.304,0.01503
7.308,-0.03066
7.312,0.04976
7.316,0.00505
7.32,-0.02454
7.324,0.03065
7.328,0.03746
7.332,0.02274
7.336,0.08649
7.34,0.12405
7.344,0.0181
7.348,0.08942
7.352,0.05649
7.356,0.09189
7.36,0.07131
7.364,0.07517
7.368,0.08958
7.372,0.12393
7.376,0.06096
7.38,0.10349
7.384,0.03185
7.388,0.11783
7.392,0.05546
7.396,0.10804
7.4,0.05803
7.404,0.04843
7.408,0.00889
7.412,0.01045
7.416,0.01033
7.42,-0.02892
7.424,-0.01103
7.428,-0.01168
7.432,-0.0072
7.436,0.04329
7.44,0.0236
7.444,-0.03041
7.448,0.0193
7.452,-0.02209
7.456,0.02971
7.46,-0.0847
7.464,-0.04608
7.468,-0.03337
7.472,-0.06432
7.476,0.02219
7.48,-0.04426
7.484,0.06
7.488,0.00876
7.492,-0.09439
7.496,-0.13609
7.5,-0.17225
7.504,-0.1043
7.508,-0.03838
7.512,0.10054
7.516,0.05582
7.52,0.25858
7.524,0.29189
7.528,0.39726
7.532,0.46482
7.536,0.40395
7.54,0.36029
7.544,0.23533
7.548,0.09776
7.552,0.01088
7.556,-0.10577
7.56,-0.11581
7.564,-0.17565
7.568,-0.17616
7.572,-0.1201
7.576,-0.09193
7.58,-0.02987
7.584,-0.08564
7.588,-0.02201
7.592,-0.03321
7.596,-0.02472
7.6,0.00459
7.604,-0.00265
7.608,-0.01688
7.612,0.06917
7.616,0.03175
7.62,-0.02449
7.624,-0.04657
7.628,-0.01877
7.632,0.00829
7.636,-0.02791
7.64,0.01173
7.644,-0.03349
7.648,0.03577
7.652,0.01694
7.656,-0.01217
7.66,-0.00308
7.664,0.04879
7.668,-0.01633
7.672,-0.06745
7.676,0.00573
7.68,0.01555
7.684,0.00422
7.688,-0.00208
7.692,0.05156
7.696,0.00568
7.7,-0.02362
7.704,-0.05215
7.708,0.00705
7.712,-0.00757
7.716,-0.01741
7.72,-0.03743
7.724,-0.01056
7.728,-0.02266
7.732,0.03739
7.736,-0.02644
7.74,0.06512
7.744,0.09547
7.748,0.12503
7.752,0.0644
7.756,0.10764
7.76,0.08681
7.764,0.12556
7.768,0.12091
7.772,0.21755
7.776,0.19086
7.78,0.20369
7.784,0.17625
7.788,0.15075
7.792,0.14941
7.796,0.21695
7.8,0.19338
7.804,0.18162
7.808,0.18861
7.812,0.21411
7.816,0.14644
7.82,0.21166
7.824,0.17374
7.828,0.2199
7.832,0.21782
7.836,0.23764
7.84,0.20939
7.844,0.14913
7.848,0.2564
7.852,0.22077
7.856,0.17788
7.86,0.22442
7.864,0.17321
7.868,0.23559
7.872,0.25975
7.876,0.14157
7.88,0.10781
7.884,0.12429
7.888,0.13018
7.892,0.15233
7.896,0.06477
7.9,0.04561
7.904,0.04677
7.908,0.03549
7.912,0.04115
7.916,-0.01685
7.92,0.00844
7.924,0.02238
7.928,-0.01714
7.932,0.00017
7.936,0.00684
7.94,0.01334
7.944,0.02972
7.948,-0.01618
7.952,0.01103
7.956,-0.01387
7.96,-0.02445
7.964,0.00938
7.968,-0.03818
7.972,0.03714
7.976,0.0085
7.98,-0.05683
7.984,-0.01541
7.988,-0.12512
7.992,-0.0354
7.996,-0.11218
8.0,-0.09413
8.004,0.08003
8.008,0.22934
8.012,0.31832
8.016,0.58775
8.02,0.80581
8.024,0.94121
8.028,0.95776
8.032,0.92588
8.036,0.75848
8.04,0.59445
8.044,0.30062
8.048,0.11115
8.052,-0.03704
8.056,-0.14689
8.06,-0.19736
8.064,-0.18752
8.068,-0.16589
8.072,-0.10741
8.076,-0.06712
8.08,-0.04693
8.084,-0.00016
8.088,-0.02927
8.092,-0.02875
8.096,-0.05285
8.1,0.02615
8.104,-0.03216
8.108,0.00713
8.112,-0.05169
8.116,-0.02258
8.12,-0.04976
8.124,-0.0108
8.128,-0.01253
8.132,-0.03227
8.136,0.00213
8.14,-0.02701
8.144,-0.07497
8.148,0.02683
8.152,-0.02425
8.156,-0.08487
8.16,0.04398
8.164,0.05851
8.168,0.00841
8.172,0.02233
8.176,-0.02812
8.18,0.0039
8.184,0.01283
8.188,0.00543
8.192,0.03313
8.196,-0.00529
8.2,0.02169
8.204,0.03885
8.208,0.0231
8.212,0.00198
8.216,0.02427
8.22,0.00723
8.224,0.04449
8.228,0.03789
8.232,-0.01025
8.236,0.02093
8.24,0.04972
8.244,0.06588
8.248,0.08958
8.252,0.06757
8.256,0.06901
8.26,0.12405
8.264,0.08076
8.268,0.12849
8.272,0.11472
8.276,0.19766
8.28,0.1426
8.284,0.16761
8.288,0.12525
8.292,0.22374
8.296,0.17063
8.3,0.22938
8.304,0.22679
8.308,0.21221
8.312,0.2293
8.316,0.18771
8.32,0.2028
8.324,0.15596
8.328,0.19864
8.332,0.15651
8.336,0.15266
8.34,0.11378
8.344,0.15229
8.348,0.12823
8.352,0.05467
8.356,0.08158
8.36,0.0747
8.364,0.15943
8.368,0.05094
8.372,0.04416
8.376,0.00364
8.38,0.0917
8.384,0.06677
8.388,0.01265
8.392,0.00255
8.396,0.02522
8.4,-0.00322
8.404,-0.03065
8.408,0.03569
8.412,0.01189
8.416,-0.03612
8.42,-0.07821
8.424,0.0076
8.428,0.01181
8.432,-0.04317
8.436,-0.01025
8.44,-0.01643
8.444,-0.03676
8.448,-0.01722
8.452,-0.04433
8.456,0.03509
8.46,-0.06385
8.464,-0.03164
8.468,-0.03079
8.472,-0.01186
8.476,-0.02222
8.48,-0.03241
8.484,-0.05367
8.488,-0.00448
8.492,-0.02769
8.496,-0.05467
8.5,-0.06042
8.504,-0.02417
8.508,-0.03357
8.512,-0.04812
8.516,-0.01499
8.52,0.06162
8.524,0.00963
8.528,-0.0468
8.532,0.03849
8.536,-0.04368
8.54,-0.04706
8.544,-0.01124
8.548,-0.0539
8.552,-0.03052
8.556,0.02355
8.56,0.02026
8.564,-0.06391
8.568,-0.026
8.572,0.01583
8.576,-0.0538
8.58,-0.02216
8.584,0.03978
8.588,-0.01612
8.592,0.03783
8.596,0.02603
8.6,0.02251
8.604,0.04192
8.608,0.04021
8.612,0.07422
8.616,0.12385
8.62,0.12369
8.624,0.08557
8.628,0.1002
8.632,0.11301
8.636,0.094
8.64,-0.00218
8.644,0.02371
8.648,-0.00818
8.652,0.04308
8.656,-0.0286
8.66,0.01002
8.664,-0.0427
8.668,0.02958
8.672,0.01527
8.676,-0.00429
8.68,-0.02632
8.684,-0.0031
8.688,-0.03119
8.692,-0.03713
8.696,-0.04369
8.7,-0.03664
8.704,-0.03774
8.708,-0.03108
8.712,-0.00524
8.716,-0.0106
8.72,-0.10313
8.724,0.00447
8.728,-0.02465
8.732,-0.00411
8.736,-0.04185
8.74,-0.09449
8.744,-0.10896
8.748,-0.16473
8.752,-0.10906
8.756,-0.18517
8.76,-0.05191
8.764,0.07977
8.768,0.08581
8.772,0.27188
8.776,0.36646
8.78,0.43701
8.784,0.41472
8.788,0.36636
8.792,0.24933
8.796,0.24481
8.8,0.10009
8.804,-0.10015
8.808,-0.10982
8.812,-0.14882
8.816,-0.26328
8.82,-0.13003
8.824,-0.15135
8.828,-0.0767
8.832,-0.03254
8.836,-0.03882
8.84,-0.03063
8.844,-0.05994
8.848,-0.06484
8.852,-0.05056
8.856,-0.04876
8.86,-0.09808
8.864,-0.01016
8.868,-0.04725
8.872,-0.07644
8.876,-0.01211
8.88,-0.04934
8.884,-0.00777
8.888,-0.00915
8.892,-0.01224
8.896,-0.03888
8.9,-0.01908
8.904,-0.05212
8.908,0.00499
8.912,-0.00173
8.916,-0.02501
8.92,0.02716
8.924,-0.00715
8.928,-0.01477
8.932,0.04211
8.936,-0.00225
8.94,-0.02681
8.944,0.01879
8.948,0.03237
8.952,-0.0922
8.956,-0.06837
8.96,-0.02688
8.964,-0.11398
8.968,0.01179
8.972,-0.01774
8.976,-0.02279
8.98,-0.01265
8.984,0.04252
8.988,0.00884
8.992,0.0774
8.996,0.05109
9.0,0.13759
9.004,0.09377
9.008,0.07058
9.012,0.07408
9.016,0.09721
9.02,0.13383
9.024,0.17198
9.028,0.1347
9.032,0.14582
9.036,0.19853
9.04,0.19215
9.044,0.16593
9.048,0.18039
9.052,0.1346
9.056,0.13492
9.06,0.1425
9.064,0.17904
9.068,0.22263
9.072,0.19573
9.076,0.22907
9.08,0.20042
9.084,0.20483
9.088,0.17117
9.092,0.12583
9.096,0.10377
9.1,0.10928
9.104,0.08849
9.108,0.13305
9.112,0.03562
9.116,0.05897
9.12,0.10275
9.124,0.02471
9.128,-0.03461
9.132,0.09791
9.136,0.10008
9.14,0.02377
9.144,0.05932
9.148,0.09899
9.152,0.13312
9.156,0.05679
9.16,0.09911
9.164,0.08435
9.168,0.07049
9.172,0.1043
9.176,0.07062
9.18,0.09221
9.184,0.01267
9.188,-0.01124
9.192,-0.01726
9.196,0.02589
9.2,0.00239
9.204,0.05519
9.208,-0.03412
9.212,-0.01211
9.216,-0.05404
9.22,-0.08251
9.224,-0.06252
9.228,0.02683
9.232,-0.07878
9.236,0.02943
9.24,-0.01449
9.244,-0.0193
9.248,-0.04172
9.252,-0.04289
9.256,0.0045
9.26,-0.01403
9.264,-0.04044
9.268,0.00081
9.272,-0.06658
9.276,-0.01717
9.28,-0.06376
9.284,-0.02173
9.288,-0.14934
9.292,-0.15269
9.296,-0.13564
9.3,-0.03882
9.304,0.07715
9.308,0.26553
9.312,0.48206
9.316,0.6854
9.32,0.89901
9.324,0.93072
9.328,0.98099
9.332,0.81546
9.336,0.61354
9.34,0.39968
9.344,0.16431
9.348,0.00337
9.352,-0.16365
9.356,-0.16381
9.36,-0.17204
9.364,-0.15943
9.368,-0.11988
9.372,-0.10721
9.376,-0.07438
9.38,-0.01618
9.384,-0.00781
9.388,-0.01742
9.392,-0.06868
9.396,-0.01642
9.4,-0.00686
9.404,-0.061
9.408,-0.01993
9.412,-0.07977
9.416,-0.03588
9.42,-0.0457
9.424,-0.08918
9.428,0.00699
9.432,-0.00325
9.436,-0.01373
9.44,-0.00369
9.444,-0.04
9.448,-0.03302
9.452,-0.01457
9.456,-0.03754
9.46,-0.03392
9.464,-0.02497
9.468,-0.01469
9.472,-0.04036
9.476,-0.03921
9.48,-0.07604
9.484,0.00704
9.488,-0.00684
9.492,-0.00737
9.496,0.08386
9.5,0.01683
9.504,0.06147
9.508,0.03799
9.512,0.00837
9.516,0.0673
9.52,0.08792
9.524,0.08974
9.528,0.14403
9.532,0.15023
9.536,0.06365
9.54,0.14197
9.544,0.12848
9.548,0.13203
9.552,0.12921
9.556,0.10072
9.56,0.1659
9.564,0.183
9.568,0.17197
9.572,0.1261
9.576,0.19304
9.58,0.17118
9.584,0.17437
9.588,0.1857
9.592,0.21038
9.596,0.18674
9.6,0.24494
9.604,0.16672
9.608,0.20902
9.612,0.16594
9.616,0.19874
9.62,0.16627
9.624,0.20966
9.628,0.16463
9.632,0.11801
9.636,0.15786
9.64,0.16011
9.644,0.07732
9.648,0.07313
9.652,0.06751
9.656,0.04738
9.66,-0.11761
9.664,-0.07064
9.668,-0.00089
9.672,0.13308
9.676,0.24976
9.68,0.462
9.684,0.67526
9.688,0.8742
9.692,0.93365
9.696,1.03265
9.7,0.92084
9.704,0.65998
9.708,0.5156
9.712,0.27849
9.716,-0.01883
9.72,-0.0978
9.724,-0.13821
9.728,-0.16558
9.732,-0.1349
9.736,-0.13874
9.74,-0.12037
9.744,-0.05436
9.748,-0.05551
9.752,0.02558
9.756,-0.04973
9.76,-0.03857
9.764,0.01124
9.768,-0.07409
9.772,-0.01177
9.776,-0.08687
9.78,-0.03843
9.784,-0.04962
9.788,-0.04243
9.792,-0.09949
9.796,-0.036
9.8,0.01912
9.804,-0.01746
9.808,-0.023
9.812,-0.02212
9.816,-0.01281
9.82,-0.02935
9.824,-0.00223
9.828,-0.0171
9.832,-0.03311
9.836,-0.08692
9.84,0.02981
9.844,0.02177
9.848,-0.10243
9.852,-0.04433
9.856,0.04194
9.86,-0.05999
9.864,-0.05904
9.868,0.00768
9.872,-0.00199
9.876,0.02584
9.88,0.04175
9.884,-0.03716
9.888,0.00508
9.892,-0.07792
9.896,0.02414
9.9,-0.02379
9.904,0.04699
9.908,0.07573
9.912,0.06854
9.916,0.07373
9.92,0.117
9.924,0.1191
9.928,0.11178
9.932,0.10044
9.936,0.11313
9.94,0.11834
9.944,0.12875
9.948,0.21089
9.952,0.12131
9.956,0.18486
9.96,0.12968
9.964,0.23173
9.968,0.21222
9.972,0.23679
9.976,0.23171
9.98,0.13639
9.984,0.2403
9.988,0.20143
9.992,0.17106
9.996,0.19531
