t_seg,ecg_mV
0.0,-0.09766
0.004,-0.13741
0.008,-0.11264
0.012,-0.03643
0.016,0.08832
0.02,0.31077
0.024,0.53262
0.028,0.71007
0.032,0.89905
0.036,0.9929
0.04,0.98555
0.044,0.83577
0.048,0.66376
0.052,0.40158
0.056,0.17744
0.06,0.00233
0.064,-0.0977
0.068,-0.16104
0.072,-0.1589
0.076,-0.14592
0.08,-0.09671
0.084,-0.06115
0.088,-0.02561
0.092,-0.01256
0.096,-0.00666
0.1,-0.02566
0.104,-0.02038
0.108,0.00595
0.112,0.00044
0.116,0.03001
0.12,0.00803
0.124,-0.00879
0.128,-0.00432
0.132,-0.00251
0.136,0.03401
0.14,0.00075
0.144,-0.0321
0.148,0.00693
0.152,-0.00417
0.156,9e-05
0.16,-0.01171
0.164,-0.03465
0.168,0.03212
0.172,0.00667
0.176,-0.00541
0.18,-0.00039
0.184,-0.01265
0.188,0.0083
0.192,-0.00529
0.196,0.01361
0.2,-0.01361
0.204,0.02472
0.208,0.04693
0.212,-0.01297
0.216,-0.00196
0.22,0.03325
0.224,0.00904
0.228,-0.0162
0.232,0.00607
0.236,0.03997
0.24,0.07225
0.244,0.0511
0.248,0.05204
0.252,0.06887
0.256,0.08432
0.26,0.08011
0.264,0.11243
0.268,0.10494
0.272,0.11152
0.276,0.1031
0.28,0.16062
0.284,0.12229
0.288,0.1672
0.292,0.17382
0.296,0.15331
0.3,0.1915
0.304,0.21569
0.308,0.20909
0.312,0.2245
0.316,0.21123
0.32,0.25884
0.324,0.23264
0.328,0.20856
0.332,0.2141
0.336,0.1775
0.34,0.1623
0.344,0.16993
0.348,0.15877
0.352,0.14802
0.356,0.14242
0.36,0.12564
0.364,0.11333
0.368,0.10758
0.372,0.09401
0.376,0.08053
0.38,0.08029
0.384,0.08717
0.388,0.07544
0.392,0.03663
0.396,0.03752
0.4,0.03001
0.404,0.02194
0.408,0.00907
0.412,0.01297
0.416,0.02135
0.42,0.00529
0.424,0.00735
0.428,-0.00642
0.432,0.01475
0.436,0.01504
0.44,-0.02406
0.444,-0.02234
0.448,-0.02832
0.452,0.01071
0.456,-0.00867
0.46,-0.01196
0.464,-0.00621
0.468,-0.02173
0.472,-0.01164
0.476,-0.01917
0.48,-0.01028
0.484,-0.00659
0.488,-0.00159
0.492,-0.01077
0.496,-0.02393
0.5,-0.04323
0.504,0.00956
0.508,-0.01868
0.512,-0.00466
0.516,0.00347
0.52,-0.00607
0.524,-0.01628
0.528,-0.01184
0.532,0.00662
0.536,-0.00356
0.54,-0.01447
0.544,-0.00724
0.548,-0.01791
0.552,-0.00522
0.556,0.00892
0.56,-0.02289
0.564,-0.01837
0.568,0.0195
0.572,0.00306
0.576,-0.00085
0.58,0.03901
0.584,0.05144
0.588,0.0669
0.592,0.05742
0.596,0.07697
0.6,0.05944
0.604,0.06098
0.608,0.08968
0.612,0.07625
0.616,0.05328
0.62,0.0497
0.624,0.06784
0.628,0.04437
0.632,0.03749
0.636,0.02352
0.64,0.01077
0.644,0.01759
0.648,-0.02522
0.652,-0.04406
0.656,-0.05666
0.66,-0.02346
0.664,-0.00479
0.668,-0.01006
0.672,-0.01169
0.676,-0.00353
0.68,-0.00181
0.684,-0.02845
0.688,-0.02717
0.692,-0.03177
0.696,0.00295
0.7,-0.02887
0.704,-0.00393
0.708,-0.00525
0.712,-0.01369
0.716,-0.01702
0.72,-0.03239
0.724,-0.04671
0.728,-0.08935
0.732,-0.13123
0.736,-0.11803
0.74,-0.09094
0.744,0.01387
0.748,0.15503
0.752,0.40323
0.756,0.56862
0.76,0.79056
0.764,0.92039
0.768,0.97678
0.772,0.90166
0.776,0.7373
0.78,0.53699
0.784,0.28256
0.788,0.11263
0.792,-0.08034
0.796,-0.12997
0.8,-0.18994
0.804,-0.18669
0.808,-0.13682
0.812,-0.09133
0.816,-0.05763
0.82,-0.05294
0.824,0.00792
0.828,0.00165
0.832,-0.03996
0.836,-0.04747
0.84,-0.04772
0.844,-0.02376
0.848,-0.01336
0.852,-0.02945
0.856,-0.01011
0.86,-0.00579
0.864,-0.0136
0.868,-0.01306
0.872,-0.00778
0.876,-0.02402
0.88,-0.02128
0.884,-0.01073
0.888,-0.03704
0.892,-0.03081
0.896,-0.02558
0.9,-0.02514
0.904,-0.01244
0.908,0.00691
0.912,-0.00944
0.916,-0.0001
0.92,-0.02411
0.924,-0.03825
0.928,-0.03207
0.932,-0.02418
0.936,-0.04632
0.94,0.029
0.944,-0.00067
0.948,-0.01344
0.952,0.03169
0.956,0.01517
0.96,0.021
0.964,-0.00482
0.968,0.0456
0.972,0.032
0.976,0.01143
0.98,0.05247
0.984,0.06651
0.988,0.05727
0.992,0.07929
0.996,0.08814
1.0,0.11303
1.004,0.10693
1.008,0.09329
1.012,0.15688
1.016,0.15421
1.02,0.15037
1.024,0.18673
1.028,0.17869
1.032,0.18277
1.036,0.20096
1.04,0.20124
1.044,0.20121
1.048,0.19818
1.052,0.19159
1.056,0.18652
1.06,0.17036
1.064,0.18806
1.068,0.16874
1.072,0.19227
1.076,0.16034
1.08,0.14176
1.084,0.13871
1.088,0.12659
1.092,0.09767
1.096,0.11071
1.1,0.08698
1.104,0.0732
1.108,0.05216
1.112,0.05926
1.116,0.03653
1.12,0.03888
1.124,0.02642
1.128,0.00681
1.132,0.03343
1.136,-0.00457
1.14,-0.01712
1.144,0.01369
1.148,-0.01038
1.152,-0.03704
1.156,-0.04618
1.16,0.00935
1.164,-0.01583
1.168,-0.00028
1.172,-0.01691
1.176,-0.04667
1.18,-0.00794
1.184,-0.02338
1.188,-0.01539
1.192,-0.00652
1.196,-0.03185
1.2,-0.05222
1.204,-0.03339
1.208,-0.02115
1.212,-0.02145
1.216,-0.00297
1.22,-0.01028
1.224,-0.02073
1.228,-0.02187
1.232,-0.04379
1.236,-0.03517
1.24,-0.01317
1.244,-0.0231
1.248,-0.00417
1.252,-0.067
1.256,-0.02445
1.26,-0.04972
1.264,-0.02641
1.268,-0.03347
1.272,-0.00781
1.276,-0.02169
1.28,-0.02048
1.284,-0.02457
1.288,-0.01372
1.292,-0.01424
1.296,-0.0216
1.3,-0.02595
1.304,-0.02232
1.308,-0.00876
1.312,-0.0278
1.316,-0.02177
1.32,0.01828
1.324,-0.00953
1.328,0.02869
1.332,0.00724
1.336,0.02769
1.34,0.01723
1.344,0.04449
1.348,0.05082
1.352,0.06552
1.356,0.05127
1.36,0.07869
1.364,0.06774
1.368,0.07108
1.372,0.04645
1.376,0.01382
1.38,-0.0005
1.384,0.00335
1.388,0.0006
1.392,-0.00738
1.396,-0.00508
1.4,-0.0165
1.404,-0.02607
1.408,-0.01394
1.412,-0.04752
1.416,-0.02759
1.42,-0.03822
1.424,-0.04583
1.428,-0.02793
1.432,-0.00221
1.436,-0.01348
1.44,-0.03991
1.444,0.00706
1.448,-0.00766
1.452,-0.02599
1.456,-0.06227
1.46,-0.05202
1.464,-0.04044
1.468,-0.0452
1.472,-0.03422
1.476,-0.06965
1.48,-0.12401
1.484,-0.14396
1.488,-0.14303
1.492,0.00568
1.496,0.11602
1.5,0.32577
1.504,0.52941
1.508,0.73399
1.512,0.90093
1.516,0.96299
1.52,0.90206
1.524,0.78634
1.528,0.55783
1.532,0.32018
1.536,0.0931
1.54,-0.02108
1.544,-0.13764
1.548,-0.19392
1.552,-0.17222
1.556,-0.13942
1.56,-0.13059
1.564,-0.08721
1.568,-0.06063
1.572,-0.03967
1.576,-0.03921
1.58,-0.00904
1.584,-0.04475
1.588,-0.0286
1.592,-0.0245
1.596,-0.05961
1.6,-0.02535
1.604,-0.02728
1.608,-0.04216
1.612,-0.01035
1.616,-0.04138
1.62,-0.01923
1.624,-0.00389
1.628,-0.02434
1.632,-0.04135
1.636,-0.01803
1.64,-0.05066
1.644,-0.00061
1.648,-0.03278
1.652,-0.00997
1.656,-0.02534
1.66,-0.01179
1.664,-0.05104
1.668,-0.06762
1.672,-0.01444
1.676,-0.04305
1.68,-0.02141
1.684,-0.03011
1.688,0.00077
1.692,-0.03299
1.696,-0.01897
1.7,-0.0118
1.704,-0.0144
1.708,-0.00254
1.712,0.0173
1.716,-0.00086
1.72,0.01538
1.724,0.04299
1.728,0.06102
1.732,0.05978
1.736,0.05618
1.74,0.07729
1.744,0.07403
1.748,0.06395
1.752,0.10118
1.756,0.14273
1.76,0.12361
1.764,0.14015
1.768,0.12408
1.772,0.17507
1.776,0.15664
1.78,0.17209
1.784,0.17526
1.788,0.16981
1.792,0.20241
1.796,0.20261
1.8,0.19315
1.804,0.20872
1.808,0.17644
1.812,0.21374
1.816,0.17593
1.82,0.16732
1.824,0.17673
1.828,0.15116
1.832,0.13765
1.836,0.12281
1.84,0.1109
1.844,0.10541
1.848,0.07535
1.852,0.07889
1.856,0.05133
1.86,0.05997
1.864,0.06898
1.868,0.03009
1.872,0.03717
1.876,0.0263
1.88,0.02188
1.884,0.00562
1.888,-4e-05
1.892,-0.01473
1.896,-0.00982
1.9,0.00498
1.904,-0.00328
1.908,-0.03127
1.912,-0.03839
1.916,-0.01483
1.92,-0.02375
1.924,-0.02936
1.928,-0.03607
1.932,-0.02105
1.936,-0.03027
1.94,-0.01892
1.944,0.00354
1.948,-0.02693
1.952,-0.03201
1.956,-0.02857
1.96,-0.02851
1.964,-0.01674
1.968,-0.02063
1.972,-0.02577
1.976,-0.00383
1.98,-0.02472
1.984,-0.02595
1.988,-0.02102
1.992,-0.03955
1.996,0.00629
2.0,-0.03679
2.004,-0.01478
2.008,-0.03186
2.012,-0.04661
2.016,-0.0073
2.02,-0.03988
2.024,-0.0233
2.028,0.00089
2.032,-0.01682
2.036,-0.01812
2.04,-0.0363
2.044,-0.03401
2.048,-0.04863
2.052,-0.00815
2.056,-0.01899
2.06,-0.00433
2.064,-0.01433
2.068,0.00271
2.072,-0.00449
2.076,0.01157
2.08,0.03265
2.084,0.0384
2.088,0.05567
2.092,0.03215
2.096,0.06587
2.1,0.0717
2.104,0.05307
2.108,0.07002
2.112,0.06609
2.116,0.0629
2.12,0.06718
2.124,0.04873
2.128,0.04473
2.132,0.01314
2.136,-0.00165
2.14,0.00168
2.144,-0.02067
2.148,-0.01434
2.152,0.02272
2.156,-0.02731
2.16,-0.01859
2.164,-0.02475
2.168,-0.04544
2.172,-0.0186
2.176,-0.04514
2.18,-0.01666
2.184,-0.03857
2.188,0.00618
2.192,-0.0348
2.196,-0.02727
2.2,-0.02644
2.204,-0.00839
2.208,-0.02564
2.212,-0.05243
2.216,-0.03816
2.22,-0.03967
2.224,-0.07801
2.228,-0.10619
2.232,-0.1299
2.236,-0.15156
2.24,-0.08355
2.244,0.08075
2.248,0.27406
2.252,0.46208
2.256,0.68695
2.26,0.85288
2.264,0.97215
2.268,0.93693
2.272,0.87118
2.276,0.64351
2.28,0.42338
2.284,0.19772
2.288,0.01453
2.292,-0.1191
2.296,-0.17349
2.3,-0.20395
2.304,-0.177
2.308,-0.10384
2.312,-0.08648
2.316,-0.02254
2.32,-0.03158
2.324,-0.0184
2.328,-0.01122
2.332,-0.02405
2.336,0.00432
2.34,-0.01394
2.344,-0.00859
2.348,-0.02209
2.352,-0.03163
2.356,-0.03066
2.36,-0.03631
2.364,-0.03394
2.368,-0.01757
2.372,-0.02931
2.376,-0.0165
2.38,-0.02061
2.384,-0.03562
2.388,-0.02893
2.392,-0.02537
2.396,0.01286
2.4,0.01294
2.404,-0.04614
2.408,-0.0294
2.412,-0.00662
2.416,-0.03438
2.42,0.0159
2.424,-0.02538
2.428,-0.03344
2.432,-0.02799
2.436,-0.01479
2.44,-0.0198
2.444,0.00248
2.448,-0.01201
2.452,0.00743
2.456,-0.01063
2.46,0.04815
2.464,0.03717
2.468,0.01278
2.472,0.0265
2.476,0.0529
2.48,0.02753
2.484,0.04986
2.488,0.07468
2.492,0.10733
2.496,0.07772
2.5,0.11119
2.504,0.12192
2.508,0.12597
2.512,0.16846
2.516,0.12081
2.52,0.17085
2.524,0.16128
2.528,0.18071
2.532,0.18779
2.536,0.19671
2.54,0.19546
2.544,0.17099
2.548,0.21264
2.552,0.20201
2.556,0.19992
2.56,0.17287
2.564,0.17835
2.568,0.16699
2.572,0.18545
2.576,0.14991
2.58,0.15455
2.584,0.13018
2.588,0.11753
2.592,0.11933
2.596,0.07811
2.6,0.08064
2.604,0.07625
2.608,0.0515
2.612,0.05761
2.616,0.02799
2.62,0.06025
2.624,0.00807
2.628,0.03685
2.632,0.0203
2.636,0.01769
2.64,0.03307
2.644,-0.00235
2.648,0.00895
2.652,0.0057
2.656,-0.03274
2.66,0.00149
2.664,-0.01303
2.668,-0.01444
2.672,-0.00354
2.676,0.00561
2.68,-0.03192
2.684,-0.01091
2.688,-0.00844
2.692,-0.02278
2.696,-0.0109
2.7,-0.01177
2.704,-0.01448
2.708,0.00046
2.712,-0.00351
2.716,-0.0379
2.72,-0.00765
2.724,-0.01653
2.728,-0.03381
2.732,0.01968
2.736,-0.00358
2.74,-0.00304
2.744,-0.00717
2.748,0.00373
2.752,-0.01467
2.756,0.01251
2.76,-0.00703
2.764,-0.00858
2.768,-0.02008
2.772,-0.05161
2.776,-0.02284
2.78,-0.00897
2.784,-0.01593
2.788,-0.01331
2.792,-0.02
2.796,-0.00535
2.8,0.01306
2.804,-0.01188
2.808,-0.00771
2.812,-0.03775
2.816,-0.00211
2.82,-0.00703
2.824,-0.0073
2.828,-0.0002
2.832,-0.03418
2.836,0.00196
2.84,-0.03544
2.844,-0.03235
2.848,-0.03435
2.852,-0.01494
2.856,-0.03295
2.86,-0.00066
2.864,-0.00667
2.868,0.00713
2.872,0.02158
2.876,-0.0048
2.88,-0.01497
2.884,0.00085
2.888,-0.00544
2.892,0.00352
2.896,0.02624
2.9,-0.00503
2.904,0.00735
2.908,0.02527
2.912,0.02035
2.916,0.04973
2.92,0.06498
2.924,0.05891
2.928,0.07296
2.932,0.10606
2.936,0.07129
2.94,0.09259
2.944,0.09101
2.948,0.08328
2.952,0.06332
2.956,0.08954
2.96,0.06819
2.964,0.03311
2.968,-0.00205
2.972,0.00342
2.976,0.01683
2.98,-0.02031
2.984,-0.01615
2.988,-0.00355
2.992,-0.01471
2.996,-0.00157
3.0,-0.02182
3.004,-0.02565
3.008,0.00311
3.012,-0.01173
3.016,0.00117
3.02,0.00245
3.024,-0.04144
3.028,-0.01094
3.032,-0.01765
3.036,-0.01974
3.04,-0.03445
3.044,-0.03442
3.048,-0.02172
3.052,-0.01622
3.056,-0.05127
3.06,-0.08272
3.064,-0.09522
3.068,-0.1262
3.072,-0.0563
3.076,0.06904
3.08,0.22163
3.084,0.43272
3.088,0.65583
3.092,0.8431
3.096,0.96828
3.1,0.98728
3.104,0.89424
3.108,0.71095
3.112,0.47728
3.116,0.27698
3.12,0.04879
3.124,-0.06922
3.128,-0.16885
3.132,-0.16243
3.136,-0.14393
3.14,-0.09283
3.144,-0.08486
3.148,-0.0282
3.152,-0.00816
3.156,0.00425
3.16,-0.01009
3.164,0.01251
3.168,-0.00978
3.172,-0.02154
3.176,0.00203
3.18,0.01563
3.184,0.00829
3.188,-0.02212
3.192,-0.03195
3.196,-0.02153
3.2,0.00504
3.204,-0.01689
3.208,-0.01047
3.212,-0.01574
3.216,0.00232
3.22,-0.00669
3.224,-0.01703
3.228,0.01719
3.232,-0.01366
3.236,-0.01051
3.24,-0.02668
3.244,0.00522
3.248,0.01179
3.252,0.00167
3.256,0.01107
3.26,0.00994
3.264,0.01756
3.268,-0.01588
3.272,0.04482
3.276,0.0102
3.28,0.02492
3.284,0.02275
3.288,0.03633
3.292,0.03403
3.296,0.0196
3.3,0.03492
3.304,0.0712
3.308,0.03449
3.312,0.04853
3.316,0.09488
3.32,0.09324
3.324,0.09512
3.328,0.11062
3.332,0.16027
3.336,0.16654
3.34,0.15998
3.344,0.16194
3.348,0.17982
3.352,0.17075
3.356,0.18346
3.36,0.19683
3.364,0.23003
3.368,0.21471
3.372,0.19381
3.376,0.23797
3.38,0.22466
3.384,0.22556
3.388,0.20724
3.392,0.2233
3.396,0.21993
3.4,0.17885
3.404,0.19466
3.408,0.18111
3.412,0.19568
3.416,0.16358
3.42,0.19062
3.424,0.13828
3.428,0.12903
3.432,0.11951
3.436,0.08028
3.44,0.084
3.444,0.06539
3.448,0.07465
3.452,0.07288
3.456,0.06118
3.46,0.06745
3.464,0.01739
3.468,0.05019
3.472,0.04371
3.476,0.02569
3.48,0.01391
3.484,0.02907
3.488,0.03812
3.492,0.00343
3.496,-0.00205
3.5,0.00545
3.504,0.01244
3.508,-0.0042
3.512,0.00612
3.516,0.01679
3.52,-0.00145
3.524,-0.00353
3.528,0.01927
3.532,0.00228
3.536,0.00843
3.54,0.01195
3.544,0.00665
3.548,0.03306
3.552,-0.00273
3.556,0.02412
3.56,0.01314
3.564,0.02452
3.568,-0.02658
3.572,-0.02087
3.576,0.00319
3.58,0.0234
3.584,-0.0022
3.588,-0.0232
3.592,0.00267
3.596,-0.01039
3.6,-0.00619
3.604,-0.01105
3.608,-0.00016
3.612,0.00624
3.616,0.01973
3.62,-0.00783
3.624,0.00386
3.628,0.00691
3.632,0.0093
3.636,0.03907
3.64,0.01948
3.644,0.0107
3.648,-0.007
3.652,-0.01265
3.656,0.02458
3.66,0.01934
3.664,0.02441
3.668,0.02269
3.672,0.02561
3.676,0.02087
3.68,0.04134
3.684,0.00288
3.688,0.02628
3.692,0.01981
3.696,0.00978
3.7,0.00806
3.704,0.02113
3.708,0.00152
3.712,0.02008
3.716,0.01581
3.72,0.00247
3.724,-0.00224
3.728,0.02191
3.732,0.00133
3.736,0.02275
3.74,0.02575
3.744,-0.00605
3.748,0.02791
3.752,-0.00897
3.756,0.02655
3.76,0.03193
3.764,0.01669
3.768,0.00519
3.772,0.04315
3.776,0.01861
3.78,0.02974
3.784,0.02847
3.788,0.01627
3.792,0.04364
3.796,0.07131
3.8,0.07023
3.804,0.08663
3.808,0.09102
3.812,0.0917
3.816,0.13215
3.82,0.11664
3.824,0.11612
3.828,0.09382
3.832,0.05886
3.836,0.0562
3.84,0.07638
3.844,0.0499
3.848,0.04588
3.852,0.04699
3.856,0.05072
3.86,0.01936
3.864,0.03382
3.868,0.01108
3.872,0.04037
3.876,0.04851
3.88,0.01147
3.884,0.01455
3.888,0.00778
3.892,0.01428
3.896,0.0067
3.9,0.00767
3.904,0.01505
3.908,0.03687
3.912,0.04719
3.916,0.0165
3.92,0.033
3.924,-0.00307
3.928,-0.00841
3.932,0.00642
3.936,-0.00444
3.94,-0.03826
3.944,-0.09676
3.948,-0.09046
3.952,-0.04021
3.956,0.04894
3.96,0.18952
3.964,0.38027
3.968,0.58054
3.972,0.78302
3.976,0.93249
3.98,1.01404
3.984,0.97891
3.988,0.82696
3.992,0.60793
3.996,0.39607
4.0,0.14578
4.004,0.01138
4.008,-0.11959
4.012,-0.16426
4.016,-0.17222
4.02,-0.09994
4.024,-0.07847
4.028,-0.01337
4.032,-0.01358
4.036,0.0001
4.04,0.01011
4.044,0.02157
4.048,0.02944
4.052,0.01393
4.056,0.0442
4.06,0.02771
4.064,0.03266
4.068,0.0191
4.072,0.01598
4.076,0.0191
4.08,0.04274
4.084,0.02332
4.088,0.03404
4.092,0.01335
4.096,0.03421
4.1,0.03618
4.104,0.01374
4.108,0.03513
4.112,0.00717
4.116,0.01844
4.12,0.00365
4.124,0.03346
4.128,0.01946
4.132,0.01648
4.136,0.01582
4.14,0.03286
4.144,0.03571
4.148,0.03757
4.152,0.0518
4.156,0.04395
4.16,0.0353
4.164,0.04835
4.168,0.02116
4.172,0.05797
4.176,0.04835
4.18,0.09435
4.184,0.07109
4.188,0.07796
4.192,0.09388
4.196,0.10271
4.2,0.12307
4.204,0.13386
4.208,0.12685
4.212,0.13631
4.216,0.17621
4.22,0.18626
4.224,0.15702
4.228,0.18254
4.232,0.20096
4.236,0.21149
4.24,0.20712
4.244,0.25277
4.248,0.21712
4.252,0.22168
4.256,0.25102
4.26,0.25514
4.264,0.25281
4.268,0.23953
4.272,0.22248
4.276,0.22122
4.28,0.21485
4.284,0.21906
4.288,0.23492
4.292,0.20296
4.296,0.19526
4.3,0.18902
4.304,0.15248
4.308,0.16487
4.312,0.14239
4.316,0.11906
4.32,0.11093
4.324,0.12366
4.328,0.11229
4.332,0.09343
4.336,0.10723
4.34,0.0932
4.344,0.0397
4.348,0.0471
4.352,0.03984
4.356,0.03319
4.36,0.04126
4.364,0.0317
4.368,0.03125
4.372,0.05071
4.376,0.06084
4.38,0.00017
4.384,0.02178
4.388,0.0228
4.392,0.04462
4.396,0.02356
4.4,0.01549
4.404,0.04486
4.408,0.02373
4.412,0.03426
4.416,0.03827
4.42,0.03994
4.424,-0.00511
4.428,0.04646
4.432,0.01907
4.436,0.02689
4.44,0.04165
4.444,0.01792
4.448,0.02846
4.452,0.03066
4.456,0.00971
4.46,0.05063
4.464,0.03879
4.468,0.03693
4.472,0.04916
4.476,0.04253
4.48,0.0442
4.484,0.03185
4.488,0.0227
4.492,0.01851
4.496,0.01379
4.5,0.00462
4.504,0.04319
4.508,0.03557
4.512,0.0249
4.516,0.04131
4.52,0.01926
4.524,0.04201
4.528,0.02287
4.532,0.04335
4.536,0.00737
4.54,0.04973
4.544,0.0727
4.548,-0.00768
4.552,0.02657
4.556,0.04767
4.56,0.02385
4.564,0.03748
4.568,0.02598
4.572,0.02834
4.576,0.03032
4.58,0.02767
4.584,0.0109
4.588,0.00023
4.592,0.03411
4.596,0.02358
4.6,0.03669
4.604,0.03841
4.608,0.02488
4.612,0.02148
4.616,0.02482
4.62,0.03378
4.624,0.03117
4.628,0.05208
4.632,0.03695
4.636,0.03664
4.64,0.05069
4.644,-0.00119
4.648,0.04843
4.652,0.03963
4.656,0.03717
4.66,0.04372
4.664,0.04883
4.668,0.05221
4.672,0.02635
4.676,0.04676
4.68,0.05277
4.684,0.0725
4.688,0.11192
4.692,0.11638
4.696,0.10599
4.7,0.10455
4.704,0.13655
4.708,0.12012
4.712,0.11029
4.716,0.10749
4.72,0.09043
4.724,0.0777
4.728,0.07421
4.732,0.08967
4.736,0.05698
4.74,0.07955
4.744,0.05209
4.748,0.0658
4.752,0.03231
4.756,0.03734
4.76,0.02325
4.764,0.03807
4.768,0.03133
4.772,0.02401
4.776,0.06639
4.78,0.02668
4.784,0.035
4.788,0.02181
4.792,0.03772
4.796,0.03187
4.8,0.0477
4.804,0.02241
4.808,0.01094
4.812,0.0401
4.816,0.03664
4.82,0.01541
4.824,-0.01296
4.828,-0.04351
4.832,-0.08515
4.836,-0.07354
4.84,-0.05024
4.844,0.11715
4.848,0.25225
4.852,0.46568
4.856,0.71184
4.86,0.85764
4.864,1.00318
4.868,1.00932
4.872,0.94309
4.876,0.76305
4.88,0.53943
4.884,0.31337
4.888,0.10233
4.892,-0.01903
4.896,-0.13579
4.9,-0.12642
4.904,-0.10971
4.908,-0.04512
4.912,-0.03115
4.916,0.00662
4.92,-0.00131
4.924,0.01767
4.928,0.02183
4.932,0.04062
4.936,0.03683
4.94,0.01324
4.944,0.02288
4.948,0.01661
4.952,0.03039
4.956,0.04108
4.96,0.04893
4.964,0.0299
4.968,0.03841
4.972,0.03508
4.976,0.01393
4.98,-0.00985
4.984,0.0248
4.988,0.01878
4.992,0.02957
4.996,0.01549
5.0,0.02109
5.004,0.02935
5.008,0.0171
5.012,0.03471
5.016,0.06014
5.02,0.0541
5.024,0.0454
5.028,0.03518
5.032,0.0372
5.036,0.03421
5.04,0.04366
5.044,0.02497
5.048,0.06635
5.052,0.04868
5.056,0.06305
5.06,0.07961
5.064,0.03651
5.068,0.07838
5.072,0.07695
5.076,0.09337
5.08,0.08428
5.084,0.12693
5.088,0.13545
5.092,0.09256
5.096,0.14447
5.1,0.1707
5.104,0.19833
5.108,0.14936
5.112,0.19311
5.116,0.19292
5.12,0.19619
5.124,0.20783
5.128,0.23518
5.132,0.22194
5.136,0.26528
5.14,0.27092
5.144,0.2603
5.148,0.25499
5.152,0.27665
5.156,0.2367
5.16,0.26166
5.164,0.23314
5.168,0.23703
5.172,0.23029
5.176,0.19274
5.18,0.18871
5.184,0.18193
5.188,0.16099
5.192,0.16526
5.196,0.1451
5.2,0.15701
5.204,0.09966
5.208,0.12037
5.212,0.11901
5.216,0.08539
5.22,0.08072
5.224,0.06485
5.228,0.07438
5.232,0.05946
5.236,0.03734
5.24,0.04496
5.244,0.05214
5.248,0.05031
5.252,0.01669
5.256,0.01099
5.26,0.02914
5.264,0.05419
5.268,0.06294
5.272,0.02376
5.276,0.01156
5.28,0.04576
5.284,0.07299
5.288,0.03096
5.292,0.03496
5.296,0.03527
5.3,0.02829
5.304,0.03067
5.308,0.06976
5.312,0.02495
5.316,0.04481
5.32,0.01538
5.324,0.01783
5.328,0.06097
5.332,0.03008
5.336,0.03652
5.34,0.03217
5.344,0.01962
5.348,0.03242
5.352,0.02662
5.356,0.04065
5.36,0.02778
5.364,0.03462
5.368,0.0269
5.372,0.05031
5.376,0.02529
5.38,0.01749
5.384,0.03609
5.388,0.02738
5.392,0.05173
5.396,0.02435
5.4,0.03974
5.404,0.03302
5.408,0.03138
5.412,0.01785
5.416,0.03172
5.42,0.0153
5.424,0.01941
5.428,0.03312
5.432,0.02638
5.436,0.02495
5.44,0.015
5.444,0.04269
5.448,0.03505
5.452,0.02336
5.456,0.01811
5.46,0.0201
5.464,0.03637
5.468,0.01432
5.472,0.03028
5.476,0.01944
5.48,0.02166
5.484,0.02383
5.488,0.05337
5.492,0.02952
5.496,0.03426
5.5,0.01932
5.504,0.03671
5.508,-3e-05
5.512,0.02472
5.516,0.02985
5.52,0.02509
5.524,0.02325
5.528,0.05651
5.532,0.0299
5.536,0.01659
5.54,0.0611
5.544,0.04389
5.548,0.06553
5.552,0.02783
5.556,0.04336
5.56,0.0981
5.564,0.1116
5.568,0.09521
5.572,0.14152
5.576,0.15632
5.58,0.1396
5.584,0.12653
5.588,0.11137
5.592,0.10074
5.596,0.08632
5.6,0.10824
5.604,0.09561
5.608,0.07573
5.612,0.06466
5.616,0.08038
5.62,0.02962
5.624,0.04778
5.628,0.05349
5.632,0.02582
5.636,0.02456
5.64,0.02809
5.644,0.03435
5.648,0.00318
5.652,0.04816
5.656,0.03411
5.66,0.0314
5.664,0.02627
5.668,0.03406
5.672,0.00264
5.676,0.03105
5.68,0.04163
5.684,0.03275
5.688,0.00272
5.692,-0.00034
5.696,-0.00859
5.7,-0.05595
5.704,-0.06326
5.708,-0.06776
5.712,-0.04757
5.716,0.12958
5.72,0.26847
5.724,0.48845
5.728,0.70146
5.732,0.8891
5.736,0.98128
5.74,1.0086
5.744,0.88575
5.748,0.74666
5.752,0.49545
5.756,0.26069
5.76,0.06398
5.764,-0.06509
5.768,-0.13057
5.772,-0.16286
5.776,-0.09872
5.78,-0.09157
5.784,-0.0474
5.788,-0.00824
5.792,-0.00154
5.796,0.01878
5.8,0.00645
5.804,0.01837
5.808,0.02689
5.812,0.04003
5.816,0.00542
5.82,0.04487
5.824,0.00531
5.828,0.02991
5.832,0.01517
5.836,0.01395
5.84,-0.00031
5.844,0.03211
5.848,0.01646
5.852,0.02138
5.856,0.00715
5.86,0.01812
5.864,0.00841
5.868,0.00545
5.872,0.01399
5.876,0.03542
5.88,0.00949
5.884,-0.01223
5.888,0.00872
5.892,0.01913
5.896,0.02079
5.9,0.0156
5.904,0.0481
5.908,0.02636
5.912,0.03332
5.916,0.0576
5.92,0.02936
5.924,0.05013
5.928,0.03508
5.932,0.06369
5.936,0.05297
5.94,0.09055
5.944,0.04755
5.948,0.08963
5.952,0.09466
5.956,0.07729
5.96,0.12107
5.964,0.12269
5.968,0.13796
5.972,0.14994
5.976,0.14808
5.98,0.15031
5.984,0.1955
5.988,0.20591
5.992,0.19645
5.996,0.23074
6.0,0.20603
6.004,0.24104
6.008,0.22619
6.012,0.28723
6.016,0.26324
6.02,0.23088
6.024,0.21697
6.028,0.23238
6.032,0.23489
6.036,0.22741
6.04,0.21788
6.044,0.20806
6.048,0.20238
6.052,0.21551
6.056,0.1936
6.06,0.14642
6.064,0.16358
6.068,0.15405
6.072,0.11919
6.076,0.11875
6.08,0.12517
6.084,0.08957
6.088,0.0681
6.092,0.06662
6.096,0.08519
6.1,0.0685
6.104,0.05185
6.108,0.07495
6.112,0.03851
6.116,0.03699
6.12,0.0346
6.124,0.04848
6.128,0.00927
6.132,0.0319
6.136,0.02085
6.14,0.01769
6.144,0.00793
6.148,0.01283
6.152,0.02908
6.156,0.03782
6.16,0.01257
6.164,0.00224
6.168,0.00957
6.172,0.00591
6.176,0.02032
6.18,0.01426
6.184,0.00303
6.188,0.0249
6.192,0.00096
6.196,0.00543
6.2,0.01877
6.204,0.02017
6.208,-0.00525
6.212,0.00848
6.216,-0.01505
6.22,-0.00563
6.224,-0.00243
6.228,-0.00573
6.232,0.02233
6.236,0.0082
6.24,-0.01967
6.244,0.00486
6.248,0.00728
6.252,0.01066
6.256,0.02216
6.26,0.01819
6.264,-0.0004
6.268,0.0073
6.272,0.01438
6.276,-0.00707
6.28,0.04555
6.284,0.03778
6.288,0.0444
6.292,0.02327
6.296,0.03116
6.3,0.0729
6.304,0.07375
6.308,0.08116
6.312,0.09392
6.316,0.09575
6.32,0.09973
6.324,0.1046
6.328,0.10131
6.332,0.09651
6.336,0.11664
6.34,0.05894
6.344,0.06129
6.348,0.06742
6.352,0.08807
6.356,0.04593
6.36,0.0201
6.364,0.0231
6.368,0.02584
6.372,0.00118
6.376,0.00873
6.38,0.03008
6.384,0.00491
6.388,0.00532
6.392,0.02436
6.396,0.00633
6.4,0.03268
6.404,0.01507
6.408,0.00875
6.412,0.01566
6.416,0.00035
6.42,-0.0259
6.424,0.00471
6.428,0.00246
6.432,0.01374
6.436,0.00019
6.44,-0.03547
6.444,-0.01245
6.448,-0.05835
6.452,-0.10926
6.456,-0.13615
6.46,-0.05119
6.464,0.01685
6.468,0.20586
6.472,0.38705
6.476,0.61702
6.48,0.80214
6.484,0.95086
6.488,0.97014
6.492,0.95765
6.496,0.77497
6.5,0.54899
6.504,0.34544
6.508,0.08367
6.512,-0.00299
6.516,-0.15577
6.52,-0.15508
6.524,-0.12968
6.528,-0.10456
6.532,-0.06066
6.536,-0.03398
6.54,-0.02625
6.544,0.02326
6.548,-0.0128
6.552,-0.00809
6.556,0.02256
6.56,0.00118
6.564,-0.01135
6.568,-0.01049
6.572,0.01246
6.576,-0.00367
6.58,-0.00068
6.584,0.00515
6.588,-0.0124
6.592,0.0127
6.596,0.03296
6.6,-0.0229
6.604,0.00648
6.608,-0.04475
6.612,0.0122
6.616,0.01447
6.62,-0.02819
6.624,-0.00899
6.628,0.00519
6.632,0.02829
6.636,-0.00212
6.64,0.02258
6.644,0.01561
6.648,0.01218
6.652,0.00829
6.656,0.01101
6.66,0.01492
6.664,0.01458
6.668,0.01252
6.672,0.02796
6.676,0.02836
6.68,0.04548
6.684,0.04206
6.688,0.03185
6.692,0.04822
6.696,0.05924
6.7,0.05561
6.704,0.09539
6.708,0.09477
6.712,0.09615
6.716,0.12876
6.72,0.15716
6.724,0.1118
6.728,0.14866
6.732,0.13423
6.736,0.16459
6.74,0.17009
6.744,0.1914
6.748,0.19366
6.752,0.19725
6.756,0.22125
6.76,0.21599
6.764,0.21662
6.768,0.2403
6.772,0.21159
6.776,0.22765
6.78,0.21399
6.784,0.17532
6.788,0.18221
6.792,0.19851
6.796,0.16391
6.8,0.14045
6.804,0.16383
6.808,0.1611
6.812,0.14897
6.816,0.11632
6.82,0.09315
6.824,0.12264
6.828,0.06937
6.832,0.08752
6.836,0.0725
6.84,0.0439
6.844,0.06919
6.848,0.04285
6.852,0.05058
6.856,0.0393
6.86,0.01588
6.864,0.00443
6.868,-0.00704
6.872,0.01192
6.876,-0.00107
6.88,-0.02171
6.884,0.00102
6.888,0.0218
6.892,0.01479
6.896,0.00756
6.9,0.00103
6.904,-0.01682
6.908,0.01552
6.912,-0.00446
6.916,-0.00566
6.92,-0.05839
6.924,-0.02491
6.928,-0.01297
6.932,-0.0186
6.936,0.00656
6.94,-0.01787
6.944,-0.00428
6.948,-0.01862
6.952,0.0016
6.956,-0.0143
6.96,0.0072
6.964,0.01934
6.968,0.0051
6.972,0.00934
6.976,-0.03698
6.98,-0.01676
6.984,-0.01043
6.988,0.00747
6.992,-0.01472
6.996,-0.00674
7.0,0.0085
7.004,-0.02495
7.008,0.0121
7.012,-0.044
7.016,-0.01472
7.02,-0.02363
7.024,0.01382
7.028,-0.00419
7.032,-0.02411
7.036,-0.03047
7.04,-0.00829
7.044,-0.01382
7.048,0.00256
7.052,-0.01702
7.056,-0.01476
7.06,-0.00082
7.064,0.00136
7.068,-0.01499
7.072,-0.00421
7.076,-0.00583
7.08,-0.02575
7.084,-0.00191
7.088,-0.00673
7.092,0.00893
7.096,0.01227
7.1,0.01367
7.104,0.01406
7.108,0.02572
7.112,0.0292
7.116,0.06358
7.12,0.06461
7.124,0.08844
7.128,0.10827
7.132,0.09485
7.136,0.09461
7.14,0.08967
7.144,0.09772
7.148,0.05789
7.152,0.05708
7.156,0.0381
7.16,0.06236
7.164,0.02331
7.168,0.03547
7.172,0.02212
7.176,-0.00263
7.18,0.01348
7.184,0.00486
7.188,-0.01303
7.192,-0.02972
7.196,-0.00076
7.2,0.00225
7.204,-0.01856
7.208,-0.0202
7.212,-0.01862
7.216,-0.02324
7.22,-0.01281
7.224,-0.02888
7.228,0.00255
7.232,-0.00886
7.236,0.00142
7.24,-0.00579
7.244,-0.03696
7.248,-0.03713
7.252,-0.05725
7.256,-0.10684
7.26,-0.10844
7.264,-0.13111
7.268,-0.11433
7.272,0.01203
7.276,0.18251
7.28,0.38967
7.284,0.61851
7.288,0.78553
7.292,0.92668
7.296,0.96832
7.3,0.9175
7.304,0.76905
7.308,0.52407
7.312,0.28965
7.316,0.10323
7.32,-0.08591
7.324,-0.17073
7.328,-0.18211
7.332,-0.1727
7.336,-0.11886
7.34,-0.04536
7.344,-0.05689
7.348,-0.0492
7.352,0.00099
7.356,-0.03043
7.36,-0.04943
7.364,-0.00877
7.368,-0.01953
7.372,-0.01931
7.376,0.00072
7.38,-0.02673
7.384,-0.01684
7.388,-0.02078
7.392,0.00733
7.396,-0.01013
7.4,-0.03993
7.404,-0.00463
7.408,0.00777
7.412,-0.02066
7.416,-0.02564
7.42,-0.01511
7.424,-0.04015
7.428,-0.01611
7.432,0.00207
7.436,-0.00923
7.44,-0.01555
7.444,-0.05571
7.448,-0.01515
7.452,-0.01829
7.456,-0.00909
7.46,-0.03331
7.464,-0.008
7.468,-0.00276
7.472,-0.01283
7.476,-0.01658
7.48,-0.02055
7.484,0.00593
7.488,0.00992
7.492,0.02278
7.496,0.02169
7.5,0.02319
7.504,0.03127
7.508,0.05642
7.512,0.05824
7.516,0.07543
7.52,0.09313
7.524,0.09909
7.528,0.10173
7.532,0.1045
7.536,0.10888
7.54,0.14715
7.544,0.13828
7.548,0.13747
7.552,0.1651
7.556,0.17169
7.56,0.19562
7.564,0.19702
7.568,0.19937
7.572,0.21299
7.576,0.22249
7.58,0.20468
7.584,0.21937
7.588,0.18986
7.592,0.18741
7.596,0.16159
7.6,0.18419
7.604,0.15496
7.608,0.15436
7.612,0.13675
7.616,0.16139
7.62,0.09393
7.624,0.08444
7.628,0.08128
7.632,0.06282
7.636,0.05642
7.64,0.08268
7.644,0.05022
7.648,0.02807
7.652,0.02382
7.656,0.02431
7.66,0.01138
7.664,0.00071
7.668,0.00196
7.672,0.01878
7.676,-0.02177
7.68,-0.0057
7.684,-0.02191
7.688,-0.01565
7.692,-0.03356
7.696,-0.01787
7.7,-0.00701
7.704,-0.01296
7.708,-0.01285
7.712,-0.04299
7.716,0.00131
7.72,-0.00593
7.724,-0.01609
7.728,-0.00886
7.732,-0.04915
7.736,-0.02268
7.74,-0.03198
7.744,-0.0444
7.748,-0.02107
7.752,-0.0214
7.756,-0.04015
7.76,-0.0194
7.764,-0.01713
7.768,-0.03464
7.772,-0.01271
7.776,-0.00999
7.78,-0.02661
7.784,-0.01364
7.788,-0.02614
7.792,-0.03527
7.796,-0.01364
7.8,-0.02991
7.804,-0.00993
7.808,-0.05564
7.812,-0.02279
7.816,-0.03489
7.82,-0.04407
7.824,-0.04049
7.828,-0.01471
7.832,-0.00642
7.836,-0.02721
7.84,-0.00321
7.844,-0.02361
7.848,-0.03194
7.852,-0.00386
7.856,-0.03714
7.86,-0.02814
7.864,-0.03509
7.868,-0.03589
7.872,-0.00441
7.876,-0.02299
7.88,-0.01122
7.884,-0.03894
7.888,-0.00859
7.892,-0.04046
7.896,-0.03799
7.9,-0.05977
7.904,-0.03417
7.908,-0.05095
7.912,-0.03041
7.916,-0.03334
7.92,-0.03772
7.924,-0.04582
7.928,-0.01533
7.932,-0.01845
7.936,-0.03182
7.94,-0.03323
7.944,-0.01206
7.948,0.00223
7.952,-0.03205
7.956,-0.00974
7.96,-0.02025
7.964,0.00731
7.968,-0.00464
7.972,0.04952
7.976,0.02036
7.98,0.02939
7.984,0.06878
7.988,0.06192
7.992,0.09182
7.996,0.07645
8.0,0.08351
8.004,0.07074
8.008,0.06988
8.012,0.04313
8.016,0.03898
8.02,0.00881
8.024,0.00093
8.028,-0.00035
8.032,-0.04164
8.036,-0.00865
8.04,-0.01928
8.044,-0.00709
8.048,-0.03848
8.052,-0.02536
8.056,-0.04001
8.06,-0.04795
8.064,-0.05255
8.068,-0.02985
8.072,-0.04179
8.076,-0.03375
8.08,-0.03727
8.084,-0.03711
8.088,-0.07064
8.092,-0.04227
8.096,0.00063
8.1,-0.02548
8.104,-0.03074
8.108,-0.02849
8.112,-0.04563
8.116,-0.08379
8.12,-0.10342
8.124,-0.14284
8.128,-0.13402
8.132,-0.06608
8.136,0.0661
8.14,0.25294
8.144,0.43675
8.148,0.66168
8.152,0.83144
8.156,0.94298
8.16,0.98034
8.164,0.86226
8.168,0.65055
8.172,0.41425
8.176,0.20592
8.18,0.04636
8.184,-0.1299
8.188,-0.19028
8.192,-0.19668
8.196,-0.17894
8.2,-0.13128
8.204,-0.08384
8.208,-0.05854
8.212,-0.03927
8.216,-0.031
8.22,-0.03568
8.224,-0.04156
8.228,-0.02634
8.232,-0.03022
8.236,-0.0445
8.24,-0.0384
8.244,-0.0381
8.248,0.00063
8.252,-0.02796
8.256,-0.02664
8.26,-0.0389
8.264,-0.02225
8.268,-0.01708
8.272,-0.01089
8.276,-0.04653
8.28,-0.0245
8.284,-0.02206
8.288,-0.02675
8.292,-0.03244
8.296,-0.02013
8.3,-0.02688
8.304,-0.02031
8.308,-0.01353
8.312,-0.03076
8.316,-0.01622
8.32,-0.00811
8.324,-0.03599
8.328,-0.01454
8.332,-0.05098
8.336,-0.00391
8.34,0.00586
8.344,0.00591
8.348,-0.0254
8.352,0.02241
8.356,0.0074
8.36,-0.00473
8.364,0.02882
8.368,0.02627
8.372,0.06741
8.376,0.06422
8.38,0.07467
8.384,0.07358
8.388,0.08446
8.392,0.13809
8.396,0.13582
8.4,0.10929
8.404,0.14317
8.408,0.15512
8.412,0.13998
8.416,0.16599
8.42,0.2026
8.424,0.18421
8.428,0.15555
8.432,0.17394
8.436,0.19004
8.44,0.18909
8.444,0.1851
8.448,0.15854
8.452,0.15961
8.456,0.14353
8.46,0.16697
8.464,0.13771
8.468,0.13633
8.472,0.11624
8.476,0.14245
8.48,0.10708
8.484,0.09348
8.488,0.09643
8.492,0.07138
8.496,0.04715
8.5,0.07323
8.504,0.04464
8.508,0.02197
8.512,0.01885
8.516,-0.00546
8.52,0.00444
8.524,0.00388
8.528,-0.01148
8.532,0.01609
8.536,-0.02421
8.54,0.01359
8.544,-0.01197
8.548,-0.03107
8.552,-0.03697
8.556,-0.00896
8.56,-0.01361
8.564,-0.01015
8.568,-0.01764
8.572,-0.02418
8.576,-0.02393
8.58,-0.0388
8.584,-0.05315
8.588,-0.01539
8.592,-0.02898
8.596,-0.01567
8.6,-0.03535
8.604,0.00772
8.608,-0.02603
8.612,-0.03844
8.616,-0.04533
8.62,-0.01104
8.624,-0.00486
8.628,-0.01811
8.632,-0.02924
8.636,-0.04141
8.64,-0.0249
8.644,-0.05489
8.648,-0.0359
8.652,-0.02638
8.656,-0.04986
8.66,-0.03695
8.664,-0.01451
8.668,-0.02059
8.672,-0.03122
8.676,-0.03699
8.68,-0.00396
8.684,-0.02838
8.688,-0.02016
8.692,-0.04625
8.696,-0.0237
8.7,-0.02015
8.704,-0.00588
8.708,-0.01371
8.712,-0.02817
8.716,-0.04292
8.72,-0.02426
8.724,-0.0141
8.728,-0.01792
8.732,-0.04381
8.736,-0.02056
8.74,-0.00321
8.744,-0.02036
8.748,-0.04335
8.752,-0.02716
8.756,-0.01678
8.76,-0.00879
8.764,-0.02982
8.768,-0.01061
8.772,-0.02233
8.776,-0.02802
8.78,-0.03591
8.784,0.02267
8.788,0.00441
8.792,0.0279
8.796,0.08307
8.8,0.02994
8.804,0.06503
8.808,0.06963
8.812,0.0699
8.816,0.05035
8.82,0.08516
8.824,0.08304
8.828,0.04244
8.832,0.02569
8.836,0.03687
8.84,0.01922
8.844,0.01246
8.848,0.00651
8.852,-0.02467
8.856,-0.00519
8.86,-0.0299
8.864,-0.03056
8.868,-0.01551
8.872,-0.03509
8.876,0.00565
8.88,-0.01175
8.884,-0.01105
8.888,-0.0292
8.892,-0.02228
8.896,-0.01549
8.9,-0.01055
8.904,-0.017
8.908,-0.00552
8.912,-0.04352
8.916,-0.04532
8.92,-0.00795
8.924,-0.03521
8.928,-0.04194
8.932,-0.07941
8.936,-0.11429
8.94,-0.16407
8.944,-0.11665
8.948,-0.03417
8.952,0.10369
8.956,0.29057
8.96,0.49771
8.964,0.73634
8.968,0.90903
8.972,0.96891
8.976,0.95186
8.98,0.83627
8.984,0.62595
8.988,0.40579
8.992,0.16553
8.996,-0.03204
9.0,-0.12413
9.004,-0.17018
9.008,-0.17703
9.012,-0.14394
9.016,-0.1046
9.02,-0.05034
9.024,-0.03447
9.028,-0.0482
9.032,-0.00888
9.036,-0.01395
9.04,-0.01219
9.044,-0.04144
9.048,-0.03831
9.052,-0.02589
9.056,-0.00984
9.06,-0.03175
9.064,-0.02604
9.068,-0.03976
9.072,-0.03632
9.076,-0.0178
9.08,-0.05835
9.084,-0.03151
9.088,-0.01685
9.092,-0.02306
9.096,-0.00596
9.1,-0.02888
9.104,-0.04542
9.108,-0.02304
9.112,-0.00866
9.116,0.00189
9.12,-0.00707
9.124,-0.00279
9.128,-0.02124
9.132,-0.0048
9.136,0.00482
9.14,-0.02399
9.144,-0.04935
9.148,-0.0183
9.152,0.02518
9.156,0.01773
9.16,0.00989
9.164,0.00128
9.168,0.00542
9.172,0.0158
9.176,0.00703
9.18,0.01615
9.184,0.04204
9.188,0.05833
9.192,0.09389
9.196,0.07597
9.2,0.08411
9.204,0.10442
9.208,0.09565
9.212,0.13403
9.216,0.13178
9.22,0.15979
9.224,0.15544
9.228,0.16941
9.232,0.1842
9.236,0.17229
9.24,0.18377
9.244,0.22525
9.248,0.20432
9.252,0.2036
9.256,0.23174
9.26,0.1718
9.264,0.2179
9.268,0.17788
9.272,0.19018
9.276,0.14843
9.28,0.16571
9.284,0.18145
9.288,0.15274
9.292,0.16144
9.296,0.10889
9.3,0.13438
9.304,0.11764
9.308,0.07017
9.312,0.09942
9.316,0.08882
9.32,0.0705
9.324,0.04231
9.328,0.07832
9.332,0.0166
9.336,0.03781
9.34,0.02084
9.344,-0.01345
9.348,0.02508
9.352,0.01146
9.356,-0.01863
9.36,-0.00126
9.364,-0.00299
9.368,-0.02428
9.372,-0.03166
9.376,-0.02386
9.38,-0.01126
9.384,-0.02417
9.388,-0.01012
9.392,-0.00566
9.396,-0.02497
9.4,0.01049
9.404,0.01264
9.408,0.00786
9.412,-0.01899
9.416,-0.02201
9.42,0.00966
9.424,0.00225
9.428,-0.00146
9.432,-0.00311
9.436,-0.02448
9.44,-0.01406
9.444,-0.03417
9.448,-0.00467
9.452,-0.008
9.456,-0.03237
9.46,-0.00456
9.464,0.00433
9.468,-0.01541
9.472,0.00701
9.476,0.0065
9.48,-0.01627
9.484,-0.00969
9.488,-0.00991
9.492,-0.02172
9.496,0.02848
9.5,-0.00417
9.504,-0.02112
9.508,0.00845
9.512,0.01245
9.516,0.04078
9.52,0.05506
9.524,0.06321
9.528,0.10911
9.532,0.05115
9.536,0.06594
9.54,0.07987
9.544,0.07286
9.548,0.06137
9.552,0.06064
9.556,0.04836
9.56,0.06501
9.564,0.05177
9.568,0.01436
9.572,-0.00199
9.576,-0.01271
9.58,0.02258
9.584,0.004
9.588,-0.01026
9.592,-0.01662
9.596,-0.00939
9.6,0.00497
9.604,-0.00532
9.608,0.00244
9.612,-0.01135
9.616,-0.00857
9.62,-0.03664
9.624,-0.00113
9.628,-0.02563
9.632,-0.00462
9.636,-0.01091
9.64,0.00776
9.644,0.01969
9.648,-0.0093
9.652,-0.01499
9.656,-0.06378
9.66,-0.0987
9.664,-0.13455
9.668,-0.09814
9.672,-0.03133
9.676,0.11599
9.68,0.33307
9.684,0.55606
9.688,0.71717
9.692,0.88515
9.696,0.99069
9.7,0.97206
9.704,0.85231
9.708,0.64467
9.712,0.38662
9.716,0.1773
9.72,0.01644
9.724,-0.1233
9.728,-0.17699
9.732,-0.15009
9.736,-0.13835
9.74,-0.1003
9.744,-0.05855
9.748,-0.02852
9.752,-0.05016
9.756,-0.00726
9.76,-0.01969
9.764,0.00113
9.768,-0.01845
9.772,-0.00941
9.776,-0.02158
9.78,0.01373
9.784,-0.00071
9.788,0.0214
9.792,-0.00458
9.796,-0.00769
9.8,-0.00935
9.804,0.00758
9.808,-0.00595
9.812,-0.024
9.816,-0.01737
9.82,0.01913
9.824,-0.00434
9.828,-0.00095
9.832,0.01039
9.836,-0.01654
9.84,0.0162
9.844,0.00207
9.848,0.00465
9.852,0.0014
9.856,0.01203
9.86,0.03004
9.864,7e-05
9.868,0.0042
9.872,-0.00349
9.876,0.01827
9.88,0.02615
9.884,0.00997
9.888,0.02521
9.892,0.03572
9.896,0.03036
9.9,0.06038
9.904,0.0531
9.908,0.06728
9.912,0.06526
9.916,0.12918
9.92,0.1053
9.924,0.10548
9.928,0.13179
9.932,0.12741
9.936,0.11387
9.94,0.15991
9.944,0.19596
9.948,0.18338
9.952,0.18494
9.956,0.20698
9.96,0.19742
9.964,0.20638
9.968,0.21402
9.972,0.20404
9.976,0.19798
9.98,0.24782
9.984,0.21857
9.988,0.22425
9.992,0.207
9.996,0.20505
