t_seg,ecg_mV
0.0,-0.02664
0.004,-0.02356
0.008,0.05939
0.012,-0.02987
0.016,-0.00582
0.02,0.01293
0.024,-0.01531
0.028,-0.04523
0.032,-0.02126
0.036,-0.00199
0.04,-0.02057
0.044,-0.05553
0.048,0.01816
0.052,-0.03658
0.056,0.00847
0.06,-0.0346
0.064,0.06094
0.068,0.00117
0.072,-0.04031
0.076,0.00213
0.08,-0.00594
0.084,-0.08145
0.088,-0.05253
0.092,0.00905
0.096,-0.09439
0.1,0.03258
0.104,0.01833
0.108,-0.00124
0.112,0.01762
0.116,-0.03263
0.12,-0.04542
0.124,-0.01307
0.128,0.02438
0.132,-0.01772
0.136,-0.06653
0.14,-0.03777
0.144,0.00374
0.148,-0.09368
0.152,0.04766
0.156,-0.03061
0.16,0.01041
0.164,0.04076
0.168,-0.01043
0.172,-0.04897
0.176,-0.01736
0.18,-0.02955
0.184,-0.02382
0.188,0.01878
0.192,-0.00772
0.196,-0.02027
0.2,0.00618
0.204,-0.00106
0.208,-0.04072
0.212,0.01374
0.216,-0.08909
0.22,-0.05964
0.224,-0.02088
0.228,-0.06157
0.232,-0.04655
0.236,-0.03739
0.24,-0.02483
0.244,-0.01574
0.248,-0.04272
0.252,-0.05282
0.256,-0.03134
0.26,0.03984
0.264,-0.0524
0.268,-0.01774
0.272,-0.10508
0.276,-0.02989
0.28,-0.0447
0.284,-0.05838
0.288,0.01028
0.292,-0.02385
0.296,-0.03321
0.3,-0.04638
0.304,-0.04873
0.308,-0.0495
0.312,0.00886
0.316,0.01352
0.32,-0.0817
0.324,-0.01281
0.328,0.01529
0.332,-0.03022
0.336,-0.05604
0.34,-0.02199
0.344,0.00728
0.348,-0.04913
0.352,-0.05414
0.356,0.01582
0.36,-0.02871
0.364,-0.08402
0.368,-0.06468
0.372,-0.06135
0.376,0.00681
0.38,0.00708
0.384,-0.03122
0.388,0.00466
0.392,-0.03701
0.396,-0.01186
0.4,0.03132
0.404,-0.06634
0.408,-0.05655
0.412,0.02949
0.416,-0.00298
0.42,0.02928
0.424,-0.04759
0.428,-0.08016
0.432,0.02197
0.436,-0.0377
0.44,-0.06555
0.444,-0.05697
0.448,0.03214
0.452,0.01472
0.456,-0.11599
0.46,-0.01206
0.464,0.02142
0.468,0.00158
0.472,-0.03586
0.476,-0.05087
0.48,0.01771
0.484,0.02246
0.488,-0.06249
0.492,-0.06
0.496,0.00947
0.5,-0.02937
0.504,0.01678
0.508,0.01837
0.512,-0.02399
0.516,-0.05482
0.52,-0.0269
0.524,-0.07882
0.528,-0.04772
0.532,-0.04233
0.536,-0.02956
0.54,0.02941
0.544,-0.04308
0.548,-0.02463
0.552,-0.00398
0.556,0.00276
0.56,-0.00098
0.564,-0.04792
0.568,0.06383
0.572,0.01659
0.576,-0.01075
0.58,0.01357
0.584,0.03422
0.588,0.07859
0.592,0.03424
0.596,0.079
0.6,0.07908
0.604,0.13891
0.608,0.06075
0.612,-0.01624
0.616,0.04896
0.62,-0.03427
0.624,-0.00261
0.628,-0.00821
0.632,0.0382
0.636,-0.05032
0.64,-0.08786
0.644,-0.00169
0.648,-0.06011
0.652,0.0157
0.656,-0.02557
0.66,-0.01577
0.664,-0.01165
0.668,-0.01748
0.672,-0.03343
0.676,-0.03544
0.68,0.0357
0.684,0.01406
0.688,-0.04983
0.692,0.04212
0.696,-0.03281
0.7,-0.02543
0.704,-0.00057
0.708,-0.07234
0.712,-0.05284
0.716,-0.11091
0.72,-0.11288
0.724,-0.12236
0.728,-0.15181
0.732,-0.06074
0.736,0.16238
0.74,0.28096
0.744,0.57749
0.748,0.71952
0.752,0.90096
0.756,0.98431
0.76,0.91917
0.764,0.80324
0.768,0.52014
0.772,0.32553
0.776,0.04534
0.78,-0.02543
0.784,-0.18844
0.788,-0.18939
0.792,-0.16768
0.796,-0.12995
0.8,-0.10862
0.804,-0.06983
0.808,-0.00438
0.812,-0.01815
0.816,-0.04175
0.82,0.00044
0.824,-0.04954
0.828,-0.02136
0.832,-0.0533
0.836,-0.04026
0.84,-0.03254
0.844,-0.0299
0.848,-0.09442
0.852,-0.06539
0.856,-0.04874
0.86,-0.02405
0.864,-0.02058
0.868,-0.08782
0.872,-0.06652
0.876,-0.03653
0.88,-0.06656
0.884,-0.04397
0.888,-0.03388
0.892,-0.02274
0.896,0.07303
0.9,-0.03651
0.904,0.02707
0.908,-0.07344
0.912,0.01021
0.916,-0.06161
0.92,-0.0417
0.924,-0.03324
0.928,0.01194
0.932,-0.01722
0.936,0.00451
0.94,-0.05841
0.944,0.01955
0.948,0.0492
0.952,-0.02983
0.956,0.02931
0.96,0.07103
0.964,0.00272
0.968,0.06793
0.972,0.0597
0.976,0.03933
0.98,0.05564
0.984,0.09076
0.988,0.08973
0.992,0.14888
0.996,0.11643
1.0,0.11885
1.004,0.10175
1.008,0.15942
1.012,0.13609
1.016,0.10262
1.02,0.26803
1.024,0.23052
1.028,0.22459
1.032,0.15261
1.036,0.20781
1.04,0.20439
1.044,0.21837
1.048,0.15311
1.052,0.17728
1.056,0.20027
1.06,0.15166
1.064,0.15716
1.068,0.09789
1.072,0.12742
1.076,0.10469
1.08,0.17554
1.084,0.11499
1.088,0.12078
1.092,0.10283
1.096,0.10103
1.1,0.08888
1.104,0.01594
1.108,0.03843
1.112,0.07542
1.116,0.03155
1.12,0.01544
1.124,-0.04474
1.128,-0.01397
1.132,-0.03075
1.136,0.05315
1.14,-0.0799
1.144,0.01872
1.148,-0.03782
1.152,-0.05906
1.156,0.01373
1.16,0.02193
1.164,-0.01281
1.168,-0.03717
1.172,-0.01203
1.176,-0.02115
1.18,-0.02902
1.184,-0.06539
1.188,-0.06807
1.192,0.03259
1.196,-0.02636
1.2,0.06041
1.204,0.02348
1.208,-0.10378
1.212,0.0681
1.216,-0.01266
1.22,-0.05201
1.224,-0.06084
1.228,-0.0093
1.232,-0.0581
1.236,0.02637
1.24,-0.07245
1.244,-0.01036
1.248,-0.04869
1.252,-0.07721
1.256,-0.0234
1.26,-0.05232
1.264,-0.02156
1.268,-0.01915
1.272,0.01481
1.276,-0.04726
1.28,0.02619
1.284,0.04034
1.288,-0.07252
1.292,-0.0323
1.296,-0.01001
1.3,-0.05484
1.304,-0.00732
1.308,-0.05146
1.312,-0.02308
1.316,0.00489
1.32,-0.00658
1.324,-0.01537
1.328,-0.0056
1.332,-0.02066
1.336,-0.06996
1.34,-0.00653
1.344,-0.04442
1.348,-0.04862
1.352,-0.09043
1.356,-0.05708
1.36,-0.00952
1.364,-0.00282
1.368,0.02323
1.372,-0.02608
1.376,-0.00488
1.38,0.02512
1.384,-0.0057
1.388,-0.02431
1.392,-0.09188
1.396,0.0077
1.4,-0.00427
1.404,0.03431
1.408,-0.00557
1.412,-0.03119
1.416,-0.00109
1.42,-0.01174
1.424,-0.03483
1.428,-0.0083
1.432,-0.03062
1.436,0.01359
1.44,-0.0571
1.444,-0.04165
1.448,0.01228
1.452,-0.02479
1.456,0.00163
1.46,-0.08248
1.464,-0.08145
1.468,-0.01048
1.472,0.06409
1.476,-0.05065
1.48,-0.03562
1.484,-0.03432
1.488,-0.0338
1.492,-0.02348
1.496,-0.02552
1.5,-0.04835
1.504,-0.0367
1.508,-0.06554
1.512,-0.01855
1.516,-0.05128
1.52,0.01505
1.524,-0.08937
1.528,-0.01479
1.532,-0.04429
1.536,-0.00496
1.54,-0.03182
1.544,0.02428
1.548,-0.04604
1.552,-0.0422
1.556,-0.00326
1.56,-0.02755
1.564,0.04488
1.568,0.08445
1.572,0.114
1.576,0.09587
1.58,0.0745
1.584,0.06495
1.588,0.11606
1.592,0.05962
1.596,0.08108
1.6,0.03629
1.604,0.03393
1.608,0.03936
1.612,0.02876
1.616,0.09566
1.62,0.04369
1.624,0.01506
1.628,-0.04627
1.632,0.04685
1.636,-0.06607
1.64,-0.02709
1.644,0.02427
1.648,-0.04039
1.652,0.0211
1.656,-0.01247
1.66,-0.02422
1.664,-0.03861
1.668,-0.04686
1.672,-0.05939
1.676,-0.07402
1.68,0.02329
1.684,-0.03275
1.688,-0.04464
1.692,0.02703
1.696,-0.05565
1.7,0.00572
1.704,-0.05503
1.708,-0.01569
1.712,-0.1034
1.716,-0.17925
1.72,-0.18534
1.724,-0.08748
1.728,0.08509
1.732,0.33917
1.736,0.55902
1.74,0.72772
1.744,0.86058
1.748,0.99651
1.752,0.91852
1.756,0.78489
1.76,0.59226
1.764,0.39164
1.768,0.14934
1.772,-0.06179
1.776,-0.16318
1.78,-0.21465
1.784,-0.15238
1.788,-0.12429
1.792,-0.16494
1.796,-0.0176
1.8,-0.06108
1.804,-0.06239
1.808,-0.0198
1.812,-0.02827
1.816,-0.02883
1.82,-0.03867
1.824,-0.00701
1.828,-0.00479
1.832,0.03823
1.836,-0.1115
1.84,-0.04184
1.844,0.01766
1.848,0.00591
1.852,0.03183
1.856,0.03733
1.86,0.0411
1.864,-0.04511
1.868,-0.04497
1.872,-0.04503
1.876,-0.06451
1.88,-0.05959
1.884,-0.05837
1.888,-0.02463
1.892,-0.02273
1.896,-0.06379
1.9,-0.05842
1.904,-0.01875
1.908,-0.04922
1.912,-0.02805
1.916,-0.02624
1.92,0.02409
1.924,-0.02296
1.928,0.00077
1.932,-0.00569
1.936,0.0366
1.94,0.05071
1.944,-0.01065
1.948,0.02038
1.952,0.04106
1.956,0.09397
1.96,0.0031
1.964,0.09711
1.968,0.07392
1.972,0.07949
1.976,0.14813
1.98,0.07768
1.984,0.14467
1.988,0.12119
1.992,0.18763
1.996,0.19541
2.0,0.17213
2.004,0.1228
2.008,0.18521
2.012,0.15352
2.016,0.23712
2.02,0.21843
2.024,0.19589
2.028,0.1781
2.032,0.22363
2.036,0.18375
2.04,0.19117
2.044,0.2035
2.048,0.22508
2.052,0.18038
2.056,0.22898
2.06,0.19863
2.064,0.15882
2.068,0.08969
2.072,0.11435
2.076,0.09843
2.08,0.12427
2.084,-0.00244
2.088,0.1197
2.092,0.06842
2.096,0.06709
2.1,0.06926
2.104,-0.01591
2.108,0.03416
2.112,0.07585
2.116,0.02278
2.12,0.02971
2.124,-0.01291
2.128,0.02975
2.132,-0.01938
2.136,-0.00511
2.14,-0.03735
2.144,-0.02682
2.148,-0.065
2.152,-0.06468
2.156,-0.0056
2.16,0.00066
2.164,-0.01499
2.168,-0.00408
2.172,-0.02293
2.176,-0.06273
2.18,0.03247
2.184,0.02224
2.188,0.03742
2.192,-0.01883
2.196,-0.0375
2.2,-0.05159
2.204,0.06592
2.208,0.00156
2.212,-0.02668
2.216,-0.05631
2.22,0.0236
2.224,0.0358
2.228,0.00344
2.232,-0.08537
2.236,-0.03422
2.24,-0.01502
2.244,0.004
2.248,-0.01137
2.252,0.00276
2.256,0.0221
2.26,-0.04178
2.264,-0.00464
2.268,-0.02625
2.272,-0.00638
2.276,0.03012
2.28,-0.01642
2.284,-0.00799
2.288,-0.04242
2.292,0.02757
2.296,-0.01944
2.3,-0.00238
2.304,-0.02001
2.308,-0.01144
2.312,0.04483
2.316,-0.01402
2.32,0.0491
2.324,0.00486
2.328,0.06371
2.332,-0.0282
2.336,-0.04135
2.34,0.02511
2.344,-0.05564
2.348,-0.01216
2.352,-0.06319
2.356,0.0055
2.36,0.001
2.364,0.03617
2.368,0.00135
2.372,0.01428
2.376,-0.01575
2.38,0.01073
2.384,0.04531
2.388,-0.03542
2.392,-0.01483
2.396,-0.03168
2.4,-0.03185
2.404,0.03348
2.408,-0.04864
2.412,0.03657
2.416,-0.09083
2.42,0.0449
2.424,-0.01877
2.428,-0.06798
2.432,0.00275
2.436,0.01296
2.44,-0.04995
2.444,-0.01
2.448,-0.00605
2.452,-0.02471
2.456,-0.03623
2.46,0.04076
2.464,0.0194
2.468,0.00023
2.472,0.06842
2.476,-0.01537
2.48,-0.0131
2.484,-0.03923
2.488,-0.05427
2.492,-0.01849
2.496,-0.01096
2.5,-0.06175
2.504,0.00338
2.508,-0.01917
2.512,-0.01581
2.516,-0.05354
2.52,-0.00306
2.524,0.01379
2.528,0.01447
2.532,0.01577
2.536,0.02349
2.54,0.00799
2.544,-0.03022
2.548,-0.02097
2.552,-0.02642
2.556,-0.01523
2.56,-0.00545
2.564,0.02344
2.568,0.12395
2.572,0.04799
2.576,0.02405
2.58,0.03776
2.584,0.03973
2.588,0.12482
2.592,0.09938
2.596,0.07326
2.6,0.12842
2.604,0.06091
2.608,0.12448
2.612,0.05939
2.616,0.08808
2.62,0.06231
2.624,0.00717
2.628,0.06901
2.632,0.00264
2.636,0.01831
2.64,0.00824
2.644,0.02172
2.648,0.0151
2.652,-0.02938
2.656,0.02382
2.66,-0.05379
2.664,-0.0216
2.668,0.03063
2.672,-0.01772
2.676,-0.03187
2.68,0.00197
2.684,0.0135
2.688,0.02561
2.692,0.02154
2.696,-0.04194
2.7,-0.00357
2.704,0.0223
2.708,0.0556
2.712,-0.00851
2.716,-0.04444
2.72,-0.07388
2.724,-0.12475
2.728,-0.10529
2.732,-0.06331
2.736,-0.01547
2.74,0.1537
2.744,0.35573
2.748,0.67141
2.752,0.78384
2.756,0.89586
2.76,1.03408
2.764,0.90707
2.768,0.78854
2.772,0.55121
2.776,0.29655
2.78,0.14458
2.784,-0.08489
2.788,-0.13011
2.792,-0.15333
2.796,-0.14728
2.8,-0.03101
2.804,-0.02358
2.808,-0.07119
2.812,-0.03492
2.816,-0.04218
2.82,0.0139
2.824,-0.00855
2.828,-0.03297
2.832,0.02141
2.836,-0.01511
2.84,0.0259
2.844,0.02452
2.848,0.0004
2.852,-0.01394
2.856,0.0189
2.86,-0.02196
2.864,0.00501
2.868,0.00221
2.872,0.00635
2.876,0.00921
2.88,-0.03073
2.884,0.01283
2.888,0.0026
2.892,0.00979
2.896,-0.04058
2.9,0.00099
2.904,0.00051
2.908,0.02471
2.912,-0.00457
2.916,0.01595
2.92,0.03737
2.924,0.02231
2.928,-0.03086
2.932,0.08341
2.936,0.02387
2.94,0.05466
2.944,0.00752
2.948,0.06847
2.952,0.03948
2.956,0.05287
2.96,0.04942
2.964,0.04625
2.968,0.07241
2.972,0.10231
2.976,0.11903
2.98,0.08917
2.984,0.1124
2.988,0.1423
2.992,0.09818
2.996,0.17753
3.0,0.16172
3.004,0.14322
3.008,0.13207
3.012,0.22197
3.016,0.20973
3.02,0.22108
3.024,0.18439
3.028,0.24862
3.032,0.24573
3.036,0.21924
3.04,0.26265
3.044,0.20885
3.048,0.25786
3.052,0.19708
3.056,0.22651
3.06,0.24816
3.064,0.23502
3.068,0.2196
3.072,0.19053
3.076,0.14843
3.08,0.14603
3.084,0.22911
3.088,0.18036
3.092,0.18749
3.096,0.13881
3.1,0.11595
3.104,0.08298
3.108,0.07889
3.112,0.08625
3.116,0.16641
3.12,0.12411
3.124,0.11008
3.128,0.14097
3.132,0.06901
3.136,0.13314
3.14,0.11277
3.144,0.14
3.148,0.10919
3.152,0.07085
3.156,0.1163
3.16,0.06573
3.164,0.03216
3.168,0.08397
3.172,0.02786
3.176,0.00509
3.18,0.029
3.184,-0.02726
3.188,0.00198
3.192,0.01841
3.196,-0.04768
3.2,-0.01602
3.204,0.04553
3.208,0.08224
3.212,0.01376
3.216,0.04769
3.22,0.03087
3.224,-0.01395
3.228,0.02909
3.232,-0.03217
3.236,-0.01448
3.24,-0.02428
3.244,-0.0091
3.248,0.00765
3.252,-0.02965
3.256,-0.02273
3.26,-0.06831
3.264,-0.11643
3.268,-0.06067
3.272,-0.05198
3.276,0.12376
3.28,0.26992
3.284,0.58764
3.288,0.7148
3.292,0.94792
3.296,0.97202
3.3,1.00996
3.304,0.8521
3.308,0.62647
3.312,0.42529
3.316,0.19577
3.32,-0.0015
3.324,-0.07729
3.328,-0.13921
3.332,-0.10233
3.336,-0.06146
3.34,-0.02386
3.344,-0.05528
3.348,-0.03329
3.352,0.04138
3.356,-0.01203
3.36,-0.04327
3.364,0.002
3.368,0.03957
3.372,-0.02425
3.376,-0.04127
3.38,0.02464
3.384,0.06843
3.388,-0.00365
3.392,0.02062
3.396,0.02294
3.4,-0.00789
3.404,0.01236
3.408,-0.00584
3.412,0.03731
3.416,-0.0141
3.42,0.01944
3.424,0.03329
3.428,0.0629
3.432,0.01384
3.436,-0.01315
3.44,-0.01532
3.444,0.01495
3.448,-0.01733
3.452,0.00242
3.456,0.04632
3.46,0.02812
3.464,0.07334
3.468,0.09486
3.472,0.0324
3.476,0.06766
3.48,0.037
3.484,0.07798
3.488,0.04029
3.492,-0.00885
3.496,0.08104
3.5,0.08801
3.504,0.05292
3.508,0.09958
3.512,0.11711
3.516,0.10268
3.52,0.21037
3.524,0.12405
3.528,0.12088
3.532,0.13738
3.536,0.17061
3.54,0.18343
3.544,0.21742
3.548,0.1947
3.552,0.23267
3.556,0.17496
3.56,0.24511
3.564,0.2538
3.568,0.21903
3.572,0.24585
3.576,0.15646
3.58,0.21973
3.584,0.24731
3.588,0.20308
3.592,0.23309
3.596,0.2196
3.6,0.23586
3.604,0.1532
3.608,0.2028
3.612,0.2413
3.616,0.18623
3.62,0.16478
3.624,0.15772
3.628,0.15615
3.632,0.12641
3.636,0.1925
3.64,0.04608
3.644,0.10708
3.648,0.09999
3.652,0.0888
3.656,0.05914
3.66,0.02147
3.664,0.12686
3.668,0.00489
3.672,0.00393
3.676,0.06693
3.68,0.00756
3.684,-0.01888
3.688,0.06423
3.692,0.03409
3.696,-0.02507
3.7,0.02519
3.704,0.09598
3.708,-0.04103
3.712,0.05393
3.716,0.05259
3.72,0.06594
3.724,0.02209
3.728,0.05829
3.732,0.10242
3.736,0.07096
3.74,0.05948
3.744,0.06052
3.748,0.08499
3.752,0.15146
3.756,0.06371
3.76,0.17791
3.764,0.06355
3.768,0.1607
3.772,0.07707
3.776,0.10642
3.78,0.04332
3.784,0.10146
3.788,0.09328
3.792,-0.05784
3.796,0.10994
3.8,0.07287
3.804,-0.00204
3.808,0.04217
3.812,0.10638
3.816,0.07316
3.82,0.10076
3.824,0.01787
3.828,0.11568
3.832,-0.02903
3.836,0.0016
3.84,0.01171
3.844,0.06297
3.848,0.10149
3.852,-0.00769
3.856,0.03583
3.86,0.00182
3.864,0.10976
3.868,0.04686
3.872,0.02051
3.876,-0.03182
3.88,-0.06345
3.884,-0.16283
3.888,-0.05535
3.892,0.02297
3.896,0.08514
3.9,0.23779
3.904,0.4713
3.908,0.69891
3.912,0.89275
3.916,0.9783
3.92,1.04387
3.924,0.90096
3.928,0.80649
3.932,0.52278
3.936,0.31469
3.94,0.11331
3.944,-0.01318
3.948,-0.10746
3.952,-0.11087
3.956,-0.13822
3.96,-0.03918
3.964,-0.04715
3.968,0.03752
3.972,-0.02682
3.976,0.06565
3.98,-0.00868
3.984,0.03361
3.988,0.02105
3.992,-0.02793
3.996,-0.0033
4.0,0.04999
4.004,0.03592
4.008,0.06237
4.012,-0.01186
4.016,0.04275
4.02,0.01685
4.024,0.06499
4.028,0.02418
4.032,0.08529
4.036,0.04524
4.04,0.02454
4.044,-0.00161
4.048,-0.01364
4.052,0.10025
4.056,0.01838
4.06,0.01216
4.064,0.06334
4.068,0.07629
4.072,0.08045
4.076,0.02734
4.08,0.01036
4.084,0.01209
4.088,0.05211
4.092,0.05616
4.096,0.0309
4.1,0.05593
4.104,0.07898
4.108,0.0384
4.112,0.09423
4.116,0.06929
4.12,0.07799
4.124,0.06718
4.128,0.08567
4.132,0.14791
4.136,0.10768
4.14,0.17066
4.144,0.1445
4.148,0.17715
4.152,0.11788
4.156,0.22943
4.16,0.19231
4.164,0.16942
4.168,0.21256
4.172,0.29397
4.176,0.23088
4.18,0.25544
4.184,0.2549
4.188,0.22726
4.192,0.29082
4.196,0.20427
4.2,0.26619
4.204,0.1936
4.208,0.2666
4.212,0.20536
4.216,0.17585
4.22,0.18935
4.224,0.2276
4.228,0.2226
4.232,0.2324
4.236,0.10442
4.24,0.17775
4.244,0.15562
4.248,0.17697
4.252,0.16276
4.256,0.14821
4.26,0.1301
4.264,0.10072
4.268,0.0824
4.272,0.07453
4.276,0.06415
4.28,0.08648
4.284,0.07509
4.288,0.02438
4.292,0.0293
4.296,0.11146
4.3,0.04957
4.304,0.039
4.308,0.06081
4.312,0.0494
4.316,0.0229
4.32,0.123
4.324,0.12349
4.328,0.11324
4.332,0.1491
4.336,0.05117
4.34,0.13982
4.344,0.1839
4.348,0.13756
4.352,0.14892
4.356,0.13257
4.36,0.13367
4.364,0.11523
4.368,0.05132
4.372,0.01533
4.376,0.05986
4.38,0.08688
4.384,0.07938
4.388,0.00533
4.392,0.00811
4.396,-0.03677
4.4,0.0855
4.404,0.02925
4.408,0.03935
4.412,0.02103
4.416,0.00176
4.42,0.09013
4.424,0.10013
4.428,0.07853
4.432,0.0672
4.436,-0.00869
4.44,0.06409
4.444,0.09393
4.448,0.03294
4.452,0.00688
4.456,0.02163
4.46,-0.01807
4.464,-0.01557
4.468,-0.03561
4.472,-0.05383
4.476,-0.03295
4.48,0.04886
4.484,0.20165
4.488,0.46605
4.492,0.61259
4.496,0.88703
4.5,1.01147
4.504,0.96031
4.508,0.96136
4.512,0.78523
4.516,0.52021
4.52,0.34921
4.524,0.2009
4.528,-0.01846
4.532,-0.16173
4.536,-0.13126
4.54,-0.14188
4.544,-0.05995
4.548,0.04015
4.552,-0.01936
4.556,0.0738
4.56,0.03597
4.564,-0.01442
4.568,0.02519
4.572,0.08815
4.576,-0.03569
4.58,0.03069
4.584,0.03579
4.588,0.00944
4.592,0.04407
4.596,-0.02643
4.6,0.01939
4.604,0.01297
4.608,-0.03792
4.612,-0.01421
4.616,-0.01582
4.62,-0.03671
4.624,0.02786
4.628,-0.01075
4.632,0.00698
4.636,0.02511
4.64,0.06758
4.644,-0.01083
4.648,0.07282
4.652,0.01743
4.656,-0.00471
4.66,0.08141
4.664,0.03976
4.668,0.01244
4.672,0.07434
4.676,0.03648
4.68,0.07444
4.684,0.05664
4.688,0.08148
4.692,0.08532
4.696,0.06175
4.7,0.04421
4.704,0.16635
4.708,0.18346
4.712,0.17667
4.716,0.17559
4.72,0.21297
4.724,0.23468
4.728,0.1503
4.732,0.20798
4.736,0.20706
4.74,0.1781
4.744,0.28171
4.748,0.22593
4.752,0.27358
4.756,0.16775
4.76,0.24314
4.764,0.24274
4.768,0.217
4.772,0.23289
4.776,0.26749
4.78,0.2261
4.784,0.19949
4.788,0.25054
4.792,0.23673
4.796,0.23539
4.8,0.21569
4.804,0.2382
4.808,0.241
4.812,0.26454
4.816,0.19868
4.82,0.18765
4.824,0.16958
4.828,0.1157
4.832,0.0984
4.836,0.01948
4.84,-0.00475
4.844,-0.02088
4.848,0.00523
4.852,0.18138
4.856,0.3262
4.86,0.56923
4.864,0.78051
4.868,0.96305
4.872,1.0408
4.876,1.00938
4.88,0.92448
4.884,0.70089
4.888,0.48396
4.892,0.3151
4.896,0.10768
4.9,-0.02268
4.904,-0.08013
4.908,-0.123
4.912,-0.09518
4.916,-0.12613
4.92,-0.05475
4.924,-0.02929
4.928,0.00452
4.932,-0.01583
4.936,0.00592
4.94,0.00154
4.944,0.05375
4.948,0.08287
4.952,0.02645
4.956,-0.01717
4.96,0.00446
4.964,0.03395
4.968,0.08855
4.972,0.04225
4.976,0.03436
4.98,0.02713
4.984,0.07852
4.988,0.07114
4.992,-0.0341
4.996,0.00941
5.0,0.03697
5.004,0.08675
5.008,0.02636
5.012,0.01307
5.016,-0.01736
5.02,-0.00532
5.024,0.01151
5.028,-0.01925
5.032,0.03243
5.036,-0.0095
5.04,0.06358
5.044,0.01812
5.048,0.0405
5.052,-0.01397
5.056,0.10168
5.06,0.01781
5.064,0.12607
5.068,0.03
5.072,0.10046
5.076,0.08286
5.08,0.1009
5.084,0.05763
5.088,0.17358
5.092,0.10413
5.096,0.10252
5.1,0.10453
5.104,0.08962
5.108,0.13019
5.112,0.16524
5.116,0.19667
5.12,0.2701
5.124,0.20965
5.128,0.22185
5.132,0.21203
5.136,0.25025
5.14,0.20773
5.144,0.19281
5.148,0.19029
5.152,0.24244
5.156,0.25407
5.16,0.21492
5.164,0.23811
5.168,0.2259
5.172,0.16868
5.176,0.18004
5.18,0.26902
5.184,0.21387
5.188,0.15345
5.192,0.11247
5.196,0.14791
5.2,0.16582
5.204,0.12624
5.208,0.16193
5.212,0.1515
5.216,0.07677
5.22,0.07926
5.224,0.11351
5.228,0.04678
5.232,0.084
5.236,0.05694
5.24,0.09428
5.244,0.04586
5.248,0.05747
5.252,0.0106
5.256,0.06114
5.26,0.02554
5.264,-0.00457
5.268,0.03787
5.272,0.07266
5.276,0.02786
5.28,-0.00951
5.284,0.04214
5.288,0.04761
5.292,0.05933
5.296,0.01706
5.3,0.01163
5.304,-0.00093
5.308,0.01042
5.312,0.02884
5.316,0.04229
5.32,-0.03724
5.324,-0.03669
5.328,0.07257
5.332,0.03445
5.336,0.07613
5.34,0.07643
5.344,0.00921
5.348,0.09452
5.352,0.10413
5.356,0.00939
5.36,0.13932
5.364,0.12493
5.368,0.12525
5.372,0.13923
5.376,0.11423
5.38,0.13684
5.384,0.09883
5.388,0.14892
5.392,0.07819
5.396,0.06675
5.4,0.11708
5.404,0.07947
5.408,0.00558
5.412,0.06892
5.416,0.00028
5.42,0.08068
5.424,0.02931
5.428,0.05108
5.432,-0.00842
5.436,0.00515
5.44,0.00834
5.444,-0.00496
5.448,0.00285
5.452,0.03118
5.456,0.00595
5.46,0.03149
5.464,0.01857
5.468,0.04923
5.472,0.0487
5.476,-0.00139
5.48,0.01858
5.484,0.04802
5.488,-0.00933
5.492,-0.02199
5.496,-0.02788
5.5,-0.03995
5.504,-0.10655
5.508,-0.13192
5.512,-0.03775
5.516,0.1254
5.52,0.24281
5.524,0.45707
5.528,0.64674
5.532,0.86552
5.536,1.04807
5.54,1.03185
5.544,0.93185
5.548,0.68249
5.552,0.51748
5.556,0.19964
5.56,0.11182
5.564,-0.07294
5.568,-0.16045
5.572,-0.13316
5.576,-0.14484
5.58,-0.08825
5.584,-0.03694
5.588,-0.04679
5.592,-0.01032
5.596,0.0147
5.6,0.07065
5.604,0.04234
5.608,-0.01271
5.612,-0.03192
5.616,0.02825
5.62,-0.00471
5.624,-0.02422
5.628,-0.02443
5.632,-0.0203
5.636,0.02926
5.64,0.02076
5.644,0.01167
5.648,0.0281
5.652,0.07743
5.656,-0.09023
5.66,-0.03544
5.664,0.00631
5.668,-0.00722
5.672,-0.00064
5.676,0.06948
5.68,-0.0159
5.684,-0.00486
5.688,0.02799
5.692,-0.01256
5.696,0.04467
5.7,0.00395
5.704,-0.00527
5.708,0.04941
5.712,-0.00071
5.716,0.06695
5.72,0.01758
5.724,0.04416
5.728,0.01392
5.732,0.04593
5.736,0.06821
5.74,0.08124
5.744,0.06813
5.748,-0.00304
5.752,0.07573
5.756,0.09825
5.76,0.16931
5.764,0.1322
5.768,0.0964
5.772,0.13603
5.776,0.13312
5.78,0.18445
5.784,0.15629
5.788,0.22915
5.792,0.19955
5.796,0.1988
5.8,0.19675
5.804,0.28968
5.808,0.23292
5.812,0.2907
5.816,0.24506
5.82,0.21436
5.824,0.19587
5.828,0.21675
5.832,0.20129
5.836,0.23615
5.84,0.25533
5.844,0.1991
5.848,0.17813
5.852,0.17485
5.856,0.13666
5.86,0.1587
5.864,0.17826
5.868,0.13146
5.872,0.13626
5.876,0.10188
5.88,0.05786
5.884,0.11481
5.888,0.0763
5.892,0.03291
5.896,0.05666
5.9,0.06062
5.904,0.06749
5.908,0.06411
5.912,-0.01398
5.916,0.01589
5.92,0.07563
5.924,0.07087
5.928,0.01474
5.932,0.03769
5.936,0.0226
5.94,-0.0128
5.944,0.01692
5.948,-0.0145
5.952,0.01378
5.956,-0.06359
5.96,0.06323
5.964,0.0415
5.968,0.01842
5.972,-0.04166
5.976,-0.04194
5.98,0.04962
5.984,-0.02123
5.988,-0.01494
5.992,-0.02587
5.996,0.00029
6.0,0.00185
6.004,0.03716
6.008,-0.00347
6.012,0.06976
6.016,-0.01376
6.02,-0.04418
6.024,-0.04167
6.028,-0.00395
6.032,0.01171
6.036,0.04057
6.04,0.06247
6.044,0.01249
6.048,0.01304
6.052,0.02328
6.056,0.02181
6.06,0.01875
6.064,-0.01471
6.068,0.08414
6.072,-0.01345
6.076,-0.02152
6.08,0.05734
6.084,-0.03496
6.088,-0.02032
6.092,0.00345
6.096,0.02052
6.1,0.04971
6.104,0.03913
6.108,0.03143
6.112,0.05215
6.116,0.0459
6.12,0.02974
6.124,0.01296
6.128,-0.03865
6.132,-0.007
6.136,0.035
6.14,0.05819
6.144,-0.07051
6.148,0.01318
6.152,-0.00652
6.156,0.03481
6.16,-0.03152
6.164,-0.04517
6.168,0.05703
6.172,0.01345
6.176,0.00865
6.18,0.0185
6.184,0.04199
6.188,0.00296
6.192,0.01876
6.196,-0.01653
6.2,0.02437
6.204,0.0283
6.208,0.03778
6.212,-0.01722
6.216,0.00497
6.22,0.04442
6.224,0.00235
6.228,0.00668
6.232,0.01734
6.236,0.01018
6.24,0.02021
6.244,-0.01542
6.248,0.0025
6.252,0.05191
6.256,-0.01419
6.26,-0.00974
6.264,0.00579
6.268,-0.03829
6.272,0.02788
6.276,-0.02347
6.28,-0.00396
6.284,0.03266
6.288,0.05226
6.292,-0.00739
6.296,0.03907
6.3,0.05044
6.304,0.06247
6.308,0.02356
6.312,0.07915
6.316,0.04368
6.32,0.02273
6.324,0.11163
6.328,0.04483
6.332,0.01971
6.336,0.07085
6.34,0.08944
6.344,0.08249
6.348,0.04965
6.352,0.05062
6.356,0.04382
6.36,0.03749
6.364,0.07197
6.368,-0.0158
6.372,-0.02997
6.376,0.02425
6.38,-0.02857
6.384,-0.03821
6.388,0.01609
6.392,-0.07674
6.396,-0.01804
6.4,-0.00117
6.404,0.02448
6.408,-0.01653
6.412,-0.02034
6.416,-0.06316
6.42,-0.04787
6.424,-0.00223
6.428,-0.06414
6.432,0.01857
6.436,-0.00332
6.44,-0.01324
6.444,-0.03662
6.448,-0.03815
6.452,-0.10896
6.456,-0.0185
6.46,-0.13853
6.464,-0.14843
6.468,-0.12525
6.472,0.08287
6.476,0.30237
6.48,0.51324
6.484,0.69733
6.488,0.88036
6.492,0.96727
6.496,1.00321
6.5,0.88087
6.504,0.65341
6.508,0.41698
6.512,0.21274
6.516,0.05678
6.52,-0.10312
6.524,-0.17455
6.528,-0.18314
6.532,-0.1606
6.536,-0.11256
6.54,-0.09987
6.544,-0.01651
6.548,0.00678
6.552,-0.03463
6.556,-0.10092
6.56,0.00744
6.564,-0.00199
6.568,0.01367
6.572,-0.02923
6.576,-0.08981
6.58,-0.08762
6.584,0.02618
6.588,-0.02334
6.592,-0.06034
6.596,0.00894
6.6,0.01863
6.604,-0.05737
6.608,-0.03188
6.612,0.00967
6.616,-0.01247
6.62,-0.04391
6.624,-0.01257
6.628,-0.12676
6.632,-0.04775
6.636,0.01332
6.64,-0.06612
6.644,-0.02998
6.648,-0.04949
6.652,-0.03656
6.656,0.03904
6.66,-0.0551
6.664,-0.03368
6.668,0.02839
6.672,0.07533
6.676,-0.01882
6.68,-0.02193
6.684,-0.01373
6.688,-0.00932
6.692,-0.04619
6.696,0.02181
6.7,0.07262
6.704,0.02876
6.708,0.04017
6.712,0.11402
6.716,0.09374
6.72,0.06908
6.724,0.14314
6.728,0.07577
6.732,0.15931
6.736,0.10494
6.74,0.11816
6.744,0.13885
6.748,0.20093
6.752,0.22516
6.756,0.14973
6.76,0.17368
6.764,0.22296
6.768,0.17452
6.772,0.19902
6.776,0.24788
6.78,0.1743
6.784,0.17474
6.788,0.11562
6.792,0.15798
6.796,0.14883
6.8,0.12474
6.804,0.16289
6.808,0.15261
6.812,0.14823
6.816,0.08889
6.82,0.11571
6.824,0.07497
6.828,0.10241
6.832,0.09984
6.836,0.04495
6.84,0.035
6.844,0.05128
6.848,0.11274
6.852,0.04618
6.856,-0.001
6.86,0.06012
6.864,0.1052
6.868,-0.03507
6.872,-0.04836
6.876,-0.04338
6.88,-0.02263
6.884,-0.01988
6.888,-0.01973
6.892,0.02279
6.896,-0.02619
6.9,-0.07184
6.904,-0.0735
6.908,-0.00354
6.912,-0.02203
6.916,-0.09735
6.92,-0.07902
6.924,-0.02376
6.928,-0.03488
6.932,-0.00239
6.936,0.0123
6.94,0.04935
6.944,-0.00211
6.948,-0.04016
6.952,-0.05558
6.956,0.01851
6.96,-0.05516
6.964,-0.02967
6.968,-0.09279
6.972,-0.08954
6.976,-0.05255
6.98,-0.04545
6.984,0.00387
6.988,-0.06382
6.992,0.01014
6.996,0.02353
7.0,-0.00722
7.004,-0.06235
7.008,-0.03697
7.012,0.00431
7.016,0.00601
7.02,-0.0086
7.024,-0.06876
7.028,-0.02896
7.032,-0.02651
7.036,0.01799
7.04,-0.03604
7.044,-0.06898
7.048,-0.03291
7.052,0.0303
7.056,-0.00016
7.06,0.02225
7.064,-0.07411
7.068,0.03282
7.072,-0.04945
7.076,0.00195
7.08,-0.04405
7.084,-0.06994
7.088,-0.04784
7.092,-0.0251
7.096,-0.06652
7.1,-0.05452
7.104,-0.02147
7.108,-0.01284
7.112,0.023
7.116,-0.00267
7.12,0.10757
7.124,0.09435
7.128,0.07146
7.132,0.09958
7.136,0.03001
7.14,0.14564
7.144,0.08277
7.148,0.07886
7.152,0.0775
7.156,0.07212
7.16,0.02828
7.164,0.02029
7.168,0.05406
7.172,0.08011
7.176,-0.00273
7.18,-0.01541
7.184,-0.06995
7.188,0.00221
7.192,-0.07777
7.196,-0.05399
7.2,-0.00764
7.204,-0.01189
7.208,-0.07161
7.212,-0.07071
7.216,-0.01591
7.22,-0.03834
7.224,-0.00623
7.228,0.03612
7.232,-0.03608
7.236,-0.08252
7.24,-0.04705
7.244,0.03465
7.248,-0.14306
7.252,-0.06026
7.256,-0.06002
7.26,-0.16825
7.264,-0.12765
7.268,-0.11898
7.272,-0.03869
7.276,0.15878
7.28,0.33607
7.284,0.55385
7.288,0.77464
7.292,0.84537
7.296,0.96622
7.3,0.95536
7.304,0.71788
7.308,0.51909
7.312,0.2724
7.316,0.05947
7.32,-0.0566
7.324,-0.13539
7.328,-0.2089
7.332,-0.2115
7.336,-0.12042
7.34,-0.08725
7.344,-0.08721
7.348,-0.03698
7.352,-0.00442
7.356,-0.02396
7.36,-0.01704
7.364,0.01645
7.368,-0.03388
7.372,-0.05194
7.376,-0.07762
7.38,0.00634
7.384,-0.06521
7.388,-0.03679
7.392,-0.03585
7.396,-0.03294
7.4,-0.04545
7.404,-0.0874
7.408,-0.0104
7.412,-0.03022
7.416,-0.01434
7.42,-0.04625
7.424,0.02125
7.428,-0.02462
7.432,-0.01188
7.436,-0.01468
7.44,-0.01649
7.444,-0.01467
7.448,0.00649
7.452,-0.01768
7.456,-0.02009
7.46,-0.06004
7.464,-0.0136
7.468,0.01038
7.472,0.02204
7.476,-0.03548
7.48,0.00309
7.484,-0.06666
7.488,-0.00481
7.492,-0.01359
7.496,0.01691
7.5,0.01189
7.504,0.02684
7.508,0.08255
7.512,0.03176
7.516,0.02139
7.52,0.08387
7.524,0.07434
7.528,0.04789
7.532,0.10634
7.536,0.11299
7.54,0.16251
7.544,0.11722
7.548,0.16352
7.552,0.17432
7.556,0.11069
7.56,0.19492
7.564,0.24235
7.568,0.14509
7.572,0.15447
7.576,0.16152
7.58,0.18899
7.584,0.17605
7.588,0.15571
7.592,0.16443
7.596,0.1553
7.6,0.17144
7.604,0.15483
7.608,0.097
7.612,0.1631
7.616,0.08333
7.62,0.11617
7.624,0.09382
7.628,0.00354
7.632,-0.00709
7.636,0.06113
7.64,0.06174
7.644,0.04473
7.648,0.05704
7.652,0.01935
7.656,0.06806
7.66,0.01117
7.664,0.0459
7.668,-0.03177
7.672,0.02536
7.676,-0.01709
7.68,0.01731
7.684,-0.02646
7.688,-0.01171
7.692,0.01265
7.696,-0.03191
7.7,-0.07269
7.704,-0.02959
7.708,0.03194
7.712,-0.06169
7.716,-0.03592
7.72,-0.00706
7.724,0.00458
7.728,-0.00174
7.732,-0.00519
7.736,-0.03135
7.74,0.01733
7.744,-0.01911
7.748,0.01004
7.752,-0.06266
7.756,-0.04847
7.76,-0.10173
7.764,-0.04949
7.768,-0.05459
7.772,-0.04184
7.776,0.01122
7.78,-0.06452
7.784,-0.04534
7.788,0.02247
7.792,-0.05525
7.796,0.01182
7.8,0.03032
7.804,-0.0099
7.808,0.02959
7.812,0.02527
7.816,0.01204
7.82,-0.01309
7.824,0.08865
7.828,0.00404
7.832,0.09979
7.836,0.03793
7.84,0.02644
7.844,0.05094
7.848,0.00057
7.852,0.03445
7.856,0.03612
7.86,0.04062
7.864,0.02977
7.868,-0.03099
7.872,0.05521
7.876,0.01251
7.88,0.00505
7.884,-0.03278
7.888,0.03968
7.892,-0.02119
7.896,-0.04934
7.9,-0.01631
7.904,-0.03091
7.908,-0.03016
7.912,0.00024
7.916,-0.00145
7.92,-0.04594
7.924,-0.04569
7.928,0.01276
7.932,-0.05184
7.936,-0.06451
7.94,-0.00166
7.944,-0.05415
7.948,-0.03478
7.952,0.00557
7.956,-0.04967
7.96,-0.08923
7.964,-0.11242
7.968,-0.10162
7.972,-0.19229
7.976,-0.18452
7.98,-0.06196
7.984,0.1094
7.988,0.36794
7.992,0.571
7.996,0.72015
8.0,0.98518
8.004,0.94512
8.008,0.92259
8.012,0.7468
8.016,0.52195
8.02,0.38596
8.024,0.08279
8.028,0.03406
8.032,-0.13123
8.036,-0.19446
8.04,-0.15661
8.044,-0.1025
8.048,-0.13324
8.052,-0.08831
8.056,-0.07916
8.06,-0.08416
8.064,-0.04359
8.068,0.03603
8.072,-0.05704
8.076,-0.09005
8.08,-0.03773
8.084,0.03741
8.088,-0.06168
8.092,-0.02997
8.096,-0.07273
8.1,-0.01857
8.104,0.03213
8.108,0.04151
8.112,-0.02174
8.116,-0.06339
8.12,-0.05439
8.124,-0.0522
8.128,-0.06287
8.132,-0.02443
8.136,-0.02317
8.14,-0.05216
8.144,0.03221
8.148,0.03473
8.152,-0.03975
8.156,-0.03221
8.16,-0.00475
8.164,-0.02966
8.168,-0.03635
8.172,0.01278
8.176,-0.06159
8.18,-0.07466
8.184,-0.02921
8.188,0.0013
8.192,0.01135
8.196,-0.08791
8.2,0.09159
8.204,0.01321
8.208,0.09595
8.212,0.11206
8.216,0.01898
8.22,0.06381
8.224,0.11306
8.228,0.11013
8.232,0.08535
8.236,0.15856
8.24,0.21781
8.244,0.23506
8.248,0.21075
8.252,0.24734
8.256,0.28622
8.26,0.28299
8.264,0.25447
8.268,0.24997
8.272,0.24677
8.276,0.20495
8.28,0.23507
8.284,0.22448
8.288,0.20665
8.292,0.17923
8.296,0.18133
8.3,0.19648
8.304,0.14481
8.308,0.21213
8.312,0.14185
8.316,0.11722
8.32,0.12364
8.324,0.13579
8.328,0.15934
8.332,0.076
8.336,0.09901
8.34,0.09462
8.344,0.04573
8.348,0.0629
8.352,0.10716
8.356,0.04353
8.36,0.00404
8.364,-0.04161
8.368,-0.04376
8.372,-0.02797
8.376,-0.12385
8.38,-0.17196
8.384,-0.00469
8.388,0.09787
8.392,0.21571
8.396,0.37947
8.4,0.5853
8.404,0.85137
8.408,1.00647
8.412,0.93641
8.416,0.96111
8.42,0.74981
8.424,0.55571
8.428,0.26871
8.432,0.17619
8.436,-0.07975
8.44,-0.16551
8.444,-0.22713
8.448,-0.15865
8.452,-0.10747
8.456,-0.10984
8.46,-0.14751
8.464,-0.05833
8.468,-0.01028
8.472,-0.13681
8.476,-0.00407
8.48,-0.0206
8.484,0.00805
8.488,0.00435
8.492,-0.03122
8.496,-0.01503
8.5,0.0059
8.504,-0.04026
8.508,-0.01843
8.512,-0.0508
8.516,-0.04923
8.52,-0.09654
8.524,-0.00873
8.528,0.02289
8.532,-0.0011
8.536,-0.00149
8.54,0.01098
8.544,-0.00778
8.548,-0.03852
8.552,-0.03469
8.556,0.00028
8.56,-0.0053
8.564,-0.09399
8.568,-0.0664
8.572,-0.00689
8.576,0.04391
8.58,-0.02066
8.584,0.009
8.588,0.06766
8.592,-0.06189
8.596,0.08828
8.6,-5e-05
8.604,0.00686
8.608,0.01913
8.612,-0.03805
8.616,0.07423
8.62,0.04405
8.624,0.0503
8.628,0.13138
8.632,0.06279
8.636,0.09321
8.64,0.14195
8.644,0.06886
8.648,0.08282
8.652,0.11759
8.656,0.12966
8.66,0.16854
8.664,0.16696
8.668,0.18064
8.672,0.24263
8.676,0.22267
8.68,0.21077
8.684,0.2762
8.688,0.23873
8.692,0.23362
8.696,0.21812
8.7,0.20767
8.704,0.18947
8.708,0.20234
8.712,0.20863
8.716,0.21885
8.72,0.12059
8.724,0.12258
8.728,0.17094
8.732,0.12219
8.736,0.1103
8.74,0.18022
8.744,0.07711
8.748,0.08854
8.752,0.02656
8.756,0.17236
8.76,-0.04794
8.764,-0.01924
8.768,-0.03208
8.772,0.01539
8.776,0.03548
8.78,-0.00442
8.784,0.02492
8.788,0.01565
8.792,-0.00798
8.796,-0.00667
8.8,-0.01789
8.804,-0.02644
8.808,-0.03245
8.812,0.04702
8.816,0.02396
8.82,-0.02223
8.824,0.0026
8.828,-0.00078
8.832,0.02297
8.836,-0.00939
8.84,0.00041
8.844,-0.04866
8.848,-0.03388
8.852,0.01951
8.856,0.00542
8.86,-0.08112
8.864,-0.04877
8.868,-0.02097
8.872,-0.04747
8.876,-0.0338
8.88,-0.02018
8.884,-0.04018
8.888,-0.03688
8.892,0.00844
8.896,-0.061
8.9,0.04437
8.904,0.04627
8.908,-0.04948
8.912,-0.05432
8.916,-0.03528
8.92,-0.00424
8.924,0.02674
8.928,-0.00386
8.932,0.04108
8.936,0.04076
8.94,-0.0274
8.944,0.00625
8.948,0.011
8.952,-0.0071
8.956,-0.01501
8.96,-0.05746
8.964,-0.06209
8.968,-0.04018
8.972,0.02414
8.976,0.013
8.98,-0.07262
8.984,-0.05085
8.988,-0.03306
8.992,0.0622
8.996,0.01495
9.0,-0.02965
9.004,-0.01313
9.008,-0.02819
9.012,-0.01471
9.016,-0.05266
9.02,-0.00625
9.024,-0.0361
9.028,-0.03647
9.032,-0.00154
9.036,-0.03787
9.04,0.00271
9.044,-0.03108
9.048,0.04885
9.052,-0.03541
9.056,-0.09284
9.06,-0.05917
9.064,-0.00694
9.068,-0.03483
9.072,-0.04249
9.076,0.01666
9.08,-0.04149
9.084,0.05302
9.088,-0.02032
9.092,-0.01864
9.096,-0.00173
9.1,-0.04427
9.104,0.03142
9.108,-0.01622
9.112,0.01376
9.116,-0.00712
9.12,0.02063
9.124,0.04227
9.128,0.00168
9.132,0.01703
9.136,-0.01026
9.14,0.04588
9.144,0.05462
9.148,-0.04327
9.152,-0.03474
9.156,-0.00951
9.16,-0.03935
9.164,-0.00433
9.168,0.0053
9.172,0.02923
9.176,-0.043
9.18,0.05805
9.184,0.05826
9.188,0.00942
9.192,-0.0374
9.196,-0.05044
9.2,0.00518
9.204,-0.01308
9.208,0.04184
9.212,-0.04109
9.216,-0.01794
9.22,-0.00093
9.224,0.02788
9.228,-0.00215
9.232,-0.03273
9.236,-0.00179
9.24,-0.04549
9.244,0.0036
9.248,0.00667
9.252,0.02602
9.256,-0.00881
9.26,0.02328
9.264,0.04061
9.268,-0.04398
9.272,-0.03207
9.276,-0.04505
9.28,-0.02433
9.284,-0.06733
9.288,-0.04634
9.292,0.02648
9.296,-0.03253
9.3,0.01038
9.304,0.02015
9.308,-0.02644
9.312,-0.04914
9.316,-0.00201
9.32,-0.00998
9.324,0.00027
9.328,0.07933
9.332,-0.0593
9.336,-0.02146
9.34,-0.0064
9.344,0.05505
9.348,0.00025
9.352,0.01416
9.356,-0.00132
9.36,-0.04656
9.364,-0.01521
9.368,0.00989
9.372,-0.00585
9.376,-0.02814
9.38,0.02606
9.384,0.09913
9.388,-0.03863
9.392,-0.01621
9.396,-0.00167
9.4,-0.00842
9.404,0.11707
9.408,0.09227
9.412,0.09717
9.416,0.08309
9.42,0.0672
9.424,0.12746
9.428,0.10972
9.432,0.09716
9.436,0.13438
9.44,0.14276
9.444,0.04415
9.448,0.12716
9.452,-0.02066
9.456,0.07426
9.46,0.08616
9.464,0.03418
9.468,0.04139
9.472,0.0735
9.476,-0.04902
9.48,0.06285
9.484,0.02104
9.488,0.04083
9.492,-0.0325
9.496,-0.00136
9.5,0.0351
9.504,0.02963
9.508,-0.03005
9.512,0.02276
9.516,0.00485
9.52,0.02436
9.524,0.0752
9.528,0.06874
9.532,0.02472
9.536,-0.0416
9.54,-0.03067
9.544,0.03827
9.548,-0.04254
9.552,-0.1012
9.556,-0.10566
9.56,-0.07387
9.564,-0.08251
9.568,0.1934
9.572,0.31791
9.576,0.53204
9.58,0.78995
9.584,0.90214
9.588,0.96164
9.592,0.98733
9.596,0.90485
9.6,0.64847
9.604,0.4137
9.608,0.19647
9.612,0.08108
9.616,-0.05343
9.62,-0.18354
9.624,-0.15875
9.628,-0.15954
9.632,-0.06007
9.636,-0.01695
9.64,0.02531
9.644,0.00349
9.648,0.01074
9.652,0.03242
9.656,0.05379
9.66,-0.00554
9.664,-0.01167
9.668,0.02987
9.672,0.01816
9.676,0.04768
9.68,0.0093
9.684,0.06158
9.688,0.08877
9.692,0.02437
9.696,0.03499
9.7,0.05633
9.704,0.01831
9.708,-0.05778
9.712,0.06766
9.716,-0.01821
9.72,-0.04635
9.724,0.02791
9.728,-0.00476
9.732,0.00758
9.736,0.00678
9.74,0.01871
9.744,0.04162
9.748,-0.05355
9.752,-0.04753
9.756,0.0866
9.76,-0.01145
9.764,0.08196
9.768,0.07773
9.772,0.07229
9.776,0.01442
9.78,0.05014
9.784,0.04243
9.788,0.08498
9.792,-0.00167
9.796,0.07415
9.8,0.11612
9.804,0.07664
9.808,0.07909
9.812,0.13425
9.816,0.10278
9.82,0.1223
9.824,0.13678
9.828,0.19183
9.832,0.21708
9.836,0.19679
9.84,0.18228
9.844,0.14731
9.848,0.2333
9.852,0.16944
9.856,0.24509
9.86,0.19377
9.864,0.20956
9.868,0.21945
9.872,0.2833
9.876,0.19846
9.88,0.19925
9.884,0.18622
9.888,0.18029
9.892,0.21595
9.896,0.16111
9.9,0.2083
9.904,0.18479
9.908,0.19903
9.912,0.17223
9.916,0.12812
9.92,0.1451
9.924,0.12425
9.928,0.10078
9.932,0.08642
9.936,0.02083
9.94,0.05553
9.944,0.10259
9.948,0.08294
9.952,0.09815
9.956,0.06567
9.96,-0.01925
9.964,0.07286
9.968,0.0155
9.972,0.01731
9.976,0.00894
9.98,0.04782
9.984,0.02495
9.988,-0.01345
9.992,-0.02281
9.996,0.00992
