t_seg,ecg_mV
0.0,-0.01978
0.004,-0.01322
0.008,-0.02343
0.012,-0.02642
0.016,-0.02816
0.02,-0.02429
0.024,-0.03199
0.028,-0.0165
0.032,-0.00553
0.036,-0.01077
0.04,-0.05719
0.044,-0.0362
0.048,-0.03514
0.052,-0.01732
0.056,-0.05231
0.06,-0.03847
0.064,-0.02315
0.068,-0.0518
0.072,-0.00529
0.076,-0.01009
0.08,-0.03993
0.084,-0.03059
0.088,-0.03118
0.092,-0.03457
0.096,-0.04556
0.1,0.00138
0.104,-0.02013
0.108,-0.04576
0.112,-0.04452
0.116,-0.00298
0.12,-0.04167
0.124,-0.04589
0.128,-0.04831
0.132,0.00092
0.136,-0.04847
0.14,-0.02595
0.144,-0.01832
0.148,-0.04661
0.152,-0.02867
0.156,-0.04445
0.16,-0.04258
0.164,-0.0308
0.168,0.00616
0.172,-0.02725
0.176,-0.02134
0.18,-0.03171
0.184,-0.03766
0.188,0.00264
0.192,-0.04448
0.196,-0.0368
0.2,-0.01394
0.204,-0.04324
0.208,-0.01494
0.212,-0.00985
0.216,-0.0064
0.22,-0.02667
0.224,-0.03465
0.228,-0.02215
0.232,-0.03328
0.236,-0.01482
0.24,-0.01979
0.244,-0.04677
0.248,-0.01174
0.252,-0.01845
0.256,-0.04773
0.26,-0.07933
0.264,-0.01126
0.268,-0.03102
0.272,-0.03394
0.276,-0.03468
0.28,-0.06303
0.284,-0.02581
0.288,-0.0331
0.292,-0.03533
0.296,0.00585
0.3,-0.04137
0.304,-0.01929
0.308,-0.06053
0.312,-0.04382
0.316,-0.00809
0.32,-0.0347
0.324,-0.03373
0.328,-0.03504
0.332,-0.0272
0.336,-0.02623
0.34,-0.02035
0.344,-0.04534
0.348,-0.00474
0.352,-0.00937
0.356,0.00808
0.36,0.00625
0.364,-0.0182
0.368,0.04232
0.372,0.0419
0.376,0.06737
0.38,0.06503
0.384,0.05624
0.388,0.08134
0.392,0.05543
0.396,0.04636
0.4,0.04447
0.404,0.06856
0.408,0.05994
0.412,0.02549
0.416,0.00443
0.42,-0.03347
0.424,0.01158
0.428,-0.01097
0.432,-0.00966
0.436,-0.02331
0.44,-0.02165
0.444,0.00138
0.448,-0.0525
0.452,-0.01703
0.456,-0.02137
0.46,-0.02203
0.464,-0.0519
0.468,-0.04368
0.472,-0.03023
0.476,-0.02186
0.48,-0.02148
0.484,-0.01849
0.488,-0.00993
0.492,-0.02745
0.496,-0.02306
0.5,-0.04843
0.504,-0.01864
0.508,-0.10306
0.512,-0.14872
0.516,-0.13339
0.52,-0.13522
0.524,-0.00541
0.528,0.14318
0.532,0.37012
0.536,0.55782
0.54,0.72294
0.544,0.8856
0.548,0.95607
0.552,0.91477
0.556,0.77775
0.56,0.54926
0.564,0.34207
0.568,0.13702
0.572,-0.02113
0.576,-0.166
0.58,-0.18941
0.584,-0.21508
0.588,-0.1549
0.592,-0.08928
0.596,-0.0656
0.6,-0.04489
0.604,-0.0319
0.608,-0.02319
0.612,-0.028
0.616,-0.007
0.62,-0.02693
0.624,-0.04086
0.628,-0.02156
0.632,-0.00513
0.636,-0.04304
0.64,-0.03092
0.644,-0.03156
0.648,-0.03073
0.652,-0.04629
0.656,-0.02726
0.66,-0.0145
0.664,-0.03708
0.668,-0.03785
0.672,-0.0398
0.676,-0.05192
0.68,-0.03272
0.684,-0.01953
0.688,-0.00315
0.692,-0.0467
0.696,-0.02502
0.7,-0.03794
0.704,-0.02827
0.708,-0.04519
0.712,-0.00907
0.716,-0.01291
0.72,-0.00553
0.724,0.0091
0.728,-0.00604
0.732,-0.00613
0.736,0.01965
0.74,-0.02258
0.744,-0.00538
0.748,0.02493
0.752,0.01371
0.756,0.04954
0.76,0.04664
0.764,0.02989
0.768,0.05648
0.772,0.06231
0.776,0.07727
0.78,0.12218
0.784,0.11813
0.788,0.11815
0.792,0.13576
0.796,0.1346
0.8,0.14861
0.804,0.14612
0.808,0.169
0.812,0.18465
0.816,0.1918
0.82,0.20126
0.824,0.1988
0.828,0.18552
0.832,0.19665
0.836,0.19044
0.84,0.18242
0.844,0.16889
0.848,0.14942
0.852,0.16132
0.856,0.15564
0.86,0.1504
0.864,0.12488
0.868,0.11046
0.872,0.09696
0.876,0.12161
0.88,0.08269
0.884,0.08446
0.888,0.088
0.892,0.04619
0.896,0.0368
0.9,0.02634
0.904,0.02095
0.908,0.0104
0.912,0.00351
0.916,0.01911
0.92,0.00812
0.924,-0.00978
0.928,-0.02272
0.932,-0.01698
0.936,-0.03004
0.94,-0.03586
0.944,-0.00805
0.948,-0.05784
0.952,-0.05484
0.956,-0.03058
0.96,-0.01975
0.964,-0.02126
0.968,-0.05046
0.972,-0.0275
0.976,-0.02001
0.98,-0.02173
0.984,-0.02296
0.988,-0.02226
0.992,-0.05565
0.996,-0.03454
1.0,-0.01515
1.004,-0.0139
1.008,-0.01426
1.012,-0.04997
1.016,-0.03102
1.02,-0.03072
1.024,-0.02232
1.028,-0.03603
1.032,-0.04776
1.036,-0.05123
1.04,-0.02591
1.044,-0.02639
1.048,-0.03803
1.052,-0.03772
1.056,-0.02662
1.06,-0.00786
1.064,-0.02529
1.068,-0.04865
1.072,-0.05637
1.076,-0.02665
1.08,-0.02511
1.084,-0.02626
1.088,-0.06296
1.092,-0.0372
1.096,-0.0233
1.1,-0.0223
1.104,-0.02195
1.108,-0.03489
1.112,-0.02218
1.116,-0.02249
1.12,-0.03327
1.124,-0.02467
1.128,-0.03157
1.132,-0.02091
1.136,-0.00902
1.14,-0.00898
1.144,-0.02444
1.148,-0.03023
1.152,-0.01344
1.156,-0.03923
1.16,-0.02356
1.164,-0.01946
1.168,-0.03253
1.172,-0.03346
1.176,-0.01534
1.18,-0.01635
1.184,-0.04422
1.188,-0.00992
1.192,-0.03494
1.196,-0.04793
1.2,-0.05086
1.204,-0.01737
1.208,-0.01015
1.212,-0.00291
1.216,-0.00257
1.22,-0.04097
1.224,-0.01892
1.228,-0.01712
1.232,-0.01854
1.236,-0.02189
1.24,-0.02619
1.244,-0.04453
1.248,0.02536
1.252,-0.02481
1.256,-0.0225
1.26,-0.03084
1.264,-0.01315
1.268,-0.01852
1.272,-0.0051
1.276,-0.02421
1.28,-0.01309
1.284,0.02449
1.288,0.01556
1.292,0.0072
1.296,0.04454
1.3,0.06497
1.304,0.04678
1.308,0.08359
1.312,0.08516
1.316,0.06378
1.32,0.05336
1.324,0.07742
1.328,0.05984
1.332,0.04087
1.336,0.03722
1.34,0.04655
1.344,0.00426
1.348,-0.0021
1.352,-0.00974
1.356,-0.02761
1.36,-0.0087
1.364,-0.02545
1.368,-0.02985
1.372,-0.02725
1.376,-0.02272
1.38,-0.04018
1.384,-0.0452
1.388,-0.03214
1.392,-0.0274
1.396,-0.00994
1.4,-0.00564
1.404,-0.04464
1.408,-0.04196
1.412,-0.03082
1.416,-0.02486
1.42,0.00317
1.424,-0.01971
1.428,-0.03351
1.432,-0.07416
1.436,-0.08025
1.44,-0.10327
1.444,-0.14097
1.448,-0.08029
1.452,0.05777
1.456,0.20207
1.46,0.44592
1.464,0.6506
1.468,0.81584
1.472,0.94858
1.476,0.97798
1.48,0.84682
1.484,0.68557
1.488,0.44337
1.492,0.21906
1.496,0.01424
1.5,-0.07782
1.504,-0.19634
1.508,-0.19463
1.512,-0.15358
1.516,-0.14492
1.52,-0.06721
1.524,-0.04056
1.528,-0.03303
1.532,-0.00207
1.536,-0.02436
1.54,-0.03571
1.544,-0.00865
1.548,-0.01621
1.552,-0.0296
1.556,-0.03936
1.56,-0.0469
1.564,-0.01805
1.568,-0.03164
1.572,-0.00492
1.576,-0.02475
1.58,0.00087
1.584,-0.01064
1.588,-0.03997
1.592,-0.02365
1.596,-0.017
1.6,-0.01903
1.604,-0.03857
1.608,0.01018
1.612,0.0119
1.616,-0.00267
1.62,0.00246
1.624,-0.00823
1.628,0.01237
1.632,0.01114
1.636,-0.02994
1.64,-0.00621
1.644,-0.01782
1.648,0.00805
1.652,0.00193
1.656,-0.0164
1.66,0.02219
1.664,0.01398
1.668,0.03284
1.672,0.02523
1.676,0.04923
1.68,0.03816
1.684,0.05412
1.688,0.06668
1.692,0.06168
1.696,0.08376
1.7,0.07321
1.704,0.09789
1.708,0.12087
1.712,0.1178
1.716,0.13363
1.72,0.1434
1.724,0.12127
1.728,0.15478
1.732,0.19141
1.736,0.19229
1.74,0.15756
1.744,0.21835
1.748,0.20093
1.752,0.18582
1.756,0.23118
1.76,0.22847
1.764,0.21336
1.768,0.17564
1.772,0.1995
1.776,0.18303
1.78,0.1475
1.784,0.13577
1.788,0.16717
1.792,0.1422
1.796,0.13819
1.8,0.08669
1.804,0.11261
1.808,0.1301
1.812,0.09077
1.816,0.05662
1.82,0.05927
1.824,0.04888
1.828,0.03309
1.832,0.03911
1.836,0.036
1.84,0.00304
1.844,-0.01152
1.848,0.0042
1.852,0.01001
1.856,-0.01858
1.86,-0.00941
1.864,-0.02883
1.868,0.00037
1.872,-0.0347
1.876,0.02117
1.88,-0.04545
1.884,0.00288
1.888,-0.02932
1.892,-0.00726
1.896,-0.02158
1.9,-0.03075
1.904,-0.0104
1.908,-0.02206
1.912,-0.00142
1.916,-0.01052
1.92,-0.02502
1.924,-0.00013
1.928,-0.01373
1.932,-0.03343
1.936,-0.01933
1.94,-0.01972
1.944,-0.0191
1.948,-0.02586
1.952,-0.00101
1.956,-0.00973
1.96,0.01001
1.964,-0.00366
1.968,-0.0072
1.972,-0.00229
1.976,-0.00773
1.98,-0.02333
1.984,-0.00333
1.988,-0.02271
1.992,0.00502
1.996,-0.01842
2.0,-0.00357
2.004,-0.00917
2.008,-0.02093
2.012,0.01136
2.016,-0.0166
2.02,-0.00021
2.024,0.00105
2.028,0.00439
2.032,-0.00694
2.036,-0.01523
2.04,0.00276
2.044,0.00712
2.048,0.02044
2.052,0.01176
2.056,0.041
2.06,0.04644
2.064,0.03733
2.068,0.03896
2.072,0.05068
2.076,0.09336
2.08,0.11682
2.084,0.10407
2.088,0.07853
2.092,0.08012
2.096,0.05142
2.1,0.06069
2.104,0.06348
2.108,0.03915
2.112,0.04106
2.116,0.02479
2.12,0.00169
2.124,0.016
2.128,0.00078
2.132,-0.0137
2.136,0.01793
2.14,-0.02461
2.144,0.00442
2.148,-0.00255
2.152,-0.0171
2.156,-0.00409
2.16,0.00171
2.164,-0.01878
2.168,-0.02871
2.172,0.02434
2.176,-0.00796
2.18,-0.02044
2.184,-0.02166
2.188,-0.02904
2.192,-0.02345
2.196,-0.00852
2.2,-0.01142
2.204,-0.0684
2.208,-0.0857
2.212,-0.10251
2.216,-0.09629
2.22,-0.03237
2.224,0.12096
2.228,0.27149
2.232,0.49103
2.236,0.72502
2.24,0.87274
2.244,0.97946
2.248,0.97645
2.252,0.867
2.256,0.65225
2.26,0.46321
2.264,0.2105
2.268,-0.00603
2.272,-0.10512
2.276,-0.1755
2.28,-0.17822
2.284,-0.1447
2.288,-0.10022
2.292,-0.0658
2.296,-0.01494
2.3,-0.0137
2.304,-0.04003
2.308,0.01305
2.312,-0.02328
2.316,0.00753
2.32,0.01721
2.324,-0.00777
2.328,0.00416
2.332,0.0
2.336,0.01927
2.34,0.00053
2.344,0.00057
2.348,0.01139
2.352,-0.02418
2.356,0.00689
2.36,0.01034
2.364,-0.0073
2.368,-0.00725
2.372,0.00663
2.376,0.0163
2.38,0.0273
2.384,-0.00125
2.388,-0.01006
2.392,0.02573
2.396,-0.00088
2.4,0.01993
2.404,0.01883
2.408,0.03373
2.412,0.01933
2.416,0.04603
2.42,0.01099
2.424,-0.00013
2.428,0.01147
2.432,0.03683
2.436,0.01969
2.44,0.03891
2.444,0.05109
2.448,0.06348
2.452,0.0713
2.456,0.0594
2.46,0.08341
2.464,0.09775
2.468,0.10741
2.472,0.11823
2.476,0.10198
2.48,0.14223
2.484,0.16257
2.488,0.16695
2.492,0.19917
2.496,0.19069
2.5,0.19113
2.504,0.17518
2.508,0.22036
2.512,0.19294
2.516,0.20142
2.52,0.2341
2.524,0.23763
2.528,0.20955
2.532,0.24099
2.536,0.20472
2.54,0.22334
2.544,0.21013
2.548,0.21073
2.552,0.18395
2.556,0.1968
2.56,0.16704
2.564,0.17735
2.568,0.18611
2.572,0.12864
2.576,0.12985
2.58,0.13189
2.584,0.08931
2.588,0.07443
2.592,0.10194
2.596,0.05509
2.6,0.06974
2.604,0.07962
2.608,0.05262
2.612,0.02702
2.616,0.03631
2.62,0.02962
2.624,0.009
2.628,0.0032
2.632,0.04371
2.636,0.0167
2.64,0.00937
2.644,-0.0115
2.648,0.01885
2.652,0.02531
2.656,-0.01364
2.66,0.00778
2.664,0.00222
2.668,0.01335
2.672,0.01128
2.676,-0.00142
2.68,0.02122
2.684,0.00842
2.688,0.00521
2.692,0.00275
2.696,-0.01051
2.7,0.01564
2.704,0.02637
2.708,0.01548
2.712,0.00046
2.716,0.01073
2.72,0.02807
2.724,0.02593
2.728,0.00636
2.732,0.03475
2.736,-0.00683
2.74,0.00115
2.744,-0.00303
2.748,0.02575
2.752,0.0011
2.756,0.03837
2.76,-0.01628
2.764,0.01822
2.768,0.03124
2.772,0.0328
2.776,0.06419
2.78,0.05837
2.784,0.07501
2.788,0.0578
2.792,0.09879
2.796,0.1263
2.8,0.10666
2.804,0.12118
2.808,0.09615
2.812,0.08559
2.816,0.09528
2.82,0.09028
2.824,0.07636
2.828,0.06288
2.832,0.03864
2.836,0.05486
2.84,0.01987
2.844,0.03741
2.848,0.00306
2.852,0.013
2.856,0.02396
2.86,0.02321
2.864,0.03717
2.868,0.03047
2.872,0.01221
2.876,0.02153
2.88,0.02744
2.884,0.00957
2.888,0.01142
2.892,0.00695
2.896,0.03403
2.9,0.02909
2.904,0.01769
2.908,-0.00952
2.912,0.01577
2.916,-0.00458
2.92,-0.04446
2.924,-0.06399
2.928,-0.10763
2.932,-0.11788
2.936,-0.05869
2.94,0.08212
2.944,0.26086
2.948,0.45972
2.952,0.65702
2.956,0.86299
2.96,0.98878
2.964,1.00641
2.968,0.89038
2.972,0.77604
2.976,0.53595
2.98,0.26988
2.984,0.09793
2.988,-0.07135
2.992,-0.14233
2.996,-0.14784
3.0,-0.12194
3.004,-0.07697
3.008,-0.05783
3.012,-0.00222
3.016,-0.00838
3.02,-0.02861
3.024,0.01497
3.028,0.04033
3.032,0.03658
3.036,0.05032
3.04,0.01499
3.044,0.03139
3.048,0.00669
3.052,0.02204
3.056,0.03124
3.06,0.0266
3.064,0.00643
3.068,0.01923
3.072,0.02317
3.076,0.0188
3.08,0.02131
3.084,-0.01099
3.088,0.01983
3.092,0.00762
3.096,0.03179
3.1,0.00199
3.104,0.02336
3.108,0.04172
3.112,0.02259
3.116,0.04458
3.12,0.05991
3.124,0.03902
3.128,0.02323
3.132,0.02508
3.136,0.03325
3.14,0.04238
3.144,-0.00473
3.148,0.06814
3.152,0.04551
3.156,0.06438
3.16,0.07655
3.164,0.05464
3.168,0.07245
3.172,0.11436
3.176,0.10405
3.18,0.10276
3.184,0.10353
3.188,0.12216
3.192,0.14627
3.196,0.13315
3.2,0.17187
3.204,0.20195
3.208,0.16319
3.212,0.21162
3.216,0.2229
3.22,0.21703
3.224,0.23618
3.228,0.236
3.232,0.23062
3.236,0.20363
3.24,0.26561
3.244,0.23684
3.248,0.25847
3.252,0.24683
3.256,0.25301
3.26,0.20803
3.264,0.23375
3.268,0.22897
3.272,0.2251
3.276,0.20284
3.28,0.18832
3.284,0.1905
3.288,0.13162
3.292,0.11492
3.296,0.11531
3.3,0.12466
3.304,0.11866
3.308,0.08609
3.312,0.09701
3.316,0.08539
3.32,0.09413
3.324,0.04733
3.328,0.09124
3.332,0.03351
3.336,0.05361
3.34,0.05662
3.344,0.06475
3.348,0.02661
3.352,0.02052
3.356,0.03314
3.36,0.05651
3.364,0.00862
3.368,0.02561
3.372,0.00382
3.376,0.02615
3.38,0.04199
3.384,0.05246
3.388,0.05177
3.392,0.04734
3.396,0.04515
3.4,0.00599
3.404,0.02152
3.408,0.0313
3.412,0.02825
3.416,0.04012
3.42,0.04386
3.424,0.04035
3.428,0.03726
3.432,0.02643
3.436,0.01746
3.44,0.05397
3.444,0.0368
3.448,0.04859
3.452,0.03297
3.456,0.02554
3.46,0.06556
3.464,0.06033
3.468,0.06067
3.472,0.09372
3.476,0.12898
3.48,0.10614
3.484,0.13114
3.488,0.13671
3.492,0.13388
3.496,0.11682
3.5,0.09257
3.504,0.10718
3.508,0.08782
3.512,0.06475
3.516,0.09036
3.52,0.07152
3.524,0.05376
3.528,0.05523
3.532,0.01951
3.536,0.04732
3.54,0.0401
3.544,0.03131
3.548,0.02214
3.552,0.0044
3.556,0.03199
3.56,0.00903
3.564,0.00887
3.568,0.03817
3.572,0.02862
3.576,0.03956
3.58,0.00355
3.584,0.03032
3.588,0.01775
3.592,0.01023
3.596,0.00816
3.6,0.02162
3.604,0.00233
3.608,-0.00167
3.612,-0.03344
3.616,-0.07158
3.62,-0.09198
3.624,-0.04833
3.628,0.02942
3.632,0.19182
3.636,0.41506
3.64,0.65832
3.644,0.82562
3.648,0.97965
3.652,1.00226
3.656,0.93706
3.66,0.79884
3.664,0.56207
3.668,0.35511
3.672,0.1468
3.676,-0.0273
3.68,-0.09461
3.684,-0.14931
3.688,-0.13816
3.692,-0.0786
3.696,-0.05042
3.7,-0.00332
3.704,0.01628
3.708,0.03867
3.712,0.00149
3.716,0.04417
3.72,0.03696
3.724,0.02718
3.728,0.01322
3.732,0.01772
3.736,0.03782
3.74,0.04287
3.744,0.03314
3.748,0.0428
3.752,0.03267
3.756,0.02815
3.76,0.0517
3.764,0.01797
3.768,0.03473
3.772,0.03629
3.776,0.04921
3.78,0.04535
3.784,0.02169
3.788,0.02519
3.792,0.05401
3.796,0.01258
3.8,0.04236
3.804,0.05298
3.808,0.05005
3.812,0.0596
3.816,0.03534
3.82,0.02572
3.824,0.05687
3.828,0.04218
3.832,0.06303
3.836,0.06867
3.84,0.05327
3.844,0.05545
3.848,0.08369
3.852,0.0888
3.856,0.07367
3.86,0.10502
3.864,0.10575
3.868,0.11252
3.872,0.13357
3.876,0.11964
3.88,0.12508
3.884,0.15954
3.888,0.15863
3.892,0.15494
3.896,0.18593
3.9,0.20844
3.904,0.19689
3.908,0.22486
3.912,0.22977
3.916,0.23252
3.92,0.25411
3.924,0.25746
3.928,0.24893
3.932,0.25977
3.936,0.20995
3.94,0.26532
3.944,0.23186
3.948,0.22682
3.952,0.22582
3.956,0.22165
3.96,0.23219
3.964,0.22638
3.968,0.17881
3.972,0.18907
3.976,0.16904
3.98,0.14731
3.984,0.12445
3.988,0.14803
3.992,0.1079
3.996,0.10082
4.0,0.09724
4.004,0.08585
4.008,0.07676
4.012,0.05885
4.016,0.04466
4.02,0.06117
4.024,0.05157
4.028,0.06197
4.032,0.05009
4.036,0.02342
4.04,0.03802
4.044,0.05448
4.048,0.04673
4.052,0.04035
4.056,0.01446
4.06,0.05947
4.064,0.01808
4.068,0.03981
4.072,0.04014
4.076,0.03418
4.08,0.04201
4.084,0.00642
4.088,0.00796
4.092,0.05109
4.096,0.02215
4.1,0.01883
4.104,0.05149
4.108,0.04064
4.112,0.00231
4.116,0.04725
4.12,0.0421
4.124,0.03037
4.128,0.02369
4.132,0.02647
4.136,0.01471
4.14,0.03076
4.144,0.04274
4.148,0.01779
4.152,0.03698
4.156,0.05729
4.16,0.01935
4.164,0.02273
4.168,0.01766
4.172,0.04751
4.176,0.03989
4.18,0.07019
4.184,0.07764
4.188,0.07684
4.192,0.09371
4.196,0.09201
4.2,0.095
4.204,0.1183
4.208,0.11686
4.212,0.11502
4.216,0.15348
4.22,0.11988
4.224,0.0667
4.228,0.10343
4.232,0.09368
4.236,0.08193
4.24,0.08562
4.244,0.08048
4.248,0.07053
4.252,0.05767
4.256,0.03811
4.26,0.05151
4.264,0.01518
4.268,0.04824
4.272,0.03884
4.276,0.03032
4.28,0.02131
4.284,0.04821
4.288,0.02807
4.292,0.019
4.296,0.00189
4.3,0.01353
4.304,0.01759
4.308,-0.00582
4.312,0.0276
4.316,0.01612
4.32,0.01501
4.324,0.00454
4.328,0.0317
4.332,-0.01209
4.336,-0.03606
4.34,-0.07982
4.344,-0.07111
4.348,-0.03243
4.352,0.06905
4.356,0.3022
4.36,0.4909
4.364,0.65461
4.368,0.88881
4.372,1.00776
4.376,1.01746
4.38,0.91485
4.384,0.7504
4.388,0.53966
4.392,0.30054
4.396,0.08204
4.4,-0.03656
4.404,-0.10667
4.408,-0.12652
4.412,-0.09862
4.416,-0.08668
4.42,-0.0334
4.424,0.02045
4.428,0.00227
4.432,0.01989
4.436,0.0306
4.44,0.03088
4.444,0.01528
4.448,0.03263
4.452,0.03503
4.456,-0.01435
4.46,0.03037
4.464,0.03674
4.468,0.04523
4.472,0.01097
4.476,0.03609
4.48,0.022
4.484,0.03407
4.488,0.04152
4.492,0.0463
4.496,0.0269
4.5,0.0322
4.504,0.02338
4.508,0.0321
4.512,0.03353
4.516,0.02327
4.52,0.04723
4.524,0.04006
4.528,0.04773
4.532,0.04718
4.536,0.04139
4.54,0.01241
4.544,0.03061
4.548,0.03368
4.552,0.03383
4.556,0.05474
4.56,0.05777
4.564,0.05282
4.568,0.07096
4.572,0.07188
4.576,0.04533
4.58,0.06149
4.584,0.09767
4.588,0.09609
4.592,0.11888
4.596,0.11683
4.6,0.12039
4.604,0.15438
4.608,0.16701
4.612,0.18091
4.616,0.1714
4.62,0.20333
4.624,0.23352
4.628,0.22462
4.632,0.21316
4.636,0.21561
4.64,0.24528
4.644,0.23202
4.648,0.2437
4.652,0.23569
4.656,0.26735
4.66,0.23535
4.664,0.25529
4.668,0.21661
4.672,0.22498
4.676,0.21352
4.68,0.20441
4.684,0.18664
4.688,0.19375
4.692,0.17828
4.696,0.16057
4.7,0.16697
4.704,0.14014
4.708,0.15267
4.712,0.13561
4.716,0.09797
4.72,0.09722
4.724,0.12504
4.728,0.06914
4.732,0.05795
4.736,0.08066
4.74,0.04162
4.744,0.06026
4.748,0.04433
4.752,0.02229
4.756,0.05316
4.76,0.02456
4.764,0.05659
4.768,0.04619
4.772,0.02327
4.776,0.01823
4.78,0.0032
4.784,0.03235
4.788,-0.00155
4.792,0.01349
4.796,0.02693
4.8,0.03137
4.804,0.02931
4.808,0.00078
4.812,0.04702
4.816,0.01574
4.82,0.02884
4.824,0.02366
4.828,0.00631
4.832,0.00638
4.836,-0.00182
4.84,0.02101
4.844,0.02804
4.848,0.02662
4.852,0.05231
4.856,0.01533
4.86,-0.00387
4.864,0.01645
4.868,0.00879
4.872,0.00731
4.876,0.00385
4.88,0.0112
4.884,0.04301
4.888,0.03787
4.892,0.01649
4.896,0.01813
4.9,0.02277
4.904,0.02134
4.908,0.01662
4.912,0.02981
4.916,0.00621
4.92,0.0286
4.924,0.02124
4.928,0.03913
4.932,0.03764
4.936,0.02442
4.94,0.02233
4.944,0.06013
4.948,0.04169
4.952,0.04746
4.956,0.07871
4.96,0.09277
4.964,0.08963
4.968,0.09153
4.972,0.09948
4.976,0.12318
4.98,0.08781
4.984,0.11787
4.988,0.11427
4.992,0.11596
4.996,0.08011
5.0,0.08276
5.004,0.0394
5.008,0.08153
5.012,0.04705
5.016,0.03673
5.02,0.02492
5.024,0.03551
5.028,0.0345
5.032,0.0172
5.036,0.04663
5.04,0.03713
5.044,0.01042
5.048,0.03577
5.052,0.02719
5.056,0.02248
5.06,0.04215
5.064,0.01577
5.068,0.03074
5.072,0.01399
5.076,0.00058
5.08,0.03119
5.084,0.01046
5.088,0.00344
5.092,0.03118
5.096,-9e-05
5.1,-0.01879
5.104,-0.08722
5.108,-0.10349
5.112,-0.11434
5.116,0.01745
5.12,0.17947
5.124,0.38907
5.128,0.56437
5.132,0.7835
5.136,0.95413
5.14,1.01013
5.144,0.94759
5.148,0.83809
5.152,0.60868
5.156,0.37972
5.16,0.16475
5.164,0.01575
5.168,-0.09954
5.172,-0.16054
5.176,-0.15385
5.18,-0.12765
5.184,-0.07319
5.188,-0.03315
5.192,-0.01644
5.196,-0.00828
5.2,-0.00045
5.204,0.01522
5.208,0.00922
5.212,0.03377
5.216,0.0195
5.22,-0.01455
5.224,0.00997
5.228,0.00171
5.232,0.02065
5.236,0.00562
5.24,0.00923
5.244,0.00338
5.248,-0.0059
5.252,-0.00992
5.256,0.00503
5.26,0.00394
5.264,0.00404
5.268,-0.00764
5.272,0.01006
5.276,-0.00829
5.28,-0.00171
5.284,0.00459
5.288,0.02992
5.292,0.00118
5.296,0.02728
5.3,0.0379
5.304,-0.00229
5.308,0.00111
5.312,0.02093
5.316,0.03391
5.32,0.03393
5.324,0.04309
5.328,0.03622
5.332,0.02598
5.336,0.05422
5.34,0.04167
5.344,0.05199
5.348,0.06318
5.352,0.07587
5.356,0.04967
5.36,0.0781
5.364,0.11199
5.368,0.12017
5.372,0.16051
5.376,0.13236
5.38,0.18158
5.384,0.17014
5.388,0.19464
5.392,0.20165
5.396,0.18106
5.4,0.21444
5.404,0.1808
5.408,0.21098
5.412,0.2303
5.416,0.24212
5.42,0.24334
5.424,0.25162
5.428,0.21147
5.432,0.23038
5.436,0.20456
5.44,0.2166
5.444,0.19206
5.448,0.19099
5.452,0.17005
5.456,0.16326
5.46,0.15852
5.464,0.15067
5.468,0.14815
5.472,0.13184
5.476,0.12496
5.48,0.0888
5.484,0.08955
5.488,0.06376
5.492,0.05973
5.496,0.06288
5.5,0.03259
5.504,0.04075
5.508,0.04025
5.512,0.05276
5.516,0.01796
5.52,0.05012
5.524,0.01193
5.528,0.03065
5.532,-0.02134
5.536,-0.02291
5.54,0.01512
5.544,0.0319
5.548,0.01025
5.552,-0.00192
5.556,-0.02858
5.56,-0.02431
5.564,-0.00727
5.568,-0.01026
5.572,0.02625
5.576,0.0017
5.58,-0.00281
5.584,0.00504
5.588,0.02889
5.592,0.02055
5.596,-0.00231
5.6,-0.00316
5.604,0.00748
5.608,0.01805
5.612,0.00657
5.616,0.0229
5.62,0.03297
5.624,0.00764
5.628,0.02053
5.632,0.04671
5.636,0.02311
5.64,0.06362
5.644,0.05905
5.648,0.07278
5.652,0.07389
5.656,0.09234
5.66,0.11022
5.664,0.08954
5.668,0.07106
5.672,0.09523
5.676,0.0805
5.68,0.06205
5.684,0.0586
5.688,0.03894
5.692,0.04514
5.696,0.02861
5.7,0.01593
5.704,0.02519
5.708,-0.00818
5.712,-0.01025
5.716,-0.0037
5.72,0.01981
5.724,0.00411
5.728,-0.01667
5.732,0.0005
5.736,0.00179
5.74,-0.01946
5.744,0.01011
5.748,0.01906
5.752,-0.03527
5.756,-0.00948
5.76,-0.01463
5.764,0.02414
5.768,-0.02746
5.772,0.00429
5.776,-0.02629
5.78,-0.0612
5.784,-0.06913
5.788,-0.09992
5.792,-0.09527
5.796,-0.0204
5.8,0.08035
5.804,0.27036
5.808,0.52155
5.812,0.70442
5.816,0.88933
5.82,0.98145
5.824,0.93521
5.828,0.8494
5.832,0.69876
5.836,0.43338
5.84,0.22154
5.844,0.02801
5.848,-0.09362
5.852,-0.16994
5.856,-0.16102
5.86,-0.13174
5.864,-0.07327
5.868,-0.07076
5.872,-0.01811
5.876,0.00052
5.88,0.003
5.884,-0.00257
5.888,-0.01987
5.892,-0.00577
5.896,-0.00737
5.9,0.01935
5.904,-0.00525
5.908,-0.02568
5.912,0.00369
5.916,0.01498
5.92,0.00135
5.924,-0.02307
5.928,-0.02746
5.932,-0.00356
5.936,-0.01262
5.94,0.00272
5.944,-0.01779
5.948,0.00257
5.952,-0.00966
5.956,-0.02197
5.96,-0.01692
5.964,-0.00374
5.968,-0.05636
5.972,0.02144
5.976,-0.00769
5.98,0.00339
5.984,-0.02839
5.988,-0.00141
5.992,0.02419
5.996,-0.00247
6.0,0.02434
6.004,0.05059
6.008,0.0313
6.012,0.04494
6.016,0.04975
6.02,0.00634
6.024,0.04681
6.028,0.05212
6.032,0.0481
6.036,0.04919
6.04,0.068
6.044,0.06229
6.048,0.10754
6.052,0.07375
6.056,0.12784
6.06,0.12923
6.064,0.16545
6.068,0.16743
6.072,0.13613
6.076,0.18645
6.08,0.18252
6.084,0.16355
6.088,0.17855
6.092,0.20124
6.096,0.1962
6.1,0.2078
6.104,0.20114
6.108,0.19904
6.112,0.17338
6.116,0.17098
6.12,0.19046
6.124,0.19963
6.128,0.1574
6.132,0.14308
6.136,0.15746
6.14,0.14901
6.144,0.13616
6.148,0.0999
6.152,0.10038
6.156,0.12592
6.16,0.07696
6.164,0.08539
6.168,0.06068
6.172,0.06229
6.176,0.06232
6.18,0.05707
6.184,0.01323
6.188,0.01839
6.192,0.0314
6.196,0.02101
6.2,-0.00425
6.204,-0.01355
6.208,0.01128
6.212,0.00402
6.216,-0.00393
6.22,-4e-05
6.224,0.00968
6.228,-0.00086
6.232,-0.02025
6.236,-0.00503
6.24,-0.03906
6.244,-0.01104
6.248,-0.01295
6.252,-0.02739
6.256,-0.01714
6.26,0.01784
6.264,0.001
6.268,-0.02442
6.272,-0.02522
6.276,-0.00473
6.28,0.00913
6.284,-0.03562
6.288,-0.02433
6.292,-0.01584
6.296,-0.01512
6.3,-0.00565
6.304,-0.00833
6.308,-0.0217
6.312,-0.02339
6.316,-0.01362
6.32,0.00277
6.324,-0.00169
6.328,-0.04402
6.332,-0.00939
6.336,0.02948
6.34,-0.04025
6.344,-0.0285
6.348,-0.02256
6.352,-0.01104
6.356,-0.00553
6.36,-0.02156
6.364,-0.03797
6.368,-0.01972
6.372,-0.01697
6.376,-0.03626
6.38,-0.02885
6.384,-0.03259
6.388,0.00164
6.392,-0.025
6.396,-0.03485
6.4,0.0282
6.404,-0.04274
6.408,-0.02818
6.412,-0.02253
6.416,-0.06335
6.42,-0.03493
6.424,-0.00431
6.428,-0.01395
6.432,-0.01555
6.436,-0.01463
6.44,-0.02632
6.444,-0.0257
6.448,-0.01287
6.452,-0.01926
6.456,-0.03732
6.46,0.01217
6.464,-0.03527
6.468,0.00781
6.472,-0.02559
6.476,-0.04047
6.48,-0.04087
6.484,-0.02337
6.488,-0.05101
6.492,-0.00193
6.496,-0.02336
6.5,0.01636
6.504,-0.01444
6.508,-0.00972
6.512,-0.02004
6.516,-0.03168
6.52,-0.01044
6.524,-0.03766
6.528,-0.03259
6.532,0.00116
6.536,-0.02126
6.54,0.01142
6.544,0.01766
6.548,0.01823
6.552,0.04973
6.556,0.05712
6.56,0.04727
6.564,0.01973
6.568,0.09864
6.572,0.10264
6.576,0.0616
6.58,0.05243
6.584,0.05222
6.588,0.04519
6.592,0.04619
6.596,0.0085
6.6,0.02206
6.604,0.03337
6.608,0.01835
6.612,0.00805
6.616,0.01119
6.62,-0.03697
6.624,-0.0098
6.628,-0.03085
6.632,0.00389
6.636,-0.02818
6.64,0.00532
6.644,-0.03623
6.648,0.00898
6.652,-0.02933
6.656,-0.0348
6.66,-0.01801
6.664,-0.01639
6.668,-0.00944
6.672,-0.0268
6.676,-0.01661
6.68,-0.02138
6.684,-0.02929
6.688,-0.03101
6.692,-0.08293
6.696,-0.11738
6.7,-0.126
6.704,-0.10861
6.708,-0.03983
6.712,0.11556
6.716,0.31304
6.72,0.50065
6.724,0.70835
6.728,0.88144
6.732,0.98937
6.736,0.97582
6.74,0.82117
6.744,0.63319
6.748,0.37415
6.752,0.17333
6.756,-0.02355
6.76,-0.09496
6.764,-0.18532
6.768,-0.18038
6.772,-0.17455
6.776,-0.10215
6.78,-0.09776
6.784,-0.05108
6.788,-0.04289
6.792,-0.0654
6.796,0.00288
6.8,-0.02974
6.804,-0.00552
6.808,-0.03258
6.812,-0.02282
6.816,-0.02381
6.82,-0.0538
6.824,-0.03976
6.828,-0.0147
6.832,-0.00981
6.836,-0.04762
6.84,-0.01306
6.844,-0.02645
6.848,-0.03754
6.852,-0.03084
6.856,-0.01841
6.86,-0.03441
6.864,-0.06048
6.868,-0.0122
6.872,-0.00971
6.876,-0.03618
6.88,0.00087
6.884,0.00195
6.888,-0.02543
6.892,-0.01873
6.896,0.01318
6.9,0.00525
6.904,-0.02266
6.908,-0.02283
6.912,0.00173
6.916,-0.03475
6.92,0.00979
6.924,0.00927
6.928,0.01145
6.932,0.03319
6.936,0.02108
6.94,0.04154
6.944,0.01126
6.948,0.04602
6.952,0.06376
6.956,0.08095
6.96,0.07296
6.964,0.09432
6.968,0.11174
6.972,0.10173
6.976,0.15786
6.98,0.14732
6.984,0.14951
6.988,0.14554
6.992,0.15852
6.996,0.20394
7.0,0.18427
7.004,0.18145
7.008,0.19162
7.012,0.15167
7.016,0.19362
7.02,0.18534
7.024,0.20053
7.028,0.15374
7.032,0.16261
7.036,0.16562
7.04,0.18882
7.044,0.15114
7.048,0.13404
7.052,0.13083
7.056,0.14021
7.06,0.0939
7.064,0.10975
7.068,0.08204
7.072,0.06694
7.076,0.05062
7.08,0.03404
7.084,0.0522
7.088,0.01229
7.092,0.0279
7.096,0.00479
7.1,0.01593
7.104,0.00792
7.108,-0.00274
7.112,0.0094
7.116,-0.01205
7.12,-0.02583
7.124,0.01538
7.128,-0.02704
7.132,-0.0182
7.136,-0.01367
7.14,-0.05367
7.144,-0.0515
7.148,-0.0342
7.152,-0.02439
7.156,-0.03323
7.16,-0.04858
7.164,-0.01445
7.168,-0.03288
7.172,-0.04335
7.176,-0.03273
7.18,-0.04625
7.184,-0.02705
7.188,-0.04188
7.192,-0.03518
7.196,-0.03311
7.2,-0.01838
7.204,-0.05032
7.208,-0.05094
7.212,-0.00809
7.216,-0.00401
7.22,-0.00912
7.224,0.00884
7.228,0.01865
7.232,0.01595
7.236,0.04783
7.24,0.0571
7.244,0.05318
7.248,0.05947
7.252,0.05101
7.256,0.08171
7.26,0.08293
7.264,0.04683
7.268,0.06656
7.272,0.0371
7.276,0.03955
7.28,0.01906
7.284,0.00194
7.288,-0.00484
7.292,0.01259
7.296,-0.01679
7.3,-0.04746
7.304,-0.03085
7.308,-0.0071
7.312,-0.03579
7.316,0.00252
7.32,-0.02633
7.324,-0.03511
7.328,-0.00891
7.332,-0.03737
7.336,-0.02129
7.34,-0.02586
7.344,-0.03024
7.348,-0.01457
7.352,-0.0139
7.356,-0.03866
7.36,-0.01416
7.364,-0.03289
7.368,-0.04368
7.372,-0.05219
7.376,-0.10057
7.38,-0.14834
7.384,-0.15898
7.388,-0.14907
7.392,-0.03093
7.396,0.10255
7.4,0.31077
7.404,0.5261
7.408,0.7385
7.412,0.88737
7.416,0.99497
7.42,0.92801
7.424,0.7766
7.428,0.56214
7.432,0.3493
7.436,0.12379
7.44,-0.05988
7.444,-0.14416
7.448,-0.18157
7.452,-0.20143
7.456,-0.18334
7.46,-0.1303
7.464,-0.07244
7.468,-0.05003
7.472,-0.03189
7.476,-0.04477
7.48,-0.04272
7.484,-0.04615
7.488,-0.04367
7.492,-0.02814
7.496,-0.02188
7.5,-0.04148
7.504,-0.04007
7.508,-0.05173
7.512,-0.05855
7.516,-0.01717
7.52,-0.02793
7.524,-0.03226
7.528,-0.01977
7.532,-0.01808
7.536,-0.04384
7.54,-0.02612
7.544,-0.01271
7.548,-0.0395
7.552,-0.03283
7.556,-0.05766
7.56,-0.04129
7.564,-0.0339
7.568,-0.04782
7.572,-0.02576
7.576,-0.02914
7.58,-0.02875
7.584,-0.02189
7.588,-0.00615
7.592,-0.01453
7.596,-0.02067
7.6,0.00894
7.604,-0.01265
7.608,-0.00657
7.612,0.03348
7.616,0.03727
7.62,0.00167
7.624,0.05716
7.628,0.04835
7.632,0.03162
7.636,0.07082
7.64,0.08842
7.644,0.09983
7.648,0.09353
7.652,0.09836
7.656,0.12536
7.66,0.13931
7.664,0.15125
7.668,0.15246
7.672,0.15108
7.676,0.17361
7.68,0.18343
7.684,0.13719
7.688,0.21332
7.692,0.18774
7.696,0.20245
7.7,0.19456
7.704,0.19234
7.708,0.17001
7.712,0.16716
7.716,0.16093
7.72,0.18671
7.724,0.1605
7.728,0.15076
7.732,0.14009
7.736,0.10108
7.74,0.10816
7.744,0.11204
7.748,0.09974
7.752,0.06322
7.756,0.06169
7.76,0.05382
7.764,0.05367
7.768,0.05177
7.772,0.01489
7.776,0.02633
7.78,0.02821
7.784,0.01283
7.788,0.00796
7.792,-0.01594
7.796,-0.01798
7.8,-0.02343
7.804,-0.00887
7.808,-0.01699
7.812,-0.01797
7.816,-0.01649
7.82,0.0002
7.824,-0.01176
7.828,-0.02148
7.832,0.03281
7.836,-0.03587
7.84,-0.02185
7.844,-0.03664
7.848,-0.0023
7.852,-0.04818
7.856,-0.04568
7.86,-0.04096
7.864,-0.01816
7.868,-0.00766
7.872,-0.05067
7.876,-0.01382
7.88,-0.03416
7.884,-0.0163
7.888,-0.02855
7.892,-0.01877
7.896,-0.02914
7.9,9e-05
7.904,-0.01674
7.908,-0.03399
7.912,0.02112
7.916,0.0096
7.92,-0.02664
7.924,-0.02449
7.928,-0.00372
7.932,0.00376
7.936,0.01945
7.94,-0.03173
7.944,-0.0275
7.948,-0.0493
7.952,-0.04616
7.956,-0.041
7.96,-0.03884
7.964,-0.01987
7.968,-0.05115
7.972,-0.01662
7.976,-0.03337
7.98,-0.00443
7.984,-0.04172
7.988,-0.02999
7.992,-0.01815
7.996,-0.04973
8.0,0.01379
8.004,-0.03467
8.008,-0.0049
8.012,-0.04195
8.016,-0.02057
8.02,-0.03774
8.024,-0.02777
8.028,-0.02171
8.032,-0.01601
8.036,-0.01546
8.04,-0.02449
8.044,-0.03548
8.048,-0.01185
8.052,-0.01952
8.056,0.00504
8.06,-0.03998
8.064,-0.01913
8.068,-0.01773
8.072,-0.02658
8.076,-0.00802
8.08,-0.03056
8.084,-0.00559
8.088,-0.02433
8.092,-0.04676
8.096,-0.03309
8.1,0.01771
8.104,-0.02771
8.108,-0.02953
8.112,-0.0203
8.116,0.00673
8.12,-0.01179
8.124,0.00104
8.128,-0.01443
8.132,0.02298
8.136,-0.01741
8.14,0.00529
8.144,-0.00039
8.148,0.01614
8.152,0.04541
8.156,0.062
8.16,0.04965
8.164,0.07325
8.168,0.07978
8.172,0.07913
8.176,0.11398
8.18,0.0821
8.184,0.07905
8.188,0.04992
8.192,0.06087
8.196,0.032
8.2,-0.0007
8.204,0.01195
8.208,0.01206
8.212,0.02128
8.216,0.0061
8.22,0.00335
8.224,0.00579
8.228,-0.03008
8.232,-0.00812
8.236,-0.03839
8.24,-0.05254
8.244,-0.00398
8.248,-0.00691
8.252,-0.01363
8.256,-0.03479
8.26,-0.02739
8.264,-0.03823
8.268,-0.00564
8.272,-0.01835
8.276,-0.0181
8.28,-0.03486
8.284,-0.02181
8.288,-0.06796
8.292,-0.09849
8.296,-0.07603
8.3,-0.10872
8.304,-0.14503
8.308,-0.09578
8.312,0.03002
8.316,0.20052
8.32,0.41118
8.324,0.62086
8.328,0.79259
8.332,0.94202
8.336,0.96733
8.34,0.88884
8.344,0.71645
8.348,0.51112
8.352,0.25379
8.356,0.05905
8.36,-0.08109
8.364,-0.14886
8.368,-0.1606
8.372,-0.13889
8.376,-0.12374
8.38,-0.08045
8.384,-0.06121
8.388,-0.03866
8.392,-0.01566
8.396,-0.0384
8.4,-0.02372
8.404,-0.00466
8.408,-0.00672
8.412,0.01639
8.416,-0.01286
8.42,-0.01979
8.424,-0.02193
8.428,-0.01431
8.432,0.00342
8.436,-0.01504
8.44,-0.02268
8.444,-0.00761
8.448,-0.00232
8.452,0.00833
8.456,-0.00529
8.46,0.00713
8.464,-0.0092
8.468,-0.00207
8.472,-0.03193
8.476,-0.02123
8.48,-0.01304
8.484,-0.00605
8.488,-0.01525
8.492,-0.01125
8.496,-0.02184
8.5,-0.01291
8.504,0.00268
8.508,0.01642
8.512,-0.00285
8.516,0.01512
8.52,0.00538
8.524,0.0044
8.528,0.03573
8.532,0.03295
8.536,0.03172
8.54,0.03967
8.544,0.07592
8.548,0.05996
8.552,0.06521
8.556,0.09623
8.56,0.08083
8.564,0.09795
8.568,0.12866
8.572,0.14649
8.576,0.14498
8.58,0.17563
8.584,0.17262
8.588,0.19105
8.592,0.20133
8.596,0.18334
8.6,0.19366
8.604,0.20615
8.608,0.2291
8.612,0.17412
8.616,0.19816
8.62,0.19992
8.624,0.22362
8.628,0.17321
8.632,0.215
8.636,0.20846
8.64,0.16085
8.644,0.1667
8.648,0.16766
8.652,0.16331
8.656,0.11358
8.66,0.1578
8.664,0.0956
8.668,0.09459
8.672,0.07274
8.676,0.10613
8.68,0.07115
8.684,0.05687
8.688,0.06116
8.692,0.04161
8.696,0.02841
8.7,0.06308
8.704,0.01236
8.708,0.02627
8.712,0.01543
8.716,-0.01596
8.72,0.02014
8.724,0.01267
8.728,0.00785
8.732,-0.01576
8.736,-0.00887
8.74,-0.00256
8.744,-0.01671
8.748,-0.00954
8.752,0.0252
8.756,0.00128
8.76,-0.01558
8.764,0.01698
8.768,0.01339
8.772,0.02864
8.776,-0.021
8.78,0.02139
8.784,-0.00162
8.788,-0.00035
8.792,-0.00557
8.796,-0.0067
8.8,-0.00622
8.804,0.00825
8.808,-0.03647
8.812,-0.01965
8.816,0.02327
8.82,-0.00577
8.824,0.01706
8.828,-0.02283
8.832,-0.00793
8.836,-0.01251
8.84,-0.0
8.844,0.02366
8.848,-0.01318
8.852,-0.01298
8.856,-0.00668
8.86,-0.00752
8.864,-0.01717
8.868,-0.00758
8.872,0.00016
8.876,0.02171
8.88,-0.00689
8.884,-0.00545
8.888,0.00227
8.892,-0.00254
8.896,-0.01192
8.9,0.02371
8.904,0.03054
8.908,0.00173
8.912,0.03758
8.916,0.08734
8.92,0.04901
8.924,0.0515
8.928,0.0749
8.932,0.08449
8.936,0.0772
8.94,0.09669
8.944,0.11377
8.948,0.10748
8.952,0.06389
8.956,0.05442
8.96,0.05879
8.964,0.05376
8.968,0.04882
8.972,0.04606
8.976,0.02113
8.98,-0.01271
8.984,0.01238
8.988,0.01188
8.992,0.00383
8.996,0.00491
9.0,-0.01034
9.004,0.02315
9.008,0.01762
9.012,0.00989
9.016,0.00784
9.02,0.01303
9.024,0.00468
9.028,0.00462
9.032,0.02155
9.036,-0.0103
9.04,-0.00288
9.044,0.02538
9.048,0.0275
9.052,0.00467
9.056,-0.01946
9.06,-0.03475
9.064,-0.06437
9.068,-0.10834
9.072,-0.10052
9.076,-0.10227
9.08,0.0704
9.084,0.21217
9.088,0.4264
9.092,0.63747
9.096,0.8127
9.1,0.97241
9.104,0.99786
9.108,0.91863
9.112,0.75362
9.116,0.51596
9.12,0.26672
9.124,0.09615
9.128,-0.06276
9.132,-0.15448
9.136,-0.18465
9.14,-0.1531
9.144,-0.1001
9.148,-0.06887
9.152,-0.02412
9.156,-0.008
9.16,-0.02713
9.164,-0.00078
9.168,0.0252
9.172,0.01567
9.176,0.02272
9.18,0.00969
9.184,0.02885
9.188,-0.00675
9.192,0.02583
9.196,0.00161
9.2,-0.01125
9.204,0.00531
9.208,0.01145
9.212,0.00642
9.216,0.01644
9.22,0.00671
9.224,0.01631
9.228,0.03166
9.232,-0.01341
9.236,0.00132
9.24,0.01898
9.244,0.00745
9.248,0.02963
9.252,0.00851
9.256,0.04839
9.26,0.01488
9.264,0.02558
9.268,0.00689
9.272,0.01433
9.276,0.03201
9.28,0.03151
9.284,0.02593
9.288,0.01941
9.292,0.04635
9.296,0.03078
9.3,0.05838
9.304,0.0278
9.308,0.08701
9.312,0.04503
9.316,0.07998
9.32,0.0968
9.324,0.08141
9.328,0.14365
9.332,0.1319
9.336,0.14186
9.34,0.13513
9.344,0.1608
9.348,0.14654
9.352,0.17315
9.356,0.19885
9.36,0.17748
9.364,0.24482
9.368,0.21278
9.372,0.22364
9.376,0.23544
9.38,0.22751
9.384,0.22876
9.388,0.22241
9.392,0.21371
9.396,0.20452
9.4,0.21257
9.404,0.21289
9.408,0.19975
9.412,0.21315
9.416,0.18235
9.42,0.14127
9.424,0.14339
9.428,0.12736
9.432,0.14077
9.436,0.12417
9.44,0.12465
9.444,0.11091
9.448,0.10374
9.452,0.07612
9.456,0.08088
9.46,0.07279
9.464,0.06346
9.468,0.05717
9.472,0.03072
9.476,0.06398
9.48,0.009
9.484,0.01981
9.488,0.04068
9.492,0.04412
9.496,0.00552
9.5,-0.00123
9.504,0.04249
9.508,0.03539
9.512,0.01863
9.516,0.02725
9.52,-0.00566
9.524,0.02826
9.528,0.00232
9.532,0.03948
9.536,0.00717
9.54,-0.00255
9.544,0.01997
9.548,0.01231
9.552,0.00726
9.556,0.02129
9.56,0.02921
9.564,0.01081
9.568,0.02125
9.572,0.01123
9.576,-0.0048
9.58,0.01643
9.584,0.03203
9.588,-0.00175
9.592,0.04571
9.596,0.03755
9.6,0.01388
9.604,0.02851
9.608,0.02163
9.612,0.01392
9.616,0.00497
9.62,0.01127
9.624,0.00179
9.628,-0.0214
9.632,0.01971
9.636,-0.00162
9.64,0.00418
9.644,0.00084
9.648,0.04472
9.652,0.03234
9.656,0.02734
9.66,0.0122
9.664,0.03427
9.668,0.0471
9.672,0.04517
9.676,0.0492
9.68,0.05168
9.684,0.0452
9.688,0.09114
9.692,0.06942
9.696,0.12884
9.7,0.12919
9.704,0.09235
9.708,0.09426
9.712,0.12579
9.716,0.10515
9.72,0.0857
9.724,0.05199
9.728,0.07624
9.732,0.07745
9.736,0.05751
9.74,0.02296
9.744,0.05024
9.748,0.00727
9.752,0.02069
9.756,0.03025
9.76,0.04152
9.764,-0.0036
9.768,0.02239
9.772,0.03559
9.776,0.02197
9.78,0.02216
9.784,0.01049
9.788,0.02351
9.792,0.00453
9.796,0.02559
9.8,0.01229
9.804,0.04129
9.808,0.02123
9.812,0.00123
9.816,0.00745
9.82,-0.0169
9.824,-0.04104
9.828,-0.06669
9.832,-0.08881
9.836,-0.06831
9.84,0.02521
9.844,0.22406
9.848,0.39026
9.852,0.6239
9.856,0.85113
9.86,0.98064
9.864,1.00658
9.868,0.95475
9.872,0.78395
9.876,0.57648
9.88,0.34324
9.884,0.14641
9.888,-0.00734
9.892,-0.12363
9.896,-0.10612
9.9,-0.13124
9.904,-0.08933
9.908,-0.03434
9.912,-0.02476
9.916,0.01705
9.92,-0.0009
9.924,0.01072
9.928,0.02978
9.932,0.04033
9.936,0.03368
9.94,0.00066
9.944,0.00186
9.948,0.02299
9.952,0.03785
9.956,0.01191
9.96,0.05
9.964,0.01419
9.968,0.00789
9.972,-0.00212
9.976,0.04308
9.98,0.01835
9.984,0.01989
9.988,0.0296
9.992,0.02103
9.996,0.0519
