t_seg,ecg_mV
0.0,0.03127
0.004,0.0323
0.008,0.04145
0.012,0.0143
0.016,0.02682
0.02,0.03328
0.024,0.02081
0.028,0.03847
0.032,0.02241
0.036,0.03782
0.04,0.02988
0.044,0.03475
0.048,0.00509
0.052,0.015
0.056,0.04811
0.06,0.03065
0.064,0.0268
0.068,0.04252
0.072,0.03937
0.076,0.02744
0.08,0.01854
0.084,0.05763
0.088,0.03862
0.092,0.00472
0.096,0.04093
0.1,0.0399
0.104,0.04062
0.108,0.02238
0.112,0.05055
0.116,0.01729
0.12,0.04672
0.124,0.03297
0.128,0.05408
0.132,0.02282
0.136,0.03913
0.14,0.04139
0.144,0.02389
0.148,0.02895
0.152,0.0226
0.156,0.03602
0.16,0.03921
0.164,0.02455
0.168,0.03417
0.172,0.02034
0.176,0.02138
0.18,0.00059
0.184,0.01221
0.188,0.02037
0.192,0.03319
0.196,0.05609
0.2,0.03994
0.204,0.04107
0.208,0.05019
0.212,0.0309
0.216,0.06137
0.22,0.05797
0.224,0.07397
0.228,0.12523
0.232,0.1341
0.236,0.13128
0.24,0.13248
0.244,0.13624
0.248,0.11467
0.252,0.10686
0.256,0.12374
0.26,0.1023
0.264,0.08593
0.268,0.08431
0.272,0.07271
0.276,0.066
0.28,0.043
0.284,0.04705
0.288,0.02261
0.292,0.05554
0.296,0.05711
0.3,0.0159
0.304,0.03771
0.308,0.02729
0.312,0.03191
0.316,0.03094
0.32,0.04778
0.324,0.03814
0.328,0.01679
0.332,0.03102
0.336,0.02956
0.34,0.01786
0.344,0.03287
0.348,0.02925
0.352,0.04889
0.356,0.02149
0.36,0.01895
0.364,-0.04659
0.368,-0.07522
0.372,-0.07744
0.376,-0.07793
0.38,-0.00427
0.384,0.09032
0.388,0.27943
0.392,0.45418
0.396,0.69419
0.4,0.88672
0.404,1.00645
0.408,1.00979
0.412,0.9328
0.416,0.71214
0.42,0.48768
0.424,0.28797
0.428,0.08375
0.432,-0.02744
0.436,-0.11124
0.44,-0.13272
0.444,-0.13864
0.448,-0.07942
0.452,-0.02494
0.456,-0.00905
0.46,0.02178
0.464,0.03
0.468,0.01615
0.472,0.01293
0.476,0.04443
0.48,0.0307
0.484,0.03082
0.488,0.04442
0.492,0.056
0.496,-0.01214
0.5,0.05183
0.504,0.04499
0.508,0.02561
0.512,0.04777
0.516,0.02886
0.52,0.05413
0.524,0.04734
0.528,0.03656
0.532,0.02118
0.536,0.03204
0.54,0.01787
0.544,0.02082
0.548,0.03451
0.552,0.03048
0.556,0.02314
0.56,0.05882
0.564,0.02696
0.568,0.03627
0.572,0.03843
0.576,0.00775
0.58,0.08243
0.584,0.0376
0.588,0.06092
0.592,0.02179
0.596,0.05639
0.6,0.03988
0.604,0.06314
0.608,0.09679
0.612,0.09736
0.616,0.10353
0.62,0.11108
0.624,0.08726
0.628,0.10713
0.632,0.14356
0.636,0.16729
0.64,0.16548
0.644,0.17903
0.648,0.19038
0.652,0.20406
0.656,0.21164
0.66,0.19794
0.664,0.23825
0.668,0.21811
0.672,0.21626
0.676,0.24541
0.68,0.22705
0.684,0.23273
0.688,0.25065
0.692,0.23523
0.696,0.23096
0.7,0.24627
0.704,0.2497
0.708,0.23626
0.712,0.22982
0.716,0.18416
0.72,0.20547
0.724,0.18414
0.728,0.16188
0.732,0.15624
0.736,0.14318
0.74,0.12154
0.744,0.09673
0.748,0.12073
0.752,0.10879
0.756,0.11535
0.76,0.10369
0.764,0.08132
0.768,0.08403
0.772,0.08783
0.776,0.04856
0.78,0.04998
0.784,0.05357
0.788,0.02537
0.792,0.02626
0.796,0.04971
0.8,0.03105
0.804,0.04241
0.808,0.03233
0.812,0.05128
0.816,0.03585
0.82,0.0329
0.824,0.02607
0.828,0.01433
0.832,0.00605
0.836,0.06894
0.84,0.03339
0.844,0.0439
0.848,0.01501
0.852,0.03519
0.856,0.03375
0.86,0.01497
0.864,0.05812
0.868,0.05017
0.872,0.02531
0.876,0.04442
0.88,0.0454
0.884,0.03642
0.888,0.03562
0.892,0.02964
0.896,0.02757
0.9,0.00584
0.904,0.02094
0.908,0.03425
0.912,0.02351
0.916,0.04376
0.92,0.02864
0.924,0.01458
0.928,0.00835
0.932,0.01323
0.936,0.02667
0.94,0.02419
0.944,-0.013
0.948,0.03666
0.952,0.05364
0.956,0.02129
0.96,0.04164
0.964,0.02734
0.968,0.06428
0.972,0.04034
0.976,0.05893
0.98,0.09401
0.984,0.09827
0.988,0.09149
0.992,0.12595
0.996,0.12631
1.0,0.13909
1.004,0.14897
1.008,0.14927
1.012,0.10648
1.016,0.09909
1.02,0.10893
1.024,0.08463
1.028,0.02977
1.032,0.08019
1.036,0.03644
1.04,0.04251
1.044,0.02999
1.048,0.02994
1.052,0.04094
1.056,0.00194
1.06,0.02273
1.064,0.00336
1.068,0.02074
1.072,0.02933
1.076,0.03968
1.08,0.02134
1.084,0.06209
1.088,0.03874
1.092,0.04324
1.096,0.03572
1.1,0.02069
1.104,0.01726
1.108,0.01022
1.112,0.02241
1.116,-0.03031
1.12,-0.00863
1.124,-0.0326
1.128,-0.09141
1.132,-0.1092
1.136,-0.06354
1.14,0.02673
1.144,0.16939
1.148,0.32134
1.152,0.59739
1.156,0.77494
1.16,0.9872
1.164,1.01812
1.168,0.99327
1.172,0.8415
1.176,0.6512
1.18,0.43612
1.184,0.20178
1.188,0.03741
1.192,-0.08067
1.196,-0.16597
1.2,-0.12937
1.204,-0.11478
1.208,-0.05308
1.212,-0.03806
1.216,0.02122
1.22,0.00568
1.224,0.051
1.228,0.01622
1.232,0.03512
1.236,0.00251
1.24,0.02491
1.244,0.01093
1.248,0.03088
1.252,0.04391
1.256,0.03874
1.26,0.01261
1.264,0.0039
1.268,0.01624
1.272,0.00577
1.276,0.03716
1.28,0.02675
1.284,0.03042
1.288,-6e-05
1.292,0.00711
1.296,0.00739
1.3,0.02697
1.304,0.02781
1.308,-0.01031
1.312,0.04245
1.316,0.05337
1.32,-0.00194
1.324,0.01303
1.328,0.03913
1.332,0.01811
1.336,0.02636
1.34,0.03146
1.344,0.01041
1.348,0.03296
1.352,0.02731
1.356,0.04525
1.36,0.05677
1.364,0.0672
1.368,0.07172
1.372,0.0674
1.376,0.09046
1.38,0.12733
1.384,0.09409
1.388,0.07056
1.392,0.1127
1.396,0.12218
1.4,0.12567
1.404,0.15539
1.408,0.16253
1.412,0.18559
1.416,0.2045
1.42,0.24342
1.424,0.22526
1.428,0.22187
1.432,0.19879
1.436,0.21049
1.44,0.21824
1.444,0.23238
1.448,0.20699
1.452,0.23737
1.456,0.25093
1.46,0.23282
1.464,0.23832
1.468,0.20587
1.472,0.20826
1.476,0.19146
1.48,0.18943
1.484,0.18157
1.488,0.13775
1.492,0.12174
1.496,0.11602
1.5,0.13588
1.504,0.11702
1.508,0.11386
1.512,0.07526
1.516,0.08061
1.52,0.07812
1.524,0.03419
1.528,0.04965
1.532,0.05445
1.536,0.04753
1.54,0.02766
1.544,0.03187
1.548,0.0419
1.552,0.03612
1.556,0.03676
1.56,0.02958
1.564,0.02024
1.568,0.028
1.572,0.01605
1.576,-0.00864
1.58,0.02108
1.584,-0.00495
1.588,-0.00179
1.592,0.0077
1.596,0.02678
1.6,0.01203
1.604,0.04759
1.608,0.02583
1.612,0.0157
1.616,-0.0159
1.62,0.02581
1.624,0.02181
1.628,0.02089
1.632,0.01571
1.636,0.00871
1.64,0.02052
1.644,-0.0004
1.648,-0.00485
1.652,0.02914
1.656,0.00398
1.66,0.00491
1.664,0.01816
1.668,0.03896
1.672,0.04088
1.676,0.02524
1.68,-0.01511
1.684,0.03192
1.688,0.03749
1.692,0.01362
1.696,0.02298
1.7,-0.0038
1.704,0.00132
1.708,0.00989
1.712,0.0109
1.716,0.01016
1.72,0.01677
1.724,0.00862
1.728,0.03161
1.732,-0.01376
1.736,0.03097
1.74,0.02691
1.744,0.01094
1.748,0.00693
1.752,0.02174
1.756,0.00465
1.76,0.02232
1.764,0.01825
1.768,0.00499
1.772,0.04462
1.776,0.04005
1.78,0.03969
1.784,0.07128
1.788,0.07689
1.792,0.06419
1.796,0.08125
1.8,0.09331
1.804,0.10801
1.808,0.11921
1.812,0.11456
1.816,0.10995
1.82,0.0824
1.824,0.08988
1.828,0.07772
1.832,0.06954
1.836,0.04897
1.84,0.04237
1.844,0.02137
1.848,0.02974
1.852,0.00457
1.856,0.04164
1.86,0.00805
1.864,0.03236
1.868,0.00781
1.872,0.00985
1.876,0.02991
1.88,0.00465
1.884,0.03447
1.888,-0.00417
1.892,0.01396
1.896,0.01603
1.9,0.00817
1.904,-0.00213
1.908,0.02783
1.912,0.00051
1.916,0.00663
1.92,-0.01796
1.924,-0.00376
1.928,-0.04485
1.932,-0.03213
1.936,-0.0798
1.94,-0.09034
1.944,-0.09038
1.948,0.01264
1.952,0.16445
1.956,0.31771
1.96,0.53775
1.964,0.74314
1.968,0.93258
1.972,1.01533
1.976,0.97633
1.98,0.81685
1.984,0.62587
1.988,0.39224
1.992,0.16182
1.996,0.02302
2.0,-0.07726
2.004,-0.13444
2.008,-0.16796
2.012,-0.10666
2.016,-0.1092
2.02,-0.06196
2.024,-0.01085
2.028,-0.018
2.032,-0.00505
2.036,0.02746
2.04,-0.00081
2.044,0.01152
2.048,-0.00046
2.052,0.01162
2.056,0.01558
2.06,-0.00157
2.064,-0.01084
2.068,0.01095
2.072,-0.01626
2.076,0.01662
2.08,0.00585
2.084,0.01174
2.088,-0.02227
2.092,0.02347
2.096,-0.00545
2.1,-0.00496
2.104,-0.0254
2.108,-0.00498
2.112,-0.01345
2.116,0.01725
2.12,-0.0022
2.124,-0.0069
2.128,0.02203
2.132,-0.01605
2.136,-0.01096
2.14,-0.00179
2.144,0.0275
2.148,0.00255
2.152,0.01563
2.156,0.01072
2.16,0.00727
2.164,0.02513
2.168,0.03812
2.172,0.02106
2.176,0.0487
2.18,0.02156
2.184,0.05049
2.188,0.08778
2.192,0.08159
2.196,0.10529
2.2,0.12365
2.204,0.12848
2.208,0.13552
2.212,0.15258
2.216,0.1556
2.22,0.15965
2.224,0.18628
2.228,0.19156
2.232,0.1965
2.236,0.22426
2.24,0.2126
2.244,0.24733
2.248,0.19565
2.252,0.2314
2.256,0.21657
2.26,0.2282
2.264,0.20382
2.268,0.22523
2.272,0.21589
2.276,0.19682
2.28,0.1702
2.284,0.16965
2.288,0.14752
2.292,0.14722
2.296,0.11134
2.3,0.10539
2.304,0.08988
2.308,0.11322
2.312,0.09151
2.316,0.05498
2.32,0.06339
2.324,0.07709
2.328,0.04669
2.332,0.02271
2.336,0.0243
2.34,0.03056
2.344,0.03945
2.348,0.0063
2.352,-0.01707
2.356,0.01441
2.36,0.00229
2.364,-0.02037
2.368,-0.02091
2.372,-0.0078
2.376,-0.02574
2.38,-0.02261
2.384,0.00233
2.388,0.00826
2.392,0.00056
2.396,-0.01941
2.4,-0.00178
2.404,-0.02727
2.408,0.0024
2.412,-0.0147
2.416,0.02549
2.42,0.00389
2.424,0.00281
2.428,-0.00313
2.432,0.01319
2.436,-0.01688
2.44,-0.01578
2.444,-0.02201
2.448,-0.00112
2.452,-0.02054
2.456,-0.00765
2.46,-0.00348
2.464,0.01151
2.468,-0.04008
2.472,-0.02853
2.476,0.00578
2.48,0.02053
2.484,-0.00516
2.488,-0.00927
2.492,-0.01478
2.496,0.00444
2.5,-0.01079
2.504,-0.0252
2.508,0.00593
2.512,-0.02536
2.516,-0.00733
2.52,-0.012
2.524,-0.027
2.528,-0.0108
2.532,-0.01819
2.536,0.00145
2.54,0.00644
2.544,-0.00372
2.548,0.00031
2.552,-0.00526
2.556,-0.04047
2.56,-0.02482
2.564,-0.01169
2.568,-0.01582
2.572,-0.0015
2.576,-0.02241
2.58,0.00695
2.584,-0.02187
2.588,-0.03467
2.592,-0.00758
2.596,-0.02171
2.6,-0.01678
2.604,0.00979
2.608,-0.00728
2.612,-0.00698
2.616,-0.00591
2.62,-0.03345
2.624,-0.02144
2.628,-0.02124
2.632,0.00274
2.636,-0.00977
2.64,0.00141
2.644,0.0034
2.648,-0.00075
2.652,0.03892
2.656,0.05077
2.66,0.05699
2.664,0.07362
2.668,0.05374
2.672,0.08186
2.676,0.09738
2.68,0.1049
2.684,0.0631
2.688,0.06528
2.692,0.08874
2.696,0.05042
2.7,0.03855
2.704,0.03059
2.708,0.0437
2.712,0.02372
2.716,0.00165
2.72,-0.00033
2.724,0.01055
2.728,-0.02327
2.732,-0.01811
2.736,-0.04284
2.74,-0.0054
2.744,-0.01025
2.748,-0.04585
2.752,-0.02143
2.756,-0.05701
2.76,-0.02601
2.764,-0.01089
2.768,-0.0443
2.772,-0.04076
2.776,-0.01215
2.78,-0.0328
2.784,-0.02377
2.788,-0.01082
2.792,0.0001
2.796,-0.04517
2.8,-0.05202
2.804,-0.06771
2.808,-0.12586
2.812,-0.12808
2.816,-0.07708
2.82,0.07713
2.824,0.23768
2.828,0.46397
2.832,0.6876
2.836,0.84112
2.84,0.96279
2.844,0.97082
2.848,0.87371
2.852,0.68119
2.856,0.43181
2.86,0.22376
2.864,0.03598
2.868,-0.1
2.872,-0.18649
2.876,-0.19974
2.88,-0.1521
2.884,-0.15218
2.888,-0.07008
2.892,-0.05206
2.896,-0.03311
2.9,-0.04752
2.904,-0.02523
2.908,-0.02777
2.912,-0.00102
2.916,0.01037
2.92,-0.02013
2.924,0.01354
2.928,-0.00821
2.932,-0.02106
2.936,-0.00761
2.94,-0.01896
2.944,-0.00935
2.948,-0.00111
2.952,-0.02967
2.956,-0.02718
2.96,-0.00298
2.964,-0.03199
2.968,-0.04169
2.972,-0.0306
2.976,-0.02044
2.98,-0.01513
2.984,-0.00861
2.988,-0.00651
2.992,-0.01582
2.996,-0.00024
3.0,-0.04616
3.004,-0.01513
3.008,-0.02706
3.012,-0.01511
3.016,0.00869
3.02,-0.0194
3.024,0.00891
3.028,-0.01
3.032,0.01167
3.036,-0.00374
3.04,0.02574
3.044,0.05354
3.048,0.04174
3.052,0.0311
3.056,0.04859
3.06,0.06561
3.064,0.07696
3.068,0.0864
3.072,0.08179
3.076,0.11884
3.08,0.09421
3.084,0.12464
3.088,0.14273
3.092,0.16214
3.096,0.1486
3.1,0.17919
3.104,0.20432
3.108,0.17491
3.112,0.19994
3.116,0.19081
3.12,0.2162
3.124,0.17173
3.128,0.18558
3.132,0.17172
3.136,0.16003
3.14,0.19703
3.144,0.17557
3.148,0.16685
3.152,0.16303
3.156,0.11626
3.16,0.13564
3.164,0.10586
3.168,0.0886
3.172,0.07135
3.176,0.06891
3.18,0.04364
3.184,0.05179
3.188,0.03644
3.192,0.04983
3.196,0.06525
3.2,0.0058
3.204,0.02923
3.208,-0.00066
3.212,-0.00159
3.216,-0.00523
3.22,-0.00695
3.224,-0.00155
3.228,-0.03159
3.232,0.00282
3.236,-0.03701
3.24,-0.00976
3.244,-0.03867
3.248,-0.00703
3.252,-0.02203
3.256,-0.02779
3.26,0.01047
3.264,-0.02483
3.268,-0.02866
3.272,-0.01397
3.276,-0.00292
3.28,0.00058
3.284,0.01633
3.288,0.02053
3.292,0.00301
3.296,0.02709
3.3,0.04378
3.304,0.06991
3.308,0.04606
3.312,0.07123
3.316,0.07985
3.32,0.04908
3.324,0.06503
3.328,0.05827
3.332,0.04073
3.336,0.03118
3.34,0.01215
3.344,-0.00764
3.348,-0.0009
3.352,-0.00568
3.356,-0.02924
3.36,-0.01774
3.364,-0.03579
3.368,-0.00617
3.372,0.01792
3.376,-0.03335
3.38,-0.00192
3.384,-0.04262
3.388,-0.03248
3.392,-0.07377
3.396,-0.03776
3.4,-0.01924
3.404,-0.04203
3.408,-0.0188
3.412,-0.02314
3.416,-0.0211
3.42,-0.02652
3.424,-0.0384
3.428,-0.0303
3.432,-0.04731
3.436,-0.1128
3.44,-0.12225
3.444,-0.17049
3.448,-0.09285
3.452,-0.03381
3.456,0.13797
3.46,0.34402
3.464,0.54721
3.468,0.77075
3.472,0.90401
3.476,0.95632
3.48,0.92097
3.484,0.76232
3.488,0.54943
3.492,0.3356
3.496,0.08803
3.5,-0.04936
3.504,-0.1581
3.508,-0.17263
3.512,-0.18107
3.516,-0.16065
3.52,-0.10316
3.524,-0.06349
3.528,-0.03972
3.532,-0.04258
3.536,-0.03422
3.54,-0.04501
3.544,-0.02377
3.548,-0.03773
3.552,-0.04508
3.556,-0.02782
3.56,-0.02187
3.564,-0.03259
3.568,-0.01872
3.572,-0.04025
3.576,-0.03571
3.58,-0.01512
3.584,-0.03975
3.588,-0.01322
3.592,-0.00468
3.596,-0.01949
3.6,-0.02471
3.604,-0.03432
3.608,-0.01201
3.612,-0.01877
3.616,-0.0407
3.62,-0.03722
3.624,-0.01421
3.628,-0.02609
3.632,0.00626
3.636,-0.02054
3.64,-0.02901
3.644,0.0036
3.648,-0.00671
3.652,-0.01454
3.656,-0.00892
3.66,-0.01073
3.664,-0.00456
3.668,-2e-05
3.672,0.02736
3.676,0.00611
3.68,0.02508
3.684,0.01501
3.688,0.0704
3.692,0.05497
3.696,0.03418
3.7,0.04355
3.704,0.06996
3.708,0.12258
3.712,0.10845
3.716,0.11006
3.72,0.14601
3.724,0.15365
3.728,0.14477
3.732,0.16311
3.736,0.15523
3.74,0.15556
3.744,0.16767
3.748,0.20876
3.752,0.17432
3.756,0.20918
3.76,0.15842
3.764,0.16127
3.768,0.20075
3.772,0.17252
3.776,0.1642
3.78,0.18961
3.784,0.16067
3.788,0.14138
3.792,0.14112
3.796,0.10171
3.8,0.09945
3.804,0.09837
3.808,0.0749
3.812,0.08018
3.816,0.03649
3.82,0.07961
3.824,0.02852
3.828,0.01552
3.832,0.0254
3.836,0.02543
3.84,-0.00468
3.844,-0.00058
3.848,-0.0105
3.852,-0.03088
3.856,-0.01483
3.86,-0.01484
3.864,-0.01531
3.868,-0.02889
3.872,-0.01699
3.876,-0.02766
3.88,-0.00109
3.884,-0.02884
3.888,-0.02243
3.892,-0.02276
3.896,-0.03544
3.9,-0.02131
3.904,-0.00764
3.908,-0.00461
3.912,-0.03886
3.916,-0.03887
3.92,-0.03137
3.924,-0.02769
3.928,-0.04771
3.932,-0.05348
3.936,-0.02624
3.94,-0.03121
3.944,-0.02625
3.948,-0.01432
3.952,-0.05157
3.956,-0.02672
3.96,-0.00872
3.964,-0.03628
3.968,-0.03348
3.972,-0.01466
3.976,-0.03682
3.98,-0.04875
3.984,-0.00945
3.988,-0.06208
3.992,-0.00895
3.996,-0.01999
4.0,-0.04503
4.004,-0.03911
4.008,-0.06191
4.012,-0.03061
4.016,-0.01667
4.02,-0.03389
4.024,-0.05684
4.028,-0.03181
4.032,-0.02261
4.036,-0.02898
4.04,-0.04268
4.044,-0.05771
4.048,-0.01829
4.052,-0.02978
4.056,-0.04004
4.06,-0.0182
4.064,-0.01796
4.068,-0.04847
4.072,-0.01897
4.076,-0.00039
4.08,-0.00766
4.084,-0.03207
4.088,-0.04871
4.092,-0.03277
4.096,0.00321
4.1,-0.00512
4.104,-0.05609
4.108,0.00518
4.112,-0.03917
4.116,-0.02284
4.12,-0.03819
4.124,-0.03617
4.128,-0.02459
4.132,-0.02684
4.136,-0.04758
4.14,-0.02846
4.144,-0.03906
4.148,-0.03258
4.152,-0.03123
4.156,-0.04487
4.16,-0.03164
4.164,-0.01074
4.168,-0.02136
4.172,-0.03957
4.176,-0.02983
4.18,-0.03019
4.184,-0.03098
4.188,-0.04689
4.192,-0.03182
4.196,-0.02335
4.2,-0.0428
4.204,-0.06004
4.208,-0.01315
4.212,-0.02129
4.216,-0.01014
4.22,0.00221
4.224,-0.00056
4.228,-0.02422
4.232,-0.01285
4.236,-0.02372
4.24,-0.01295
4.244,-0.00536
4.248,0.00643
4.252,0.00066
4.256,0.02509
4.26,0.01632
4.264,0.01747
4.268,0.04893
4.272,0.0756
4.276,0.05738
4.28,0.05622
4.284,0.09529
4.288,0.06055
4.292,0.05808
4.296,0.06484
4.3,0.04261
4.304,0.04961
4.308,0.0133
4.312,-0.00064
4.316,0.00961
4.32,0.00766
4.324,-0.01959
4.328,-0.04344
4.332,-0.03551
4.336,-0.04535
4.34,-0.0313
4.344,-0.02609
4.348,-0.03598
4.352,-0.00552
4.356,-0.02989
4.36,-0.00954
4.364,-0.03559
4.368,-0.03035
4.372,-0.00729
4.376,-0.04421
4.38,-0.05155
4.384,-0.04267
4.388,-0.0212
4.392,-0.04677
4.396,-0.04807
4.4,-0.05922
4.404,-0.10745
4.408,-0.14923
4.412,-0.10394
4.416,-0.03894
4.42,0.09754
4.424,0.2656
4.428,0.47754
4.432,0.67851
4.436,0.87587
4.44,0.97382
4.444,0.95845
4.448,0.82385
4.452,0.65002
4.456,0.39684
4.46,0.19443
4.464,-0.00719
4.468,-0.14175
4.472,-0.17501
4.476,-0.20307
4.48,-0.18332
4.484,-0.1173
4.488,-0.05869
4.492,-0.04442
4.496,-0.02814
4.5,-0.04289
4.504,-0.01981
4.508,-0.04282
4.512,-0.04576
4.516,-0.0018
4.52,-0.01642
4.524,-0.00721
4.528,0.01212
4.532,-0.03814
4.536,-0.03203
4.54,-0.04329
4.544,0.00507
4.548,-0.01664
4.552,-0.0158
4.556,-0.0225
4.56,-0.02629
4.564,-0.05108
4.568,-0.03303
4.572,-0.01979
4.576,-0.02295
4.58,-0.00192
4.584,-0.00407
4.588,-0.02902
4.592,-0.02153
4.596,-0.0061
4.6,-0.02138
4.604,0.0037
4.608,-0.00864
4.612,0.00648
4.616,0.00644
4.62,-0.00828
4.624,-0.02681
4.628,0.0145
4.632,0.03826
4.636,0.02902
4.64,0.02792
4.644,0.04223
4.648,0.05812
4.652,0.01883
4.656,0.06226
4.66,0.07376
4.664,0.08831
4.668,0.09264
4.672,0.07742
4.676,0.10359
4.68,0.13036
4.684,0.13467
4.688,0.13784
4.692,0.16199
4.696,0.17119
4.7,0.18689
4.704,0.1928
4.708,0.19475
4.712,0.18602
4.716,0.16987
4.72,0.21772
4.724,0.23488
4.728,0.21523
4.732,0.21876
4.736,0.17764
4.74,0.17311
4.744,0.18148
4.748,0.16823
4.752,0.16489
4.756,0.12251
4.76,0.12414
4.764,0.14836
4.768,0.14238
4.772,0.10322
4.776,0.0727
4.78,0.07695
4.784,0.05951
4.788,0.03936
4.792,0.03407
4.796,0.02596
4.8,0.01312
4.804,0.03262
4.808,-0.01506
4.812,0.03555
4.816,0.05
4.82,0.01531
4.824,0.0318
4.828,-0.0112
4.832,-0.00564
4.836,0.00886
4.84,-0.02828
4.844,-0.02402
4.848,-0.00483
4.852,-0.03353
4.856,-0.01222
4.86,-0.01892
4.864,-0.01031
4.868,0.01314
4.872,-0.02745
4.876,0.00476
4.88,-0.01692
4.884,0.00901
4.888,-0.00386
4.892,-0.01246
4.896,-0.01509
4.9,-0.01635
4.904,-0.00511
4.908,-0.01962
4.912,-0.00607
4.916,-0.00607
4.92,-0.02313
4.924,-0.01926
4.928,-0.00335
4.932,-0.01185
4.936,-0.02204
4.94,-0.01455
4.944,0.00287
4.948,-0.02545
4.952,-0.02846
4.956,-0.011
4.96,-0.01322
4.964,-0.00668
4.968,-0.0068
4.972,-0.02308
4.976,-0.01206
4.98,-0.03944
4.984,-0.0074
4.988,-0.01516
4.992,0.01629
4.996,0.00446
5.0,-0.0196
5.004,0.00885
5.008,0.02165
5.012,0.03676
5.016,0.0155
5.02,0.0348
5.024,0.07275
5.028,0.05433
5.032,0.08016
5.036,0.08379
5.04,0.0942
5.044,0.07207
5.048,0.07814
5.052,0.05497
5.056,0.03627
5.06,0.06657
5.064,0.0403
5.068,0.03624
5.072,0.03167
5.076,0.02593
5.08,-0.00292
5.084,-0.01053
5.088,-0.02688
5.092,0.00109
5.096,-0.03024
5.1,0.017
5.104,-0.01494
5.108,0.00561
5.112,0.01046
5.116,-0.0129
5.12,-0.0087
5.124,-0.02894
5.128,-0.00437
5.132,-0.01951
5.136,-0.00692
5.14,-0.00654
5.144,-0.02018
5.148,-0.00829
5.152,-0.0281
5.156,-0.04182
5.16,-0.07307
5.164,-0.11229
5.168,-0.12921
5.172,-0.07781
5.176,0.00891
5.18,0.13314
5.184,0.32788
5.188,0.55163
5.192,0.74107
5.196,0.8996
5.2,0.98072
5.204,0.95345
5.208,0.80839
5.212,0.6213
5.216,0.39246
5.22,0.18451
5.224,-0.01136
5.228,-0.11931
5.232,-0.14399
5.236,-0.17757
5.24,-0.12896
5.244,-0.07207
5.248,-0.06718
5.252,-0.02663
5.256,-0.00271
5.26,-0.02391
5.264,-0.0025
5.268,0.00218
5.272,0.0147
5.276,-0.01142
5.28,0.01446
5.284,0.03321
5.288,-0.02141
5.292,-0.01071
5.296,-0.01269
5.3,-0.01766
5.304,0.00563
5.308,-0.00412
5.312,0.01256
5.316,-0.02279
5.32,0.03219
5.324,-0.03718
5.328,-0.01435
5.332,0.01612
5.336,0.00129
5.34,-0.00432
5.344,-0.02706
5.348,0.00023
5.352,-1e-05
5.356,0.00127
5.36,0.00524
5.364,-0.00283
5.368,0.02443
5.372,0.01337
5.376,0.01085
5.38,0.00216
5.384,0.04973
5.388,0.00433
5.392,0.03846
5.396,0.04732
5.4,0.04161
5.404,0.06467
5.408,0.04022
5.412,0.05774
5.416,0.06975
5.42,0.10258
5.424,0.07673
5.428,0.09885
5.432,0.11266
5.436,0.13606
5.44,0.15425
5.444,0.163
5.448,0.18548
5.452,0.17963
5.456,0.17998
5.46,0.20942
5.464,0.20571
5.468,0.21115
5.472,0.21437
5.476,0.22875
5.48,0.22056
5.484,0.18627
5.488,0.19897
5.492,0.19709
5.496,0.20167
5.5,0.22138
5.504,0.19135
5.508,0.17031
5.512,0.1341
5.516,0.15612
5.52,0.14908
5.524,0.12279
5.528,0.13395
5.532,0.12431
5.536,0.08421
5.54,0.09241
5.544,0.10242
5.548,0.09705
5.552,0.04667
5.556,0.05864
5.56,0.05527
5.564,0.03058
5.568,0.01553
5.572,0.03846
5.576,0.01762
5.58,0.01425
5.584,0.0239
5.588,0.03076
5.592,0.00214
5.596,0.01728
5.6,-0.01575
5.604,0.01205
5.608,-0.00815
5.612,0.02628
5.616,0.01362
5.62,0.01246
5.624,0.01237
5.628,0.0135
5.632,-0.00561
5.636,0.00226
5.64,0.02404
5.644,0.00603
5.648,0.01011
5.652,0.00202
5.656,0.01463
5.66,0.01364
5.664,0.00448
5.668,0.03668
5.672,0.00783
5.676,0.02739
5.68,0.01031
5.684,0.01262
5.688,-0.00032
5.692,-0.00836
5.696,0.00247
5.7,-0.0076
5.704,-0.01863
5.708,0.01998
5.712,-0.01932
5.716,-0.00884
5.72,0.00251
5.724,0.05427
5.728,-0.01179
5.732,0.01279
5.736,0.00311
5.74,0.00792
5.744,0.03247
5.748,0.02161
5.752,0.03473
5.756,0.02518
5.76,0.04476
5.764,0.07673
5.768,0.05286
5.772,0.08516
5.776,0.07576
5.78,0.11758
5.784,0.09302
5.788,0.10213
5.792,0.12606
5.796,0.11422
5.8,0.10114
5.804,0.07247
5.808,0.07095
5.812,0.06059
5.816,0.06477
5.82,0.05612
5.824,0.02064
5.828,0.00239
5.832,0.02081
5.836,0.02194
5.84,-0.00293
5.844,0.00169
5.848,0.02446
5.852,0.02005
5.856,0.01686
5.86,0.02032
5.864,0.00772
5.868,-0.00288
5.872,-0.00286
5.876,0.0139
5.88,0.03725
5.884,0.01243
5.888,0.02108
5.892,0.04476
5.896,0.01699
5.9,0.01765
5.904,-0.01673
5.908,-0.06529
5.912,-0.10967
5.916,-0.0942
5.92,-0.00502
5.924,0.08212
5.928,0.23965
5.932,0.46405
5.936,0.67099
5.94,0.86687
5.944,1.002
5.948,1.00036
5.952,0.8974
5.956,0.73485
5.96,0.49158
5.964,0.28274
5.968,0.05804
5.972,-0.04431
5.976,-0.14958
5.98,-0.15122
5.984,-0.11878
5.988,-0.1004
5.992,-0.02744
5.996,-0.02586
6.0,0.01362
6.004,0.00781
6.008,0.0303
6.012,0.02467
6.016,0.01052
6.02,0.03278
6.024,0.01208
6.028,0.0341
6.032,-0.01074
6.036,0.00437
6.04,0.01679
6.044,-0.01198
6.048,0.00766
6.052,-0.0156
6.056,-0.0004
6.06,0.00969
6.064,0.04214
6.068,0.02506
6.072,0.02806
6.076,-0.03484
6.08,0.024
6.084,0.01748
6.088,0.03637
6.092,0.00283
6.096,0.04203
6.1,0.03916
6.104,-0.0005
6.108,0.03559
6.112,0.04152
6.116,0.02217
6.12,0.02233
6.124,0.04459
6.128,0.04237
6.132,0.03883
6.136,0.07317
6.14,0.06289
6.144,0.05964
6.148,0.07397
6.152,0.06627
6.156,0.06458
6.16,0.09296
6.164,0.11895
6.168,0.08485
6.172,0.07068
6.176,0.14862
6.18,0.1838
6.184,0.15939
6.188,0.18305
6.192,0.19168
6.196,0.21837
6.2,0.21273
6.204,0.20079
6.208,0.20567
6.212,0.22859
6.216,0.22208
6.22,0.22861
6.224,0.2546
6.228,0.2374
6.232,0.23415
6.236,0.25865
6.24,0.22987
6.244,0.22397
6.248,0.23146
6.252,0.22634
6.256,0.21207
6.26,0.20195
6.264,0.1602
6.268,0.13559
6.272,0.1255
6.276,0.13272
6.28,0.13712
6.284,0.12352
6.288,0.13828
6.292,0.118
6.296,0.08714
6.3,0.08943
6.304,0.08917
6.308,0.07085
6.312,0.07047
6.316,0.0261
6.32,0.03578
6.324,0.02735
6.328,0.06154
6.332,0.03469
6.336,0.03635
6.34,0.01052
6.344,0.01537
6.348,0.03686
6.352,-0.00043
6.356,0.03926
6.36,0.02159
6.364,0.03624
6.368,0.05669
6.372,0.02666
6.376,0.00811
6.38,0.00979
6.384,0.02665
6.388,0.01561
6.392,0.03064
6.396,0.02225
6.4,0.03359
6.404,0.02066
6.408,0.02007
6.412,0.01953
6.416,0.04329
6.42,0.0166
6.424,0.02561
6.428,0.01428
6.432,0.03124
6.436,0.04631
6.44,0.01206
6.444,0.03031
6.448,0.03815
6.452,0.03304
6.456,0.05134
6.46,0.04886
6.464,0.0792
6.468,0.10107
6.472,0.0792
6.476,0.12217
6.48,0.11565
6.484,0.10753
6.488,0.10509
6.492,0.10293
6.496,0.11675
6.5,0.0848
6.504,0.10914
6.508,0.07963
6.512,0.07874
6.516,0.06554
6.52,0.08985
6.524,0.02914
6.528,0.0497
6.532,0.05352
6.536,0.02832
6.54,0.03015
6.544,0.02612
6.548,0.02925
6.552,0.03766
6.556,0.02251
6.56,0.01147
6.564,0.03411
6.568,0.04559
6.572,0.00683
6.576,0.05529
6.58,0.03215
6.584,0.02191
6.588,0.01104
6.592,0.00859
6.596,0.03335
6.6,0.01097
6.604,-0.00541
6.608,-0.03442
6.612,-0.07076
6.616,-0.10319
6.62,-0.06793
6.624,0.02897
6.628,0.16203
6.632,0.32729
6.636,0.55843
6.64,0.78527
6.644,0.94913
6.648,1.00385
6.652,1.01842
6.656,0.82512
6.66,0.65891
6.664,0.41403
6.668,0.19658
6.672,0.00197
6.676,-0.09706
6.68,-0.13881
6.684,-0.13306
6.688,-0.09504
6.692,-0.05449
6.696,-0.0379
6.7,-0.01911
6.704,0.04172
6.708,0.01364
6.712,0.01473
6.716,0.02395
6.72,0.03314
6.724,0.05599
6.728,0.00253
6.732,0.03744
6.736,0.00941
6.74,0.02039
6.744,0.02441
6.748,0.03561
6.752,0.02935
6.756,0.04528
6.76,0.01193
6.764,0.03773
6.768,0.0211
6.772,-0.00665
6.776,0.03083
6.78,0.03227
6.784,0.03758
6.788,0.0513
6.792,0.06331
6.796,0.02798
6.8,0.04308
6.804,0.0398
6.808,0.04983
6.812,0.02073
6.816,0.04983
6.82,0.04331
6.824,0.02377
6.828,0.03961
6.832,0.02921
6.836,0.0332
6.84,0.05443
6.844,0.06643
6.848,0.08642
6.852,0.08396
6.856,0.09557
6.86,0.10156
6.864,0.11521
6.868,0.11797
6.872,0.1249
6.876,0.12192
6.88,0.14725
6.884,0.13667
6.888,0.15195
6.892,0.19664
6.896,0.21062
6.9,0.19026
6.904,0.2026
6.908,0.22517
6.912,0.25676
6.916,0.24897
6.92,0.25202
6.924,0.25208
6.928,0.24786
6.932,0.23883
6.936,0.24237
6.94,0.26005
6.944,0.23485
6.948,0.25995
6.952,0.24787
6.956,0.20734
6.96,0.18984
6.964,0.16772
6.968,0.19662
6.972,0.15838
6.976,0.1523
6.98,0.16454
6.984,0.12216
6.988,0.13161
6.992,0.11344
6.996,0.08736
7.0,0.07301
7.004,0.10335
7.008,0.05925
7.012,0.08113
7.016,0.06486
7.02,0.05304
7.024,0.06651
7.028,0.03079
7.032,0.0625
7.036,0.04664
7.04,0.0173
7.044,0.02849
7.048,0.05701
7.052,0.05399
7.056,0.03598
7.06,0.02685
7.064,0.0667
7.068,0.0344
7.072,0.06704
7.076,0.04215
7.08,0.02103
7.084,0.04147
7.088,0.02748
7.092,0.01429
7.096,0.04838
7.1,0.03991
7.104,0.02527
7.108,0.03571
7.112,0.01441
7.116,0.02451
7.12,0.04826
7.124,0.03783
7.128,0.02886
7.132,0.0265
7.136,0.00591
7.14,0.02418
7.144,0.04354
7.148,0.01907
7.152,0.04142
7.156,0.05188
7.16,0.01337
7.164,0.02686
7.168,0.03156
7.172,0.0406
7.176,0.04135
7.18,0.03217
7.184,0.00241
7.188,0.00805
7.192,0.05879
7.196,0.02691
7.2,0.04007
7.204,0.05833
7.208,0.02065
7.212,0.03488
7.216,0.01692
7.22,0.02472
7.224,0.02401
7.228,0.03483
7.232,0.03185
7.236,0.02664
7.24,0.01436
7.244,0.04104
7.248,0.02678
7.252,0.01502
7.256,0.01961
7.26,0.04975
7.264,0.03791
7.268,0.04423
7.272,0.05545
7.276,0.05422
7.28,0.03449
7.284,0.02794
7.288,0.04963
7.292,0.01374
7.296,0.02728
7.3,0.01509
7.304,0.02731
7.308,0.01831
7.312,0.01152
7.316,0.04963
7.32,0.00606
7.324,0.01471
7.328,0.02942
7.332,0.04651
7.336,0.03846
7.34,0.04425
7.344,0.06584
7.348,0.04694
7.352,0.06172
7.356,0.04993
7.36,0.05243
7.364,0.10793
7.368,0.09954
7.372,0.12247
7.376,0.1246
7.38,0.10579
7.384,0.1423
7.388,0.09859
7.392,0.09817
7.396,0.11123
7.4,0.1203
7.404,0.09225
7.408,0.06478
7.412,0.05726
7.416,0.043
7.42,0.04124
7.424,0.05044
7.428,0.02312
7.432,0.06006
7.436,0.03875
7.44,0.01227
7.444,0.01587
7.448,0.04204
7.452,0.03082
7.456,0.00236
7.46,0.01471
7.464,0.01491
7.468,0.00798
7.472,0.03669
7.476,0.04283
7.48,0.02631
7.484,0.02792
7.488,0.03994
7.492,0.01888
7.496,0.0169
7.5,-0.02692
7.504,-0.05708
7.508,-0.05591
7.512,-0.06027
7.516,0.01585
7.52,0.12508
7.524,0.31645
7.528,0.49125
7.532,0.71868
7.536,0.9078
7.54,0.99887
7.544,0.9905
7.548,0.89064
7.552,0.71765
7.556,0.47555
7.56,0.23452
7.564,0.06158
7.568,-0.08477
7.572,-0.13892
7.576,-0.1597
7.58,-0.08922
7.584,-0.09134
7.588,-0.04063
7.592,0.00215
7.596,0.00285
7.6,0.05495
7.604,0.0313
7.608,0.02151
7.612,0.03032
7.616,0.02786
7.62,0.03892
7.624,0.00416
7.628,0.03772
7.632,0.01968
7.636,0.02943
7.64,0.03075
7.644,0.04358
7.648,0.02591
7.652,0.04175
7.656,0.00771
7.66,0.03515
7.664,0.02504
7.668,0.0143
7.672,0.01945
7.676,0.0257
7.68,0.01033
7.684,0.00477
7.688,0.00603
7.692,0.03705
7.696,0.04544
7.7,0.02227
7.704,0.05235
7.708,0.03082
7.712,0.02335
7.716,0.02033
7.72,0.03376
7.724,0.02831
7.728,0.0617
7.732,0.06947
7.736,0.06986
7.74,0.07125
7.744,0.08777
7.748,0.06974
7.752,0.04448
7.756,0.11277
7.76,0.12821
7.764,0.11572
7.768,0.13833
7.772,0.13674
7.776,0.12928
7.78,0.18026
7.784,0.15563
7.788,0.21674
7.792,0.20189
7.796,0.19635
7.8,0.2133
7.804,0.23108
7.808,0.24374
7.812,0.23196
7.816,0.2442
7.82,0.24002
7.824,0.23976
7.828,0.23275
7.832,0.24442
7.836,0.24004
7.84,0.24726
7.844,0.23426
7.848,0.20331
7.852,0.16991
7.856,0.17185
7.86,0.16222
7.864,0.15422
7.868,0.14749
7.872,0.15469
7.876,0.14543
7.88,0.13783
7.884,0.11177
7.888,0.11001
7.892,0.08516
7.896,0.08657
7.9,0.06247
7.904,0.06273
7.908,0.04786
7.912,0.04265
7.916,0.04984
7.92,0.03311
7.924,0.04796
7.928,0.0314
7.932,0.02911
7.936,0.03198
7.94,0.00696
7.944,0.03417
7.948,0.02864
7.952,0.03045
7.956,0.0321
7.96,0.05186
7.964,0.01463
7.968,0.03845
7.972,-0.0005
7.976,0.03356
7.98,0.02442
7.984,0.02998
7.988,0.03782
7.992,0.05352
7.996,0.03869
8.0,0.00881
8.004,0.00336
8.008,0.03334
8.012,0.0248
8.016,0.02588
8.02,0.00287
8.024,0.01629
8.028,0.01644
8.032,-0.00226
8.036,0.02722
8.04,0.02342
8.044,-0.00866
8.048,0.01601
8.052,0.04752
8.056,0.03868
8.06,0.03103
8.064,0.04059
8.068,0.01025
8.072,0.04795
8.076,0.03278
8.08,0.03259
8.084,0.00263
8.088,0.00687
8.092,0.03126
8.096,0.03228
8.1,0.03646
8.104,0.0395
8.108,0.01326
8.112,0.01948
8.116,0.04353
8.12,0.02882
8.124,0.04132
8.128,0.03356
8.132,0.0361
8.136,0.03034
8.14,0.03485
8.144,0.02541
8.148,0.02371
8.152,0.04155
8.156,0.04295
8.16,0.03167
8.164,0.0071
8.168,0.00631
8.172,0.02128
8.176,0.01975
8.18,0.01021
8.184,-0.01247
8.188,0.04813
8.192,-0.01716
8.196,0.03628
8.2,0.03514
8.204,0.04252
8.208,0.00018
8.212,0.05007
8.216,0.03116
8.22,0.02506
8.224,0.04188
8.228,0.07943
8.232,0.07808
8.236,0.09366
8.24,0.08288
8.244,0.10996
8.248,0.09407
8.252,0.11848
8.256,0.08421
8.26,0.11968
8.264,0.09093
8.268,0.0779
8.272,0.06518
8.276,0.05125
8.28,0.04845
8.284,0.03578
8.288,0.05186
8.292,0.00339
8.296,0.03393
8.3,-0.00337
8.304,0.0149
8.308,0.02156
8.312,0.00925
8.316,0.0133
8.32,-0.00081
8.324,0.00546
8.328,0.00863
8.332,0.01749
8.336,0.0042
8.34,0.0192
8.344,-0.01094
8.348,0.00961
8.352,0.02353
8.356,0.00824
8.36,0.01073
8.364,-0.0013
8.368,-0.03009
8.372,-0.0882
8.376,-0.10777
8.38,-0.09138
8.384,-0.02055
8.388,0.0924
8.392,0.28792
8.396,0.46331
8.4,0.73282
8.404,0.88692
8.408,0.98146
8.412,1.00355
8.416,0.86152
8.42,0.68118
8.424,0.48271
8.428,0.25297
8.432,0.06864
8.436,-0.0731
8.44,-0.14102
8.444,-0.13697
8.448,-0.15993
8.452,-0.07912
8.456,-0.04189
8.46,-0.02058
8.464,-0.00911
8.468,0.01646
8.472,0.03394
8.476,0.0163
8.48,0.01108
8.484,0.02704
8.488,0.01131
8.492,0.05557
8.496,0.00847
8.5,0.03161
8.504,-0.0008
8.508,0.00356
8.512,-0.00051
8.516,0.00712
8.52,0.00981
8.524,0.01447
8.528,0.00497
8.532,0.02358
8.536,0.03538
8.54,0.01276
8.544,0.00114
8.548,0.02314
8.552,0.01539
8.556,0.01043
8.56,0.02927
8.564,0.01978
8.568,0.03675
8.572,0.00982
8.576,0.00095
8.58,-0.00851
8.584,0.04462
8.588,0.01752
8.592,0.01592
8.596,0.05487
8.6,0.04628
8.604,0.03199
8.608,0.04449
8.612,0.03429
8.616,0.05423
8.62,0.0628
8.624,0.07782
8.628,0.0959
8.632,0.09189
8.636,0.12514
8.64,0.13941
8.644,0.12074
8.648,0.12023
8.652,0.15368
8.656,0.14607
8.66,0.14638
8.664,0.19145
8.668,0.19889
8.672,0.1956
8.676,0.21018
8.68,0.20408
8.684,0.22545
8.688,0.19071
8.692,0.22521
8.696,0.20993
8.7,0.2064
8.704,0.21018
8.708,0.18286
8.712,0.19298
8.716,0.19349
8.72,0.18032
8.724,0.15815
8.728,0.165
8.732,0.10541
8.736,0.13524
8.74,0.14421
8.744,0.08385
8.748,0.10362
8.752,0.05998
8.756,0.09642
8.76,0.06003
8.764,0.07876
8.768,0.07026
8.772,0.05625
8.776,0.01779
8.78,0.03659
8.784,0.02043
8.788,0.01349
8.792,0.00863
8.796,0.00079
8.8,0.00817
8.804,0.00684
8.808,0.02504
8.812,0.01023
8.816,0.01421
8.82,-0.01455
8.824,0.02134
8.828,0.00128
8.832,0.00767
8.836,-0.01354
8.84,0.01986
8.844,0.0218
8.848,-0.02103
8.852,0.00483
8.856,-0.00257
8.86,-0.00111
8.864,-0.02679
8.868,-0.01846
8.872,0.02398
8.876,-0.00026
8.88,0.03115
8.884,0.00725
8.888,-0.00533
8.892,-0.00817
8.896,0.00049
8.9,0.00713
8.904,-0.00157
8.908,0.00461
8.912,0.01093
8.916,-0.02362
8.92,-0.01274
8.924,-0.01302
8.928,-0.0042
8.932,0.0188
8.936,-0.01064
8.94,0.00354
8.944,0.01739
8.948,-0.03443
8.952,-0.01381
8.956,0.00232
8.96,-0.00594
8.964,-0.00953
8.968,-0.01695
8.972,-0.00918
8.976,-0.0126
8.98,-0.00651
8.984,-0.00549
8.988,0.00649
8.992,-0.00237
8.996,0.00918
9.0,-0.01367
9.004,0.01157
9.008,-0.00532
9.012,0.01749
9.016,0.00178
9.02,-0.01048
9.024,-0.00598
9.028,0.03084
9.032,-0.03184
9.036,-0.01263
9.04,-0.00422
9.044,0.00917
9.048,-0.00172
9.052,-0.0069
9.056,-0.01977
9.06,-0.01264
9.064,0.02229
9.068,-0.03194
9.072,-0.02454
9.076,-0.02655
9.08,-0.01179
9.084,-0.00372
9.088,0.00494
9.092,-0.01453
9.096,-0.03791
9.1,-0.03146
9.104,-0.01248
9.108,-0.04088
9.112,0.00065
9.116,-0.01799
9.12,-0.0301
9.124,-0.00883
9.128,-0.0014
9.132,0.00757
9.136,0.02988
9.14,0.0347
9.144,0.01014
9.148,0.03102
9.152,0.02606
9.156,0.07003
9.16,0.06757
9.164,0.08172
9.168,0.08951
9.172,0.0925
9.176,0.05907
9.18,0.0932
9.184,0.07992
9.188,0.0713
9.192,0.07128
9.196,0.0294
9.2,-0.00421
9.204,0.02345
9.208,-0.002
9.212,-0.00351
9.216,-0.00369
9.22,-0.00377
9.224,-0.00014
9.228,-0.00911
9.232,-0.02596
9.236,0.00824
9.24,-0.00999
9.244,-0.02112
9.248,-0.01559
9.252,0.00093
9.256,-0.02129
9.26,-0.03539
9.264,0.00454
9.268,-0.01877
9.272,-0.01395
9.276,-0.02892
9.28,-0.03511
9.284,-0.03166
9.288,-0.04919
9.292,-0.05144
9.296,-0.1073
9.3,-0.11389
9.304,-0.09371
9.308,-0.03677
9.312,0.06703
9.316,0.28768
9.32,0.5159
9.324,0.70798
9.328,0.90715
9.332,0.98273
9.336,0.96472
9.34,0.8348
9.344,0.59003
9.348,0.3789
9.352,0.19538
9.356,0.02397
9.36,-0.13506
9.364,-0.17095
9.368,-0.17179
9.372,-0.153
9.376,-0.11605
9.38,-0.08034
9.384,-0.0383
9.388,-0.02696
9.392,-0.0021
9.396,-0.00041
9.4,-0.00971
9.404,-0.01917
9.408,-0.03986
9.412,-0.01601
9.416,-0.00768
9.42,-0.01628
9.424,-0.02429
9.428,-0.00737
9.432,-0.00711
9.436,0.0098
9.44,-0.01231
9.444,-0.01824
9.448,-0.02944
9.452,-0.02337
9.456,-0.04833
9.46,-0.00262
9.464,-0.01491
9.468,-0.00792
9.472,-0.03385
9.476,-0.02663
9.48,-0.01454
9.484,-0.01405
9.488,-0.02012
9.492,-0.04345
9.496,-0.02099
9.5,-0.01962
9.504,-0.02137
9.508,-0.00137
9.512,0.0088
9.516,-0.01185
9.52,-0.01745
9.524,0.00385
9.528,0.02133
9.532,0.0339
9.536,0.05127
9.54,0.03543
9.544,0.02727
9.548,0.06927
9.552,0.06742
9.556,0.08196
9.56,0.08616
9.564,0.06806
9.568,0.11991
9.572,0.11317
9.576,0.11634
9.58,0.15344
9.584,0.1596
9.588,0.1793
9.592,0.17759
9.596,0.16248
9.6,0.21046
9.604,0.2119
9.608,0.18733
9.612,0.20804
9.616,0.20503
9.62,0.16378
9.624,0.1972
9.628,0.19061
9.632,0.16132
9.636,0.17835
9.64,0.16785
9.644,0.14625
9.648,0.10743
9.652,0.15021
9.656,0.11764
9.66,0.1201
9.664,0.09032
9.668,0.10115
9.672,0.07072
9.676,0.04943
9.68,0.03891
9.684,0.0484
9.688,0.06299
9.692,0.01718
9.696,0.0206
9.7,0.01981
9.704,-0.00857
9.708,0.00621
9.712,0.01985
9.716,-0.00825
9.72,-0.0269
9.724,-0.02272
9.728,-0.0203
9.732,-0.02939
9.736,-0.0245
9.74,-0.01415
9.744,-0.04792
9.748,-0.02515
9.752,-0.01615
9.756,-0.01323
9.76,-0.0354
9.764,-0.03041
9.768,-0.01658
9.772,-0.03238
9.776,-0.00148
9.78,-0.02046
9.784,-0.02998
9.788,-0.05204
9.792,-0.03763
9.796,-0.03777
9.8,-0.0382
9.804,-0.02789
9.808,-0.02239
9.812,-0.06119
9.816,-0.02259
9.82,-0.00108
9.824,-0.03503
9.828,-0.01651
9.832,-0.02598
9.836,-0.03507
9.84,-0.01708
9.844,-0.02155
9.848,-0.01075
9.852,-0.02439
9.856,-0.02609
9.86,-0.02821
9.864,-0.01003
9.868,-0.0381
9.872,-0.02134
9.876,-0.03836
9.88,-0.02469
9.884,-0.03499
9.888,-0.02468
9.892,-0.02323
9.896,-0.01379
9.9,-0.03709
9.904,-0.01632
9.908,-0.02395
9.912,-0.02761
9.916,-0.01927
9.92,-0.01598
9.924,-0.02546
9.928,0.00333
9.932,-0.02805
9.936,-0.0039
9.94,-0.03075
9.944,-0.04047
9.948,-0.03247
9.952,-0.01472
9.956,0.00057
9.96,-0.03617
9.964,-0.01668
9.968,-0.04474
9.972,-0.00976
9.976,-0.00883
9.98,-0.02776
9.984,-0.01464
9.988,-0.02679
9.992,-0.03378
9.996,-0.02319
