t_seg,ecg_mV
0.0,-0.00976
0.004,0.00537
0.008,0.01441
0.012,0.00236
0.016,0.00894
0.02,0.00817
0.024,-0.00071
0.028,0.00643
0.032,0.05136
0.036,0.03281
0.04,0.03442
0.044,0.05119
0.048,0.05991
0.052,0.04845
0.056,0.0767
0.06,0.09879
0.064,0.11181
0.068,0.09759
0.072,0.11205
0.076,0.11956
0.08,0.10037
0.084,0.10309
0.088,0.07335
0.092,0.05393
0.096,0.05386
0.1,0.0417
0.104,0.03712
0.108,0.02797
0.112,0.03295
0.116,0.01073
0.12,-0.0081
0.124,0.01459
0.128,0.01862
0.132,0.01114
0.136,0.01808
0.14,-0.00633
0.144,0.01366
0.148,0.02128
0.152,-0.01459
0.156,-0.0126
0.16,-0.03858
0.164,-0.00185
0.168,-0.00152
0.172,-0.00083
0.176,-0.0207
0.18,0.00047
0.184,-0.03134
0.188,-0.03025
0.192,-0.08553
0.196,-0.08821
0.2,-0.10107
0.204,-0.04388
0.208,0.11482
0.212,0.27597
0.216,0.48367
0.22,0.71544
0.224,0.89241
0.228,0.97448
0.232,1.0097
0.236,0.89034
0.24,0.71383
0.244,0.47306
0.248,0.23963
0.252,0.03321
0.256,-0.08175
0.26,-0.17166
0.264,-0.16725
0.268,-0.13408
0.272,-0.09033
0.276,-0.04671
0.28,-0.02959
0.284,-0.01236
0.288,0.0037
0.292,-0.02254
0.296,0.01294
0.3,0.01884
0.304,-0.00378
0.308,-0.00014
0.312,0.00507
0.316,-0.02339
0.32,0.00373
0.324,0.01202
0.328,-0.0139
0.332,0.02913
0.336,-0.00857
0.34,-0.01107
0.344,-0.00664
0.348,0.01496
0.352,-0.02582
0.356,-0.00965
0.36,0.00933
0.364,-0.00226
0.368,-0.03595
0.372,0.02324
0.376,-0.00235
0.38,-0.00629
0.384,-0.00119
0.388,0.01665
0.392,0.01652
0.396,-0.00132
0.4,0.00827
0.404,0.01042
0.408,0.0211
0.412,0.01485
0.416,0.0269
0.42,0.04124
0.424,0.04792
0.428,0.0646
0.432,0.02265
0.436,0.06044
0.44,0.05832
0.444,0.08966
0.448,0.09961
0.452,0.09672
0.456,0.10528
0.46,0.12481
0.464,0.12385
0.468,0.13173
0.472,0.15892
0.476,0.17296
0.48,0.15749
0.484,0.18895
0.488,0.1908
0.492,0.2233
0.496,0.19928
0.5,0.20763
0.504,0.2343
0.508,0.21338
0.512,0.21495
0.516,0.21227
0.52,0.20772
0.524,0.19971
0.528,0.19914
0.532,0.17913
0.536,0.17992
0.54,0.16895
0.544,0.15168
0.548,0.13923
0.552,0.13964
0.556,0.13741
0.56,0.11046
0.564,0.12809
0.568,0.09328
0.572,0.08842
0.576,0.06165
0.58,0.05617
0.584,0.03515
0.588,0.0386
0.592,0.03349
0.596,0.04042
0.6,0.03863
0.604,0.00238
0.608,-0.02696
0.612,0.00677
0.616,-0.01445
0.62,0.00261
0.624,-0.01155
0.628,-0.00679
0.632,0.01498
0.636,-0.0061
0.64,-0.03363
0.644,-0.00674
0.648,0.00754
0.652,0.01228
0.656,-0.0236
0.66,0.00266
0.664,-0.01126
0.668,-0.00291
0.672,-0.01547
0.676,0.00613
0.68,0.00788
0.684,-0.00301
0.688,0.00217
0.692,-0.00362
0.696,-0.00746
0.7,0.01411
0.704,-0.02225
0.708,-0.00593
0.712,0.00269
0.716,-0.03539
0.72,-0.04881
0.724,0.00507
0.728,-0.02982
0.732,0.00203
0.736,-0.01376
0.74,-0.02096
0.744,-0.01286
0.748,-0.01776
0.752,-0.00471
0.756,-0.0284
0.76,-0.02238
0.764,-0.01459
0.768,-0.00851
0.772,-0.02368
0.776,-0.00259
0.78,0.00283
0.784,-0.03009
0.788,-0.00574
0.792,-0.00547
0.796,0.01104
0.8,-0.01058
0.804,0.00167
0.808,-0.02408
0.812,-0.00272
0.816,0.0075
0.82,-0.04553
0.824,-0.00589
0.828,-0.0117
0.832,-0.01759
0.836,-0.0238
0.84,0.00819
0.844,-0.0273
0.848,-0.01604
0.852,-0.02767
0.856,-0.0047
0.86,-0.04489
0.864,-0.04918
0.868,-0.01064
0.872,-0.00954
0.876,-0.01419
0.88,-0.02361
0.884,0.0098
0.888,-0.01454
0.892,-0.02291
0.896,-0.00755
0.9,-0.01165
0.904,-0.00749
0.908,-0.01469
0.912,-0.00684
0.916,-0.00106
0.92,-0.01406
0.924,-0.03879
0.928,-0.0219
0.932,-0.00821
0.936,-0.01418
0.94,-0.00033
0.944,-0.00597
0.948,-0.00111
0.952,-0.0417
0.956,-0.01645
0.96,-0.00061
0.964,-0.00095
0.968,-0.01373
0.972,-0.01596
0.976,-0.00718
0.98,-0.02873
0.984,-0.01357
0.988,-0.02392
0.992,-0.00903
0.996,0.00426
1.0,-0.01832
1.004,-0.0115
1.008,-0.00744
1.012,0.00516
1.016,-0.00577
1.02,-0.01078
1.024,-0.0147
1.028,-0.02317
1.032,-0.01283
1.036,0.01879
1.04,-0.00793
1.044,-0.02289
1.048,-0.0205
1.052,0.0022
1.056,0.00334
1.06,-0.00547
1.064,0.03224
1.068,0.03928
1.072,0.04314
1.076,0.0434
1.08,0.07341
1.084,0.06171
1.088,0.07248
1.092,0.08125
1.096,0.08751
1.1,0.08268
1.104,0.05371
1.108,0.03102
1.112,0.02292
1.116,0.04292
1.12,0.01734
1.124,0.00494
1.128,-0.02125
1.132,-0.02262
1.136,-0.01434
1.14,0.00597
1.144,-0.03272
1.148,-0.01447
1.152,-0.01379
1.156,-0.02999
1.16,-0.01931
1.164,-0.05571
1.168,-0.01111
1.172,-0.02385
1.176,-0.02438
1.18,-0.02817
1.184,-0.03014
1.188,-0.05262
1.192,-0.01786
1.196,-0.02313
1.2,-0.01344
1.204,-0.06037
1.208,-0.08657
1.212,-0.10453
1.216,-0.15643
1.22,-0.11076
1.224,-0.03278
1.228,0.08257
1.232,0.2882
1.236,0.49809
1.24,0.72016
1.244,0.8557
1.248,0.98313
1.252,0.97378
1.256,0.84049
1.26,0.62433
1.264,0.37167
1.268,0.19617
1.272,0.00999
1.276,-0.12684
1.28,-0.18982
1.284,-0.18231
1.288,-0.15912
1.292,-0.10189
1.296,-0.07425
1.3,-0.06286
1.304,-0.05688
1.308,-0.03831
1.312,-0.04801
1.316,-0.02299
1.32,-0.01614
1.324,-0.012
1.328,-0.03692
1.332,-0.03317
1.336,-0.03926
1.34,-0.01917
1.344,-0.02396
1.348,-0.01729
1.352,-0.02681
1.356,-0.03432
1.36,-0.03575
1.364,-0.01397
1.368,-0.02984
1.372,-0.01827
1.376,-0.03267
1.38,0.00089
1.384,-0.03875
1.388,-0.01606
1.392,-0.03245
1.396,-0.00798
1.4,-0.01854
1.404,-0.0324
1.408,-0.02093
1.412,-0.00383
1.416,-0.00213
1.42,-0.02042
1.424,-0.01347
1.428,0.01502
1.432,0.02383
1.436,0.0281
1.44,0.00395
1.444,0.03127
1.448,0.01598
1.452,0.01618
1.456,0.02137
1.46,0.05603
1.464,0.05651
1.468,0.07938
1.472,0.07193
1.476,0.05938
1.48,0.09912
1.484,0.10317
1.488,0.09335
1.492,0.12862
1.496,0.14994
1.5,0.14497
1.504,0.17127
1.508,0.18039
1.512,0.16552
1.516,0.17688
1.52,0.20417
1.524,0.17898
1.528,0.18996
1.532,0.17422
1.536,0.16132
1.54,0.1971
1.544,0.20256
1.548,0.20703
1.552,0.173
1.556,0.15864
1.56,0.1386
1.564,0.12538
1.568,0.1451
1.572,0.13219
1.576,0.11052
1.58,0.1078
1.584,0.06904
1.588,0.04223
1.592,0.02386
1.596,0.06718
1.6,0.03032
1.604,0.04628
1.608,0.03097
1.612,0.00506
1.616,0.02514
1.62,-0.04346
1.624,-0.0401
1.628,0.00386
1.632,-0.0291
1.636,-0.00739
1.64,-0.02525
1.644,-0.01618
1.648,-0.02116
1.652,-0.06207
1.656,-0.02771
1.66,-0.02781
1.664,-0.01368
1.668,-0.02743
1.672,-0.03918
1.676,-0.02211
1.68,-0.03996
1.684,-0.01716
1.688,-0.01502
1.692,-0.03344
1.696,-0.02306
1.7,-0.03113
1.704,-0.03841
1.708,-0.01923
1.712,-0.02103
1.716,-0.02878
1.72,0.00625
1.724,-0.02832
1.728,-0.04072
1.732,-0.04363
1.736,-0.04546
1.74,-0.02219
1.744,-0.00484
1.748,-0.03359
1.752,-0.05347
1.756,-0.05136
1.76,-0.02603
1.764,-0.02277
1.768,-0.01775
1.772,-0.00988
1.776,-0.02382
1.78,-0.0235
1.784,-0.01116
1.788,-0.00457
1.792,-0.04873
1.796,-0.00945
1.8,-0.03291
1.804,-0.03874
1.808,-0.02815
1.812,-0.03128
1.816,-0.02537
1.82,-0.03057
1.824,-0.02096
1.828,-0.01432
1.832,-0.05178
1.836,-0.00239
1.84,-0.04213
1.844,-0.02335
1.848,-0.03673
1.852,-0.04058
1.856,-0.00448
1.86,-0.01895
1.864,-0.03074
1.868,-0.02258
1.872,-0.04224
1.876,0.00116
1.88,-0.04386
1.884,-0.0353
1.888,-0.03443
1.892,-0.03765
1.896,-0.04224
1.9,-0.04261
1.904,-0.00767
1.908,-0.0493
1.912,-0.0301
1.916,-0.01903
1.92,-0.03187
1.924,-0.02091
1.928,-0.02727
1.932,-0.01001
1.936,-0.04688
1.94,-0.02476
1.944,0.02318
1.948,0.01028
1.952,0.02194
1.956,0.02069
1.96,0.05075
1.964,0.04101
1.968,0.07199
1.972,0.08371
1.976,0.068
1.98,0.07071
1.984,0.03262
1.988,0.04334
1.992,0.02324
1.996,0.04587
2.0,0.00993
2.004,-0.00198
2.008,0.00242
2.012,-0.01131
2.016,-0.03915
2.02,-0.02152
2.024,-0.02216
2.028,-0.00193
2.032,-0.02206
2.036,-0.01538
2.04,-0.00504
2.044,-0.02085
2.048,-0.02263
2.052,-0.02808
2.056,-0.00816
2.06,-0.02823
2.064,-0.03302
2.068,-0.04216
2.072,-0.03733
2.076,-0.00581
2.08,-0.06144
2.084,-0.02836
2.088,-0.06125
2.092,-0.06267
2.096,-0.11284
2.1,-0.16736
2.104,-0.10329
2.108,-0.03687
2.112,0.11912
2.116,0.31822
2.12,0.52116
2.124,0.71793
2.128,0.8979
2.132,0.96472
2.136,0.93845
2.14,0.79227
2.144,0.58969
2.148,0.33868
2.152,0.13108
2.156,-0.00449
2.16,-0.16472
2.164,-0.20249
2.168,-0.17048
2.172,-0.17663
2.176,-0.11321
2.18,-0.0769
2.184,-0.04488
2.188,-0.02195
2.192,-0.026
2.196,-0.07055
2.2,-0.02623
2.204,-0.00953
2.208,-0.03042
2.212,-0.00688
2.216,-0.02286
2.22,-0.03901
2.224,-0.02638
2.228,-0.01398
2.232,-0.04212
2.236,-0.01351
2.24,-0.03372
2.244,-0.02484
2.248,-0.02316
2.252,-0.04642
2.256,-0.03082
2.26,-0.03012
2.264,-0.011
2.268,-0.05932
2.272,-0.03088
2.276,-0.04961
2.28,-0.00943
2.284,-0.01197
2.288,-0.02214
2.292,-0.01834
2.296,-0.03237
2.3,0.01057
2.304,-0.01096
2.308,-0.0058
2.312,-0.01059
2.316,0.00612
2.32,-0.00808
2.324,-0.00096
2.328,0.00056
2.332,0.01961
2.336,0.03949
2.34,0.03753
2.344,0.06144
2.348,0.08571
2.352,0.04847
2.356,0.07032
2.36,0.08463
2.364,0.08559
2.368,0.12984
2.372,0.1175
2.376,0.12602
2.38,0.16892
2.384,0.1759
2.388,0.17663
2.392,0.1545
2.396,0.1971
2.4,0.19345
2.404,0.18488
2.408,0.18518
2.412,0.2022
2.416,0.18771
2.42,0.199
2.424,0.18164
2.428,0.19031
2.432,0.15675
2.436,0.17244
2.44,0.14344
2.444,0.14837
2.448,0.12753
2.452,0.12499
2.456,0.12442
2.46,0.09549
2.464,0.07397
2.468,0.07933
2.472,0.0403
2.476,0.05326
2.48,0.03411
2.484,0.03296
2.488,-0.00419
2.492,-0.00119
2.496,0.01472
2.5,-0.00465
2.504,-0.00776
2.508,-0.00043
2.512,-0.00014
2.516,0.00726
2.52,-0.03203
2.524,-0.0068
2.528,-0.0185
2.532,-0.00383
2.536,-0.01806
2.54,0.00506
2.544,-0.03113
2.548,-0.01957
2.552,-0.0072
2.556,-0.04905
2.56,-0.02579
2.564,-0.0037
2.568,-0.03144
2.572,-0.02278
2.576,0.00069
2.58,-0.01974
2.584,-0.02357
2.588,-0.03774
2.592,-0.01659
2.596,-0.00248
2.6,-0.03831
2.604,-0.01029
2.608,-0.01182
2.612,-0.03563
2.616,-0.03323
2.62,-0.01681
2.624,-0.0103
2.628,-0.01971
2.632,-0.00217
2.636,-0.0335
2.64,-0.04474
2.644,-0.01433
2.648,-0.00933
2.652,-0.04363
2.656,-0.02013
2.66,-0.03682
2.664,-0.00913
2.668,-0.04621
2.672,0.01378
2.676,-0.04283
2.68,-0.00975
2.684,-0.03903
2.688,-0.0154
2.692,-0.02336
2.696,-0.02666
2.7,-0.03402
2.704,-0.03536
2.708,0.0009
2.712,-0.03756
2.716,-0.03107
2.72,-0.03756
2.724,-0.03109
2.728,-0.00479
2.732,-0.02364
2.736,-0.01824
2.74,-0.03133
2.744,-0.01761
2.748,-0.03764
2.752,0.01062
2.756,-0.03324
2.76,-0.02332
2.764,-0.03701
2.768,-0.01268
2.772,-0.01462
2.776,-0.01959
2.78,-0.02654
2.784,-0.01957
2.788,0.01233
2.792,0.01419
2.796,-0.01065
2.8,-0.01016
2.804,-0.03591
2.808,-0.02083
2.812,0.02165
2.816,-0.01383
2.82,-0.01828
2.824,-0.00796
2.828,-0.02267
2.832,-0.04497
2.836,-0.0081
2.84,-0.03745
2.844,-0.03319
2.848,0.00122
2.852,-0.01646
2.856,-0.01793
2.86,-0.03277
2.864,-0.03274
2.868,0.00212
2.872,-0.02002
2.876,-0.00987
2.88,-0.0054
2.884,-0.01932
2.888,-0.02495
2.892,-0.0251
2.896,-0.0331
2.9,-0.04965
2.904,-0.02244
2.908,-0.01326
2.912,-0.0247
2.916,-0.00444
2.92,-0.00815
2.924,0.00437
2.928,0.03918
2.932,0.051
2.936,0.072
2.94,0.07361
2.944,0.05965
2.948,0.0582
2.952,0.08764
2.956,0.0834
2.96,0.05597
2.964,0.0777
2.968,0.08653
2.972,0.03123
2.976,0.04321
2.98,0.00631
2.984,0.03255
2.988,-0.0016
2.992,-0.00665
2.996,-0.00798
3.0,-0.00774
3.004,-0.02243
3.008,-0.03409
3.012,0.01316
3.016,-0.02596
3.02,-0.0164
3.024,-0.01712
3.028,-0.01647
3.032,0.00518
3.036,0.00333
3.04,-0.02306
3.044,-0.00736
3.048,-0.02965
3.052,-0.02709
3.056,-0.03466
3.06,7e-05
3.064,-0.00996
3.068,-0.06026
3.072,-0.05497
3.076,-0.12631
3.08,-0.14373
3.084,-0.11391
3.088,-0.04521
3.092,0.12125
3.096,0.28218
3.1,0.48675
3.104,0.7302
3.108,0.91136
3.112,0.97767
3.116,0.97006
3.12,0.84323
3.124,0.61106
3.128,0.40592
3.132,0.17764
3.136,-0.03128
3.14,-0.10926
3.144,-0.17671
3.148,-0.18281
3.152,-0.14845
3.156,-0.10536
3.16,-0.0636
3.164,-0.03948
3.168,-0.01356
3.172,-0.01917
3.176,0.00523
3.18,0.00985
3.184,0.00242
3.188,-0.01703
3.192,-0.01293
3.196,-0.0149
3.2,-0.01181
3.204,-0.02331
3.208,-0.00702
3.212,-0.01068
3.216,-0.02944
3.22,-0.00559
3.224,-0.03499
3.228,-0.02783
3.232,-0.0411
3.236,-0.03036
3.24,0.01244
3.244,0.00882
3.248,-0.01993
3.252,0.00586
3.256,-0.01725
3.26,0.00499
3.264,0.00323
3.268,-0.03038
3.272,-0.02261
3.276,0.00131
3.28,0.01747
3.284,0.02245
3.288,0.02399
3.292,-0.01228
3.296,0.00198
3.3,0.00183
3.304,0.03809
3.308,0.03645
3.312,0.05303
3.316,0.0395
3.32,0.02988
3.324,0.07153
3.328,0.0891
3.332,0.09807
3.336,0.08384
3.34,0.11863
3.344,0.12948
3.348,0.13193
3.352,0.15488
3.356,0.17861
3.36,0.15645
3.364,0.14541
3.368,0.20077
3.372,0.20353
3.376,0.21295
3.38,0.19436
3.384,0.20642
3.388,0.2066
3.392,0.21353
3.396,0.2386
3.4,0.18777
3.404,0.22628
3.408,0.22921
3.412,0.17087
3.416,0.19161
3.42,0.18189
3.424,0.18817
3.428,0.16617
3.432,0.11455
3.436,0.11485
3.44,0.10414
3.444,0.08057
3.448,0.09009
3.452,0.09767
3.456,0.07635
3.46,0.07603
3.464,0.03958
3.468,0.05356
3.472,0.03106
3.476,0.02302
3.48,0.02779
3.484,0.0058
3.488,0.03245
3.492,0.03103
3.496,-0.03797
3.5,0.01518
3.504,-0.01155
3.508,0.01656
3.512,0.01007
3.516,-0.00796
3.52,-0.01746
3.524,0.00579
3.528,0.00583
3.532,-0.03441
3.536,-0.01729
3.54,-0.00916
3.544,-0.02751
3.548,-0.01925
3.552,-0.00082
3.556,-0.00431
3.56,-0.01474
3.564,-0.03461
3.568,-0.00816
3.572,-0.00879
3.576,-0.025
3.58,-0.01724
3.584,0.02223
3.588,-0.01884
3.592,-0.0228
3.596,0.02645
3.6,-0.00185
3.604,0.01304
3.608,0.00631
3.612,0.01569
3.616,0.01148
3.62,0.00322
3.624,0.00553
3.628,0.00194
3.632,-0.01982
3.636,0.00724
3.64,0.01786
3.644,-0.02221
3.648,0.00351
3.652,-0.00927
3.656,0.01264
3.66,0.03001
3.664,0.0091
3.668,-0.01668
3.672,-0.02883
3.676,-0.00749
3.68,-0.01133
3.684,0.01085
3.688,0.01453
3.692,0.00188
3.696,0.01615
3.7,0.02764
3.704,-0.00697
3.708,-0.00364
3.712,0.01444
3.716,-0.00496
3.72,0.00039
3.724,0.0153
3.728,0.0066
3.732,0.01896
3.736,-0.00083
3.74,0.03446
3.744,0.01074
3.748,-0.00746
3.752,-0.01493
3.756,0.00642
3.76,-0.00625
3.764,0.02322
3.768,0.01222
3.772,-0.0224
3.776,-0.01208
3.78,0.01227
3.784,0.01482
3.788,0.00307
3.792,-0.01381
3.796,-0.01646
3.8,0.00948
3.804,-0.00198
3.808,-0.01623
3.812,0.00437
3.816,0.00083
3.82,-0.01502
3.824,-0.01454
3.828,0.0087
3.832,0.00617
3.836,-0.0014
3.84,0.00727
3.844,0.02053
3.848,0.00563
3.852,0.00568
3.856,0.00105
3.86,0.0051
3.864,-0.00482
3.868,0.02027
3.872,0.00577
3.876,0.00265
3.88,0.01599
3.884,-0.00744
3.888,-0.00502
3.892,0.01324
3.896,0.0113
3.9,0.01172
3.904,0.03863
3.908,0.04918
3.912,0.02395
3.916,0.07041
3.92,0.02482
3.924,0.08534
3.928,0.07843
3.932,0.11573
3.936,0.09903
3.94,0.11072
3.944,0.10614
3.948,0.08352
3.952,0.12479
3.956,0.06712
3.96,0.051
3.964,0.05144
3.968,0.0528
3.972,0.04808
3.976,0.02247
3.98,0.0378
3.984,0.02105
3.988,0.02306
3.992,0.00082
3.996,-0.00102
4.0,0.02354
4.004,0.0089
4.008,-0.01482
4.012,-0.00207
4.016,0.02708
4.02,-0.01
4.024,0.00048
4.028,0.01249
4.032,0.02248
4.036,0.02353
4.04,0.03175
4.044,0.00954
4.048,0.0001
4.052,0.02453
4.056,0.01721
4.06,-0.00702
4.064,-0.06043
4.068,-0.12265
4.072,-0.08137
4.076,-0.05308
4.08,0.0725
4.084,0.23239
4.088,0.44044
4.092,0.63673
4.096,0.84542
4.1,0.94608
4.104,1.00416
4.108,0.93411
4.112,0.74518
4.116,0.54067
4.12,0.35147
4.124,0.11933
4.128,-0.05891
4.132,-0.10114
4.136,-0.14146
4.14,-0.11065
4.144,-0.09131
4.148,-0.04151
4.152,-0.04443
4.156,0.00597
4.16,-0.00287
4.164,0.0133
4.168,0.00647
4.172,0.01236
4.176,0.00038
4.18,-0.00461
4.184,0.037
4.188,0.00188
4.192,0.0207
4.196,0.0224
4.2,0.00365
4.204,0.01109
4.208,0.00892
4.212,-0.00417
4.216,0.01103
4.22,0.0169
4.224,0.02382
4.228,0.00085
4.232,0.0084
4.236,0.02985
4.24,-0.00422
4.244,0.01928
4.248,0.03803
4.252,0.04856
4.256,0.02278
4.26,0.02792
4.264,0.03081
4.268,0.02881
4.272,0.04947
4.276,0.03902
4.28,0.01448
4.284,0.05936
4.288,0.03443
4.292,0.01488
4.296,0.0286
4.3,0.05158
4.304,0.07274
4.308,0.09339
4.312,0.08796
4.316,0.08875
4.32,0.12573
4.324,0.14179
4.328,0.11139
4.332,0.14283
4.336,0.14208
4.34,0.16112
4.344,0.16372
4.348,0.17656
4.352,0.19865
4.356,0.20154
4.36,0.2223
4.364,0.20252
4.368,0.22512
4.372,0.231
4.376,0.22992
4.38,0.24943
4.384,0.26044
4.388,0.22868
4.392,0.23741
4.396,0.22695
4.4,0.22763
4.404,0.20566
4.408,0.17212
4.412,0.19669
4.416,0.17031
4.42,0.18168
4.424,0.19753
4.428,0.17343
4.432,0.15551
4.436,0.10443
4.44,0.12774
4.444,0.09625
4.448,0.11911
4.452,0.0813
4.456,0.08563
4.46,0.06191
4.464,0.0822
4.468,0.06947
4.472,0.05452
4.476,0.04685
4.48,0.05019
4.484,0.06077
4.488,0.03109
4.492,0.04071
4.496,0.02585
4.5,0.01092
4.504,0.05248
4.508,0.02267
4.512,0.03116
4.516,0.03051
4.52,0.0124
4.524,0.01072
4.528,0.02579
4.532,0.02036
4.536,0.02562
4.54,0.0347
4.544,0.06817
4.548,0.01465
4.552,0.03063
4.556,0.02606
4.56,0.03601
4.564,0.02197
4.568,0.0372
4.572,0.0058
4.576,0.01063
4.58,0.03585
4.584,0.03675
4.588,0.01115
4.592,0.00162
4.596,0.00775
4.6,-0.0054
4.604,0.0515
4.608,0.00672
4.612,0.00187
4.616,0.02707
4.62,0.0067
4.624,0.01041
4.628,0.02539
4.632,0.03521
4.636,0.02297
4.64,0.02213
4.644,0.02976
4.648,0.01093
4.652,0.0115
4.656,0.0201
4.66,0.04308
4.664,0.0337
4.668,0.02994
4.672,0.01173
4.676,0.0122
4.68,-0.0094
4.684,0.05008
4.688,0.00018
4.692,0.02123
4.696,0.00836
4.7,0.0198
4.704,0.03496
4.708,0.03448
4.712,0.03722
4.716,0.04251
4.72,0.02493
4.724,0.00399
4.728,-0.00051
4.732,0.0097
4.736,0.02794
4.74,0.02719
4.744,0.04165
4.748,0.04371
4.752,0.05116
4.756,0.01918
4.76,0.02637
4.764,0.03229
4.768,0.0304
4.772,0.02956
4.776,0.03439
4.78,0.01613
4.784,0.01222
4.788,0.0137
4.792,0.02461
4.796,0.02826
4.8,0.0161
4.804,0.05914
4.808,0.02557
4.812,0.03931
4.816,0.03399
4.82,0.02168
4.824,0.02123
4.828,0.03116
4.832,0.04828
4.836,0.02519
4.84,0.05074
4.844,0.02472
4.848,0.00846
4.852,0.06692
4.856,0.06401
4.86,0.06923
4.864,0.07851
4.868,0.07083
4.872,0.09737
4.876,0.12541
4.88,0.10443
4.884,0.14272
4.888,0.13603
4.892,0.11568
4.896,0.11828
4.9,0.12528
4.904,0.12203
4.908,0.09301
4.912,0.05908
4.916,0.09554
4.92,0.06803
4.924,0.05893
4.928,0.04992
4.932,0.02413
4.936,0.0496
4.94,0.01237
4.944,0.04312
4.948,0.04337
4.952,0.03042
4.956,0.02245
4.96,0.01551
4.964,0.01126
4.968,0.03481
4.972,0.03635
4.976,0.04399
4.98,-0.01095
4.984,0.02347
4.988,0.03997
4.992,0.00461
4.996,0.01208
5.0,0.0245
5.004,0.00751
5.008,-0.01
5.012,-0.05462
5.016,-0.08354
5.02,-0.0568
5.024,0.05502
5.028,0.19453
5.032,0.35827
5.036,0.57686
5.04,0.80283
5.044,0.97118
5.048,1.01062
5.052,0.97675
5.056,0.82764
5.06,0.64015
5.064,0.39931
5.068,0.20264
5.072,0.0248
5.076,-0.09344
5.08,-0.14133
5.084,-0.11611
5.088,-0.08333
5.092,-0.06138
5.096,-0.00353
5.1,0.01495
5.104,0.04464
5.108,0.00139
5.112,0.01772
5.116,0.04155
5.12,0.0443
5.124,0.01445
5.128,0.04394
5.132,0.01718
5.136,0.02644
5.14,0.03803
5.144,0.03589
5.148,0.0473
5.152,0.05532
5.156,0.04735
5.16,0.01614
5.164,0.02411
5.168,0.02162
5.172,0.04204
5.176,0.04087
5.18,0.01172
5.184,0.03646
5.188,0.01393
5.192,0.02507
5.196,0.03095
5.2,0.01543
5.204,0.02517
5.208,0.03168
5.212,0.03533
5.216,0.02377
5.22,0.03625
5.224,0.03978
5.228,0.05022
5.232,0.03766
5.236,0.04637
5.24,0.03073
5.244,0.06749
5.248,0.07942
5.252,0.07284
5.256,0.08982
5.26,0.10074
5.264,0.13927
5.268,0.09489
5.272,0.12321
5.276,0.11447
5.28,0.1766
5.284,0.15173
5.288,0.19794
5.292,0.1691
5.296,0.21467
5.3,0.2001
5.304,0.22124
5.308,0.21294
5.312,0.23168
5.316,0.21727
5.32,0.23987
5.324,0.24732
5.328,0.23858
5.332,0.22757
5.336,0.22595
5.34,0.25144
5.344,0.26341
5.348,0.23759
5.352,0.22576
5.356,0.2283
5.36,0.21106
5.364,0.18504
5.368,0.17823
5.372,0.14021
5.376,0.12804
5.38,0.13865
5.384,0.1368
5.388,0.14241
5.392,0.10469
5.396,0.09986
5.4,0.08422
5.404,0.06253
5.408,0.08395
5.412,0.04171
5.416,0.08803
5.42,0.04636
5.424,0.10896
5.428,0.03879
5.432,0.04096
5.436,0.07294
5.44,0.03837
5.444,0.03904
5.448,0.05654
5.452,0.05532
5.456,0.02193
5.46,0.0363
5.464,0.04644
5.468,0.05381
5.472,0.03638
5.476,0.05787
5.48,0.02597
5.484,0.00971
5.488,0.0427
5.492,0.04027
5.496,0.04949
5.5,0.02535
5.504,0.0337
5.508,0.0133
5.512,0.03888
5.516,0.01818
5.52,0.03923
5.524,0.02275
5.528,0.05148
5.532,0.04379
5.536,0.02421
5.54,0.02634
5.544,0.0217
5.548,0.02141
5.552,0.02379
5.556,0.04154
5.56,0.03817
5.564,0.04893
5.568,0.03162
5.572,0.01908
5.576,0.04524
5.58,0.03395
5.584,0.04543
5.588,0.03388
5.592,0.04592
5.596,0.0485
5.6,0.02009
5.604,0.02038
5.608,0.05136
5.612,0.03604
5.616,0.03164
5.62,0.01886
5.624,-0.00663
5.628,0.01791
5.632,0.03328
5.636,0.04881
5.64,0.03024
5.644,0.03641
5.648,0.03616
5.652,0.0514
5.656,0.0363
5.66,0.04605
5.664,-0.00306
5.668,0.03579
5.672,0.05206
5.676,0.04101
5.68,0.04905
5.684,0.03143
5.688,0.0347
5.692,0.02051
5.696,0.02006
5.7,0.03974
5.704,0.02112
5.708,0.03714
5.712,0.01274
5.716,0.03724
5.72,0.04503
5.724,0.04407
5.728,0.04991
5.732,0.05915
5.736,0.02087
5.74,0.03984
5.744,0.02674
5.748,0.01662
5.752,0.00145
5.756,0.02852
5.76,0.01684
5.764,0.02835
5.768,0.02516
5.772,0.01027
5.776,0.03993
5.78,0.02469
5.784,0.04624
5.788,0.03201
5.792,0.03054
5.796,0.03352
5.8,0.02534
5.804,0.02369
5.808,0.01728
5.812,0.05003
5.816,0.03715
5.82,0.01266
5.824,0.01877
5.828,0.02305
5.832,0.02065
5.836,-0.00283
5.84,0.04981
5.844,0.01632
5.848,0.01458
5.852,0.02844
5.856,0.02446
5.86,-0.00079
5.864,0.03318
5.868,0.04352
5.872,0.03703
5.876,0.05002
5.88,0.06725
5.884,0.08662
5.888,0.08449
5.892,0.06748
5.896,0.11554
5.9,0.11625
5.904,0.13356
5.908,0.11508
5.912,0.12815
5.916,0.10279
5.92,0.11676
5.924,0.1107
5.928,0.07454
5.932,0.05283
5.936,0.02876
5.94,0.04883
5.944,0.06137
5.948,0.04049
5.952,0.04647
5.956,0.04786
5.96,0.01333
5.964,0.01893
5.968,0.02984
5.972,0.0438
5.976,0.02615
5.98,0.05847
5.984,0.06325
5.988,0.04006
5.992,0.01832
5.996,0.04597
6.0,0.02224
6.004,0.02833
6.008,0.03332
6.012,0.00162
6.016,0.04583
6.02,0.02204
6.024,0.00404
6.028,-0.04274
6.032,-0.06267
6.036,-0.09337
6.04,-0.097
6.044,0.04186
6.048,0.18071
6.052,0.36945
6.056,0.58196
6.06,0.79631
6.064,0.95763
6.068,1.02331
6.072,0.9571
6.076,0.85767
6.08,0.61125
6.084,0.38784
6.088,0.17261
6.092,0.00196
6.096,-0.13298
6.1,-0.15823
6.104,-0.14304
6.108,-0.09792
6.112,-0.08425
6.116,-0.02845
6.12,0.0129
6.124,0.03146
6.128,0.01305
6.132,0.00951
6.136,0.02524
6.14,0.0418
6.144,-0.00494
6.148,0.01897
6.152,0.03348
6.156,0.00554
6.16,0.02488
6.164,0.00883
6.168,0.02558
6.172,0.01602
6.176,0.02895
6.18,0.0174
6.184,0.03728
6.188,0.01253
6.192,0.00157
6.196,0.0463
6.2,0.04163
6.204,0.02224
6.208,0.01981
6.212,0.02499
6.216,0.02416
6.22,0.0509
6.224,0.04203
6.228,0.04138
6.232,0.00627
6.236,0.05207
6.24,0.04705
6.244,0.00786
6.248,0.02762
6.252,0.05827
6.256,0.04773
6.26,0.03917
6.264,0.03236
6.268,0.08452
6.272,0.05596
6.276,0.08711
6.28,0.09235
6.284,0.11931
6.288,0.10412
6.292,0.10766
6.296,0.1478
6.3,0.11941
6.304,0.16525
6.308,0.17041
6.312,0.16835
6.316,0.18671
6.32,0.18555
6.324,0.21372
6.328,0.21236
6.332,0.22629
6.336,0.21741
6.34,0.2231
6.344,0.25007
6.348,0.25787
6.352,0.232
6.356,0.22114
6.36,0.23132
6.364,0.25227
6.368,0.204
6.372,0.22786
6.376,0.21907
6.38,0.17347
6.384,0.15853
6.388,0.17573
6.392,0.16648
6.396,0.11776
6.4,0.13036
6.404,0.09936
6.408,0.09439
6.412,0.1234
6.416,0.08075
6.42,0.07711
6.424,0.06185
6.428,0.06754
6.432,0.07446
6.436,0.04583
6.44,0.04607
6.444,0.04731
6.448,0.02695
6.452,0.04422
6.456,0.0194
6.46,0.02329
6.464,0.00903
6.468,-0.00669
6.472,0.0244
6.476,0.01081
6.48,-0.001
6.484,0.03455
6.488,0.02424
6.492,0.01685
6.496,0.01392
6.5,0.01419
6.504,0.03436
6.508,0.0263
6.512,0.00644
6.516,0.03343
6.52,0.0153
6.524,0.00962
6.528,0.02433
6.532,0.02321
6.536,-0.00385
6.54,0.02225
6.544,-0.00377
6.548,0.01731
6.552,-0.02462
6.556,0.02252
6.56,0.01064
6.564,-0.00515
6.568,0.01994
6.572,0.01672
6.576,0.011
6.58,0.04513
6.584,-0.00252
6.588,0.01226
6.592,0.03305
6.596,0.01023
6.6,0.01129
6.604,0.02754
6.608,0.01179
6.612,0.01384
6.616,0.01038
6.62,0.0248
6.624,0.02095
6.628,0.00883
6.632,-0.0067
6.636,-0.01707
6.64,0.02725
6.644,0.00917
6.648,0.05852
6.652,0.0119
6.656,0.00761
6.66,-0.01201
6.664,0.03064
6.668,0.01163
6.672,-0.00923
6.676,0.00549
6.68,-0.00854
6.684,0.02623
6.688,0.0183
6.692,0.03309
6.696,0.01961
6.7,0.00777
6.704,-0.02054
6.708,-0.00957
6.712,-0.01575
6.716,-0.01659
6.72,0.00394
6.724,-0.00657
6.728,-0.00338
6.732,-0.01011
6.736,-0.00671
6.74,-0.02149
6.744,0.02441
6.748,0.00736
6.752,0.00397
6.756,0.01149
6.76,0.00819
6.764,-0.01041
6.768,0.0002
6.772,0.0035
6.776,-0.00075
6.78,0.03219
6.784,0.01224
6.788,0.02749
6.792,-0.00801
6.796,0.01997
6.8,0.00248
6.804,0.01099
6.808,0.00868
6.812,0.00946
6.816,0.05963
6.82,0.03396
6.824,0.03985
6.828,0.09186
6.832,0.08074
6.836,0.09508
6.84,0.1124
6.844,0.09363
6.848,0.08788
6.852,0.11432
6.856,0.11382
6.86,0.08991
6.864,0.07349
6.868,0.0768
6.872,0.06166
6.876,0.06633
6.88,0.01577
6.884,0.00619
6.888,0.01754
6.892,0.01603
6.896,-0.00893
6.9,0.03554
6.904,-0.00864
6.908,0.02287
6.912,-0.01336
6.916,0.00587
6.92,0.02782
6.924,0.01192
6.928,-0.01686
6.932,-0.00179
6.936,-0.00995
6.94,0.0033
6.944,0.01673
6.948,0.00029
6.952,0.01878
6.956,0.00983
6.96,-0.01036
6.964,-0.05566
6.968,-0.05149
6.972,-0.09794
6.976,-0.11977
6.98,-0.0938
6.984,-0.0078
6.988,0.17822
6.992,0.35531
6.996,0.54655
7.0,0.78108
7.004,0.92088
7.008,0.99508
7.012,0.91612
7.016,0.80403
7.02,0.60336
7.024,0.32074
7.028,0.13974
7.032,0.00115
7.036,-0.08738
7.04,-0.17003
7.044,-0.1554
7.048,-0.09275
7.052,-0.09286
7.056,-0.0117
7.06,-0.01878
7.064,-0.00963
7.068,0.00565
7.072,0.00227
7.076,0.00691
7.08,-0.00211
7.084,0.0006
7.088,-0.00216
7.092,-0.00798
7.096,-0.00451
7.1,0.00792
7.104,0.01117
7.108,-0.00881
7.112,0.00588
7.116,0.0057
7.12,-0.0005
7.124,-0.04315
7.128,-0.01079
7.132,0.00807
7.136,-0.01068
7.14,-0.01697
7.144,-0.00746
7.148,-0.03171
7.152,-0.02459
7.156,-0.01724
7.16,0.00044
7.164,0.00274
7.168,-0.01651
7.172,0.02092
7.176,-0.00137
7.18,-0.01682
7.184,-0.00869
7.188,0.03246
7.192,0.00768
7.196,0.0216
7.2,0.02751
7.204,0.0458
7.208,0.04246
7.212,0.07086
7.216,0.05947
7.22,0.07958
7.224,0.05905
7.228,0.06987
7.232,0.10259
7.236,0.08162
7.24,0.11801
7.244,0.12701
7.248,0.13736
7.252,0.13757
7.256,0.17309
7.26,0.16235
7.264,0.19546
7.268,0.20062
7.272,0.18591
7.276,0.20138
7.28,0.20702
7.284,0.19953
7.288,0.20954
7.292,0.22749
7.296,0.1941
7.3,0.19704
7.304,0.17186
7.308,0.19013
7.312,0.17696
7.316,0.16719
7.32,0.16735
7.324,0.1263
7.328,0.1222
7.332,0.09977
7.336,0.11273
7.34,0.11594
7.344,0.0884
7.348,0.07525
7.352,0.06834
7.356,0.0646
7.36,0.04573
7.364,0.02094
7.368,0.03023
7.372,0.02066
7.376,0.01723
7.38,0.02853
7.384,0.02317
7.388,-0.02917
7.392,-0.01256
7.396,0.0035
7.4,0.00159
7.404,0.01017
7.408,0.01452
7.412,-0.01559
7.416,0.01333
7.42,-0.02041
7.424,0.01914
7.428,-0.0147
7.432,-0.01839
7.436,0.00624
7.44,0.0013
7.444,-0.01929
7.448,-0.00177
7.452,-0.01369
7.456,-0.00464
7.46,-0.01034
7.464,-0.02106
7.468,-0.0054
7.472,-0.03859
7.476,0.00315
7.48,-0.01423
7.484,-0.01624
7.488,-0.04516
7.492,-0.02421
7.496,-0.01239
7.5,0.00357
7.504,-0.01481
7.508,-0.00667
7.512,-0.02142
7.516,-0.01407
7.52,-0.02844
7.524,-0.03538
7.528,-0.02136
7.532,-0.00627
7.536,-0.00735
7.54,-0.01056
7.544,-0.02466
7.548,-0.00967
7.552,-0.00683
7.556,-0.03599
7.56,-0.01338
7.564,-0.02683
7.568,-0.01053
7.572,-0.02494
7.576,-0.02379
7.58,-0.01417
7.584,-0.03019
7.588,0.01419
7.592,-0.02097
7.596,-0.01839
7.6,-0.00031
7.604,-0.01214
7.608,-0.02418
7.612,-0.02631
7.616,-0.01256
7.62,-0.03933
7.624,-0.01993
7.628,-0.01546
7.632,-0.00798
7.636,-0.00403
7.64,-0.01683
7.644,0.00117
7.648,-0.03467
7.652,-0.04077
7.656,-0.01934
7.66,-0.01376
7.664,-0.03081
7.668,-0.01341
7.672,-0.02358
7.676,-0.01531
7.68,-0.0237
7.684,-0.00239
7.688,-0.02677
7.692,-0.02227
7.696,-0.01516
7.7,-0.01292
7.704,-0.00156
7.708,-0.00423
7.712,-0.00266
7.716,-0.02418
7.72,0.03819
7.724,0.05114
7.728,0.04668
7.732,0.06698
7.736,0.05684
7.74,0.07883
7.744,0.07692
7.748,0.04324
7.752,0.07736
7.756,0.04144
7.76,0.04323
7.764,0.02494
7.768,0.01465
7.772,0.01013
7.776,0.00218
7.78,0.02283
7.784,-0.01547
7.788,-0.01293
7.792,-0.02867
7.796,-0.01922
7.8,-0.03754
7.804,-0.0328
7.808,-0.00817
7.812,-0.00574
7.816,-0.0105
7.82,-0.01116
7.824,-0.00126
7.828,-0.0084
7.832,-0.04461
7.836,-0.0389
7.84,-0.02644
7.844,-0.01774
7.848,-0.03735
7.852,-0.00934
7.856,-0.01251
7.86,-0.0672
7.864,-0.08869
7.868,-0.09048
7.872,-0.13548
7.876,-0.10986
7.88,-0.08414
7.884,0.03291
7.888,0.21251
7.892,0.38455
7.896,0.64199
7.9,0.81906
7.904,0.95814
7.908,0.98392
7.912,0.86071
7.916,0.72458
7.92,0.4902
7.924,0.25286
7.928,0.07086
7.932,-0.07713
7.936,-0.17827
7.94,-0.21815
7.944,-0.18775
7.948,-0.13331
7.952,-0.07896
7.956,-0.07717
7.96,-0.02459
7.964,-0.01027
7.968,-0.04363
7.972,-0.06542
7.976,-0.00027
7.98,-0.02744
7.984,-0.02003
7.988,-0.03837
7.992,-0.02009
7.996,-0.01605
8.0,-0.04559
8.004,-0.03251
8.008,-0.03364
8.012,-0.03335
8.016,-0.03054
8.02,-0.00859
8.024,-0.01497
8.028,-0.04518
8.032,-0.02213
8.036,-0.05003
8.04,-0.0237
8.044,-0.0131
8.048,-0.01881
8.052,-0.01964
8.056,-0.0363
8.06,-0.00666
8.064,-0.02749
8.068,-0.00622
8.072,-0.02952
8.076,-0.05334
8.08,-0.00351
8.084,-0.01664
8.088,-0.00079
8.092,-0.02759
8.096,0.00471
8.1,0.01875
8.104,-0.00462
8.108,0.02085
8.112,0.02108
8.116,0.03667
8.12,0.06133
8.124,0.08469
8.128,0.09238
8.132,0.08836
8.136,0.07973
8.14,0.07989
8.144,0.11708
8.148,0.12109
8.152,0.1268
8.156,0.13975
8.16,0.14603
8.164,0.17285
8.168,0.15571
8.172,0.19347
8.176,0.1956
8.18,0.18536
8.184,0.18312
8.188,0.19466
8.192,0.19486
8.196,0.19399
8.2,0.17705
8.204,0.1767
8.208,0.17021
8.212,0.1453
8.216,0.153
8.22,0.12961
8.224,0.14222
8.228,0.11676
8.232,0.07431
8.236,0.11627
8.24,0.07159
8.244,0.05363
8.248,0.06532
8.252,0.05597
8.256,0.0562
8.26,0.04838
8.264,0.0358
8.268,0.01152
8.272,-6e-05
8.276,-0.00761
8.28,-0.01625
8.284,8e-05
8.288,-0.03216
8.292,-0.00985
8.296,-0.04311
8.3,-0.01631
8.304,-0.00544
8.308,-0.01225
8.312,-0.02305
8.316,0.00049
8.32,-0.02039
8.324,-0.02071
8.328,-0.04697
8.332,-0.01037
8.336,-0.07538
8.34,-0.05629
8.344,-0.01848
8.348,-0.03102
8.352,-0.00434
8.356,-0.04484
8.36,-0.00849
8.364,-0.03896
8.368,-0.02292
8.372,-0.05253
8.376,-0.01818
8.38,-0.02542
8.384,-0.01611
8.388,-0.03686
8.392,-0.02682
8.396,-0.03247
8.4,-0.02521
8.404,-0.0306
8.408,-0.01256
8.412,-0.03288
8.416,0.01669
8.42,-0.03108
8.424,-0.02028
8.428,-0.04705
8.432,-0.00233
8.436,-0.00369
8.44,-0.03023
8.444,-0.02089
8.448,-0.02747
8.452,-0.01373
8.456,-0.03193
8.46,-0.03481
8.464,-0.00783
8.468,-0.03938
8.472,-0.05882
8.476,-0.02376
8.48,-0.03591
8.484,-0.00371
8.488,-0.04514
8.492,-0.01541
8.496,-0.02826
8.5,-0.04536
8.504,-0.05925
8.508,-0.03006
8.512,-0.00586
8.516,-0.03529
8.52,-0.03463
8.524,-0.03158
8.528,-0.04387
8.532,-0.0122
8.536,-0.03245
8.54,-0.01875
8.544,0.01001
8.548,-0.00599
8.552,0.00268
8.556,0.0141
8.56,0.05768
8.564,0.08692
8.568,0.06209
8.572,0.04747
8.576,0.08101
8.58,0.10202
8.584,0.071
8.588,0.06353
8.592,0.05198
8.596,0.01958
8.6,0.03949
8.604,0.00156
8.608,0.00011
8.612,-0.01353
8.616,-0.00906
8.62,-0.01848
8.624,-0.02276
8.628,-0.01714
8.632,-0.06351
8.636,-0.03126
8.64,-0.02759
8.644,0.01034
8.648,-0.06779
8.652,-0.00784
8.656,-0.05001
8.66,-0.054
8.664,-0.02722
8.668,-0.02294
8.672,-0.05973
8.676,-0.04412
8.68,-0.01068
8.684,-0.05267
8.688,-0.02282
8.692,-0.05344
8.696,-0.06514
8.7,-0.10615
8.704,-0.13366
8.708,-0.12891
8.712,-0.07289
8.716,0.09582
8.72,0.267
8.724,0.47391
8.728,0.72429
8.732,0.86386
8.736,0.9237
8.74,0.93838
8.744,0.83727
8.748,0.63225
8.752,0.38678
8.756,0.17974
8.76,-0.00063
8.764,-0.15214
8.768,-0.17545
8.772,-0.19738
8.776,-0.18466
8.78,-0.1185
8.784,-0.08317
8.788,-0.08034
8.792,-0.037
8.796,-0.04126
8.8,-0.02431
8.804,-0.05882
8.808,-0.03418
8.812,-0.0223
8.816,-0.06282
8.82,-0.04111
8.824,-0.03382
8.828,-0.0709
8.832,-0.03383
8.836,-0.03031
8.84,-0.04653
8.844,-0.03732
8.848,-0.03458
8.852,-0.01822
8.856,-0.02805
8.86,-0.03176
8.864,-0.05208
8.868,-0.05411
8.872,0.01031
8.876,-0.04813
8.88,-0.01423
8.884,-0.00164
8.888,-0.01884
8.892,-0.02941
8.896,-0.04978
8.9,-0.03818
8.904,-0.05337
8.908,-0.02534
8.912,-0.03439
8.916,-0.01531
8.92,-0.01985
8.924,0.00638
8.928,-0.00058
8.932,0.00885
8.936,0.01926
8.94,0.01586
8.944,0.00242
8.948,0.02226
8.952,0.0673
8.956,0.07283
8.96,0.06368
8.964,0.07346
8.968,0.08575
8.972,0.11044
8.976,0.126
8.98,0.11561
8.984,0.15348
8.988,0.14181
8.992,0.16097
8.996,0.16121
9.0,0.17029
9.004,0.19274
9.008,0.17339
9.012,0.17858
9.016,0.19943
9.02,0.16192
9.024,0.20061
9.028,0.16429
9.032,0.18873
9.036,0.17354
9.04,0.20532
9.044,0.13945
9.048,0.15807
9.052,0.11296
9.056,0.11976
9.06,0.10804
9.064,0.1146
9.068,0.10788
9.072,0.07346
9.076,0.07798
9.08,0.06078
9.084,0.06423
9.088,0.03646
9.092,0.01359
9.096,0.0255
9.1,0.02003
9.104,-0.01404
9.108,-0.00656
9.112,0.02616
9.116,-0.00289
9.12,0.01449
9.124,-0.03224
9.128,-0.019
9.132,-0.03378
9.136,-0.0125
9.14,-0.02146
9.144,9e-05
9.148,-0.00993
9.152,-0.01789
9.156,-0.06191
9.16,-0.02349
9.164,-0.04009
9.168,-0.05249
9.172,-0.03432
9.176,-0.03345
9.18,-0.03979
9.184,-0.03811
9.188,-0.0185
9.192,-0.00939
9.196,-0.04149
9.2,-0.02081
9.204,0.00531
9.208,-0.06101
9.212,-0.00665
9.216,-0.02424
9.22,-0.01941
9.224,-0.02261
9.228,-0.03398
9.232,-0.03665
9.236,-0.02662
9.24,-0.0094
9.244,-0.02144
9.248,-0.01279
9.252,-0.01952
9.256,-0.01312
9.26,-0.04261
9.264,-0.01726
9.268,-0.0238
9.272,-0.0041
9.276,-0.00128
9.28,-0.02088
9.284,-0.02522
9.288,-0.02186
9.292,-0.00305
9.296,0.01365
9.3,0.00447
9.304,0.02499
9.308,0.04272
9.312,0.06433
9.316,0.08361
9.32,0.09588
9.324,0.04616
9.328,0.0551
9.332,0.04982
9.336,0.05821
9.34,0.02668
9.344,0.02384
9.348,0.03726
9.352,0.01279
9.356,-0.02633
9.36,0.00162
9.364,-0.00199
9.368,-0.01493
9.372,-0.00805
9.376,-0.01143
9.38,-0.01647
9.384,-0.02046
9.388,-0.02975
9.392,-0.03155
9.396,-0.03
9.4,-0.02851
9.404,-0.01465
9.408,-0.01815
9.412,-0.04434
9.416,-0.01788
9.42,-0.00576
9.424,-0.01251
9.428,-0.04108
9.432,-0.00931
9.436,-0.01921
9.44,-0.06063
9.444,-0.08657
9.448,-0.14907
9.452,-0.1164
9.456,-0.10758
9.46,0.00675
9.464,0.18677
9.468,0.38391
9.472,0.59286
9.476,0.82312
9.48,0.93492
9.484,0.95147
9.488,0.89409
9.492,0.73226
9.496,0.47783
9.5,0.27748
9.504,0.08855
9.508,-0.08127
9.512,-0.15409
9.516,-0.18209
9.52,-0.16358
9.524,-0.13249
9.528,-0.09701
9.532,-0.06946
9.536,-0.01847
9.54,-0.02056
9.544,0.00038
9.548,-0.02702
9.552,-0.02377
9.556,-0.02011
9.56,-0.00914
9.564,-0.00381
9.568,-0.02777
9.572,0.01336
9.576,-0.03796
9.58,-0.02112
9.584,-0.0296
9.588,-0.00707
9.592,-0.04266
9.596,-0.01662
9.6,-0.03815
9.604,-0.02811
9.608,-0.03807
9.612,0.00668
9.616,-0.00138
9.62,-0.02092
9.624,-0.00978
9.628,0.00275
9.632,-0.03598
9.636,-0.03077
9.64,-0.02635
9.644,-0.01436
9.648,-0.02172
9.652,0.0084
9.656,-0.01369
9.66,-0.0215
9.664,-0.00917
9.668,0.00748
9.672,0.0131
9.676,0.03715
9.68,0.03752
9.684,0.03983
9.688,0.02782
9.692,0.03689
9.696,0.08336
9.7,0.0501
9.704,0.06426
9.708,0.07936
9.712,0.07987
9.716,0.11689
9.72,0.11616
9.724,0.10722
9.728,0.15568
9.732,0.14874
9.736,0.16451
9.74,0.20007
9.744,0.17582
9.748,0.16153
9.752,0.18606
9.756,0.22224
9.76,0.18592
9.764,0.21845
9.768,0.20925
9.772,0.19658
9.776,0.19155
9.78,0.18621
9.784,0.17971
9.788,0.17339
9.792,0.1675
9.796,0.15828
9.8,0.16755
9.804,0.10729
9.808,0.11333
9.812,0.12513
9.816,0.07122
9.82,0.08292
9.824,0.07898
9.828,0.10956
9.832,0.05798
9.836,0.04387
9.84,0.04574
9.844,0.04878
9.848,0.04291
9.852,0.03406
9.856,0.02227
9.86,-0.00232
9.864,-0.02943
9.868,0.01534
9.872,-0.01476
9.876,-0.03717
9.88,-0.00082
9.884,0.02656
9.888,0.02731
9.892,-0.02245
9.896,-0.00263
9.9,-0.01898
9.904,-0.01484
9.908,-0.01916
9.912,-0.0036
9.916,-0.002
9.92,-0.01041
9.924,-0.018
9.928,-0.01477
9.932,0.00138
9.936,-0.00821
9.94,-0.00663
9.944,0.001
9.948,0.00835
9.952,0.00333
9.956,-0.00339
9.96,0.01193
9.964,-0.00438
9.968,-0.03139
9.972,0.00135
9.976,-0.01541
9.98,-0.01659
9.984,-0.01347
9.988,-9e-05
9.992,-0.01291
9.996,-0.00778
