t_seg,ecg_mV
0.0,0.02956
0.004,0.00066
0.008,0.04158
0.012,0.03082
0.016,0.0147
0.02,0.02067
0.024,0.02571
0.028,0.01396
0.032,0.03358
0.036,0.02042
0.04,0.02068
0.044,0.03734
0.048,0.03021
0.052,0.00055
0.056,0.02346
0.06,0.00716
0.064,0.0261
0.068,0.03031
0.072,0.00261
0.076,0.03863
0.08,0.05134
0.084,0.0298
0.088,0.00657
0.092,0.02154
0.096,0.02866
0.1,0.03157
0.104,0.03267
0.108,0.01327
0.112,0.01674
0.116,0.03575
0.12,0.06986
0.124,0.02905
0.128,0.02471
0.132,0.03441
0.136,0.05108
0.14,0.02641
0.144,-0.01358
0.148,0.01711
0.152,0.01445
0.156,0.00898
0.16,0.00407
0.164,0.01032
0.168,0.06361
0.172,0.03618
0.176,0.02861
0.18,0.00532
0.184,0.01863
0.188,0.03067
0.192,0.02245
0.196,0.02243
0.2,0.05045
0.204,0.04671
0.208,0.03403
0.212,0.00212
0.216,0.02865
0.22,0.01114
0.224,0.01935
0.228,0.03075
0.232,0.04274
0.236,0.05878
0.24,0.01495
0.244,0.07148
0.248,0.06236
0.252,0.08278
0.256,0.08152
0.26,0.13079
0.264,0.11604
0.268,0.13537
0.272,0.11302
0.276,0.13983
0.28,0.12254
0.284,0.09865
0.288,0.09784
0.292,0.07962
0.296,0.06451
0.3,0.08632
0.304,0.05964
0.308,0.04069
0.312,0.01625
0.316,0.05084
0.32,0.03068
0.324,0.02415
0.328,0.01508
0.332,0.04982
0.336,0.04415
0.34,0.02028
0.344,0.01776
0.348,0.01939
0.352,0.0232
0.356,0.02511
0.36,0.00375
0.364,0.01501
0.368,0.02538
0.372,0.04164
0.376,0.03372
0.38,0.02563
0.384,0.0042
0.388,0.00565
0.392,-0.01846
0.396,-0.05465
0.4,-0.07113
0.404,-0.07125
0.408,0.01269
0.412,0.18618
0.416,0.35411
0.42,0.58474
0.424,0.78485
0.428,0.92395
0.432,1.02235
0.436,0.98347
0.44,0.84305
0.444,0.63417
0.448,0.39
0.452,0.1857
0.456,0.01522
0.46,-0.07396
0.464,-0.14222
0.468,-0.13174
0.472,-0.07491
0.476,-0.08508
0.48,-0.0029
0.484,0.00853
0.488,0.01231
0.492,0.00513
0.496,0.04248
0.5,0.03209
0.504,0.0218
0.508,0.01069
0.512,0.04358
0.516,0.05179
0.52,0.01444
0.524,0.02759
0.528,0.0339
0.532,0.04221
0.536,0.02301
0.54,0.06039
0.544,0.02861
0.548,0.02451
0.552,0.01734
0.556,0.01274
0.56,0.04095
0.564,0.0313
0.568,0.01869
0.572,0.01595
0.576,0.04652
0.58,0.04989
0.584,0.04292
0.588,0.03708
0.592,0.02739
0.596,0.05321
0.6,0.05938
0.604,0.04559
0.608,0.04181
0.612,0.07411
0.616,0.04088
0.62,0.0639
0.624,0.09412
0.628,0.07013
0.632,0.0723
0.636,0.04924
0.64,0.07701
0.644,0.0974
0.648,0.13772
0.652,0.10072
0.656,0.16496
0.66,0.14249
0.664,0.15007
0.668,0.17234
0.672,0.15805
0.676,0.1965
0.68,0.22496
0.684,0.18104
0.688,0.20659
0.692,0.20951
0.696,0.2389
0.7,0.24459
0.704,0.27575
0.708,0.23331
0.712,0.26917
0.716,0.24339
0.72,0.25541
0.724,0.24318
0.728,0.2499
0.732,0.22021
0.736,0.24184
0.74,0.23017
0.744,0.18744
0.748,0.19796
0.752,0.20198
0.756,0.17633
0.76,0.17298
0.764,0.17958
0.768,0.19512
0.772,0.19861
0.776,0.17864
0.78,0.19996
0.784,0.15954
0.788,0.21753
0.792,0.17037
0.796,0.18711
0.8,0.14485
0.804,0.13018
0.808,0.12611
0.812,0.10803
0.816,0.06424
0.82,0.06643
0.824,0.06154
0.828,0.04912
0.832,0.04249
0.836,0.03543
0.84,0.03302
0.844,0.04426
0.848,0.03317
0.852,0.02952
0.856,0.02028
0.86,0.05043
0.864,0.02753
0.868,0.05512
0.872,0.02748
0.876,0.0162
0.88,0.02746
0.884,0.02611
0.888,0.02623
0.892,0.02891
0.896,0.02628
0.9,0.04023
0.904,-0.00749
0.908,-0.03965
0.912,-0.07773
0.916,-0.06799
0.92,-0.06878
0.924,0.02151
0.928,0.18453
0.932,0.35483
0.936,0.54627
0.94,0.78289
0.944,0.95928
0.948,1.05655
0.952,1.01823
0.956,0.86418
0.96,0.66037
0.964,0.42885
0.968,0.20361
0.972,0.05697
0.976,-0.084
0.98,-0.13924
0.984,-0.15199
0.988,-0.12389
0.992,-0.06008
0.996,-0.00946
1.0,-0.00766
1.004,0.01249
1.008,0.00611
1.012,0.01157
1.016,0.01537
1.02,0.04285
1.024,0.06243
1.028,0.04666
1.032,0.03264
1.036,0.01977
1.04,0.0459
1.044,0.01453
1.048,0.00787
1.052,0.04665
1.056,0.00857
1.06,0.0444
1.064,0.02805
1.068,0.04241
1.072,0.00384
1.076,0.03717
1.08,0.03662
1.084,0.03941
1.088,0.00921
1.092,0.02398
1.096,0.00633
1.1,0.05338
1.104,0.03063
1.108,0.03042
1.112,0.04922
1.116,0.02969
1.12,0.04078
1.124,0.03589
1.128,0.05503
1.132,0.01453
1.136,0.06987
1.14,0.05999
1.144,0.0486
1.148,0.08857
1.152,0.11126
1.156,0.07519
1.16,0.09623
1.164,0.10606
1.168,0.12508
1.172,0.10358
1.176,0.13669
1.18,0.13753
1.184,0.16544
1.188,0.1585
1.192,0.17673
1.196,0.18634
1.2,0.1972
1.204,0.21606
1.208,0.22573
1.212,0.21145
1.216,0.22882
1.22,0.2398
1.224,0.25647
1.228,0.26783
1.232,0.24275
1.236,0.25056
1.24,0.26255
1.244,0.247
1.248,0.22463
1.252,0.217
1.256,0.19705
1.26,0.22767
1.264,0.19782
1.268,0.17471
1.272,0.16441
1.276,0.17564
1.28,0.15858
1.284,0.14712
1.288,0.13545
1.292,0.10235
1.296,0.09159
1.3,0.09624
1.304,0.07556
1.308,0.07837
1.312,0.06245
1.316,0.05822
1.32,0.0704
1.324,0.04047
1.328,0.03801
1.332,0.06688
1.336,0.02004
1.34,0.0421
1.344,0.03529
1.348,0.02697
1.352,0.05677
1.356,0.02087
1.36,-0.00293
1.364,0.04545
1.368,0.05795
1.372,0.00361
1.376,0.03204
1.38,0.02765
1.384,0.02981
1.388,0.03874
1.392,0.03122
1.396,0.03338
1.4,0.00337
1.404,0.01042
1.408,0.04474
1.412,0.0404
1.416,0.05013
1.42,0.06286
1.424,0.03638
1.428,0.04549
1.432,0.07006
1.436,0.1039
1.44,0.10792
1.444,0.0971
1.448,0.11695
1.452,0.12355
1.456,0.11793
1.46,0.11662
1.464,0.12927
1.468,0.09833
1.472,0.08979
1.476,0.06613
1.48,0.08993
1.484,0.06081
1.488,0.0434
1.492,0.03952
1.496,0.04713
1.5,0.01812
1.504,0.04429
1.508,0.00597
1.512,0.00462
1.516,0.0113
1.52,-0.00039
1.524,0.02916
1.528,0.01904
1.532,0.02709
1.536,0.04368
1.54,0.00736
1.544,0.0339
1.548,0.01572
1.552,0.03518
1.556,0.03783
1.56,0.01619
1.564,0.02415
1.568,-0.00727
1.572,-0.01115
1.576,-0.08335
1.58,-0.09235
1.584,-0.0948
1.588,0.00266
1.592,0.16782
1.596,0.36009
1.6,0.57257
1.604,0.81554
1.608,0.95051
1.612,0.99923
1.616,0.98482
1.62,0.85971
1.624,0.6301
1.628,0.39278
1.632,0.21485
1.636,0.02434
1.64,-0.12049
1.644,-0.14543
1.648,-0.13574
1.652,-0.10042
1.656,-0.05749
1.66,-0.02057
1.664,-0.00929
1.668,0.00776
1.672,0.02386
1.676,0.0156
1.68,0.037
1.684,0.00688
1.688,0.02192
1.692,0.02687
1.696,0.0254
1.7,0.02327
1.704,0.01468
1.708,0.01246
1.712,-0.00075
1.716,0.0123
1.72,0.02687
1.724,0.04333
1.728,0.00359
1.732,-0.00255
1.736,0.05412
1.74,0.00167
1.744,0.04255
1.748,0.03458
1.752,0.03565
1.756,0.01565
1.76,0.02417
1.764,0.02809
1.768,0.00971
1.772,0.04585
1.776,-0.00438
1.78,0.02065
1.784,0.01502
1.788,0.0302
1.792,0.04703
1.796,0.02733
1.8,0.0517
1.804,0.02526
1.808,0.07901
1.812,0.05604
1.816,0.0834
1.82,0.07762
1.824,0.08522
1.828,0.10137
1.832,0.10666
1.836,0.12721
1.84,0.15497
1.844,0.11785
1.848,0.12574
1.852,0.17672
1.856,0.14768
1.86,0.20838
1.864,0.21174
1.868,0.2233
1.872,0.23096
1.876,0.21834
1.88,0.23038
1.884,0.22761
1.888,0.25273
1.892,0.27869
1.896,0.24303
1.9,0.2297
1.904,0.23544
1.908,0.19199
1.912,0.21654
1.916,0.22574
1.92,0.20234
1.924,0.19505
1.928,0.19376
1.932,0.17983
1.936,0.16281
1.94,0.14345
1.944,0.14989
1.948,0.1087
1.952,0.10555
1.956,0.10823
1.96,0.09789
1.964,0.09619
1.968,0.05183
1.972,0.04797
1.976,0.05931
1.98,0.02885
1.984,0.05561
1.988,0.04624
1.992,0.04495
1.996,0.01954
2.0,0.0282
2.004,0.01849
2.008,0.00033
2.012,0.00936
2.016,0.03126
2.02,0.01575
2.024,0.00782
2.028,0.01375
2.032,0.0357
2.036,0.00956
2.04,0.01507
2.044,0.02108
2.048,-0.01464
2.052,0.00203
2.056,0.00488
2.06,0.01978
2.064,0.00798
2.068,0.00952
2.072,-0.00686
2.076,-0.00771
2.08,0.02977
2.084,0.01311
2.088,0.03043
2.092,-0.00299
2.096,0.01253
2.1,0.02211
2.104,0.00518
2.108,0.00965
2.112,-0.01207
2.116,-0.02175
2.12,-0.0064
2.124,-0.01606
2.128,-0.01236
2.132,0.00911
2.136,0.0039
2.14,0.02229
2.144,0.02619
2.148,0.02067
2.152,0.01327
2.156,0.00434
2.16,0.01835
2.164,-0.01187
2.168,-0.00482
2.172,0.02304
2.176,0.0042
2.18,0.02065
2.184,0.0142
2.188,0.01125
2.192,0.01955
2.196,0.00797
2.2,-0.00292
2.204,0.00336
2.208,0.01998
2.212,-0.00533
2.216,0.03466
2.22,0.01654
2.224,0.02717
2.228,0.04069
2.232,0.05332
2.236,0.03301
2.24,0.06004
2.244,0.05549
2.248,0.0851
2.252,0.0981
2.256,0.10407
2.26,0.10368
2.264,0.09911
2.268,0.10008
2.272,0.06477
2.276,0.08588
2.28,0.07666
2.284,0.0715
2.288,0.06257
2.292,0.0386
2.296,0.03291
2.3,0.02414
2.304,0.02676
2.308,0.0111
2.312,0.0326
2.316,0.02578
2.32,-0.00735
2.324,-0.00454
2.328,-0.00974
2.332,0.00085
2.336,-0.0044
2.34,0.00667
2.344,0.00643
2.348,8e-05
2.352,-0.00794
2.356,-0.00639
2.36,0.02127
2.364,-0.00086
2.368,0.00773
2.372,-0.00759
2.376,0.00943
2.38,-0.04395
2.384,-0.08508
2.388,-0.11804
2.392,-0.10632
2.396,-0.07063
2.4,0.03371
2.404,0.25369
2.408,0.46797
2.412,0.68279
2.416,0.84181
2.42,0.98323
2.424,1.00359
2.428,0.91841
2.432,0.72429
2.436,0.4967
2.44,0.27887
2.444,0.07012
2.448,-0.08163
2.452,-0.13769
2.456,-0.13528
2.46,-0.15253
2.464,-0.10557
2.468,-0.08828
2.472,-0.01124
2.476,0.00111
2.48,-0.01795
2.484,-0.00459
2.488,-0.02709
2.492,0.00921
2.496,-0.0032
2.5,0.01405
2.504,0.00491
2.508,0.00855
2.512,-0.00859
2.516,-0.00405
2.52,0.02397
2.524,-0.01778
2.528,-0.02255
2.532,0.02045
2.536,-0.00295
2.54,0.00881
2.544,0.00284
2.548,0.00441
2.552,-0.02118
2.556,-0.01075
2.56,-0.00595
2.564,-0.00899
2.568,0.00143
2.572,-0.00087
2.576,-0.02651
2.58,0.01798
2.584,-0.02141
2.588,0.01464
2.592,0.00213
2.596,0.01632
2.6,0.03092
2.604,0.00303
2.608,0.01761
2.612,0.02326
2.616,0.0059
2.62,0.01152
2.624,0.04492
2.628,0.05755
2.632,0.05249
2.636,0.03263
2.64,0.07913
2.644,0.10464
2.648,0.09489
2.652,0.10446
2.656,0.11555
2.66,0.12997
2.664,0.11626
2.668,0.14445
2.672,0.15526
2.676,0.16238
2.68,0.17823
2.684,0.20925
2.688,0.20409
2.692,0.20732
2.696,0.19351
2.7,0.21659
2.704,0.21201
2.708,0.2038
2.712,0.21311
2.716,0.20121
2.72,0.20317
2.724,0.16304
2.728,0.16994
2.732,0.17952
2.736,0.1818
2.74,0.14968
2.744,0.13258
2.748,0.12063
2.752,0.11594
2.756,0.12728
2.76,0.09336
2.764,0.069
2.768,0.06454
2.772,0.06926
2.776,0.08758
2.78,0.06356
2.784,0.05475
2.788,0.08553
2.792,0.07776
2.796,0.0775
2.8,0.12099
2.804,0.11418
2.808,0.14083
2.812,0.12687
2.816,0.10656
2.82,0.08049
2.824,0.07877
2.828,0.04666
2.832,0.05496
2.836,0.0444
2.84,0.01635
2.844,0.00753
2.848,-0.01091
2.852,-0.00045
2.856,-0.00462
2.86,0.02468
2.864,-0.01417
2.868,0.02371
2.872,-0.01947
2.876,-0.01679
2.88,-0.0189
2.884,-0.00823
2.888,-0.03379
2.892,0.00546
2.896,0.00353
2.9,-0.01812
2.904,-0.01261
2.908,0.00903
2.912,-0.01106
2.916,-0.00132
2.92,-0.01761
2.924,-0.02734
2.928,-0.06922
2.932,-0.09725
2.936,-0.11386
2.94,-0.10987
2.944,-0.06376
2.948,0.10851
2.952,0.26489
2.956,0.46059
2.96,0.698
2.964,0.87887
2.968,1.00114
2.972,0.98001
2.976,0.85118
2.98,0.65211
2.984,0.43014
2.988,0.20752
2.992,0.02333
2.996,-0.10364
3.0,-0.17073
3.004,-0.16961
3.008,-0.16168
3.012,-0.11626
3.016,-0.06478
3.02,-0.02502
3.024,-0.03109
3.028,-0.02199
3.032,-0.02072
3.036,-0.00451
3.04,-0.00282
3.044,-0.00547
3.048,-0.04339
3.052,-0.02318
3.056,-0.00748
3.06,-0.01338
3.064,-0.02602
3.068,0.00523
3.072,-0.03531
3.076,-0.00117
3.08,-0.02357
3.084,0.0048
3.088,-0.01318
3.092,-0.00267
3.096,-0.03017
3.1,-0.02742
3.104,-0.01434
3.108,0.00711
3.112,-0.01873
3.116,-0.00984
3.12,-0.01383
3.124,-0.02093
3.128,-0.00622
3.132,0.01079
3.136,-0.01872
3.14,0.00187
3.144,-0.0132
3.148,-0.01476
3.152,0.00407
3.156,0.0121
3.16,0.02388
3.164,0.0079
3.168,0.03535
3.172,0.04953
3.176,0.03583
3.18,0.04751
3.184,0.03231
3.188,0.0628
3.192,0.07913
3.196,0.08938
3.2,0.08556
3.204,0.11841
3.208,0.12396
3.212,0.11884
3.216,0.13047
3.22,0.14744
3.224,0.15687
3.228,0.184
3.232,0.18401
3.236,0.19948
3.24,0.17629
3.244,0.21092
3.248,0.17473
3.252,0.19858
3.256,0.19394
3.26,0.2008
3.264,0.17814
3.268,0.17016
3.272,0.17942
3.276,0.15819
3.28,0.16228
3.284,0.13258
3.288,0.13435
3.292,0.10905
3.296,0.0979
3.3,0.1387
3.304,0.09128
3.308,0.07112
3.312,0.07082
3.316,0.04591
3.32,0.04991
3.324,0.04374
3.328,0.01109
3.332,0.01532
3.336,0.00857
3.34,-0.00751
3.344,-0.01212
3.348,-0.02131
3.352,0.00668
3.356,-0.03097
3.36,0.00844
3.364,0.01172
3.368,-0.00889
3.372,0.00193
3.376,-0.02707
3.38,-0.04124
3.384,-0.01963
3.388,-0.00984
3.392,-0.04965
3.396,-0.02611
3.4,-0.03627
3.404,0.00695
3.408,-0.03762
3.412,-0.01484
3.416,-0.0148
3.42,0.00663
3.424,-0.01473
3.428,-0.02759
3.432,0.00331
3.436,-0.02226
3.44,-0.03148
3.444,-0.0557
3.448,0.00195
3.452,-0.01309
3.456,-0.03621
3.46,-0.01655
3.464,-0.01246
3.468,-0.02449
3.472,0.0158
3.476,-0.02039
3.48,-0.02029
3.484,-0.0259
3.488,-0.00347
3.492,0.00882
3.496,-0.0083
3.5,0.01096
3.504,0.00966
3.508,0.06388
3.512,0.07212
3.516,0.05272
3.52,0.0583
3.524,0.08749
3.528,0.06981
3.532,0.07463
3.536,0.09495
3.54,0.05236
3.544,0.04007
3.548,0.01441
3.552,0.01695
3.556,-0.00794
3.56,0.00791
3.564,-0.01871
3.568,0.00123
3.572,0.00111
3.576,-0.00971
3.58,0.01067
3.584,-0.04156
3.588,-0.02349
3.592,-0.04425
3.596,-0.02765
3.6,-0.04207
3.604,-0.03337
3.608,-0.04151
3.612,-0.04148
3.616,-0.00251
3.62,-0.02899
3.624,-0.03253
3.628,-0.01276
3.632,-0.01829
3.636,-0.03222
3.64,-0.04303
3.644,-0.05728
3.648,-0.1057
3.652,-0.14503
3.656,-0.11791
3.66,-0.04549
3.664,0.11419
3.668,0.2823
3.672,0.49762
3.676,0.73132
3.68,0.86473
3.684,0.9639
3.688,0.93021
3.692,0.84028
3.696,0.61439
3.7,0.37394
3.704,0.15415
3.708,-0.0322
3.712,-0.13712
3.716,-0.20069
3.72,-0.18512
3.724,-0.16317
3.728,-0.11722
3.732,-0.06107
3.736,-0.06221
3.74,-0.01471
3.744,-0.02189
3.748,-0.02889
3.752,-0.02101
3.756,-0.02876
3.76,-0.0321
3.764,-0.02431
3.768,-0.00784
3.772,-0.02031
3.776,-0.00871
3.78,-0.02873
3.784,-0.03804
3.788,-0.02747
3.792,-0.00852
3.796,-0.03549
3.8,-0.03534
3.804,-0.01121
3.808,-0.00802
3.812,-0.0232
3.816,-0.02872
3.82,-0.00781
3.824,0.00161
3.828,-0.01111
3.832,-0.03294
3.836,-0.03775
3.84,-0.02828
3.844,-0.02573
3.848,-0.02767
3.852,-0.01477
3.856,-0.02992
3.86,-0.02006
3.864,-0.01723
3.868,-0.00439
3.872,-0.01361
3.876,-0.02261
3.88,-0.00485
3.884,0.03076
3.888,0.0067
3.892,0.02738
3.896,0.07187
3.9,0.07272
3.904,0.09762
3.908,0.04883
3.912,0.09635
3.916,0.10449
3.92,0.11158
3.924,0.1011
3.928,0.13782
3.932,0.12232
3.936,0.17691
3.94,0.13886
3.944,0.15936
3.948,0.17343
3.952,0.18453
3.956,0.20138
3.96,0.16568
3.964,0.18634
3.968,0.20005
3.972,0.17256
3.976,0.18128
3.98,0.1635
3.984,0.17912
3.988,0.16115
3.992,0.14053
3.996,0.13553
4.0,0.12045
4.004,0.13645
4.008,0.11301
4.012,0.08338
4.016,0.07195
4.02,0.07755
4.024,0.06563
4.028,0.05215
4.032,0.0395
4.036,0.01825
4.04,0.05122
4.044,0.03219
4.048,-0.00236
4.052,-0.01598
4.056,-0.00268
4.06,-0.00637
4.064,-0.01261
4.068,-0.0069
4.072,-0.012
4.076,-0.01345
4.08,-0.04107
4.084,-0.05155
4.088,-0.02221
4.092,-0.01216
4.096,-0.03132
4.1,-0.01367
4.104,-0.03959
4.108,-0.00229
4.112,-0.00586
4.116,-0.01161
4.12,-0.00998
4.124,0.04156
4.128,0.04889
4.132,0.03878
4.136,0.07438
4.14,0.05062
4.144,0.07799
4.148,0.04233
4.152,0.05175
4.156,0.04367
4.16,0.05213
4.164,0.03177
4.168,0.01633
4.172,0.01078
4.176,0.01956
4.18,1e-05
4.184,0.00644
4.188,0.01338
4.192,-0.01604
4.196,-0.03084
4.2,-0.03497
4.204,-0.02604
4.208,-0.0375
4.212,-0.03271
4.216,-0.04314
4.22,-0.02894
4.224,-0.02721
4.228,-0.02715
4.232,-0.01585
4.236,-0.01987
4.24,-0.03766
4.244,-0.03689
4.248,-0.02325
4.252,-0.00533
4.256,-0.01909
4.26,-0.05611
4.264,-0.09081
4.268,-0.09716
4.272,-0.10388
4.276,-0.12506
4.28,-0.06898
4.284,0.07681
4.288,0.29292
4.292,0.50579
4.296,0.6979
4.3,0.87889
4.304,0.95455
4.308,0.93968
4.312,0.81635
4.316,0.63839
4.32,0.39703
4.324,0.16781
4.328,0.01379
4.332,-0.12888
4.336,-0.19249
4.34,-0.17218
4.344,-0.15046
4.348,-0.09818
4.352,-0.08428
4.356,-0.0582
4.36,-0.03852
4.364,-0.045
4.368,-0.05012
4.372,-0.01445
4.376,-0.04966
4.38,-0.02202
4.384,-0.01704
4.388,-0.02305
4.392,-0.01419
4.396,-0.05429
4.4,-0.03284
4.404,-0.04201
4.408,-0.03278
4.412,-0.01747
4.416,-0.03251
4.42,-0.03284
4.424,-0.02067
4.428,-0.01467
4.432,-0.03048
4.436,-0.04588
4.44,-0.0186
4.444,0.01581
4.448,-0.00401
4.452,-0.0106
4.456,-0.04315
4.46,-0.05834
4.464,-0.01586
4.468,-0.01204
4.472,-0.01645
4.476,-0.03137
4.48,0.00987
4.484,0.00197
4.488,-0.02743
4.492,-0.00933
4.496,-0.01046
4.5,-0.00678
4.504,-0.00722
4.508,0.03574
4.512,0.03994
4.516,0.02615
4.52,0.05968
4.524,0.03734
4.528,0.07155
4.532,0.08044
4.536,0.10497
4.54,0.11109
4.544,0.09931
4.548,0.13271
4.552,0.14963
4.556,0.15256
4.56,0.16381
4.564,0.15385
4.568,0.17207
4.572,0.18723
4.576,0.16511
4.58,0.19282
4.584,0.2199
4.588,0.18882
4.592,0.18753
4.596,0.18289
4.6,0.16528
4.604,0.1985
4.608,0.18021
4.612,0.12364
4.616,0.14601
4.62,0.15609
4.624,0.10305
4.628,0.13096
4.632,0.12144
4.636,0.09556
4.64,0.06242
4.644,0.08989
4.648,0.06081
4.652,0.00688
4.656,0.01882
4.66,0.02481
4.664,0.04317
4.668,-0.01033
4.672,-0.00902
4.676,-0.01508
4.68,0.01344
4.684,-0.02922
4.688,-0.01296
4.692,-0.01434
4.696,0.01115
4.7,-0.01664
4.704,-0.04162
4.708,-0.01786
4.712,-0.01862
4.716,-0.0159
4.72,-0.02798
4.724,-0.01055
4.728,-0.01586
4.732,-0.03185
4.736,-0.02656
4.74,-0.01453
4.744,-0.05772
4.748,-0.03475
4.752,-0.04678
4.756,-0.01315
4.76,-0.02103
4.764,-0.0399
4.768,-0.02913
4.772,-0.03441
4.776,-0.04184
4.78,-0.00614
4.784,-0.06523
4.788,-0.02478
4.792,-0.03582
4.796,-0.00663
4.8,-0.00575
4.804,-0.03105
4.808,-0.02276
4.812,-0.04445
4.816,-0.0211
4.82,-0.01766
4.824,-0.04503
4.828,-0.01765
4.832,-0.01105
4.836,-0.01422
4.84,-0.02349
4.844,-0.02726
4.848,-0.01294
4.852,-0.04685
4.856,0.00404
4.86,0.02067
4.864,-0.02021
4.868,-0.04238
4.872,-0.0195
4.876,-0.02698
4.88,-0.02794
4.884,-0.01787
4.888,-0.02917
4.892,-0.02086
4.896,-0.00081
4.9,-0.00409
4.904,-0.01969
4.908,-0.01825
4.912,0.02401
4.916,0.03583
4.92,0.02327
4.924,0.03647
4.928,0.06435
4.932,0.07403
4.936,0.07669
4.94,0.09435
4.944,0.05437
4.948,0.06405
4.952,0.07352
4.956,0.06115
4.96,0.01845
4.964,0.00626
4.968,0.02359
4.972,0.0157
4.976,0.01504
4.98,-0.00572
4.984,-0.00972
4.988,-0.01056
4.992,-0.0117
4.996,-0.02218
5.0,0.00442
5.004,-0.00719
5.008,-0.02126
5.012,-0.03827
5.016,-0.02562
5.02,-0.02074
5.024,-0.03398
5.028,-0.01051
5.032,-0.01388
5.036,-0.04216
5.04,-0.03086
5.044,-0.03322
5.048,-0.02081
5.052,-0.02503
5.056,-0.06785
5.06,-0.08698
5.064,-0.13975
5.068,-0.13953
5.072,-0.12125
5.076,-0.00125
5.08,0.16295
5.084,0.35675
5.088,0.57052
5.092,0.79575
5.096,0.92725
5.1,0.98655
5.104,0.90195
5.108,0.76043
5.112,0.52545
5.116,0.29673
5.12,0.10579
5.124,-0.08317
5.128,-0.13714
5.132,-0.19388
5.136,-0.19403
5.14,-0.12994
5.144,-0.1072
5.148,-0.06212
5.152,-0.0339
5.156,-0.01701
5.16,-0.00011
5.164,-0.02417
5.168,0.02815
5.172,-0.02542
5.176,-0.02781
5.18,-0.00167
5.184,-0.00685
5.188,-0.02951
5.192,0.01228
5.196,-0.01312
5.2,-0.02174
5.204,0.00545
5.208,-0.01202
5.212,-0.00431
5.216,-0.02616
5.22,-0.012
5.224,-0.00534
5.228,-0.02868
5.232,-0.00616
5.236,-0.01454
5.24,0.00742
5.244,-0.02786
5.248,-0.02649
5.252,-0.0064
5.256,0.00144
5.26,-0.02205
5.264,0.01332
5.268,-0.02142
5.272,0.0067
5.276,0.00261
5.28,0.00966
5.284,0.02115
5.288,0.00229
5.292,-0.00873
5.296,0.06525
5.3,0.03308
5.304,0.06586
5.308,0.06526
5.312,0.05437
5.316,0.05408
5.32,0.06876
5.324,0.10235
5.328,0.10157
5.332,0.12341
5.336,0.12588
5.34,0.12965
5.344,0.14544
5.348,0.16959
5.352,0.16177
5.356,0.17578
5.36,0.16623
5.364,0.1798
5.368,0.19496
5.372,0.20938
5.376,0.19866
5.38,0.18344
5.384,0.20502
5.388,0.19142
5.392,0.19224
5.396,0.21996
5.4,0.1952
5.404,0.17568
5.408,0.14923
5.412,0.16137
5.416,0.12393
5.42,0.13194
5.424,0.1278
5.428,0.11254
5.432,0.11222
5.436,0.0816
5.44,0.07339
5.444,0.0663
5.448,0.08861
5.452,0.05768
5.456,0.04275
5.46,0.02808
5.464,0.02384
5.468,0.03942
5.472,0.02843
5.476,0.01005
5.48,-0.00866
5.484,0.00421
5.488,0.0109
5.492,-0.00221
5.496,0.01115
5.5,-0.00671
5.504,-0.01201
5.508,0.00853
5.512,-0.01941
5.516,-0.02502
5.52,-0.03447
5.524,0.03068
5.528,0.02146
5.532,-0.00732
5.536,0.01823
5.54,0.01729
5.544,0.01858
5.548,0.05994
5.552,0.04491
5.556,0.0587
5.56,0.08058
5.564,0.10132
5.568,0.10913
5.572,0.10273
5.576,0.1016
5.58,0.07229
5.584,0.06739
5.588,0.05476
5.592,0.07072
5.596,0.04235
5.6,0.03388
5.604,0.04173
5.608,-0.01031
5.612,-0.00202
5.616,0.00055
5.62,0.00559
5.624,0.00523
5.628,-0.02685
5.632,-0.02059
5.636,0.00192
5.64,-0.01899
5.644,0.0125
5.648,0.01368
5.652,-0.01564
5.656,-0.02441
5.66,-0.00614
5.664,-0.00835
5.668,0.00136
5.672,-0.01212
5.676,-0.0052
5.68,0.01383
5.684,0.01736
5.688,-0.02892
5.692,-0.05183
5.696,-0.06843
5.7,-0.13804
5.704,-0.0478
5.708,0.0282
5.712,0.18675
5.716,0.39964
5.72,0.61317
5.724,0.83135
5.728,0.9788
5.732,0.99088
5.736,0.94977
5.74,0.75046
5.744,0.55031
5.748,0.30349
5.752,0.11946
5.756,-0.05512
5.76,-0.1315
5.764,-0.15499
5.768,-0.14965
5.772,-0.1199
5.776,-0.10011
5.78,-0.04693
5.784,-0.00604
5.788,0.00768
5.792,-0.00043
5.796,0.01236
5.8,-0.03178
5.804,-0.00503
5.808,-0.00929
5.812,0.01314
5.816,0.01204
5.82,-0.01967
5.824,0.02294
5.828,0.01778
5.832,0.01273
5.836,0.02175
5.84,-0.02981
5.844,0.00385
5.848,0.00956
5.852,-0.0111
5.856,0.00535
5.86,-0.01986
5.864,0.0087
5.868,0.0144
5.872,0.01439
5.876,0.00712
5.88,-0.00479
5.884,-0.01148
5.888,-0.00523
5.892,-0.01154
5.896,0.02556
5.9,0.02996
5.904,-0.01101
5.908,0.01736
5.912,-0.003
5.916,0.01012
5.92,0.03082
5.924,0.05435
5.928,0.04872
5.932,0.07738
5.936,0.06425
5.94,0.07381
5.944,0.03806
5.948,0.09487
5.952,0.08601
5.956,0.11278
5.96,0.11898
5.964,0.15082
5.968,0.1404
5.972,0.15482
5.976,0.1653
5.98,0.1932
5.984,0.1904
5.988,0.22749
5.992,0.21929
5.996,0.2178
6.0,0.21335
6.004,0.2135
6.008,0.22314
6.012,0.25961
6.016,0.23432
6.02,0.22927
6.024,0.20093
6.028,0.20633
6.032,0.21902
6.036,0.17946
6.04,0.20776
6.044,0.18182
6.048,0.16704
6.052,0.13308
6.056,0.13805
6.06,0.12466
6.064,0.13348
6.068,0.1377
6.072,0.06801
6.076,0.08011
6.08,0.06543
6.084,0.08661
6.088,0.05261
6.092,0.03963
6.096,0.06149
6.1,0.0537
6.104,0.03732
6.108,0.0375
6.112,0.03039
6.116,0.01573
6.12,0.04567
6.124,0.01001
6.128,0.00212
6.132,0.0108
6.136,0.00421
6.14,0.01011
6.144,0.03313
6.148,0.00342
6.152,0.02275
6.156,0.01654
6.16,0.04499
6.164,0.07951
6.168,0.07306
6.172,0.08776
6.176,0.10539
6.18,0.0832
6.184,0.09337
6.188,0.12393
6.192,0.1304
6.196,0.11372
6.2,0.111
6.204,0.06156
6.208,0.1075
6.212,0.06495
6.216,0.05291
6.22,0.08028
6.224,0.04357
6.228,0.00441
6.232,0.02361
6.236,0.01164
6.24,0.00329
6.244,0.04246
6.248,0.00596
6.252,0.03042
6.256,-0.004
6.26,0.01383
6.264,0.01218
6.268,0.03147
6.272,0.00879
6.276,-0.0136
6.28,0.01414
6.284,0.01655
6.288,0.03009
6.292,0.01158
6.296,0.00791
6.3,-0.00899
6.304,-0.01202
6.308,-0.0306
6.312,-0.04536
6.316,-0.13567
6.32,-0.11656
6.324,-0.01738
6.328,0.08544
6.332,0.2528
6.336,0.48985
6.34,0.70229
6.344,0.88159
6.348,0.98358
6.352,1.01735
6.356,0.91364
6.36,0.74011
6.364,0.49857
6.368,0.29002
6.372,0.05785
6.376,-0.06747
6.38,-0.13555
6.384,-0.16487
6.388,-0.12303
6.392,-0.09543
6.396,-0.0352
6.4,-0.00647
6.404,0.00324
6.408,0.00927
6.412,0.01065
6.416,0.00549
6.42,0.02926
6.424,0.00978
6.428,0.0201
6.432,0.01045
6.436,0.00715
6.44,0.01615
6.444,0.02308
6.448,0.01268
6.452,0.01634
6.456,0.02997
6.46,-0.0117
6.464,0.0174
6.468,0.00048
6.472,-0.00125
6.476,0.00204
6.48,0.03467
6.484,0.01787
6.488,0.00522
6.492,0.01755
6.496,0.01059
6.5,0.02578
6.504,-0.00649
6.508,0.0393
6.512,0.02768
6.516,0.04013
6.52,0.01655
6.524,0.04695
6.528,0.02361
6.532,0.05349
6.536,0.02433
6.54,0.04656
6.544,0.04595
6.548,0.07147
6.552,0.05713
6.556,0.03831
6.56,0.06108
6.564,0.10382
6.568,0.11598
6.572,0.09521
6.576,0.0994
6.58,0.12851
6.584,0.13726
6.588,0.1631
6.592,0.1953
6.596,0.18812
6.6,0.19335
6.604,0.18587
6.608,0.21457
6.612,0.22009
6.616,0.20357
6.62,0.25015
6.624,0.22532
6.628,0.24738
6.632,0.25409
6.636,0.23099
6.64,0.24946
6.644,0.22262
6.648,0.2661
6.652,0.20371
6.656,0.21103
6.66,0.19386
6.664,0.16176
6.668,0.16773
6.672,0.14936
6.676,0.17129
6.68,0.10961
6.684,0.14544
6.688,0.1379
6.692,0.11636
6.696,0.09233
6.7,0.07918
6.704,0.09193
6.708,0.03217
6.712,0.06654
6.716,0.06357
6.72,0.04307
6.724,0.055
6.728,0.04531
6.732,0.04749
6.736,0.06723
6.74,0.06023
6.744,0.03302
6.748,0.04923
6.752,0.00687
6.756,0.00985
6.76,0.00879
6.764,0.02214
6.768,0.00861
6.772,0.02879
6.776,0.01434
6.78,0.03243
6.784,0.02299
6.788,0.01764
6.792,0.00857
6.796,0.00617
6.8,0.01918
6.804,0.04751
6.808,0.02734
6.812,0.02556
6.816,0.01415
6.82,0.03756
6.824,0.00706
6.828,0.02897
6.832,0.01656
6.836,0.01418
6.84,0.00351
6.844,0.03121
6.848,0.01393
6.852,0.02026
6.856,0.0224
6.86,0.02173
6.864,0.01538
6.868,0.02764
6.872,0.0102
6.876,0.03818
6.88,0.02054
6.884,0.02022
6.888,0.04046
6.892,0.01851
6.896,0.0074
6.9,0.01947
6.904,0.01248
6.908,0.0388
6.912,0.03489
6.916,0.03838
6.92,0.00409
6.924,0.00693
6.928,0.02738
6.932,0.0488
6.936,0.03101
6.94,0.04282
6.944,0.0233
6.948,0.05562
6.952,0.02289
6.956,0.06356
6.96,0.0453
6.964,0.07512
6.968,0.07578
6.972,0.06037
6.976,0.11921
6.98,0.11827
6.984,0.11824
6.988,0.11527
6.992,0.12756
6.996,0.09938
7.0,0.15169
7.004,0.11451
7.008,0.11785
7.012,0.13157
7.016,0.07224
7.02,0.05968
7.024,0.04158
7.028,0.06982
7.032,0.03906
7.036,0.03819
7.04,0.03215
7.044,0.03395
7.048,0.0468
7.052,0.0376
7.056,0.02027
7.06,0.0003
7.064,0.01253
7.068,0.02706
7.072,0.02238
7.076,0.01593
7.08,0.03287
7.084,0.03526
7.088,0.04232
7.092,0.02825
7.096,0.01242
7.1,0.03105
7.104,0.03185
7.108,0.02259
7.112,-0.00312
7.116,-0.04495
7.12,-0.07861
7.124,-0.07628
7.128,-0.00168
7.132,0.11594
7.136,0.28257
7.14,0.47178
7.144,0.70092
7.148,0.88559
7.152,0.98612
7.156,1.02406
7.16,0.93409
7.164,0.72616
7.168,0.51023
7.172,0.29083
7.176,0.11645
7.18,-0.04374
7.184,-0.10508
7.188,-0.13862
7.192,-0.12978
7.196,-0.03795
7.2,-0.05035
7.204,0.00952
7.208,-0.01465
7.212,0.0019
7.216,0.03467
7.22,0.01349
7.224,0.03637
7.228,0.03689
7.232,0.0221
7.236,0.00818
7.24,0.04118
7.244,0.02895
7.248,0.01802
7.252,0.03848
7.256,0.01597
7.26,0.03453
7.264,0.03752
7.268,-0.01754
7.272,0.07008
7.276,0.00434
7.28,0.0433
7.284,0.0134
7.288,0.02304
7.292,0.04264
7.296,0.02636
7.3,0.05692
7.304,0.03409
7.308,0.02418
7.312,0.0332
7.316,0.02506
7.32,0.01443
7.324,0.04864
7.328,0.02881
7.332,0.0731
7.336,0.06428
7.34,0.04473
7.344,0.08533
7.348,0.07443
7.352,0.0829
7.356,0.08201
7.36,0.07489
7.364,0.09721
7.368,0.10001
7.372,0.11896
7.376,0.14655
7.38,0.13744
7.384,0.14926
7.388,0.17303
7.392,0.147
7.396,0.15515
7.4,0.19812
7.404,0.21049
7.408,0.20939
7.412,0.22971
7.416,0.2
7.42,0.24154
7.424,0.24369
7.428,0.24424
7.432,0.27491
7.436,0.25232
7.44,0.2269
7.444,0.23726
7.448,0.24744
7.452,0.22063
7.456,0.21764
7.46,0.1856
7.464,0.1903
7.468,0.21038
7.472,0.18341
7.476,0.18511
7.48,0.13668
7.484,0.15177
7.488,0.1436
7.492,0.12931
7.496,0.13033
7.5,0.07792
7.504,0.10981
7.508,0.06908
7.512,0.0932
7.516,0.09247
7.52,0.03385
7.524,0.05553
7.528,0.06082
7.532,0.0366
7.536,0.0395
7.54,0.04019
7.544,0.03247
7.548,0.01914
7.552,0.03076
7.556,0.04409
7.56,0.02731
7.564,0.04426
7.568,0.03166
7.572,0.00849
7.576,0.05866
7.58,0.04337
7.584,0.04022
7.588,0.01682
7.592,0.02057
7.596,0.07044
7.6,0.01622
7.604,0.02788
7.608,0.03741
7.612,0.02316
7.616,0.03676
7.62,0.01966
7.624,0.01094
7.628,0.05229
7.632,0.01939
7.636,0.02495
7.64,0.0391
7.644,0.03539
7.648,0.05111
7.652,0.01596
7.656,0.03037
7.66,0.02891
7.664,0.0463
7.668,0.01024
7.672,0.0371
7.676,0.00653
7.68,0.0378
7.684,0.03281
7.688,-0.00138
7.692,0.03686
7.696,0.01011
7.7,0.04132
7.704,0.03012
7.708,0.04161
7.712,0.01068
7.716,0.03764
7.72,0.02877
7.724,0.04899
7.728,0.04361
7.732,0.03176
7.736,0.03452
7.74,0.07467
7.744,0.07089
7.748,0.08808
7.752,0.10126
7.756,0.10103
7.76,0.0858
7.764,0.14428
7.768,0.15369
7.772,0.12994
7.776,0.12719
7.78,0.11476
7.784,0.11637
7.788,0.07577
7.792,0.06954
7.796,0.08514
7.8,0.04252
7.804,0.0702
7.808,0.02289
7.812,0.02389
7.816,-0.0023
7.82,0.0264
7.824,0.04166
7.828,0.0303
7.832,-0.00776
7.836,0.02713
7.84,0.04575
7.844,0.04529
7.848,0.00802
7.852,0.00802
7.856,0.03844
7.86,0.02655
7.864,0.0152
7.868,0.02149
7.872,0.01193
7.876,0.02457
7.88,-0.0123
7.884,-0.00525
7.888,-0.04195
7.892,-0.09225
7.896,-0.11071
7.9,-0.03384
7.904,0.08136
7.908,0.21784
7.912,0.41144
7.916,0.65398
7.92,0.87283
7.924,0.98552
7.928,1.03863
7.932,0.96063
7.936,0.75782
7.94,0.56706
7.944,0.33327
7.948,0.13187
7.952,-0.01998
7.956,-0.09824
7.96,-0.14906
7.964,-0.10686
7.968,-0.07772
7.972,-0.05948
7.976,0.00936
7.98,0.01821
7.984,0.01679
7.988,0.0275
7.992,0.02279
7.996,0.02229
8.0,0.03364
8.004,0.04655
8.008,0.01337
8.012,0.00373
8.016,0.01715
8.02,0.03229
8.024,0.00192
8.028,0.02449
8.032,0.01589
8.036,0.01992
8.04,0.02868
8.044,0.04644
8.048,0.0048
8.052,0.0086
8.056,0.04024
8.06,0.02444
8.064,0.01847
8.068,0.05089
8.072,-0.0123
8.076,0.00906
8.08,0.02014
8.084,0.05675
8.088,0.03521
8.092,0.01086
8.096,0.0617
8.1,0.01656
8.104,0.07823
8.108,0.03398
8.112,0.03689
8.116,0.07315
8.12,0.07417
8.124,0.08588
8.128,0.07511
8.132,0.09076
8.136,0.08547
8.14,0.09535
8.144,0.08865
8.148,0.10958
8.152,0.1348
8.156,0.13749
8.16,0.18009
8.164,0.15325
8.168,0.17865
8.172,0.19728
8.176,0.19327
8.18,0.21227
8.184,0.21629
8.188,0.22578
8.192,0.22503
8.196,0.24544
8.2,0.24851
8.204,0.24206
8.208,0.25708
8.212,0.23347
8.216,0.20415
8.22,0.22992
8.224,0.24151
8.228,0.1975
8.232,0.23469
8.236,0.19396
8.24,0.18252
8.244,0.17803
8.248,0.1642
8.252,0.16902
8.256,0.15869
8.26,0.13678
8.264,0.13109
8.268,0.11157
8.272,0.0922
8.276,0.1043
8.28,0.10493
8.284,0.04541
8.288,0.06028
8.292,0.04916
8.296,0.07746
8.3,0.02814
8.304,0.05066
8.308,0.02705
8.312,0.01919
8.316,0.03538
8.32,0.01614
8.324,0.0231
8.328,0.02311
8.332,0.02547
8.336,0.03788
8.34,0.03483
8.344,0.00425
8.348,0.04436
8.352,0.01866
8.356,0.01738
8.36,-0.00314
8.364,0.0194
8.368,0.03929
8.372,0.03014
8.376,0.0688
8.38,0.06148
8.384,0.06572
8.388,0.08732
8.392,0.08176
8.396,0.0801
8.4,0.1078
8.404,0.10128
8.408,0.12242
8.412,0.11451
8.416,0.10248
8.42,0.09229
8.424,0.09677
8.428,0.09835
8.432,0.06957
8.436,0.08068
8.44,0.05087
8.444,0.0448
8.448,0.02562
8.452,0.03555
8.456,0.02148
8.46,0.02198
8.464,0.02817
8.468,0.00975
8.472,0.01232
8.476,0.03033
8.48,0.02679
8.484,0.02443
8.488,-0.02041
8.492,0.0229
8.496,0.0121
8.5,-0.01281
8.504,-0.00304
8.508,0.03502
8.512,-0.00425
8.516,0.0086
8.52,-0.01476
8.524,-0.03289
8.528,-0.03316
8.532,-0.06864
8.536,-0.1099
8.54,-0.0678
8.544,0.02311
8.548,0.18655
8.552,0.41313
8.556,0.60714
8.56,0.81218
8.564,0.96554
8.568,1.01771
8.572,0.92731
8.576,0.8046
8.58,0.5847
8.584,0.34683
8.588,0.14302
8.592,-0.0058
8.596,-0.09208
8.6,-0.18143
8.604,-0.16323
8.608,-0.10538
8.612,-0.07778
8.616,-0.0537
8.62,-0.02096
8.624,0.01512
8.628,0.01042
8.632,0.00137
8.636,0.01268
8.64,-0.01068
8.644,0.02556
8.648,-0.0064
8.652,0.0045
8.656,0.01514
8.66,0.00993
8.664,0.00308
8.668,-0.00371
8.672,0.02187
8.676,0.03562
8.68,0.0234
8.684,0.02013
8.688,0.0251
8.692,0.01088
8.696,0.01472
8.7,0.01371
8.704,0.01949
8.708,0.01975
8.712,-0.00584
8.716,0.02276
8.72,-0.00369
8.724,0.01094
8.728,0.00919
8.732,-0.00593
8.736,0.02448
8.74,0.01945
8.744,0.05546
8.748,0.04743
8.752,0.02154
8.756,0.03752
8.76,0.0482
8.764,0.05306
8.768,0.03554
8.772,0.0761
8.776,0.04629
8.78,0.06735
8.784,0.08567
8.788,0.11104
8.792,0.10909
8.796,0.10583
8.8,0.13771
8.804,0.15318
8.808,0.18218
8.812,0.18361
8.816,0.17769
8.82,0.18604
8.824,0.21811
8.828,0.21227
8.832,0.21574
8.836,0.2146
8.84,0.24754
8.844,0.23281
8.848,0.2421
8.852,0.24843
8.856,0.22946
8.86,0.22797
8.864,0.21752
8.868,0.22016
8.872,0.21451
8.876,0.2157
8.88,0.19963
8.884,0.19392
8.888,0.20225
8.892,0.20797
8.896,0.19241
8.9,0.22231
8.904,0.19519
8.908,0.18905
8.912,0.19775
8.916,0.17938
8.92,0.15522
8.924,0.15484
8.928,0.1592
8.932,0.14347
8.936,0.12759
8.94,0.07752
8.944,0.08524
8.948,0.05195
8.952,0.06254
8.956,0.0314
8.96,0.02279
8.964,0.01451
8.968,0.03071
8.972,0.02195
8.976,0.01755
8.98,0.02244
8.984,0.03015
8.988,0.03746
8.992,0.00971
8.996,0.04224
9.0,0.00523
9.004,0.01612
9.008,0.03999
9.012,0.02666
9.016,-0.01258
9.02,0.0296
9.024,-0.00822
9.028,-0.00869
9.032,-0.03323
9.036,-0.04273
9.04,-0.0943
9.044,-0.12592
9.048,-0.09041
9.052,0.01929
9.056,0.18798
9.06,0.3865
9.064,0.60101
9.068,0.82225
9.072,0.95022
9.076,0.98158
9.08,0.92784
9.084,0.7832
9.088,0.56103
9.092,0.3197
9.096,0.14967
9.1,-0.02655
9.104,-0.1372
9.108,-0.16873
9.112,-0.14371
9.116,-0.15509
9.12,-0.07133
9.124,-0.0458
9.128,0.00344
9.132,0.00589
9.136,-0.0019
9.14,-0.01039
9.144,-0.00365
9.148,-0.0132
9.152,-0.0063
9.156,0.00186
9.16,0.02525
9.164,0.00566
9.168,-0.00795
9.172,-0.00591
9.176,0.02033
9.18,-0.02004
9.184,0.03492
9.188,0.00714
9.192,-0.02126
9.196,-0.00724
9.2,0.00925
9.204,-0.00186
9.208,0.00281
9.212,-0.00235
9.216,-0.01753
9.22,-0.01008
9.224,0.01118
9.228,0.01786
9.232,-0.00645
9.236,0.00982
9.24,0.01857
9.244,-0.00068
9.248,0.0158
9.252,0.01176
9.256,0.01809
9.26,0.02925
9.264,0.00014
9.268,0.02911
9.272,0.04673
9.276,0.03496
9.28,0.03636
9.284,0.05271
9.288,0.09303
9.292,0.05926
9.296,0.10959
9.3,0.09096
9.304,0.08356
9.308,0.11212
9.312,0.13346
9.316,0.14139
9.32,0.16765
9.324,0.18196
9.328,0.15535
9.332,0.18571
9.336,0.18112
9.34,0.18263
9.344,0.2222
9.348,0.19731
9.352,0.2204
9.356,0.21274
9.36,0.1855
9.364,0.19298
9.368,0.20743
9.372,0.20234
9.376,0.16348
9.38,0.18584
9.384,0.17919
9.388,0.16498
9.392,0.16453
9.396,0.13691
9.4,0.14491
9.404,0.13867
9.408,0.09589
9.412,0.09906
9.416,0.09081
9.42,0.10901
9.424,0.10104
9.428,0.09605
9.432,0.10148
9.436,0.11331
9.44,0.11564
9.444,0.13799
9.448,0.11642
9.452,0.09449
9.456,0.09749
9.46,0.09909
9.464,0.08124
9.468,0.06213
9.472,0.03278
9.476,0.03447
9.48,0.05396
9.484,0.01866
9.488,0.02632
9.492,-0.00324
9.496,-0.0142
9.5,0.01239
9.504,-0.00359
9.508,-0.01492
9.512,0.01033
9.516,-0.01244
9.52,-0.02516
9.524,-0.02023
9.528,-0.01454
9.532,-0.00459
9.536,-0.04542
9.54,0.01285
9.544,-0.02748
9.548,-0.01448
9.552,-0.01272
9.556,-0.01612
9.56,-0.00376
9.564,-0.03135
9.568,-0.06198
9.572,-0.10565
9.576,-0.12703
9.58,-0.09906
9.584,-0.02028
9.588,0.05477
9.592,0.25878
9.596,0.47017
9.6,0.68786
9.604,0.85612
9.608,0.98507
9.612,0.96753
9.616,0.88626
9.62,0.65888
9.624,0.42398
9.628,0.21996
9.632,0.03975
9.636,-0.10354
9.64,-0.17703
9.644,-0.16494
9.648,-0.14701
9.652,-0.13947
9.656,-0.07017
9.66,-0.04733
9.664,-0.00797
9.668,-0.01151
9.672,-0.0172
9.676,-0.02223
9.68,-0.03041
9.684,-0.01657
9.688,0.01197
9.692,-0.00784
9.696,-0.00399
9.7,-0.01726
9.704,0.00724
9.708,-0.01145
9.712,-0.01036
9.716,-0.01695
9.72,-0.01926
9.724,-0.00625
9.728,-0.02508
9.732,-0.02921
9.736,-0.00917
9.74,-0.01112
9.744,-0.01532
9.748,-0.01163
9.752,-0.01413
9.756,0.00597
9.76,-0.03574
9.764,-0.03005
9.768,-0.01451
9.772,-0.01086
9.776,0.01275
9.78,-0.02694
9.784,0.02036
9.788,-0.00646
9.792,0.00985
9.796,0.00392
9.8,0.02155
9.804,0.01799
9.808,0.01246
9.812,0.02968
9.816,0.02883
9.82,0.04838
9.824,0.05553
9.828,0.08064
9.832,0.09619
9.836,0.10195
9.84,0.10663
9.844,0.12072
9.848,0.14471
9.852,0.13891
9.856,0.16146
9.86,0.12968
9.864,0.16757
9.868,0.1856
9.872,0.18248
9.876,0.19191
9.88,0.18505
9.884,0.20281
9.888,0.20368
9.892,0.22565
9.896,0.19443
9.9,0.17189
9.904,0.20023
9.908,0.17249
9.912,0.18747
9.916,0.18557
9.92,0.15869
9.924,0.15739
9.928,0.13771
9.932,0.12217
9.936,0.0885
9.94,0.09044
9.944,0.06229
9.948,0.08974
9.952,0.06551
9.956,0.0479
9.96,0.01858
9.964,0.04625
9.968,0.02312
9.972,0.02193
9.976,0.01632
9.98,-6e-05
9.984,-0.0022
9.988,0.00174
9.992,-0.0307
9.996,-0.00975
