t_seg,ecg_mV
0.0,0.00448
0.004,0.02873
0.008,0.05148
0.012,0.03671
0.016,-0.00932
0.02,-0.00408
0.024,-0.00882
0.028,0.00698
0.032,-0.00714
0.036,0.04686
0.04,0.01839
0.044,0.05169
0.048,0.01581
0.052,0.01851
0.056,0.0141
0.06,0.02133
0.064,0.02366
0.068,0.02193
0.072,0.00741
0.076,-0.00111
0.08,0.01917
0.084,0.03142
0.088,0.02619
0.092,0.00039
0.096,0.03271
0.1,0.01047
0.104,-0.00968
0.108,0.01731
0.112,-0.00536
0.116,0.03671
0.12,0.02063
0.124,0.0044
0.128,0.00901
0.132,0.0169
0.136,0.0099
0.14,0.00486
0.144,0.04772
0.148,0.01076
0.152,0.00853
0.156,-0.0127
0.16,0.02655
0.164,0.02427
0.168,0.02843
0.172,0.00442
0.176,0.04175
0.18,0.00331
0.184,0.00227
0.188,0.01702
0.192,0.01637
0.196,0.0306
0.2,0.06014
0.204,0.02416
0.208,0.04409
0.212,0.03261
0.216,0.01136
0.22,-0.00465
0.224,0.0172
0.228,0.00124
0.232,0.00693
0.236,0.02333
0.24,0.01246
0.244,0.0332
0.248,-0.01117
0.252,0.00066
0.256,0.06044
0.26,0.03387
0.264,0.02473
0.268,0.03099
0.272,-0.00057
0.276,0.00171
0.28,0.03342
0.284,-0.0124
0.288,0.02843
0.292,-0.01425
0.296,0.0403
0.3,0.02796
0.304,0.01707
0.308,0.02624
0.312,0.02454
0.316,0.00564
0.32,-0.00088
0.324,0.01606
0.328,0.02797
0.332,0.00516
0.336,0.02294
0.34,0.0502
0.344,0.01885
0.348,0.01843
0.352,-0.00435
0.356,0.04405
0.36,0.01831
0.364,0.01524
0.368,0.00242
0.372,0.03837
0.376,0.02208
0.38,0.02768
0.384,0.01778
0.388,0.00409
0.392,0.02626
0.396,0.02841
0.4,0.01006
0.404,0.00964
0.408,0.02039
0.412,0.01556
0.416,0.04519
0.42,0.05594
0.424,0.0169
0.428,0.01131
0.432,0.03837
0.436,0.02936
0.44,0.02478
0.444,0.02225
0.448,0.03656
0.452,0.02776
0.456,0.02816
0.46,0.03379
0.464,-0.01588
0.468,0.02672
0.472,0.02652
0.476,0.02134
0.48,0.01375
0.484,-0.00244
0.488,-0.00955
0.492,0.01853
0.496,-0.00105
0.5,0.04639
0.504,0.0336
0.508,0.02306
0.512,0.04439
0.516,0.03555
0.52,0.02984
0.524,0.0619
0.528,0.05092
0.532,0.0567
0.536,0.07353
0.54,0.08382
0.544,0.09892
0.548,0.09472
0.552,0.10862
0.556,0.1302
0.56,0.1295
0.564,0.13521
0.568,0.10612
0.572,0.11503
0.576,0.10067
0.58,0.10099
0.584,0.09814
0.588,0.0697
0.592,0.06718
0.596,0.05776
0.6,0.05712
0.604,0.04426
0.608,0.03545
0.612,0.02879
0.616,0.03102
0.62,0.05361
0.624,0.05599
0.628,0.03738
0.632,0.02003
0.636,0.03142
0.64,0.0408
0.644,0.00182
0.648,0.02229
0.652,0.05554
0.656,0.02965
0.66,0.0108
0.664,0.02038
0.668,-0.00304
0.672,0.01776
0.676,0.00677
0.68,-0.01382
0.684,-0.049
0.688,-0.08481
0.692,-0.076
0.696,-0.03879
0.7,0.06259
0.704,0.23521
0.708,0.4083
0.712,0.65096
0.716,0.8825
0.72,1.00809
0.724,1.03371
0.728,0.93528
0.732,0.78063
0.736,0.5953
0.74,0.3307
0.744,0.12828
0.748,-0.00368
0.752,-0.08409
0.756,-0.12559
0.76,-0.09593
0.764,-0.08953
0.768,-0.01319
0.772,-0.00571
0.776,0.0261
0.78,-1e-05
0.784,0.03746
0.788,0.02766
0.792,0.03795
0.796,0.0181
0.8,0.00707
0.804,0.02589
0.808,0.0415
0.812,0.02684
0.816,0.02173
0.82,0.02327
0.824,0.0511
0.828,0.02741
0.832,0.0104
0.836,0.05227
0.84,0.03121
0.844,0.0384
0.848,0.00746
0.852,0.02905
0.856,0.03909
0.86,0.0469
0.864,0.04221
0.868,0.0541
0.872,0.03912
0.876,0.02905
0.88,0.0138
0.884,0.05974
0.888,0.04867
0.892,0.08174
0.896,0.07562
0.9,0.03881
0.904,0.06601
0.908,0.06988
0.912,0.07635
0.916,0.05031
0.92,0.06652
0.924,0.073
0.928,0.1049
0.932,0.09616
0.936,0.08981
0.94,0.09915
0.944,0.12115
0.948,0.11372
0.952,0.13081
0.956,0.15609
0.96,0.18461
0.964,0.18535
0.968,0.19309
0.972,0.18671
0.976,0.19934
0.98,0.19469
0.984,0.23686
0.988,0.2393
0.992,0.23604
0.996,0.2854
1.0,0.24861
1.004,0.27193
1.008,0.25233
1.012,0.25579
1.016,0.2257
1.02,0.24014
1.024,0.24283
1.028,0.18765
1.032,0.23346
1.036,0.18623
1.04,0.18643
1.044,0.17134
1.048,0.18203
1.052,0.16359
1.056,0.13307
1.06,0.12317
1.064,0.12719
1.068,0.10178
1.072,0.09019
1.076,0.08451
1.08,0.09933
1.084,0.05404
1.088,0.04758
1.092,0.06884
1.096,0.04786
1.1,0.03108
1.104,0.05909
1.108,0.03554
1.112,0.02721
1.116,0.02063
1.12,0.0607
1.124,0.03386
1.128,0.06012
1.132,0.04452
1.136,0.02287
1.14,0.05605
1.144,0.03345
1.148,0.04578
1.152,0.01232
1.156,0.0114
1.16,0.02505
1.164,0.01913
1.168,0.04651
1.172,0.04034
1.176,0.01534
1.18,0.03462
1.184,-0.00812
1.188,0.02628
1.192,0.03125
1.196,0.0096
1.2,0.00933
1.204,0.02895
1.208,0.0207
1.212,0.05146
1.216,0.01265
1.22,0.03407
1.224,0.05231
1.228,0.04799
1.232,0.03567
1.236,0.01886
1.24,0.02526
1.244,0.03894
1.248,0.02868
1.252,0.03212
1.256,0.02183
1.26,0.02292
1.264,0.05485
1.268,0.04524
1.272,-0.00498
1.276,0.03544
1.28,0.04264
1.284,0.0141
1.288,0.01196
1.292,0.02213
1.296,0.02195
1.3,0.02388
1.304,0.01494
1.308,0.06208
1.312,0.01198
1.316,0.03828
1.32,0.03912
1.324,0.03001
1.328,0.03915
1.332,0.05075
1.336,0.02072
1.34,0.04436
1.344,0.04555
1.348,0.01933
1.352,-0.0081
1.356,0.03087
1.36,0.03629
1.364,0.02381
1.368,0.03258
1.372,0.06193
1.376,0.04458
1.38,0.06108
1.384,0.05612
1.388,0.06963
1.392,0.07971
1.396,0.10138
1.4,0.10701
1.404,0.12369
1.408,0.12526
1.412,0.13653
1.416,0.13698
1.42,0.12389
1.424,0.10742
1.428,0.08433
1.432,0.07083
1.436,0.08892
1.44,0.0705
1.444,0.05405
1.448,0.03758
1.452,0.04431
1.456,0.03047
1.46,0.0486
1.464,0.03089
1.468,0.0177
1.472,0.01471
1.476,0.02504
1.48,0.06341
1.484,0.0255
1.488,0.0079
1.492,0.02391
1.496,0.03842
1.5,0.04136
1.504,0.04193
1.508,0.04208
1.512,0.03393
1.516,0.03336
1.52,0.01628
1.524,0.03042
1.528,0.0079
1.532,0.0088
1.536,-0.07755
1.54,-0.06134
1.544,-0.08322
1.548,0.01069
1.552,0.13011
1.556,0.34453
1.56,0.54661
1.564,0.74728
1.568,0.94512
1.572,1.01849
1.576,0.99754
1.58,0.8704
1.584,0.69278
1.588,0.46216
1.592,0.22364
1.596,0.05185
1.6,-0.06092
1.604,-0.14227
1.608,-0.10899
1.612,-0.12211
1.616,-0.06983
1.62,-0.02161
1.624,0.03982
1.628,0.02263
1.632,0.01422
1.636,-0.00108
1.64,0.01447
1.644,0.013
1.648,0.04066
1.652,0.01722
1.656,0.01229
1.66,0.02557
1.664,0.03352
1.668,-0.00138
1.672,0.01616
1.676,0.02477
1.68,0.04228
1.684,0.05243
1.688,0.04062
1.692,0.02983
1.696,0.0149
1.7,0.04416
1.704,0.00181
1.708,0.02523
1.712,0.03642
1.716,0.02254
1.72,0.01007
1.724,0.02662
1.728,0.01745
1.732,0.01147
1.736,0.02533
1.74,0.02155
1.744,0.07806
1.748,0.02698
1.752,0.05981
1.756,0.02217
1.76,0.07077
1.764,0.06106
1.768,0.05146
1.772,0.04792
1.776,0.06331
1.78,0.04685
1.784,0.09535
1.788,0.07647
1.792,0.13432
1.796,0.14024
1.8,0.1455
1.804,0.1509
1.808,0.16016
1.812,0.13707
1.816,0.17459
1.82,0.19452
1.824,0.20371
1.828,0.22901
1.832,0.23457
1.836,0.22982
1.84,0.24069
1.844,0.25845
1.848,0.2406
1.852,0.24023
1.856,0.23099
1.86,0.22049
1.864,0.22392
1.868,0.23178
1.872,0.20409
1.876,0.20816
1.88,0.19174
1.884,0.19485
1.888,0.19813
1.892,0.18764
1.896,0.17689
1.9,0.13988
1.904,0.13214
1.908,0.12895
1.912,0.1018
1.916,0.13274
1.92,0.07689
1.924,0.0926
1.928,0.05557
1.932,0.05463
1.936,0.05757
1.94,0.05752
1.944,0.0419
1.948,0.07327
1.952,0.05211
1.956,0.06266
1.96,0.0051
1.964,0.04187
1.968,0.059
1.972,0.04763
1.976,0.01287
1.98,0.01035
1.984,0.00857
1.988,0.0337
1.992,0.00517
1.996,0.01224
2.0,0.03247
2.004,0.0095
2.008,0.01341
2.012,0.00463
2.016,0.04069
2.02,0.00992
2.024,0.02649
2.028,0.0167
2.032,0.02697
2.036,0.02879
2.04,0.01809
2.044,0.02201
2.048,0.00157
2.052,0.0215
2.056,0.01929
2.06,0.02471
2.064,-0.0123
2.068,0.02219
2.072,0.01293
2.076,0.00123
2.08,0.00738
2.084,0.0244
2.088,0.02952
2.092,0.04045
2.096,0.00594
2.1,0.00424
2.104,0.01084
2.108,0.03475
2.112,0.02556
2.116,0.00546
2.12,0.02563
2.124,0.01989
2.128,0.02274
2.132,0.02075
2.136,0.00721
2.14,0.01143
2.144,0.04389
2.148,0.01479
2.152,0.02673
2.156,0.00241
2.16,-7e-05
2.164,-0.00403
2.168,0.02618
2.172,0.02301
2.176,0.02614
2.18,0.03079
2.184,0.01296
2.188,0.00523
2.192,0.00405
2.196,0.01486
2.2,0.02237
2.204,0.02421
2.208,0.028
2.212,0.00474
2.216,0.01453
2.22,-0.01786
2.224,0.01094
2.228,0.03406
2.232,0.00911
2.236,0.03131
2.24,0.04612
2.244,0.04632
2.248,0.0189
2.252,0.01449
2.256,0.02426
2.26,0.02247
2.264,0.0172
2.268,0.01559
2.272,0.02324
2.276,0.02634
2.28,0.02089
2.284,0.01721
2.288,0.02515
2.292,0.0275
2.296,0.02258
2.3,0.00971
2.304,-0.00047
2.308,0.01355
2.312,-0.02601
2.316,0.00358
2.32,0.00386
2.324,0.02238
2.328,-0.00403
2.332,-0.00713
2.336,0.02095
2.34,0.01926
2.344,-0.00466
2.348,0.01448
2.352,0.00938
2.356,-0.0015
2.36,-0.00428
2.364,0.00292
2.368,0.01265
2.372,0.0153
2.376,0.0292
2.38,0.01404
2.384,-0.00109
2.388,-0.01257
2.392,-0.00215
2.396,0.00793
2.4,0.00557
2.404,-0.01348
2.408,0.04009
2.412,0.03478
2.416,0.02113
2.42,0.01229
2.424,0.01279
2.428,0.04717
2.432,0.03781
2.436,0.06433
2.44,0.069
2.444,0.06172
2.448,0.08984
2.452,0.10168
2.456,0.10377
2.46,0.11283
2.464,0.09718
2.468,0.10812
2.472,0.10098
2.476,0.0974
2.48,0.06945
2.484,0.089
2.488,0.07052
2.492,0.03813
2.496,0.04595
2.5,0.03148
2.504,0.02763
2.508,0.04187
2.512,0.01733
2.516,-0.00378
2.52,0.03587
2.524,0.00716
2.528,0.01628
2.532,-0.00606
2.536,0.0272
2.54,0.00026
2.544,-0.00755
2.548,-0.01439
2.552,0.00456
2.556,0.03516
2.56,-0.00304
2.564,0.01524
2.568,0.00896
2.572,0.02999
2.576,0.01088
2.58,-0.03871
2.584,-0.07828
2.588,-0.11275
2.592,-0.11318
2.596,-0.0384
2.6,0.07545
2.604,0.22245
2.608,0.43818
2.612,0.66022
2.616,0.82687
2.62,0.98281
2.624,1.01911
2.628,0.89868
2.632,0.74997
2.636,0.51055
2.64,0.27926
2.644,0.08798
2.648,-0.05895
2.652,-0.11436
2.656,-0.1676
2.66,-0.12989
2.664,-0.09611
2.668,-0.05942
2.672,-0.04855
2.676,0.00024
2.68,0.00239
2.684,0.02186
2.688,0.01076
2.692,0.01282
2.696,0.00986
2.7,-0.03272
2.704,0.02244
2.708,0.0202
2.712,0.01113
2.716,0.01446
2.72,0.03379
2.724,-0.00726
2.728,0.01785
2.732,0.00307
2.736,0.00865
2.74,0.00433
2.744,-0.03107
2.748,0.0032
2.752,0.01368
2.756,0.00609
2.76,0.01296
2.764,-0.00743
2.768,-0.00247
2.772,-0.00461
2.776,-0.00934
2.78,0.03178
2.784,0.01268
2.788,0.00774
2.792,0.0274
2.796,-0.00324
2.8,-0.01225
2.804,0.02913
2.808,0.00528
2.812,0.03138
2.816,0.02977
2.82,0.02593
2.824,0.04012
2.828,0.05442
2.832,0.06621
2.836,0.07044
2.84,0.07661
2.844,0.07425
2.848,0.08634
2.852,0.10291
2.856,0.11685
2.86,0.14826
2.864,0.15112
2.868,0.14902
2.872,0.19654
2.876,0.15777
2.88,0.22831
2.884,0.19753
2.888,0.19864
2.892,0.20464
2.896,0.18748
2.9,0.23336
2.904,0.21354
2.908,0.22205
2.912,0.23453
2.916,0.21555
2.92,0.21471
2.924,0.19788
2.928,0.16109
2.932,0.20171
2.936,0.15626
2.94,0.11277
2.944,0.13469
2.948,0.10536
2.952,0.12939
2.956,0.08851
2.96,0.1143
2.964,0.07199
2.968,0.08184
2.972,0.06367
2.976,0.05188
2.98,0.03864
2.984,0.048
2.988,0.02841
2.992,0.01921
2.996,0.04933
3.0,0.03928
3.004,0.04057
3.008,0.01385
3.012,0.00417
3.016,-0.01326
3.02,-0.01098
3.024,-0.00781
3.028,-0.01615
3.032,0.00286
3.036,-0.00105
3.04,-0.00299
3.044,-0.00142
3.048,-0.0246
3.052,-0.0063
3.056,-0.00693
3.06,-0.00675
3.064,-0.02455
3.068,-0.01711
3.072,-0.00881
3.076,-0.005
3.08,-0.02485
3.084,0.01174
3.088,0.01209
3.092,0.00186
3.096,0.01406
3.1,-0.01632
3.104,-0.00754
3.108,0.00133
3.112,-0.00641
3.116,-0.00234
3.12,-0.01941
3.124,0.00352
3.128,0.00335
3.132,-0.01041
3.136,-0.03938
3.14,0.00233
3.144,-0.00018
3.148,0.02401
3.152,0.02245
3.156,0.01866
3.16,0.04135
3.164,0.02592
3.168,0.05763
3.172,0.07124
3.176,0.05835
3.18,0.09331
3.184,0.09288
3.188,0.10998
3.192,0.10473
3.196,0.07111
3.2,0.05711
3.204,0.02664
3.208,0.06186
3.212,0.05397
3.216,0.03275
3.22,0.00952
3.224,0.00524
3.228,-0.01285
3.232,-0.02588
3.236,-0.01213
3.24,-0.00051
3.244,-0.00144
3.248,-0.0174
3.252,-0.01325
3.256,-0.02301
3.26,-0.0062
3.264,-0.00291
3.268,0.00372
3.272,-0.0074
3.276,-0.02088
3.28,-0.01677
3.284,0.01004
3.288,-0.00982
3.292,-0.01084
3.296,-0.00812
3.3,-0.02433
3.304,-0.0694
3.308,-0.0673
3.312,-0.14057
3.316,-0.15777
3.32,-0.09062
3.324,0.04882
3.328,0.14859
3.332,0.39591
3.336,0.62662
3.34,0.81327
3.344,0.94994
3.348,0.99961
3.352,0.91386
3.356,0.76775
3.36,0.50799
3.364,0.28053
3.368,0.08502
3.372,-0.06673
3.376,-0.15065
3.38,-0.19267
3.384,-0.18349
3.388,-0.15566
3.392,-0.08912
3.396,-0.07915
3.4,-0.0156
3.404,-0.0131
3.408,0.00601
3.412,-0.02582
3.416,-0.02777
3.42,-0.00283
3.424,-0.0196
3.428,-0.01814
3.432,0.01649
3.436,-0.01649
3.44,-0.01458
3.444,-0.01197
3.448,-0.0132
3.452,-0.06456
3.456,-0.02473
3.46,0.00459
3.464,-0.02679
3.468,-0.02699
3.472,-0.03141
3.476,-0.01818
3.48,-0.01569
3.484,0.00072
3.488,0.01841
3.492,-0.02235
3.496,-0.00941
3.5,0.01379
3.504,-0.01473
3.508,0.01501
3.512,-0.0177
3.516,-0.02727
3.52,-0.0088
3.524,-0.02363
3.528,0.00622
3.532,-0.00366
3.536,0.01473
3.54,0.02325
3.544,0.04355
3.548,0.03014
3.552,0.02942
3.556,0.04267
3.56,0.0485
3.564,0.03722
3.568,0.0569
3.572,0.06445
3.576,0.07138
3.58,0.08792
3.584,0.09271
3.588,0.13627
3.592,0.14575
3.596,0.19102
3.6,0.16913
3.604,0.16837
3.608,0.17701
3.612,0.18235
3.616,0.16804
3.62,0.21985
3.624,0.21866
3.628,0.19266
3.632,0.20588
3.636,0.1874
3.64,0.18688
3.644,0.17739
3.648,0.19292
3.652,0.18939
3.656,0.14056
3.66,0.15665
3.664,0.16768
3.668,0.12448
3.672,0.09034
3.676,0.09389
3.68,0.09482
3.684,0.07962
3.688,0.07614
3.692,0.08587
3.696,0.04334
3.7,0.05209
3.704,0.02066
3.708,0.00728
3.712,0.00264
3.716,0.01383
3.72,0.01324
3.724,-0.02219
3.728,-0.00526
3.732,-0.02572
3.736,0.00924
3.74,-0.00642
3.744,-0.01
3.748,-0.02785
3.752,0.00252
3.756,0.00336
3.76,-0.03357
3.764,-0.0354
3.768,-0.00452
3.772,-0.01914
3.776,-0.04617
3.78,-0.03843
3.784,-0.01538
3.788,-0.04154
3.792,-0.01976
3.796,-0.00593
3.8,-0.03297
3.804,-0.02838
3.808,-0.03875
3.812,-0.01911
3.816,-0.01005
3.82,-0.03179
3.824,0.00834
3.828,-0.0358
3.832,-0.0237
3.836,-0.02671
3.84,-0.01121
3.844,-0.0139
3.848,-0.01621
3.852,-0.02046
3.856,-0.01599
3.86,-0.05458
3.864,-0.0391
3.868,-0.01943
3.872,-0.01443
3.876,-0.01359
3.88,-0.02607
3.884,-0.02128
3.888,-0.02025
3.892,-0.01521
3.896,-0.01345
3.9,-0.02499
3.904,-0.04561
3.908,-0.02472
3.912,-0.02275
3.916,-0.01144
3.92,-0.01635
3.924,-0.02846
3.928,-0.03348
3.932,-0.00744
3.936,-0.0468
3.94,-0.04181
3.944,-0.00722
3.948,-0.04486
3.952,-0.00193
3.956,-0.03182
3.96,-0.01993
3.964,-0.01627
3.968,-0.03542
3.972,-0.03028
3.976,-0.02291
3.98,-0.03071
3.984,-0.03429
3.988,-0.03251
3.992,-0.02829
3.996,-0.04011
4.0,-0.02112
4.004,-0.01321
4.008,-0.04932
4.012,-0.02248
4.016,-0.02514
4.02,-0.01568
4.024,-0.01398
4.028,-0.01884
4.032,-0.04723
4.036,-0.02097
4.04,-0.02639
4.044,-0.03127
4.048,-0.02493
4.052,-0.01244
4.056,-0.01472
4.06,-0.00146
4.064,-0.00924
4.068,0.00447
4.072,0.03682
4.076,0.02211
4.08,0.01956
4.084,0.04315
4.088,0.04351
4.092,0.05597
4.096,0.06322
4.1,0.07002
4.104,0.07784
4.108,0.05203
4.112,0.06383
4.116,0.07107
4.12,0.04465
4.124,0.03262
4.128,0.00449
4.132,-0.02054
4.136,-0.00493
4.14,-0.00839
4.144,-0.03363
4.148,-0.02957
4.152,0.00875
4.156,-0.02631
4.16,-0.05421
4.164,-0.01527
4.168,-0.02022
4.172,-0.03454
4.176,-0.02654
4.18,-0.02006
4.184,-0.02861
4.188,0.00209
4.192,0.00931
4.196,0.01097
4.2,-0.02592
4.204,-0.03575
4.208,-0.01601
4.212,-0.05571
4.216,-0.03642
4.22,-0.07613
4.224,-0.10842
4.228,-0.13525
4.232,-0.12198
4.236,-0.07237
4.24,0.06585
4.244,0.27913
4.248,0.48237
4.252,0.67679
4.256,0.85981
4.26,0.96819
4.264,0.96042
4.268,0.81823
4.272,0.60454
4.276,0.39538
4.28,0.18593
4.284,-0.01733
4.288,-0.12339
4.292,-0.18886
4.296,-0.17865
4.3,-0.16887
4.304,-0.15749
4.308,-0.07521
4.312,-0.03549
4.316,-0.03964
4.32,-0.00184
4.324,-0.02683
4.328,-0.03174
4.332,-0.02954
4.336,-0.02897
4.34,-0.01786
4.344,-0.03095
4.348,-0.05999
4.352,-0.01696
4.356,-0.03749
4.36,-0.04604
4.364,-0.02266
4.368,-0.03478
4.372,-0.03559
4.376,-0.05349
4.38,-0.01997
4.384,-0.02795
4.388,-0.00618
4.392,-0.02199
4.396,-0.00633
4.4,-0.03577
4.404,-0.02161
4.408,-0.06669
4.412,-0.01693
4.416,-0.04333
4.42,-0.0232
4.424,-0.01786
4.428,0.00024
4.432,-0.02921
4.436,-0.01387
4.44,0.00598
4.444,-0.00894
4.448,-0.00428
4.452,-0.01799
4.456,-0.01455
4.46,0.01871
4.464,0.02316
4.468,0.02484
4.472,0.01034
4.476,0.03223
4.48,0.05489
4.484,0.07491
4.488,0.06905
4.492,0.09252
4.496,0.10418
4.5,0.11112
4.504,0.11986
4.508,0.13818
4.512,0.14262
4.516,0.14964
4.52,0.14893
4.524,0.18356
4.528,0.17363
4.532,0.20921
4.536,0.18853
4.54,0.1872
4.544,0.1833
4.548,0.17539
4.552,0.17426
4.556,0.16875
4.56,0.17048
4.564,0.1733
4.568,0.13208
4.572,0.16041
4.576,0.14302
4.58,0.13759
4.584,0.09486
4.588,0.1023
4.592,0.10796
4.596,0.07818
4.6,0.05314
4.604,0.04718
4.608,0.04261
4.612,0.01039
4.616,0.03111
4.62,0.02292
4.624,0.02226
4.628,0.01969
4.632,-0.02918
4.636,-0.0151
4.64,-0.00742
4.644,-0.0299
4.648,-0.02389
4.652,0.00465
4.656,-0.01347
4.66,-0.01369
4.664,-0.0373
4.668,-0.00501
4.672,-0.02634
4.676,-0.02026
4.68,-0.04365
4.684,-0.06933
4.688,-0.03328
4.692,-0.02812
4.696,-0.02972
4.7,0.00061
4.704,-0.04643
4.708,-0.03743
4.712,-0.01633
4.716,-0.02479
4.72,-0.02338
4.724,-0.03747
4.728,-0.03275
4.732,-0.01268
4.736,-0.0265
4.74,-0.00922
4.744,-0.05292
4.748,-0.041
4.752,-0.00895
4.756,-0.02462
4.76,-0.04526
4.764,-0.0353
4.768,-0.0528
4.772,-0.03706
4.776,-0.0146
4.78,-0.01877
4.784,-0.04712
4.788,-0.01602
4.792,-0.02646
4.796,-0.02395
4.8,-0.05928
4.804,-0.04083
4.808,-0.04326
4.812,-0.01674
4.816,-0.02463
4.82,-0.04785
4.824,-0.03546
4.828,-0.03156
4.832,-0.03039
4.836,-0.02189
4.84,-0.02348
4.844,-0.00609
4.848,-0.04323
4.852,-0.02168
4.856,-0.01875
4.86,0.0006
4.864,-0.0502
4.868,-0.03496
4.872,-0.03924
4.876,-0.02078
4.88,-0.0212
4.884,-0.02829
4.888,-0.0379
4.892,0.006
4.896,-0.0478
4.9,-0.01427
4.904,-0.04582
4.908,-0.05135
4.912,-0.01499
4.916,-0.00037
4.92,-0.02813
4.924,-0.01159
4.928,-0.02156
4.932,-0.03462
4.936,-0.04685
4.94,-0.01918
4.944,-0.02987
4.948,-0.03286
4.952,-0.03064
4.956,-0.02731
4.96,-0.02403
4.964,-0.02657
4.968,-0.02409
4.972,-0.00561
4.976,-0.03342
4.98,-0.01738
4.984,-0.03957
4.988,-0.01393
4.992,-0.03007
4.996,-0.02354
5.0,-0.03555
5.004,0.00046
5.008,-0.01243
5.012,0.00454
5.016,-0.01338
5.02,-0.0351
5.024,-0.00612
5.028,0.00223
5.032,0.0211
5.036,0.04842
5.04,0.04292
5.044,0.06596
5.048,0.07153
5.052,0.07935
5.056,0.06753
5.06,0.08534
5.064,0.05298
5.068,0.07522
5.072,0.04325
5.076,0.0557
5.08,0.03979
5.084,-0.00752
5.088,0.01453
5.092,-0.00307
5.096,-0.01669
5.1,-0.01383
5.104,-0.00813
5.108,-0.02548
5.112,-0.02422
5.116,-0.01849
5.12,-0.03045
5.124,-0.00458
5.128,-0.05961
5.132,-0.02491
5.136,-0.00864
5.14,-0.03672
5.144,-0.02188
5.148,-0.03936
5.152,-0.02165
5.156,-0.01232
5.16,-0.04106
5.164,-0.03211
5.168,-0.0503
5.172,-0.05982
5.176,-0.07134
5.18,-0.10375
5.184,-0.15555
5.188,-0.13969
5.192,-0.07641
5.196,0.11232
5.2,0.28602
5.204,0.51313
5.208,0.71197
5.212,0.90137
5.216,0.98414
5.22,0.93692
5.224,0.82666
5.228,0.61228
5.232,0.37678
5.236,0.15395
5.24,-0.0241
5.244,-0.10672
5.248,-0.1626
5.252,-0.18056
5.256,-0.17374
5.26,-0.09858
5.264,-0.0664
5.268,-0.04481
5.272,-0.0286
5.276,-0.03199
5.28,-0.03322
5.284,-0.01704
5.288,-0.01491
5.292,0.00447
5.296,-0.00508
5.3,0.00081
5.304,-0.03151
5.308,-0.01
5.312,-0.01462
5.316,0.00043
5.32,-0.03039
5.324,-0.02554
5.328,-0.01043
5.332,-0.00926
5.336,-0.02342
5.34,-0.03435
5.344,-0.02962
5.348,-0.03461
5.352,-0.02218
5.356,-0.02606
5.36,-0.01744
5.364,0.00129
5.368,-0.01924
5.372,0.00264
5.376,-0.02434
5.38,-0.01252
5.384,0.00713
5.388,-0.04276
5.392,0.03477
5.396,-0.02192
5.4,0.01386
5.404,-0.00921
5.408,0.00471
5.412,0.01993
5.416,0.02871
5.42,0.01828
5.424,0.06627
5.428,0.04866
5.432,0.04819
5.436,0.07333
5.44,0.09998
5.444,0.08229
5.448,0.09757
5.452,0.13507
5.456,0.14649
5.46,0.14167
5.464,0.16167
5.468,0.16412
5.472,0.16584
5.476,0.16562
5.48,0.20058
5.484,0.20299
5.488,0.19856
5.492,0.1934
5.496,0.20895
5.5,0.22922
5.504,0.19889
5.508,0.20361
5.512,0.20047
5.516,0.19241
5.52,0.17692
5.524,0.1653
5.528,0.16321
5.532,0.16975
5.536,0.12566
5.54,0.10869
5.544,0.12115
5.548,0.0821
5.552,0.09272
5.556,0.10153
5.56,0.06008
5.564,0.07507
5.568,0.044
5.572,0.03246
5.576,0.0284
5.58,0.02336
5.584,0.01392
5.588,0.0207
5.592,0.01927
5.596,-0.02529
5.6,0.01578
5.604,0.00198
5.608,0.00526
5.612,-0.01958
5.616,0.01772
5.62,-0.01844
5.624,-0.01514
5.628,-0.01085
5.632,0.00643
5.636,-0.02478
5.64,-0.02002
5.644,-0.00197
5.648,-0.00012
5.652,-0.015
5.656,-0.02722
5.66,-0.01618
5.664,0.01044
5.668,-0.02048
5.672,-0.00542
5.676,0.01845
5.68,0.03629
5.684,0.02868
5.688,0.02917
5.692,0.06196
5.696,0.05524
5.7,0.06819
5.704,0.08357
5.708,0.0869
5.712,0.09437
5.716,0.07972
5.72,0.05707
5.724,0.06166
5.728,0.05709
5.732,0.0164
5.736,0.03201
5.74,-0.01321
5.744,0.02076
5.748,-0.00684
5.752,-0.00177
5.756,-0.0242
5.76,-0.0124
5.764,-0.03078
5.768,-0.00924
5.772,0.01063
5.776,0.01398
5.78,-0.00584
5.784,-0.00968
5.788,-0.01821
5.792,-0.02835
5.796,-0.03151
5.8,-0.01516
5.804,-0.00574
5.808,-0.00489
5.812,-0.00646
5.816,-0.03308
5.82,-0.01185
5.824,-0.04751
5.828,-0.07268
5.832,-0.06228
5.836,-0.134
5.84,-0.08466
5.844,-0.00177
5.848,0.10678
5.852,0.31483
5.856,0.52199
5.86,0.75715
5.864,0.91529
5.868,0.97705
5.872,0.93935
5.876,0.77751
5.88,0.58298
5.884,0.36672
5.888,0.14591
5.892,-0.03563
5.896,-0.1284
5.9,-0.18033
5.904,-0.14854
5.908,-0.12105
5.912,-0.0818
5.916,-0.0543
5.92,-0.03047
5.924,0.00051
5.928,0.01677
5.932,-0.02359
5.936,0.00709
5.94,0.00201
5.944,0.01219
5.948,0.00385
5.952,0.00884
5.956,-0.01805
5.96,-0.01164
5.964,0.01037
5.968,0.00367
5.972,-0.02414
5.976,-0.00438
5.98,-0.02421
5.984,0.00856
5.988,-0.01506
5.992,-0.00943
5.996,0.00366
6.0,0.00817
6.004,-0.00793
6.008,-0.03998
6.012,-0.01649
6.016,-0.01564
6.02,0.01785
6.024,0.01326
6.028,0.01587
6.032,-0.02062
6.036,0.00495
6.04,0.00723
6.044,0.00063
6.048,0.03132
6.052,0.01701
6.056,0.04908
6.06,0.03799
6.064,0.04785
6.068,0.05752
6.072,0.03744
6.076,0.05408
6.08,0.05218
6.084,0.08989
6.088,0.0871
6.092,0.07265
6.096,0.10841
6.1,0.1194
6.104,0.13379
6.108,0.10931
6.112,0.16967
6.116,0.18504
6.12,0.18688
6.124,0.1981
6.128,0.21058
6.132,0.18332
6.136,0.19837
6.14,0.19658
6.144,0.23128
6.148,0.21581
6.152,0.20616
6.156,0.23159
6.16,0.23508
6.164,0.1945
6.168,0.19787
6.172,0.1742
6.176,0.19151
6.18,0.18325
6.184,0.15643
6.188,0.13929
6.192,0.15517
6.196,0.12382
6.2,0.12069
6.204,0.11428
6.208,0.07414
6.212,0.09424
6.216,0.0733
6.22,0.06944
6.224,0.04255
6.228,0.03799
6.232,0.06383
6.236,0.02693
6.24,0.03785
6.244,0.00902
6.248,-9e-05
6.252,0.03853
6.256,0.0104
6.26,0.00428
6.264,0.01963
6.268,0.00011
6.272,0.01161
6.276,0.0055
6.28,0.0171
6.284,-0.00791
6.288,-0.00321
6.292,0.0164
6.296,-0.00807
6.3,-0.01074
6.304,0.01361
6.308,0.00404
6.312,-0.02659
6.316,-0.00698
6.32,0.01171
6.324,0.00699
6.328,0.00736
6.332,-0.00069
6.336,-0.0117
6.34,0.0124
6.344,0.00485
6.348,0.00217
6.352,0.01731
6.356,0.00808
6.36,0.02043
6.364,0.00396
6.368,0.00726
6.372,-0.01526
6.376,-0.00056
6.38,0.02753
6.384,0.00516
6.388,0.02128
6.392,0.02607
6.396,-0.00858
6.4,-0.01123
6.404,0.03055
6.408,0.00281
6.412,-0.02264
6.416,0.00716
6.42,-0.0005
6.424,0.01385
6.428,0.00754
6.432,-0.02876
6.436,0.01376
6.44,0.01336
6.444,0.00811
6.448,0.02434
6.452,-0.01724
6.456,0.00265
6.46,0.01756
6.464,0.00254
6.468,-0.00029
6.472,0.01322
6.476,0.02558
6.48,0.01062
6.484,0.01494
6.488,0.02069
6.492,0.00096
6.496,0.06301
6.5,0.01965
6.504,0.03382
6.508,0.06708
6.512,0.07179
6.516,0.06403
6.52,0.09232
6.524,0.10691
6.528,0.1341
6.532,0.07671
6.536,0.11873
6.54,0.11094
6.544,0.08096
6.548,0.06732
6.552,0.06065
6.556,0.05251
6.56,0.03652
6.564,0.04838
6.568,-0.00252
6.572,0.00308
6.576,0.00117
6.58,0.02126
6.584,-0.01026
6.588,0.01599
6.592,-0.01752
6.596,0.05355
6.6,0.0194
6.604,0.02186
6.608,0.00624
6.612,0.01414
6.616,0.03027
6.62,0.01132
6.624,0.00697
6.628,0.02911
6.632,-0.00024
6.636,-0.00748
6.64,0.01158
6.644,-0.01429
6.648,-0.02809
6.652,-0.06195
6.656,-0.10692
6.66,-0.09803
6.664,-0.02488
6.668,0.12924
6.672,0.35512
6.676,0.51385
6.68,0.75679
6.684,0.92225
6.688,1.01774
6.692,0.98105
6.696,0.86795
6.7,0.65857
6.704,0.44329
6.708,0.2179
6.712,0.00803
6.716,-0.08449
6.72,-0.14887
6.724,-0.13206
6.728,-0.13555
6.732,-0.08551
6.736,-0.03058
6.74,0.01286
6.744,0.01938
6.748,0.01293
6.752,0.00262
6.756,0.02709
6.76,0.02859
6.764,0.01459
6.768,0.02124
6.772,0.01261
6.776,0.00371
6.78,0.02004
6.784,0.02431
6.788,0.00097
6.792,0.05271
6.796,0.02283
6.8,0.04376
6.804,0.02035
6.808,-0.00606
6.812,0.03175
6.816,0.01821
6.82,0.0458
6.824,0.00706
6.828,0.00792
6.832,0.01582
6.836,0.01338
6.84,0.03461
6.844,0.05761
6.848,-0.02131
6.852,0.02109
6.856,0.02637
6.86,0.03713
6.864,0.05108
6.868,0.04684
6.872,0.05473
6.876,0.03084
6.88,0.01863
6.884,0.0461
6.888,0.04894
6.892,0.08237
6.896,0.08222
6.9,0.09321
6.904,0.08526
6.908,0.09486
6.912,0.10093
6.916,0.14885
6.92,0.14086
6.924,0.16152
6.928,0.14698
6.932,0.18113
6.936,0.22005
6.94,0.18017
6.944,0.1918
6.948,0.1815
6.952,0.22674
6.956,0.23706
6.96,0.20916
6.964,0.2467
6.968,0.26516
6.972,0.23007
6.976,0.22815
6.98,0.23181
6.984,0.26449
6.988,0.20611
6.992,0.24811
6.996,0.22839
7.0,0.18698
7.004,0.18496
7.008,0.17101
7.012,0.1651
7.016,0.17817
7.02,0.13997
7.024,0.11777
7.028,0.11679
7.032,0.13825
7.036,0.09464
7.04,0.07375
7.044,0.07169
7.048,0.05697
7.052,0.08313
7.056,0.05292
7.06,0.05733
7.064,0.01939
7.068,0.03077
7.072,0.05094
7.076,0.05336
7.08,0.00769
7.084,0.01275
7.088,0.0281
7.092,-0.00091
7.096,0.00724
7.1,0.01347
7.104,0.02839
7.108,0.01767
7.112,0.02708
7.116,0.02356
7.12,0.01157
7.124,0.05303
7.128,0.01683
7.132,0.03744
7.136,0.04403
7.14,0.002
7.144,0.02852
7.148,0.02281
7.152,-0.00317
7.156,-0.01547
7.16,0.03028
7.164,0.03031
7.168,0.02912
7.172,0.00462
7.176,0.00569
7.18,-0.00884
7.184,-0.00436
7.188,0.02838
7.192,0.02465
7.196,0.05484
7.2,0.02703
7.204,0.01614
7.208,0.00954
7.212,0.01247
7.216,0.00611
7.22,0.02561
7.224,0.06001
7.228,0.02041
7.232,0.02285
7.236,0.03067
7.24,0.01444
7.244,0.00942
7.248,0.01974
7.252,0.05771
7.256,0.01513
7.26,0.00387
7.264,0.0352
7.268,0.00797
7.272,0.00483
7.276,0.04194
7.28,0.0299
7.284,0.0369
7.288,0.03788
7.292,0.02174
7.296,0.00902
7.3,0.02976
7.304,0.01649
7.308,0.02973
7.312,0.01923
7.316,0.03833
7.32,0.01987
7.324,0.02367
7.328,0.01408
7.332,0.00844
7.336,0.03391
7.34,0.01469
7.344,0.07178
7.348,0.0012
7.352,0.00067
7.356,0.02115
7.36,0.01875
7.364,0.05051
7.368,0.05305
7.372,0.01953
7.376,0.04479
7.38,0.03436
7.384,0.02222
7.388,0.07114
7.392,0.02135
7.396,0.02005
7.4,0.0297
7.404,0.0481
7.408,0.04791
7.412,0.06747
7.416,0.04143
7.42,0.09466
7.424,0.083
7.428,0.08787
7.432,0.09637
7.436,0.11155
7.44,0.12257
7.444,0.11658
7.448,0.13754
7.452,0.11866
7.456,0.11243
7.46,0.12823
7.464,0.07877
7.468,0.0889
7.472,0.09566
7.476,0.07859
7.48,0.03335
7.484,0.04657
7.488,0.04065
7.492,0.0527
7.496,0.00693
7.5,0.0117
7.504,0.03665
7.508,0.01403
7.512,0.02702
7.516,0.0332
7.52,-0.01689
7.524,0.04299
7.528,0.01629
7.532,0.03415
7.536,0.03386
7.54,0.06403
7.544,0.02546
7.548,0.0192
7.552,0.03235
7.556,0.02466
7.56,0.01349
7.564,-0.00914
7.568,-0.06691
7.572,-0.07072
7.576,-0.06067
7.58,3e-05
7.584,0.15196
7.588,0.33185
7.592,0.56245
7.596,0.76072
7.6,0.96333
7.604,1.04337
7.608,0.97521
7.612,0.87471
7.616,0.68661
7.62,0.44492
7.624,0.20492
7.628,0.04161
7.632,-0.07957
7.636,-0.09866
7.64,-0.14019
7.644,-0.10463
7.648,-0.06504
7.652,-0.00558
7.656,-0.01852
7.66,0.01096
7.664,0.02899
7.668,0.02233
7.672,0.03259
7.676,0.03011
7.68,0.03603
7.684,0.00721
7.688,0.0404
7.692,0.0063
7.696,0.01318
7.7,0.02855
7.704,0.00475
7.708,0.03888
7.712,0.04597
7.716,0.04144
7.72,0.00453
7.724,0.0018
7.728,0.05184
7.732,-0.00395
7.736,0.02979
7.74,0.02663
7.744,0.03324
7.748,0.01831
7.752,0.04029
7.756,0.02029
7.76,0.03664
7.764,0.02796
7.768,0.05838
7.772,0.03355
7.776,0.02675
7.78,0.06019
7.784,0.03532
7.788,0.06078
7.792,0.03394
7.796,0.0556
7.8,0.0588
7.804,0.04132
7.808,0.11458
7.812,0.098
7.816,0.09263
7.82,0.10294
7.824,0.10609
7.828,0.13555
7.832,0.13414
7.836,0.15303
7.84,0.1659
7.844,0.17525
7.848,0.18439
7.852,0.19539
7.856,0.24485
7.86,0.24017
7.864,0.216
7.868,0.2316
7.872,0.25129
7.876,0.27429
7.88,0.24224
7.884,0.24678
7.888,0.26984
7.892,0.24033
7.896,0.25367
7.9,0.24937
7.904,0.22899
7.908,0.23008
7.912,0.1927
7.916,0.1869
7.92,0.18885
7.924,0.16465
7.928,0.16901
7.932,0.17634
7.936,0.14012
7.94,0.15384
7.944,0.13198
7.948,0.13497
7.952,0.0828
7.956,0.08309
7.96,0.08849
7.964,0.06895
7.968,0.07773
7.972,0.06674
7.976,0.06086
7.98,0.04716
7.984,0.05614
7.988,0.05607
7.992,0.05242
7.996,0.04088
8.0,0.0648
8.004,0.02535
8.008,0.02494
8.012,0.04577
8.016,0.0283
8.02,0.04566
8.024,0.01573
8.028,0.05308
8.032,0.01721
8.036,0.05585
8.04,0.03975
8.044,0.0265
8.048,0.04171
8.052,0.05111
8.056,0.02915
8.06,0.03231
8.064,0.04862
8.068,0.02859
8.072,0.01779
8.076,0.04207
8.08,0.02282
8.084,0.03275
8.088,0.02636
8.092,0.01743
8.096,0.03929
8.1,0.03698
8.104,0.02617
8.108,0.04858
8.112,0.05393
8.116,0.01982
8.12,0.02331
8.124,0.02957
8.128,0.03016
8.132,0.019
8.136,0.03746
8.14,0.02174
8.144,0.02014
8.148,0.0146
8.152,0.0184
8.156,0.04076
8.16,0.03452
8.164,0.02207
8.168,0.02553
8.172,0.04924
8.176,0.02316
8.18,0.02784
8.184,0.00302
8.188,0.02334
8.192,0.04485
8.196,0.03375
8.2,0.00208
8.204,0.01764
8.208,0.04716
8.212,0.06108
8.216,0.01779
8.22,0.00669
8.224,0.01225
8.228,0.02807
8.232,0.04023
8.236,0.03533
8.24,0.03817
8.244,0.03667
8.248,0.0281
8.252,0.01869
8.256,0.04154
8.26,0.04232
8.264,0.0282
8.268,0.01038
8.272,0.02761
8.276,0.03162
8.28,0.02462
8.284,-0.01718
8.288,0.03724
8.292,0.05409
8.296,0.01934
8.3,0.03515
8.304,0.01713
8.308,0.02924
8.312,0.03238
8.316,0.02342
8.32,0.02743
8.324,0.0051
8.328,0.02939
8.332,0.00211
8.336,0.05654
8.34,0.00767
8.344,0.02921
8.348,0.0401
8.352,0.01768
8.356,0.02926
8.36,0.04101
8.364,0.0241
8.368,0.01208
8.372,0.03672
8.376,0.00806
8.38,0.02219
8.384,0.03906
8.388,0.01835
8.392,0.022
8.396,0.03439
8.4,0.03317
8.404,0.01421
8.408,0.00349
8.412,0.03172
8.416,0.02444
8.42,0.0278
8.424,0.01952
8.428,0.0364
8.432,0.02944
8.436,0.02338
8.44,0.0032
8.444,0.03112
8.448,0.01533
8.452,0.01356
8.456,0.01618
8.46,0.01809
8.464,0.01513
8.468,0.01871
8.472,0.02138
8.476,0.00769
8.48,0.02238
8.484,0.03965
8.488,0.03412
8.492,0.03327
8.496,0.03067
8.5,0.01933
8.504,0.02988
8.508,0.0464
8.512,0.05085
8.516,0.04836
8.52,0.0657
8.524,0.0632
8.528,0.08975
8.532,0.09985
8.536,0.12075
8.54,0.13805
8.544,0.15943
8.548,0.10366
8.552,0.11574
8.556,0.07992
8.56,0.0953
8.564,0.07879
8.568,0.0865
8.572,0.0721
8.576,0.03821
8.58,0.07964
8.584,0.0695
8.588,0.0335
8.592,0.00435
8.596,0.0282
8.6,0.02077
8.604,0.05406
8.608,0.02669
8.612,0.02568
8.616,0.02618
8.62,0.0019
8.624,0.02613
8.628,0.01591
8.632,0.01995
8.636,-0.00351
8.64,0.01606
8.644,0.00909
8.648,0.01791
8.652,0.03267
8.656,0.00201
8.66,-0.01242
8.664,-0.02483
8.668,-0.06628
8.672,-0.10175
8.676,-0.07164
8.68,-0.01352
8.684,0.17519
8.688,0.34346
8.692,0.54874
8.696,0.79858
8.7,0.94485
8.704,1.02766
8.708,0.96698
8.712,0.83912
8.716,0.64361
8.72,0.40115
8.724,0.20697
8.728,0.03186
8.732,-0.06905
8.736,-0.13914
8.74,-0.1499
8.744,-0.09793
8.748,-0.06667
8.752,-0.02603
8.756,-0.01707
8.76,0.00375
8.764,0.00043
8.768,0.01683
8.772,0.01574
8.776,0.02993
8.78,-0.00207
8.784,0.03846
8.788,0.01745
8.792,0.00719
8.796,0.02817
8.8,-0.0032
8.804,0.01515
8.808,-2e-05
8.812,0.02614
8.816,0.01201
8.82,0.00845
8.824,0.00655
8.828,0.01363
8.832,0.02127
8.836,0.0047
8.84,0.02255
8.844,0.01146
8.848,-0.00083
8.852,0.0234
8.856,0.03577
8.86,0.01278
8.864,0.03307
8.868,0.01643
8.872,0.06788
8.876,0.04011
8.88,0.05565
8.884,0.06549
8.888,0.02478
8.892,0.03878
8.896,0.01183
8.9,0.08218
8.904,0.08293
8.908,0.04985
8.912,0.07833
8.916,0.07735
8.92,0.08336
8.924,0.12676
8.928,0.09285
8.932,0.12462
8.936,0.15089
8.94,0.14677
8.944,0.15446
8.948,0.16509
8.952,0.17884
8.956,0.1766
8.96,0.24168
8.964,0.22604
8.968,0.20642
8.972,0.22238
8.976,0.22758
8.98,0.23762
8.984,0.23381
8.988,0.22567
8.992,0.23899
8.996,0.2421
9.0,0.21089
9.004,0.19328
9.008,0.1931
9.012,0.15833
9.016,0.17357
9.02,0.1841
9.024,0.16416
9.028,0.14174
9.032,0.14135
9.036,0.12206
9.04,0.12855
9.044,0.09551
9.048,0.08693
9.052,0.06189
9.056,0.08313
9.06,0.06312
9.064,0.05418
9.068,0.0648
9.072,0.05816
9.076,0.04792
9.08,0.04266
9.084,0.03715
9.088,0.0469
9.092,0.02615
9.096,0.01304
9.1,0.0512
9.104,0.03804
9.108,0.00215
9.112,0.00719
9.116,0.00494
9.12,0.0298
9.124,0.00798
9.128,0.01646
9.132,0.0071
9.136,0.02729
9.14,-0.00268
9.144,0.01172
9.148,0.01811
9.152,0.04313
9.156,0.03721
9.16,0.01408
9.164,-0.02569
9.168,0.0129
9.172,0.00199
9.176,-0.00371
9.18,0.01736
9.184,-0.01624
9.188,0.00164
9.192,0.03066
9.196,-0.00733
9.2,0.00961
9.204,0.01721
9.208,-0.00503
9.212,0.02714
9.216,-0.00656
9.22,0.01214
9.224,-0.00139
9.228,0.02938
9.232,0.01169
9.236,-0.00888
9.24,0.00208
9.244,0.01898
9.248,0.00564
9.252,-0.00863
9.256,0.03002
9.26,0.01078
9.264,0.00386
9.268,0.01414
9.272,0.00493
9.276,0.00445
9.28,-0.0227
9.284,-0.00348
9.288,-0.01766
9.292,0.00906
9.296,-0.00274
9.3,0.0016
9.304,0.00567
9.308,0.03893
9.312,0.01504
9.316,0.01615
9.32,0.02546
9.324,0.05593
9.328,0.06565
9.332,0.05604
9.336,0.10976
9.34,0.07161
9.344,0.09441
9.348,0.09266
9.352,0.10169
9.356,0.11835
9.36,0.07085
9.364,0.07628
9.368,0.08875
9.372,0.07282
9.376,0.04833
9.38,0.04911
9.384,0.02294
9.388,0.01816
9.392,0.00959
9.396,0.02865
9.4,-0.00966
9.404,-0.00861
9.408,0.01478
9.412,0.03111
9.416,-0.00058
9.42,-0.01787
9.424,-0.00901
9.428,0.00383
9.432,-0.00413
9.436,-0.00809
9.44,-0.00082
9.444,-0.00061
9.448,-0.02483
9.452,0.01038
9.456,-0.02111
9.46,-0.00328
9.464,0.01968
9.468,0.00313
9.472,-0.02133
9.476,-0.0985
9.48,-0.10955
9.484,-0.11994
9.488,-0.08501
9.492,0.05407
9.496,0.21847
9.5,0.41699
9.504,0.62385
9.508,0.83468
9.512,0.95878
9.516,0.97776
9.52,0.92648
9.524,0.73869
9.528,0.54398
9.532,0.29752
9.536,0.10176
9.54,-0.04868
9.544,-0.1206
9.548,-0.14317
9.552,-0.18054
9.556,-0.14432
9.56,-0.05131
9.564,-0.01066
9.568,-0.01864
9.572,-0.01178
9.576,-0.02441
9.58,-0.00924
9.584,0.01033
9.588,0.00177
9.592,0.00738
9.596,-0.00794
9.6,0.00072
9.604,-0.01772
9.608,-0.01852
9.612,-0.00841
9.616,-0.00613
9.62,0.00051
9.624,0.00771
9.628,-0.01897
9.632,-0.0114
9.636,-0.02663
9.64,-0.04146
9.644,-0.04303
9.648,0.01589
9.652,0.00781
9.656,0.02922
9.66,-0.03594
9.664,0.04726
9.668,0.00365
9.672,0.01628
9.676,0.01601
9.68,0.00869
9.684,-0.00011
9.688,-0.00476
9.692,-0.00392
9.696,0.00329
9.7,0.01852
9.704,0.04376
9.708,0.02066
9.712,0.03505
9.716,0.03528
9.72,0.05233
9.724,0.02791
9.728,0.09593
9.732,0.11526
9.736,0.06102
9.74,0.07816
9.744,0.11904
9.748,0.13134
9.752,0.12174
9.756,0.14564
9.76,0.16483
9.764,0.1478
9.768,0.15571
9.772,0.18134
9.776,0.21755
9.78,0.20361
9.784,0.22135
9.788,0.22468
9.792,0.18815
9.796,0.21141
9.8,0.20012
9.804,0.22675
9.808,0.20272
9.812,0.19965
9.816,0.19121
9.82,0.17258
9.824,0.169
9.828,0.15146
9.832,0.14801
9.836,0.12497
9.84,0.1044
9.844,0.1229
9.848,0.11067
9.852,0.1083
9.856,0.06953
9.86,0.05393
9.864,0.04688
9.868,0.05636
9.872,0.03491
9.876,0.03933
9.88,0.01768
9.884,0.03076
9.888,0.03205
9.892,0.02225
9.896,0.03355
9.9,0.00668
9.904,0.01539
9.908,0.01722
9.912,-0.00756
9.916,-0.0172
9.92,0.02587
9.924,0.00907
9.928,-0.00318
9.932,-0.00738
9.936,-0.01229
9.94,-0.01801
9.944,-0.00581
9.948,-0.04352
9.952,-0.01074
9.956,-0.01504
9.96,-0.0343
9.964,0.0013
9.968,0.00059
9.972,-0.01778
9.976,-0.00406
9.98,0.00324
9.984,-0.00043
9.988,-0.03724
9.992,0.00548
9.996,-0.01749
