t_seg,ecg_mV
0.0,0.05132
0.004,-0.02395
0.008,-0.02501
0.012,0.03798
0.016,0.02542
0.02,-0.0102
0.024,-0.0287
0.028,-0.00796
0.032,0.01955
0.036,0.04074
0.04,0.05458
0.044,0.04501
0.048,-0.01513
0.052,0.08084
0.056,0.04393
0.06,0.01607
0.064,0.01451
0.068,0.05208
0.072,0.00576
0.076,0.00923
0.08,0.02402
0.084,0.07027
0.088,-0.02898
0.092,0.05507
0.096,-0.05143
0.1,-0.01098
0.104,0.02618
0.108,0.05453
0.112,-0.02434
0.116,0.05427
0.12,0.06211
0.124,0.00516
0.128,0.01067
0.132,0.01443
0.136,-0.04506
0.14,0.10635
0.144,0.03938
0.148,-0.02391
0.152,0.04181
0.156,0.03832
0.16,0.0162
0.164,0.02739
0.168,0.0555
0.172,0.00591
0.176,-0.01037
0.18,0.08369
0.184,0.03705
0.188,0.00913
0.192,0.07997
0.196,-0.05426
0.2,-0.01505
0.204,0.04581
0.208,0.03098
0.212,0.0339
0.216,0.00457
0.22,0.00101
0.224,0.00438
0.228,0.01076
0.232,0.047
0.236,0.05894
0.24,0.04389
0.244,0.07255
0.248,-0.03535
0.252,0.01891
0.256,-0.01268
0.26,0.0856
0.264,0.016
0.268,0.04629
0.272,0.03317
0.276,0.00084
0.28,-0.00235
0.284,0.05003
0.288,0.06296
0.292,0.0264
0.296,0.11245
0.3,0.06263
0.304,0.10103
0.308,0.09545
0.312,0.12917
0.316,0.05377
0.32,0.16762
0.324,0.15149
0.328,0.15327
0.332,0.16827
0.336,0.14125
0.34,0.06023
0.344,0.08067
0.348,0.04814
0.352,0.05698
0.356,0.08442
0.36,0.10562
0.364,-0.0051
0.368,-0.00223
0.372,0.03388
0.376,0.04784
0.38,0.03593
0.384,0.00583
0.388,0.03876
0.392,0.03605
0.396,-0.00247
0.4,0.06743
0.404,-0.02805
0.408,0.02436
0.412,0.02302
0.416,0.03772
0.42,0.05825
0.424,0.00711
0.428,0.02058
0.432,0.04432
0.436,0.07949
0.44,-0.00677
0.444,0.02259
0.448,-0.02503
0.452,-0.10095
0.456,-0.07311
0.46,-0.09924
0.464,0.02446
0.468,0.17938
0.472,0.44133
0.476,0.54897
0.48,0.81317
0.484,0.95964
0.488,1.0197
0.492,0.97401
0.496,0.89608
0.5,0.6176
0.504,0.43515
0.508,0.18556
0.512,0.0459
0.516,-0.05981
0.52,-0.19004
0.524,-0.16548
0.528,-0.10041
0.532,-0.05002
0.536,-0.06487
0.54,0.02252
0.544,0.05318
0.548,0.02335
0.552,0.03292
0.556,-0.01402
0.56,0.06652
0.564,0.09258
0.568,0.12512
0.572,0.0348
0.576,0.09396
0.58,0.01002
0.584,0.04326
0.588,0.03276
0.592,-0.02407
0.596,0.0069
0.6,0.02882
0.604,0.02874
0.608,0.01343
0.612,0.02786
0.616,0.05938
0.62,0.06792
0.624,-0.04884
0.628,0.0119
0.632,0.03147
0.636,-0.05153
0.64,0.04725
0.644,0.07853
0.648,-0.01301
0.652,-0.04436
0.656,0.0187
0.66,0.08694
0.664,0.1392
0.668,0.06117
0.672,0.0518
0.676,0.02538
0.68,0.08588
0.684,0.04063
0.688,0.07824
0.692,0.11941
0.696,0.09375
0.7,0.06348
0.704,0.12115
0.708,0.15931
0.712,0.17251
0.716,0.08389
0.72,0.16891
0.724,0.18179
0.728,0.16745
0.732,0.14982
0.736,0.17412
0.74,0.18174
0.744,0.29438
0.748,0.2394
0.752,0.22861
0.756,0.25786
0.76,0.29774
0.764,0.25006
0.768,0.28354
0.772,0.27684
0.776,0.23512
0.78,0.30211
0.784,0.25214
0.788,0.27538
0.792,0.2758
0.796,0.2026
0.8,0.17963
0.804,0.17518
0.808,0.26257
0.812,0.1756
0.816,0.15003
0.82,0.20672
0.824,0.11789
0.828,0.20006
0.832,0.10344
0.836,0.13412
0.84,0.12282
0.844,0.13202
0.848,0.15536
0.852,0.15346
0.856,0.09066
0.86,0.10257
0.864,0.14125
0.868,0.17443
0.872,0.13617
0.876,0.12517
0.88,0.07527
0.884,0.14955
0.888,0.12714
0.892,0.07153
0.896,0.08208
0.9,0.13177
0.904,0.0484
0.908,0.03418
0.912,0.07551
0.916,-0.01889
0.92,0.02782
0.924,0.02957
0.928,0.00811
0.932,0.01945
0.936,0.02097
0.94,0.03664
0.944,0.02387
0.948,0.055
0.952,0.05888
0.956,0.03027
0.96,0.02109
0.964,-0.0474
0.968,0.06473
0.972,0.0384
0.976,0.03733
0.98,0.06528
0.984,0.0034
0.988,-0.01097
0.992,0.01172
0.996,-0.16922
1.0,-0.0531
1.004,-0.07475
1.008,-0.07117
1.012,0.06812
1.016,0.3076
1.02,0.45153
1.024,0.72107
1.028,0.89463
1.032,1.00263
1.036,1.01565
1.04,0.9193
1.044,0.72901
1.048,0.52707
1.052,0.32152
1.056,0.0259
1.06,0.00673
1.064,-0.04195
1.068,-0.19426
1.072,-0.07352
1.076,-0.06876
1.08,-0.00484
1.084,-0.00226
1.088,-0.02095
1.092,0.04825
1.096,0.03434
1.1,0.04654
1.104,-0.00422
1.108,0.0248
1.112,0.06537
1.116,-0.02359
1.12,0.04345
1.124,-0.02697
1.128,0.06314
1.132,0.11021
1.136,-0.01701
1.14,0.02708
1.144,0.05215
1.148,-0.00246
1.152,0.06519
1.156,0.04241
1.16,0.02302
1.164,0.07012
1.168,0.03936
1.172,0.12451
1.176,0.07451
1.18,0.04546
1.184,0.04642
1.188,-0.00332
1.192,0.01169
1.196,0.00357
1.2,0.0521
1.204,0.05062
1.208,-0.00328
1.212,0.04961
1.216,0.03943
1.22,0.02313
1.224,0.0701
1.228,0.04582
1.232,0.03675
1.236,0.04894
1.24,0.08377
1.244,0.03554
1.248,0.0704
1.252,0.11206
1.256,0.14082
1.26,0.12899
1.264,0.12797
1.268,0.09368
1.272,0.19426
1.276,0.14176
1.28,0.14467
1.284,0.22411
1.288,0.17543
1.292,0.17572
1.296,0.22751
1.3,0.24915
1.304,0.24421
1.308,0.17417
1.312,0.24547
1.316,0.22214
1.32,0.21807
1.324,0.25015
1.328,0.25004
1.332,0.16902
1.336,0.24729
1.34,0.19744
1.344,0.18981
1.348,0.15646
1.352,0.17888
1.356,0.18974
1.36,0.13222
1.364,0.08864
1.368,0.2093
1.372,0.15527
1.376,0.13001
1.38,0.1481
1.384,0.06362
1.388,0.06507
1.392,0.04094
1.396,0.07116
1.4,0.17481
1.404,0.12478
1.408,0.04538
1.412,0.12221
1.416,0.11128
1.42,0.13535
1.424,0.07097
1.428,0.10523
1.432,0.07746
1.436,0.12289
1.44,0.15725
1.444,0.12223
1.448,0.1262
1.452,0.15446
1.456,0.09997
1.46,0.06488
1.464,0.11475
1.468,0.01317
1.472,0.11252
1.476,0.02044
1.48,0.02849
1.484,-0.00808
1.488,0.08094
1.492,0.07823
1.496,0.0377
1.5,0.04324
1.504,0.07614
1.508,0.03104
1.512,-0.02207
1.516,-0.00923
1.52,0.00324
1.524,-0.0704
1.528,0.00834
1.532,0.00497
1.536,0.03585
1.54,0.01718
1.544,0.06722
1.548,-0.00187
1.552,0.02387
1.556,0.04245
1.56,-0.00679
1.564,-0.02418
1.568,-0.13094
1.572,-0.09954
1.576,-0.11162
1.58,-0.01086
1.584,0.0495
1.588,0.19114
1.592,0.37919
1.596,0.41319
1.6,0.57075
1.604,0.58238
1.608,0.59889
1.612,0.5334
1.616,0.38303
1.62,0.28868
1.624,0.08506
1.628,-0.0296
1.632,-0.10677
1.636,-0.15646
1.64,-0.13547
1.644,-0.13827
1.648,-0.02611
1.652,-0.01148
1.656,0.01791
1.66,0.0279
1.664,0.01621
1.668,0.02688
1.672,0.04114
1.676,0.06439
1.68,0.04759
1.684,0.01189
1.688,0.03948
1.692,-0.01075
1.696,0.03313
1.7,0.01584
1.704,0.0214
1.708,0.01991
1.712,-0.00992
1.716,0.00638
1.72,0.01476
1.724,0.02863
1.728,0.03568
1.732,0.01545
1.736,0.00106
1.74,0.06299
1.744,-0.01742
1.748,0.10135
1.752,0.07063
1.756,0.03771
1.76,0.01546
1.764,0.0231
1.768,0.00888
1.772,0.07149
1.776,0.0589
1.78,0.0222
1.784,0.03898
1.788,0.04288
1.792,0.03371
1.796,0.06438
1.8,0.04913
1.804,0.0964
1.808,0.08238
1.812,0.04841
1.816,0.09858
1.82,0.14821
1.824,0.1167
1.828,0.10822
1.832,0.09316
1.836,0.124
1.84,0.1711
1.844,0.17307
1.848,0.12189
1.852,0.20351
1.856,0.15313
1.86,0.21089
1.864,0.21648
1.868,0.23232
1.872,0.23498
1.876,0.2206
1.88,0.23132
1.884,0.27422
1.888,0.26821
1.892,0.31719
1.896,0.28437
1.9,0.32448
1.904,0.30413
1.908,0.2877
1.912,0.35185
1.916,0.25627
1.92,0.25889
1.924,0.29127
1.928,0.28316
1.932,0.23168
1.936,0.19168
1.94,0.17126
1.944,0.19146
1.948,0.07125
1.952,0.04931
1.956,0.07193
1.96,0.04115
1.964,0.05059
1.968,0.04835
1.972,0.02795
1.976,0.04298
1.98,0.03126
1.984,0.01477
1.988,0.0201
1.992,0.01801
1.996,0.0001
2.0,0.06242
2.004,0.03474
2.008,-0.01676
2.012,0.06959
2.016,0.03442
2.02,-0.00595
2.024,0.00999
2.028,-0.03758
2.032,-0.03245
2.036,-0.06122
2.04,-0.05192
2.044,-0.02898
2.048,-0.06938
2.052,-0.01269
2.056,0.11123
2.06,0.3186
2.064,0.5226
2.068,0.68153
2.072,0.86257
2.076,0.98252
2.08,1.01927
2.084,0.87698
2.088,0.60605
2.092,0.47466
2.096,0.29138
2.1,0.06422
2.104,-0.09741
2.108,-0.1283
2.112,-0.12683
2.116,-0.11678
2.12,-0.09082
2.124,-0.09467
2.128,0.02703
2.132,-0.02672
2.136,0.04025
2.14,-0.01978
2.144,-0.03032
2.148,0.09283
2.152,-0.04418
2.156,0.02605
2.16,-0.00557
2.164,0.06053
2.168,0.00784
2.172,0.01496
2.176,0.08039
2.18,-0.00032
2.184,0.00847
2.188,0.02906
2.192,-0.02471
2.196,0.025
2.2,-0.01122
2.204,0.04816
2.208,0.01527
2.212,-0.04676
2.216,-0.01387
2.22,-0.02661
2.224,0.05105
2.228,-0.0193
2.232,0.04583
2.236,-0.01059
2.24,0.01646
2.244,0.01851
2.248,0.08197
2.252,-0.00949
2.256,0.01741
2.26,-0.00825
2.264,0.15376
2.268,0.03575
2.272,0.06264
2.276,0.03145
2.28,0.07855
2.284,0.08301
2.288,0.05703
2.292,0.10282
2.296,0.08071
2.3,0.066
2.304,0.16214
2.308,0.15256
2.312,0.13748
2.316,0.09085
2.32,0.22331
2.324,0.15669
2.328,0.157
2.332,0.18409
2.336,0.21323
2.34,0.18204
2.344,0.16281
2.348,0.22397
2.352,0.23736
2.356,0.19751
2.36,0.22278
2.364,0.25402
2.368,0.22511
2.372,0.19111
2.376,0.22306
2.38,0.16489
2.384,0.19036
2.388,0.18292
2.392,0.17369
2.396,0.17848
2.4,0.1201
2.404,0.14489
2.408,0.05994
2.412,0.11058
2.416,0.0102
2.42,0.06916
2.424,0.09913
2.428,-0.00945
2.432,0.04496
2.436,0.0711
2.44,0.03418
2.444,0.0113
2.448,0.05411
2.452,0.01951
2.456,0.02003
2.46,-0.00271
2.464,0.03297
2.468,0.02956
2.472,-0.00122
2.476,0.03037
2.48,0.0038
2.484,0.03492
2.488,-0.07223
2.492,-0.04822
2.496,-0.01669
2.5,0.03808
2.504,0.04314
2.508,0.00044
2.512,-0.00664
2.516,0.05458
2.52,0.00864
2.524,-0.02567
2.528,0.01357
2.532,0.06404
2.536,0.06298
2.54,0.12305
2.544,0.07069
2.548,0.14185
2.552,0.06387
2.556,0.10649
2.56,0.09199
2.564,0.12998
2.568,0.02256
2.572,0.10269
2.576,0.06169
2.58,0.07306
2.584,0.12082
2.588,-0.02022
2.592,0.07032
2.596,0.01093
2.6,-0.02097
2.604,0.015
2.608,-0.03244
2.612,-0.02591
2.616,0.04363
2.62,0.02026
2.624,0.00683
2.628,0.03803
2.632,-0.06146
2.636,-0.00711
2.64,-0.03993
2.644,0.01354
2.648,0.01259
2.652,-0.04649
2.656,0.03625
2.66,0.07142
2.664,-0.02776
2.668,0.01401
2.672,-0.00859
2.676,-0.0818
2.68,-0.07869
2.684,-0.12575
2.688,-0.14788
2.692,-0.02667
2.696,0.11905
2.7,0.18968
2.704,0.40316
2.708,0.67054
2.712,0.80553
2.716,1.02691
2.72,0.96437
2.724,0.92745
2.728,0.6742
2.732,0.46023
2.736,0.24911
2.74,0.10553
2.744,-0.05512
2.748,-0.20893
2.752,-0.17837
2.756,-0.14963
2.76,-0.09423
2.764,0.02669
2.768,0.00034
2.772,-0.03719
2.776,-0.02165
2.78,-0.00099
2.784,-0.03264
2.788,-0.00405
2.792,-0.01385
2.796,0.0461
2.8,0.00281
2.804,0.12811
2.808,0.04886
2.812,0.00785
2.816,0.07327
2.82,0.07217
2.824,0.05115
2.828,0.12281
2.832,0.07606
2.836,0.09692
2.84,0.08092
2.844,0.0696
2.848,0.02495
2.852,0.00948
2.856,-0.05836
2.86,0.04682
2.864,0.04558
2.868,0.00091
2.872,0.01478
2.876,-0.02256
2.88,0.01481
2.884,-0.01464
2.888,-0.03629
2.892,-0.02061
2.896,0.00129
2.9,0.00637
2.904,0.09994
2.908,-0.05575
2.912,0.04817
2.916,0.04659
2.92,-0.02298
2.924,0.0449
2.928,0.13907
2.932,0.0329
2.936,0.04222
2.94,0.03795
2.944,0.08274
2.948,0.04526
2.952,0.05272
2.956,0.06243
2.96,0.02667
2.964,0.16277
2.968,0.31057
2.972,0.56316
2.976,0.7104
2.98,0.98389
2.984,1.17403
2.988,1.23087
2.992,1.12336
2.996,0.9757
3.0,0.78572
3.004,0.53117
3.008,0.32668
3.012,0.14064
3.016,-0.01397
3.02,0.03209
3.024,0.06352
3.028,0.02862
3.032,0.03749
3.036,0.129
3.04,0.11123
3.044,0.08415
3.048,0.0773
3.052,0.01385
3.056,0.10245
3.06,0.09948
3.064,0.05308
3.068,0.05097
3.072,-0.00486
3.076,0.02433
3.08,0.03022
3.084,-0.0089
3.088,0.00485
3.092,0.00701
3.096,-0.05238
3.1,-0.03315
3.104,0.05149
3.108,0.01454
3.112,-0.05259
3.116,0.04281
3.12,-0.01841
3.124,-0.01205
3.128,0.01588
3.132,0.06319
3.136,0.05337
3.14,-0.05195
3.144,0.0292
3.148,0.06526
3.152,0.02474
3.156,-0.04169
3.16,0.00182
3.164,0.0052
3.168,-0.0065
3.172,-0.02845
3.176,0.01804
3.18,0.00817
3.184,0.04275
3.188,0.06811
3.192,0.02638
3.196,0.05033
3.2,0.03275
3.204,0.1098
3.208,0.12928
3.212,0.09011
3.216,0.11034
3.22,0.02416
3.224,0.0848
3.228,0.13674
3.232,0.13656
3.236,0.16355
3.24,0.14626
3.244,0.2294
3.248,0.18219
3.252,0.15254
3.256,0.23665
3.26,0.20894
3.264,0.21668
3.268,0.20096
3.272,0.2258
3.276,0.24857
3.28,0.18033
3.284,0.26433
3.288,0.21464
3.292,0.18076
3.296,0.10892
3.3,0.13679
3.304,0.12898
3.308,0.13102
3.312,0.11003
3.316,0.10624
3.32,0.07549
3.324,0.13294
3.328,0.0435
3.332,0.04948
3.336,0.02498
3.34,0.01392
3.344,0.06974
3.348,0.0258
3.352,0.08887
3.356,0.01573
3.36,0.01998
3.364,0.03382
3.368,-0.07442
3.372,0.02435
3.376,-0.03446
3.38,-0.03475
3.384,-0.00478
3.388,-0.0469
3.392,-0.01692
3.396,-0.0163
3.4,-0.00241
3.404,0.00667
3.408,0.03167
3.412,0.01321
3.416,-0.06795
3.42,-0.07079
3.424,-0.03679
3.428,-0.00815
3.432,-0.02008
3.436,-0.05738
3.44,0.00815
3.444,-0.02074
3.448,-0.04969
3.452,0.01263
3.456,-0.02673
3.46,0.03807
3.464,-0.03959
3.468,0.00701
3.472,0.05672
3.476,0.08636
3.48,0.04997
3.484,0.11077
3.488,0.08168
3.492,0.11337
3.496,0.08568
3.5,0.02831
3.504,0.06154
3.508,0.01489
3.512,-0.00447
3.516,-0.051
3.52,0.04362
3.524,0.00756
3.528,-0.00102
3.532,0.04887
3.536,-0.00489
3.54,0.00944
3.544,-0.04358
3.548,0.00338
3.552,-0.01595
3.556,0.0199
3.56,-0.03371
3.564,-0.0942
3.568,0.00488
3.572,-0.0294
3.576,-0.00566
3.58,-0.02883
3.584,0.00871
3.588,-0.017
3.592,0.00299
3.596,-0.01077
3.6,0.03167
3.604,0.07288
3.608,-0.00573
3.612,-0.01359
3.616,-0.18455
3.62,-0.09323
3.624,-0.16321
3.628,-0.07922
3.632,0.05237
3.636,0.24017
3.64,0.38227
3.644,0.60584
3.648,0.85549
3.652,0.95785
3.656,1.01047
3.66,0.89723
3.664,0.69828
3.668,0.44693
3.672,0.27913
3.676,0.06354
3.68,-0.07616
3.684,-0.25794
3.688,-0.2333
3.692,-0.13611
3.696,-0.15972
3.7,-0.08034
3.704,-0.04846
3.708,-0.03162
3.712,-0.01053
3.716,-0.05084
3.72,-0.07151
3.724,-0.06765
3.728,-0.02342
3.732,-0.00686
3.736,-0.03507
3.74,-0.09667
3.744,-0.07172
3.748,-0.02515
3.752,-0.10693
3.756,-0.03071
3.76,-0.00834
3.764,-0.02254
3.768,-0.0529
3.772,0.02841
3.776,-0.00473
3.78,-0.028
3.784,-0.1004
3.788,0.0067
3.792,0.049
3.796,0.02126
3.8,-0.04417
3.804,-0.01468
3.808,-0.07863
3.812,-0.04962
3.816,0.01383
3.82,-0.03872
3.824,-0.01276
3.828,0.01107
3.832,-0.02311
3.836,-0.0605
3.84,-0.0183
3.844,-0.00045
3.848,0.03012
3.852,-0.00471
3.856,0.0153
3.86,0.05671
3.864,0.11215
3.868,0.02714
3.872,-0.01962
3.876,0.08597
3.88,0.04293
3.884,0.06619
3.888,0.15515
3.892,0.14506
3.896,0.17799
3.9,0.21351
3.904,0.17497
3.908,0.16495
3.912,0.14848
3.916,0.26572
3.92,0.22196
3.924,0.24793
3.928,0.26826
3.932,0.28863
3.936,0.27421
3.94,0.25397
3.944,0.23781
3.948,0.24131
3.952,0.28026
3.956,0.29399
3.96,0.26858
3.964,0.24009
3.968,0.22672
3.972,0.17901
3.976,0.09854
3.98,0.18125
3.984,0.18157
3.988,0.21593
3.992,0.07
3.996,0.00294
4.0,0.08406
4.004,0.02809
4.008,0.08848
4.012,-0.03327
4.016,-0.03735
4.02,-0.05701
4.024,-0.01039
4.028,0.01069
4.032,-0.00266
4.036,0.05831
4.04,-0.05515
4.044,0.00392
4.048,0.02969
4.052,-0.0516
4.056,-0.03271
4.06,-0.09416
4.064,0.00585
4.068,-0.13259
4.072,-0.10233
4.076,-0.153
4.08,-0.17922
4.084,-0.04854
4.088,0.04918
4.092,0.28714
4.096,0.4613
4.1,0.67404
4.104,0.89413
4.108,0.94309
4.112,0.91636
4.116,0.84011
4.12,0.59503
4.124,0.44393
4.128,0.14586
4.132,-0.00228
4.136,-0.161
4.14,-0.20694
4.144,-0.20038
4.148,-0.1926
4.152,-0.14332
4.156,-0.02446
4.16,-0.1028
4.164,-0.06352
4.168,-0.06835
4.172,-0.02319
4.176,-0.03438
4.18,-0.01861
4.184,-0.05028
4.188,-0.04706
4.192,-0.03043
4.196,-0.03286
4.2,-0.00707
4.204,-0.09378
4.208,-0.07618
4.212,-0.07096
4.216,-0.00239
4.22,-0.00666
4.224,-0.01487
4.228,0.01137
4.232,-0.04276
4.236,-0.04863
4.24,-0.02613
4.244,-0.03822
4.248,-0.01157
4.252,-0.04125
4.256,0.01528
4.26,-0.07727
4.264,-0.00166
4.268,-0.00761
4.272,-0.05201
4.276,-0.00978
4.28,-0.03241
4.284,-0.04178
4.288,0.01951
4.292,-0.04296
4.296,0.03606
4.3,-0.03157
4.304,0.02132
4.308,0.1119
4.312,0.0883
4.316,0.04818
4.32,0.0724
4.324,-0.00317
4.328,0.05293
4.332,0.09558
4.336,0.11445
4.34,0.12064
4.344,0.08975
4.348,0.10352
4.352,0.15594
4.356,0.1716
4.36,0.17371
4.364,0.08524
4.368,0.15174
4.372,0.16736
4.376,0.19064
4.38,0.17839
4.384,0.20393
4.388,0.16782
4.392,0.28014
4.396,0.22846
4.4,0.23722
4.404,0.2248
4.408,0.15701
4.412,0.27138
4.416,0.19047
4.42,0.29683
4.424,0.25533
4.428,0.21225
4.432,0.20123
4.436,0.14239
4.44,0.09278
4.444,0.16256
4.448,0.05216
4.452,0.04742
4.456,0.0817
4.46,0.01022
4.464,0.00093
4.468,0.03213
4.472,-0.05889
4.476,0.04456
4.48,0.00649
4.484,-0.01552
4.488,-0.00818
4.492,-0.04192
4.496,0.02243
4.5,-0.08165
4.504,0.0302
4.508,-0.02179
4.512,-0.04829
4.516,-0.04405
4.52,-0.01288
4.524,0.01966
4.528,-0.06132
4.532,-0.01813
4.536,-0.01704
4.54,-0.12711
4.544,-0.16145
4.548,-0.1398
4.552,-0.07732
4.556,0.04932
4.56,0.15558
4.564,0.31244
4.568,0.57479
4.572,0.81634
4.576,0.87471
4.58,0.98968
4.584,0.899
4.588,0.7769
4.592,0.49783
4.596,0.30592
4.6,0.0494
4.604,-0.1657
4.608,-0.14354
4.612,-0.15187
4.616,-0.1977
4.62,-0.15312
4.624,-0.12318
4.628,-0.03313
4.632,-0.07203
4.636,-0.05551
4.64,-0.03694
4.644,-0.01724
4.648,-0.0487
4.652,-0.0627
4.656,0.0014
4.66,-0.01195
4.664,0.01356
4.668,-0.04308
4.672,-0.06659
4.676,-0.02339
4.68,0.04135
4.684,-0.00685
4.688,-0.06296
4.692,-0.04465
4.696,0.04232
4.7,-0.03797
4.704,-0.12608
4.708,-0.00367
4.712,-0.07364
4.716,0.00809
4.72,-0.03548
4.724,0.02976
4.728,-0.02346
4.732,-0.01965
4.736,0.11879
4.74,0.03508
4.744,0.04971
4.748,0.02602
4.752,0.05917
4.756,0.14815
4.76,0.13453
4.764,0.08636
4.768,0.0947
4.772,0.05248
4.776,0.09323
4.78,0.03124
4.784,-0.01529
4.788,0.11909
4.792,0.01625
4.796,0.07593
4.8,0.09813
4.804,0.05768
4.808,0.08972
4.812,0.1034
4.816,0.10321
4.82,0.12314
4.824,0.14684
4.828,0.14799
4.832,0.07944
4.836,0.18074
4.84,0.12323
4.844,0.15679
4.848,0.22151
4.852,0.22495
4.856,0.20689
4.86,0.19945
4.864,0.24045
4.868,0.18491
4.872,0.12288
4.876,0.09229
4.88,0.08722
4.884,0.07705
4.888,0.08134
4.892,0.0758
4.896,0.1869
4.9,0.39573
4.904,0.53435
4.908,0.79257
4.912,1.00386
4.916,1.03981
4.92,0.98959
4.924,0.92268
4.928,0.80071
4.932,0.52745
4.936,0.27421
4.94,0.04893
4.944,-0.03388
4.948,-0.18827
4.952,-0.10924
4.956,-0.1357
4.96,-0.115
4.964,0.02005
4.968,-0.07347
4.972,0.01247
4.976,-0.01737
4.98,0.01189
4.984,0.04595
4.988,0.04439
4.992,-0.02996
4.996,0.09821
5.0,0.11778
5.004,0.02017
5.008,0.05101
5.012,0.1183
5.016,0.06179
5.02,0.05253
5.024,0.0675
5.028,0.05745
5.032,0.02562
5.036,0.03743
5.04,0.0101
5.044,0.00155
5.048,-0.01578
5.052,0.10284
5.056,0.06413
5.06,-0.07234
5.064,-0.02275
5.068,0.01625
5.072,0.01847
5.076,-0.0358
5.08,-0.0407
5.084,0.01043
5.088,-0.0023
5.092,-0.02782
5.096,0.04699
5.1,0.03366
5.104,0.04408
5.108,0.00104
5.112,0.03605
5.116,0.03172
5.12,0.01587
5.124,0.05544
5.128,0.01762
5.132,-0.03046
5.136,-0.03372
5.14,-0.03536
5.144,0.00091
5.148,0.14387
5.152,0.21084
5.156,0.49373
5.16,0.64711
5.164,0.88764
5.168,0.99389
5.172,1.12731
5.176,1.21553
5.18,0.9131
5.184,0.79349
5.188,0.55756
5.192,0.37551
5.196,0.25579
5.2,0.11292
5.204,0.05952
5.208,0.00113
5.212,0.04712
5.216,0.07174
5.22,0.1317
5.224,0.13171
5.228,0.1167
5.232,0.12933
5.236,0.14876
5.24,0.14674
5.244,0.14752
5.248,0.14271
5.252,0.11258
5.256,0.10894
5.26,0.11713
5.264,0.11413
5.268,0.07974
5.272,0.0656
5.276,-0.02347
5.28,0.00019
5.284,0.01321
5.288,0.08464
5.292,-0.0289
5.296,0.03541
5.3,0.09933
5.304,-0.03067
5.308,0.01872
5.312,0.04013
5.316,-0.00421
5.32,-0.01318
5.324,-0.01561
5.328,0.01551
5.332,-0.05488
5.336,0.03091
5.34,-0.02419
5.344,-0.03103
5.348,0.02358
5.352,0.08155
5.356,-0.0249
5.36,0.04497
5.364,0.00913
5.368,0.02268
5.372,0.03049
5.376,0.02766
5.38,-0.04729
5.384,0.10284
5.388,0.1035
5.392,0.20161
5.396,0.10897
5.4,0.05517
5.404,0.08561
5.408,0.08955
5.412,0.17811
5.416,0.17531
5.42,0.25441
5.424,0.27021
5.428,0.24093
5.432,0.3014
5.436,0.24621
5.44,0.29613
5.444,0.27957
5.448,0.33253
5.452,0.31067
5.456,0.34277
5.46,0.28621
5.464,0.19761
5.468,0.2376
5.472,0.24722
5.476,0.20873
5.48,0.16073
5.484,0.19134
5.488,0.15571
5.492,0.16144
5.496,0.17259
5.5,0.10762
5.504,0.12381
5.508,0.07514
5.512,0.04572
5.516,0.15062
5.52,0.06636
5.524,0.11336
5.528,-0.0267
5.532,-0.02357
5.536,0.01195
5.54,0.12815
5.544,-0.02506
5.548,0.00844
5.552,-0.02159
5.556,-0.05013
5.56,0.01103
5.564,-0.09594
5.568,-0.03747
5.572,-0.09193
5.576,0.05868
5.58,0.12685
5.584,0.41294
5.588,0.47872
5.592,0.70292
5.596,0.90198
5.6,1.07038
5.604,0.97851
5.608,0.89973
5.612,0.57975
5.616,0.44815
5.62,0.13424
5.624,-0.08643
5.628,-0.12516
5.632,-0.17572
5.636,-0.1242
5.64,-0.14848
5.644,-0.07936
5.648,-0.10419
5.652,-0.07638
5.656,-0.00869
5.66,0.00992
5.664,0.03402
5.668,0.02456
5.672,0.02992
5.676,0.05058
5.68,-0.04259
5.684,-0.02516
5.688,0.02779
5.692,0.024
5.696,-0.01629
5.7,-0.00438
5.704,0.03901
5.708,0.008
5.712,0.04384
5.716,-0.01367
5.72,-0.03348
5.724,-0.01568
5.728,-0.02772
5.732,0.00293
5.736,-0.02349
5.74,0.03198
5.744,-0.01789
5.748,-0.05214
5.752,0.01662
5.756,-0.00309
5.76,-0.0769
5.764,-0.03805
5.768,-0.00998
5.772,0.02272
5.776,0.07025
5.78,0.02511
5.784,0.04608
5.788,0.10364
5.792,0.06246
5.796,0.01822
5.8,0.02689
5.804,0.01738
5.808,0.02562
5.812,0.03278
5.816,0.06863
5.82,0.02018
5.824,0.044
5.828,0.07921
5.832,0.12084
5.836,0.08978
5.84,0.11709
5.844,0.1324
5.848,0.14064
5.852,0.2552
5.856,0.21045
5.86,0.17609
5.864,0.21166
5.868,0.20274
5.872,0.22907
5.876,0.21977
5.88,0.17925
5.884,0.24208
5.888,0.21367
5.892,0.22682
5.896,0.20839
5.9,0.20947
5.904,0.25954
5.908,0.13085
5.912,0.16272
5.916,0.13391
5.92,0.17237
5.924,0.11799
5.928,0.14248
5.932,0.12574
5.936,0.1273
5.94,0.08486
5.944,0.02029
5.948,-0.01726
5.952,0.0828
5.956,0.05868
5.96,0.03132
5.964,0.08686
5.968,0.0898
5.972,0.05962
5.976,0.05631
5.98,0.03698
5.984,-0.01797
5.988,-0.01029
5.992,0.03415
5.996,0.03676
6.0,-0.02652
6.004,0.04253
6.008,0.0732
6.012,0.06072
6.016,0.04071
6.02,0.02655
6.024,0.07061
6.028,0.0714
6.032,0.09923
6.036,0.1097
6.04,0.10094
6.044,0.15785
6.048,0.11927
6.052,0.13525
6.056,0.00444
6.06,0.10278
6.064,0.13267
6.068,0.04192
6.072,-0.00053
6.076,0.02138
6.08,0.05482
6.084,0.05634
6.088,0.07202
6.092,0.02408
6.096,0.03251
6.1,0.00163
6.104,0.02686
6.108,-0.01774
6.112,-0.03842
6.116,0.04689
6.12,-0.01867
6.124,0.04344
6.128,-0.02423
6.132,0.03963
6.136,0.06792
6.14,-0.02647
6.144,-0.03027
6.148,0.04015
6.152,0.01918
6.156,-0.06471
6.16,-0.00129
6.164,-0.05025
6.168,-0.06228
6.172,-0.10943
6.176,-0.08611
6.18,0.03551
6.184,0.19685
6.188,0.47941
6.192,0.67557
6.196,0.67447
6.2,0.93563
6.204,1.00093
6.208,0.8913
6.212,0.82885
6.216,0.57508
6.22,0.35262
6.224,0.13099
6.228,0.0129
6.232,-0.11648
6.236,-0.13065
6.24,-0.13004
6.244,-0.06447
6.248,-0.07746
6.252,-0.09786
6.256,0.01432
6.26,0.02439
6.264,0.01667
6.268,0.06062
6.272,0.04277
6.276,0.0428
6.28,0.02571
6.284,-0.03336
6.288,0.04891
6.292,-0.01371
6.296,0.04475
6.3,0.01296
6.304,0.03649
6.308,0.00075
6.312,-0.04105
6.316,-0.00021
6.32,-0.06118
6.324,0.05326
6.328,0.01537
6.332,0.00024
6.336,0.03016
6.34,0.06423
6.344,-0.01213
6.348,-0.00189
6.352,0.01842
6.356,0.01769
6.36,0.04029
6.364,0.0244
6.368,-0.00966
6.372,0.04992
6.376,0.0588
6.38,0.02888
6.384,0.06519
6.388,0.00333
6.392,0.01395
6.396,-0.0273
6.4,0.00594
6.404,0.07403
6.408,0.09355
6.412,0.10184
6.416,0.04603
6.42,0.09429
6.424,0.10778
6.428,0.14733
6.432,0.14995
6.436,0.08492
6.44,0.177
6.444,0.20502
6.448,0.17473
6.452,0.19885
6.456,0.23607
6.46,0.18654
6.464,0.22258
6.468,0.20387
6.472,0.29303
6.476,0.24814
6.48,0.21726
6.484,0.25515
6.488,0.2409
6.492,0.20313
6.496,0.20166
6.5,0.27699
6.504,0.19963
6.508,0.22901
6.512,0.15578
6.516,0.15188
6.52,0.1896
6.524,0.16562
6.528,0.1474
6.532,0.11493
6.536,0.14298
6.54,0.07621
6.544,0.21089
6.548,0.07487
6.552,0.06916
6.556,0.09075
6.56,0.19011
6.564,0.07734
6.568,0.10351
6.572,0.09363
6.576,0.1465
6.58,0.14453
6.584,0.14691
6.588,0.10116
6.592,0.13235
6.596,0.1227
6.6,0.08194
6.604,0.06805
6.608,0.04168
6.612,0.03253
6.616,0.04881
6.62,0.09688
6.624,0.00915
6.628,0.0624
6.632,0.01716
6.636,0.00112
6.64,0.03825
6.644,-0.01869
6.648,0.02716
6.652,-0.00257
6.656,0.02756
6.66,0.02199
6.664,-0.01959
6.668,-0.0128
6.672,0.01067
6.676,0.02344
6.68,0.04535
6.684,0.02689
6.688,0.05276
6.692,0.03039
6.696,-0.02254
6.7,-0.05194
6.704,-0.00624
6.708,-0.0619
6.712,-0.10512
6.716,-0.09549
6.72,0.03482
6.724,0.17922
6.728,0.36572
6.732,0.57405
6.736,0.79827
6.74,0.95216
6.744,0.97459
6.748,0.92425
6.752,0.91526
6.756,0.68735
6.76,0.40831
6.764,0.21317
6.768,0.05623
6.772,-0.0924
6.776,-0.19244
6.78,-0.15995
6.784,-0.04632
6.788,-0.01527
6.792,-0.04663
6.796,0.005
6.8,0.07316
6.804,0.0362
6.808,0.0372
6.812,-0.05525
6.816,-0.02755
6.82,0.03208
6.824,0.03477
6.828,0.05678
6.832,0.03872
6.836,0.05246
6.84,-0.01897
6.844,0.01142
6.848,0.0364
6.852,0.0034
6.856,0.05427
6.86,-0.00749
6.864,0.04362
6.868,0.02541
6.872,0.03966
6.876,0.03476
6.88,0.03583
6.884,-0.0155
6.888,0.01018
6.892,0.05322
6.896,0.0454
6.9,-0.02209
6.904,-0.00079
6.908,0.05601
6.912,0.01684
6.916,0.07534
6.92,0.05746
6.924,0.05912
6.928,0.02924
6.932,0.04445
6.936,0.06883
6.94,0.01938
6.944,0.01564
6.948,0.11551
6.952,0.04783
6.956,0.06832
6.96,0.12095
6.964,0.18468
6.968,0.16949
6.972,0.14827
6.976,0.17209
6.98,0.20756
6.984,0.1869
6.988,0.24159
6.992,0.1853
6.996,0.20314
7.0,0.20105
7.004,0.21107
7.008,0.24063
7.012,0.23124
7.016,0.20159
7.02,0.27431
7.024,0.20369
7.028,0.25185
7.032,0.26395
7.036,0.20701
7.04,0.22735
7.044,0.26762
7.048,0.30598
7.052,0.1545
7.056,0.14579
7.06,0.1655
7.064,0.16387
7.068,0.20377
7.072,0.11381
7.076,0.10607
7.08,0.08153
7.084,0.09389
7.088,0.1133
7.092,0.07856
7.096,0.06549
7.1,0.11557
7.104,0.09315
7.108,0.11136
7.112,0.01508
7.116,0.05121
7.12,0.08637
7.124,0.07237
7.128,0.05408
7.132,0.10412
7.136,0.02788
7.14,0.05926
7.144,-0.0197
7.148,0.04958
7.152,0.01796
7.156,0.01594
7.16,0.04901
7.164,-0.02888
7.168,0.00195
7.172,0.05547
7.176,0.05345
7.18,0.05601
7.184,0.11153
7.188,0.10669
7.192,0.10139
7.196,0.11222
7.2,0.11832
7.204,0.16997
7.208,0.18425
7.212,0.09383
7.216,0.0909
7.22,0.21764
7.224,0.11218
7.228,0.13136
7.232,0.08026
7.236,-0.00519
7.24,-0.02434
7.244,0.03592
7.248,0.04567
7.252,0.02441
7.256,0.05321
7.26,0.04559
7.264,0.01249
7.268,0.07626
7.272,0.08294
7.276,0.03262
7.28,-0.0184
7.284,-0.04308
7.288,0.06129
7.292,0.00461
7.296,0.01265
7.3,0.12063
7.304,0.04648
7.308,-0.00414
7.312,0.04195
7.316,0.00837
7.32,0.00453
7.324,0.03235
7.328,0.00358
7.332,-0.04343
7.336,-0.08801
7.34,-0.08815
7.344,-0.05919
7.348,0.14515
7.352,0.3077
7.356,0.49196
7.36,0.74533
7.364,0.97516
7.368,0.98826
7.372,1.02097
7.376,0.86719
7.38,0.6422
7.384,0.4225
7.388,0.22356
7.392,0.07989
7.396,-0.02655
7.4,-0.12189
7.404,-0.1641
7.408,-0.03819
7.412,-0.0178
7.416,0.04674
7.42,0.04591
7.424,0.01572
7.428,-0.07193
7.432,0.04428
7.436,0.06305
7.44,0.02174
7.444,0.06753
7.448,0.04706
7.452,-0.0167
7.456,0.00987
7.46,0.01161
7.464,-0.00506
7.468,0.06872
7.472,-0.00979
7.476,0.05267
7.48,0.0989
7.484,-0.00734
7.488,0.05542
7.492,0.0999
7.496,-0.01142
7.5,-0.02078
7.504,0.05946
7.508,0.02815
7.512,0.04553
7.516,0.05004
7.52,-0.01182
7.524,0.01374
7.528,0.06915
7.532,-0.01252
7.536,0.00073
7.54,0.01887
7.544,0.11437
7.548,0.01073
7.552,0.00635
7.556,0.07997
7.56,0.09718
7.564,0.07836
7.568,0.06762
7.572,0.07992
7.576,0.10646
7.58,0.12504
7.584,0.0673
7.588,0.10905
7.592,0.09223
7.596,0.12167
7.6,0.13827
7.604,0.13134
7.608,0.17532
7.612,0.17529
7.616,0.26061
7.62,0.19425
7.624,0.20028
7.628,0.20894
7.632,0.27854
7.636,0.23719
7.64,0.25875
7.644,0.2984
7.648,0.32945
7.652,0.29909
7.656,0.39035
7.66,0.37058
7.664,0.38309
7.668,0.39639
7.672,0.34793
7.676,0.34234
7.68,0.30081
7.684,0.27354
7.688,0.27932
7.692,0.22803
7.696,0.22088
7.7,0.16632
7.704,0.18224
7.708,0.10293
7.712,0.12435
7.716,0.09026
7.72,0.08083
7.724,0.03417
7.728,0.12015
7.732,0.01878
7.736,0.11515
7.74,0.05777
7.744,0.00529
7.748,0.04282
7.752,0.14361
7.756,-0.01229
7.76,0.02804
7.764,-0.01998
7.768,0.08866
7.772,0.078
7.776,0.03301
7.78,0.04472
7.784,0.00203
7.788,0.0203
7.792,0.02897
7.796,-0.1167
7.8,-0.08479
7.804,-0.04657
7.808,0.02766
7.812,0.19831
7.816,0.4113
7.82,0.56699
7.824,0.7612
7.828,0.95235
7.832,0.9795
7.836,1.00286
7.84,0.84642
7.844,0.66242
7.848,0.41228
7.852,0.14362
7.856,0.00184
7.86,-0.12713
7.864,-0.11006
7.868,-0.12242
7.872,-0.06206
7.876,-0.05839
7.88,-0.06057
7.884,-0.00298
7.888,0.01982
7.892,-0.01415
7.896,0.0556
7.9,0.01295
7.904,0.00829
7.908,0.04697
7.912,0.06357
7.916,0.06167
7.92,0.0693
7.924,9e-05
7.928,0.05615
7.932,-0.00934
7.936,0.0303
7.94,0.00713
7.944,0.01244
7.948,0.05252
7.952,0.01723
7.956,0.04513
7.96,0.11242
7.964,0.07008
7.968,0.0467
7.972,0.00717
7.976,0.0419
7.98,0.05831
7.984,0.02626
7.988,-0.0121
7.992,0.014
7.996,0.10042
8.0,0.04152
8.004,0.03178
8.008,0.1141
8.012,0.04328
8.016,0.00988
8.02,0.03438
8.024,0.08626
8.028,0.04896
8.032,0.04669
8.036,0.09574
8.04,0.10452
8.044,0.08854
8.048,0.06656
8.052,0.14081
8.056,0.12862
8.06,0.12302
8.064,0.12864
8.068,0.15641
8.072,0.15677
8.076,0.17607
8.08,0.13282
8.084,0.19636
8.088,0.2368
8.092,0.21048
8.096,0.21291
8.1,0.25024
8.104,0.24646
8.108,0.29114
8.112,0.21107
8.116,0.25801
8.12,0.2454
8.124,0.25574
8.128,0.21577
8.132,0.24722
8.136,0.14237
8.14,0.16642
8.144,0.22896
8.148,0.23463
8.152,0.19386
8.156,0.12195
8.16,0.12122
8.164,0.18269
8.168,0.19188
8.172,0.18693
8.176,0.1534
8.18,0.15877
8.184,0.1715
8.188,0.12423
8.192,0.18666
8.196,0.15694
8.2,0.21214
8.204,0.07772
8.208,0.09672
8.212,0.13655
8.216,0.08776
8.22,0.07914
8.224,0.06819
8.228,0.10345
8.232,0.04067
8.236,0.04698
8.24,0.07658
8.244,0.05638
8.248,0.05109
8.252,0.01684
8.256,0.02783
8.26,0.00423
8.264,0.02598
8.268,0.04011
8.272,0.04719
8.276,0.05371
8.28,-0.00132
8.284,0.05554
8.288,0.03644
8.292,0.06448
8.296,-0.02424
8.3,0.00318
8.304,0.04919
8.308,0.04837
8.312,0.00368
8.316,-0.01141
8.32,-0.09447
8.324,-0.0396
8.328,-0.07457
8.332,-0.05437
8.336,0.02648
8.34,0.24393
8.344,0.41349
8.348,0.65149
8.352,0.86991
8.356,1.03235
8.36,0.99126
8.364,1.03392
8.368,0.78339
8.372,0.59081
8.376,0.32132
8.38,0.14062
8.384,-0.05445
8.388,-0.13183
8.392,-0.16379
8.396,-0.12881
8.4,-0.09078
8.404,-0.08565
8.408,-0.06038
8.412,-0.06449
8.416,0.05056
8.42,-0.01506
8.424,0.04258
8.428,-0.01736
8.432,-0.02738
8.436,0.03717
8.44,0.06398
8.444,0.03038
8.448,0.06506
8.452,0.05577
8.456,-0.0411
8.46,-0.02673
8.464,0.05026
8.468,0.03407
8.472,0.03336
8.476,-0.03142
8.48,-0.05315
8.484,0.02095
8.488,0.0422
8.492,0.02062
8.496,-0.03321
8.5,0.00156
8.504,0.03073
8.508,0.08351
8.512,0.00329
8.516,0.05166
8.52,0.01132
8.524,0.07002
8.528,0.01682
8.532,0.00694
8.536,0.0647
8.54,0.03463
8.544,0.06083
8.548,0.04492
8.552,0.06172
8.556,0.06209
8.56,0.02243
8.564,0.03286
8.568,0.0819
8.572,0.06416
8.576,0.07662
8.58,0.12866
8.584,0.1016
8.588,0.11822
8.592,0.11493
8.596,0.17897
8.6,0.13082
8.604,0.18794
8.608,0.17191
8.612,0.19973
8.616,0.20133
8.62,0.18843
8.624,0.25433
8.628,0.23296
8.632,0.24957
8.636,0.31898
8.64,0.25059
8.644,0.35726
8.648,0.2457
8.652,0.23231
8.656,0.27698
8.66,0.33305
8.664,0.34648
8.668,0.29357
8.672,0.26062
8.676,0.22841
8.68,0.28399
8.684,0.22719
8.688,0.1815
8.692,0.29264
8.696,0.18798
8.7,0.12352
8.704,0.21525
8.708,0.03505
8.712,0.12
8.716,0.07648
8.72,0.05532
8.724,0.13131
8.728,0.00977
8.732,0.06188
8.736,0.02385
8.74,0.03681
8.744,0.00226
8.748,-0.05335
8.752,-0.00542
8.756,-0.01014
8.76,0.02801
8.764,-0.0403
8.768,0.0407
8.772,0.06496
8.776,-0.0278
8.78,-0.02641
8.784,-0.02473
8.788,0.04617
8.792,0.00326
8.796,-0.11001
8.8,-0.1446
8.804,-0.05356
8.808,-0.07447
8.812,0.06618
8.816,0.22032
8.82,0.40411
8.824,0.65753
8.828,0.88459
8.832,1.03844
8.836,0.99888
8.84,0.92516
8.844,0.7553
8.848,0.50375
8.852,0.2268
8.856,0.07197
8.86,-0.07404
8.864,-0.22643
8.868,-0.12624
8.872,-0.10876
8.876,-0.12011
8.88,-0.03044
8.884,-0.02552
8.888,0.00878
8.892,0.02439
8.896,0.032
8.9,-0.01387
8.904,-0.04188
8.908,-0.03819
8.912,-0.00801
8.916,0.01142
8.92,0.00462
8.924,-0.02702
8.928,-0.02459
8.932,0.00531
8.936,-0.02833
8.94,0.027
8.944,0.00093
8.948,-0.03634
8.952,0.02096
8.956,-0.05719
8.96,0.04374
8.964,0.0756
8.968,0.01394
8.972,0.05105
8.976,0.0118
8.98,-0.02418
8.984,0.02544
8.988,0.0454
8.992,0.07267
8.996,0.07598
9.0,0.14334
9.004,0.11313
9.008,0.1415
9.012,0.1476
9.016,0.13558
9.02,0.11991
9.024,0.11111
9.028,0.12994
9.032,0.12665
9.036,0.05151
9.04,0.03795
9.044,0.09366
9.048,0.04596
9.052,0.06225
9.056,0.15563
9.06,0.06877
9.064,0.09351
9.068,0.15965
9.072,0.09096
9.076,0.14723
9.08,0.16553
9.084,0.18838
9.088,0.16178
9.092,0.1817
9.096,0.23296
9.1,0.21376
9.104,0.2256
9.108,0.2217
9.112,0.21039
9.116,0.17119
9.12,0.20872
9.124,0.17083
9.128,0.19004
9.132,0.12562
9.136,0.05641
9.14,0.04874
9.144,0.13264
9.148,0.2239
9.152,0.35661
9.156,0.50872
9.16,0.75403
9.164,0.98901
9.168,1.06624
9.172,1.08766
9.176,0.97418
9.18,0.8062
9.184,0.62187
9.188,0.3654
9.192,0.21696
9.196,-0.02169
9.2,-0.08927
9.204,-0.1205
9.208,-0.15468
9.212,-0.13174
9.216,-0.00959
9.22,-0.01006
9.224,-0.00671
9.228,-0.02336
9.232,0.00343
9.236,0.01978
9.24,0.03081
9.244,0.02873
9.248,-0.01002
9.252,0.00763
9.256,0.04104
9.26,-0.01056
9.264,0.01802
9.268,0.04528
9.272,-0.0025
9.276,0.04787
9.28,-0.02407
9.284,-0.00569
9.288,-0.05574
9.292,0.0075
9.296,0.02701
9.3,-0.03733
9.304,0.03296
9.308,0.00035
9.312,-0.02829
9.316,0.0111
9.32,-0.02026
9.324,-0.02741
9.328,0.0519
9.332,-0.03905
9.336,0.01371
9.34,0.01148
9.344,0.01692
9.348,0.00704
9.352,0.06305
9.356,0.04904
9.36,0.02269
9.364,0.06271
9.368,0.01537
9.372,0.0604
9.376,0.00151
9.38,0.07956
9.384,0.0609
9.388,0.032
9.392,0.03149
9.396,0.11516
9.4,0.11875
9.404,0.13321
9.408,0.11809
9.412,0.05751
9.416,0.14293
9.42,0.20517
9.424,0.07865
9.428,0.1957
9.432,0.1392
9.436,0.18304
9.44,0.21915
9.444,0.17807
9.448,0.1611
9.452,0.21416
9.456,0.22343
9.46,0.26264
9.464,0.20047
9.468,0.20236
9.472,0.2406
9.476,0.2934
9.48,0.28086
9.484,0.26669
9.488,0.16088
9.492,0.26709
9.496,0.22892
9.5,0.23599
9.504,0.17942
9.508,0.17735
9.512,0.15758
9.516,0.12409
9.52,0.14722
9.524,0.05701
9.528,0.0006
9.532,0.06787
9.536,0.0473
9.54,0.00107
9.544,-0.00373
9.548,0.04526
9.552,0.03573
9.556,0.01943
9.56,0.08237
9.564,0.03364
9.568,-0.03535
9.572,-0.11603
9.576,-0.00069
9.58,0.02723
9.584,0.00652
9.588,-0.00334
9.592,0.00468
9.596,-0.04454
9.6,-0.07041
9.604,-0.03234
9.608,-0.09482
9.612,-0.05905
9.616,-0.1108
9.62,-0.10532
9.624,-0.13843
9.628,-0.01152
9.632,0.07029
9.636,0.36389
9.64,0.51672
9.644,0.73724
9.648,0.93912
9.652,0.96589
9.656,0.95855
9.66,0.81328
9.664,0.56396
9.668,0.38132
9.672,0.23905
9.676,0.02984
9.68,-0.1526
9.684,-0.13329
9.688,-0.18393
9.692,-0.13727
9.696,-0.11436
9.7,-0.01434
9.704,0.00477
9.708,0.02416
9.712,-0.08624
9.716,-0.0122
9.72,-0.03011
9.724,-0.08909
9.728,0.01987
9.732,-0.02109
9.736,-0.03094
9.74,-0.02018
9.744,-0.04784
9.748,-0.01256
9.752,-0.05758
9.756,0.00122
9.76,0.00829
9.764,-0.01603
9.768,-0.0717
9.772,0.02585
9.776,-0.08419
9.78,-0.00743
9.784,0.00046
9.788,0.01768
9.792,-0.0059
9.796,-0.02634
9.8,-0.01023
9.804,-0.03486
9.808,-0.03399
9.812,0.03233
9.816,0.04679
9.82,0.05307
9.824,-0.02867
9.828,0.06015
9.832,-0.003
9.836,0.00446
9.84,0.02928
9.844,-0.01833
9.848,0.04991
9.852,0.06369
9.856,-0.01184
9.86,0.04953
9.864,-0.0542
9.868,0.07869
9.872,0.12588
9.876,0.1224
9.88,0.08218
9.884,0.11882
9.888,0.11494
9.892,0.11101
9.896,0.19122
9.9,0.14176
9.904,0.18222
9.908,0.20929
9.912,0.17117
9.916,0.17248
9.92,0.27241
9.924,0.18262
9.928,0.17748
9.932,0.18294
9.936,0.17716
9.94,0.14278
9.944,0.18393
9.948,0.22994
9.952,0.22097
9.956,0.18595
9.96,0.16199
9.964,0.10953
9.968,0.17911
9.972,0.13459
9.976,0.16247
9.98,0.14852
9.984,0.09997
9.988,0.07819
9.992,0.07295
9.996,0.01283
