t_seg,ecg_mV
0.0,0.03632
0.004,0.0442
0.008,-0.00712
0.012,0.04354
0.016,0.02538
0.02,0.01368
0.024,0.02549
0.028,0.00986
0.032,0.01002
0.036,-0.00306
0.04,0.01792
0.044,0.00698
0.048,0.0154
0.052,0.03949
0.056,0.02818
0.06,0.00795
0.064,0.03402
0.068,0.04211
0.072,0.02749
0.076,0.02726
0.08,0.0253
0.084,0.01169
0.088,0.04247
0.092,0.03373
0.096,0.0253
0.1,0.02573
0.104,0.02415
0.108,0.04877
0.112,0.0218
0.116,0.00046
0.12,0.02813
0.124,0.03943
0.128,0.03602
0.132,0.01996
0.136,0.00119
0.14,0.05699
0.144,0.01066
0.148,0.02752
0.152,0.02293
0.156,0.01531
0.16,0.01854
0.164,0.00811
0.168,0.01104
0.172,0.01688
0.176,0.02252
0.18,0.0611
0.184,0.00923
0.188,0.04118
0.192,0.02512
0.196,0.01792
0.2,0.00232
0.204,0.02269
0.208,0.00777
0.212,0.02762
0.216,0.02865
0.22,0.00502
0.224,0.04058
0.228,0.0208
0.232,0.02391
0.236,0.02784
0.24,0.0179
0.244,0.03939
0.248,0.0483
0.252,0.02673
0.256,0.03816
0.26,0.05298
0.264,0.03492
0.268,0.02123
0.272,0.04278
0.276,0.02675
0.28,0.02181
0.284,0.00277
0.288,0.02661
0.292,0.01143
0.296,0.02796
0.3,-0.00796
0.304,0.00582
0.308,0.04575
0.312,0.0499
0.316,0.02883
0.32,0.02731
0.324,-0.01244
0.328,0.02966
0.332,0.01202
0.336,-0.01099
0.34,0.00634
0.344,0.00528
0.348,0.03158
0.352,0.02422
0.356,0.05772
0.36,0.04396
0.364,0.02264
0.368,0.02984
0.372,0.00289
0.376,0.03461
0.38,0.01656
0.384,0.02431
0.388,0.02702
0.392,0.02263
0.396,0.01559
0.4,0.03313
0.404,0.0335
0.408,-0.0167
0.412,0.01235
0.416,0.01876
0.42,0.01261
0.424,0.02387
0.428,0.03438
0.432,0.02346
0.436,0.01885
0.44,0.03709
0.444,0.02704
0.448,0.02597
0.452,0.05327
0.456,0.0384
0.46,0.00667
0.464,0.04256
0.468,0.01121
0.472,0.0261
0.476,-0.00472
0.48,0.04024
0.484,0.00052
0.488,0.03709
0.492,0.06718
0.496,0.05076
0.5,0.05011
0.504,0.04397
0.508,0.06577
0.512,0.09573
0.516,0.05809
0.52,0.08725
0.524,0.13077
0.528,0.10947
0.532,0.13475
0.536,0.12429
0.54,0.09425
0.544,0.09624
0.548,0.10877
0.552,0.0701
0.556,0.06265
0.56,0.06056
0.564,0.03431
0.568,0.03073
0.572,0.03688
0.576,0.02177
0.58,0.02159
0.584,0.02965
0.588,0.04644
0.592,0.01704
0.596,0.00855
0.6,0.0628
0.604,0.03248
0.608,-0.01173
0.612,0.01008
0.616,-0.00778
0.62,0.02909
0.624,-0.00057
0.628,0.00994
0.632,0.04275
0.636,0.00626
0.64,0.01294
0.644,0.00829
0.648,-0.00423
0.652,-0.0394
0.656,-0.06784
0.66,-0.1074
0.664,-0.04056
0.668,0.04017
0.672,0.23462
0.676,0.43506
0.68,0.68115
0.684,0.85369
0.688,0.9739
0.692,1.00448
0.696,0.91553
0.7,0.74971
0.704,0.52392
0.708,0.30524
0.712,0.09645
0.716,-0.0423
0.72,-0.11248
0.724,-0.17193
0.728,-0.14748
0.732,-0.11439
0.736,-0.0207
0.74,0.00562
0.744,0.00658
0.748,0.00883
0.752,-0.00293
0.756,0.02838
0.76,0.01461
0.764,0.01961
0.768,0.01454
0.772,-0.03117
0.776,-0.0127
0.78,0.0048
0.784,0.0209
0.788,-0.00285
0.792,0.0153
0.796,0.00707
0.8,-0.00461
0.804,0.02221
0.808,-0.00506
0.812,-0.00717
0.816,0.03837
0.82,0.03521
0.824,0.01688
0.828,0.03124
0.832,0.00352
0.836,0.01049
0.84,0.02109
0.844,0.02201
0.848,0.02607
0.852,-0.00163
0.856,0.03515
0.86,0.00529
0.864,0.0238
0.868,0.06799
0.872,0.04665
0.876,0.02749
0.88,0.0452
0.884,0.03394
0.888,0.04093
0.892,0.0455
0.896,0.06049
0.9,0.07427
0.904,0.09334
0.908,0.12699
0.912,0.11121
0.916,0.11915
0.92,0.10873
0.924,0.15777
0.928,0.15189
0.932,0.18586
0.936,0.17441
0.94,0.20989
0.944,0.18539
0.948,0.19769
0.952,0.20832
0.956,0.21403
0.96,0.22828
0.964,0.22999
0.968,0.19841
0.972,0.21126
0.976,0.21472
0.98,0.23262
0.984,0.21379
0.988,0.22323
0.992,0.21501
0.996,0.19953
1.0,0.15576
1.004,0.206
1.008,0.1728
1.012,0.14616
1.016,0.14798
1.02,0.12387
1.024,0.12075
1.028,0.09581
1.032,0.12991
1.036,0.08317
1.04,0.08447
1.044,0.05871
1.048,0.07359
1.052,0.07584
1.056,0.05081
1.06,0.02944
1.064,0.04042
1.068,0.02952
1.072,0.0411
1.076,0.02904
1.08,0.02709
1.084,0.01654
1.088,0.01334
1.092,0.01567
1.096,0.03321
1.1,0.01197
1.104,0.0201
1.108,0.00299
1.112,0.00411
1.116,-0.01005
1.12,0.00446
1.124,-0.00351
1.128,-0.02801
1.132,-0.0089
1.136,-0.01853
1.14,-0.00065
1.144,-0.00285
1.148,0.02232
1.152,0.00485
1.156,-0.00615
1.16,-0.00413
1.164,-0.00406
1.168,-0.00504
1.172,0.00936
1.176,-0.0065
1.18,0.00605
1.184,0.01714
1.188,-0.00579
1.192,0.00179
1.196,0.02718
1.2,0.00974
1.204,-0.00324
1.208,0.01093
1.212,-0.00205
1.216,-0.0109
1.22,0.01429
1.224,-0.01281
1.228,-0.00935
1.232,-0.00176
1.236,0.01286
1.24,0.0099
1.244,-0.00935
1.248,-0.00047
1.252,-0.00567
1.256,0.0119
1.26,0.00408
1.264,-0.011
1.268,0.01157
1.272,-0.02067
1.276,-0.00655
1.28,-0.02976
1.284,0.01275
1.288,-0.00377
1.292,0.00741
1.296,0.03874
1.3,0.00258
1.304,0.00176
1.308,-0.01
1.312,0.00177
1.316,-0.00894
1.32,0.00593
1.324,0.00489
1.328,0.00127
1.332,-0.00633
1.336,-0.00565
1.34,-0.00432
1.344,-0.00612
1.348,0.00367
1.352,-0.01481
1.356,-0.00847
1.36,0.001
1.364,0.0203
1.368,-0.00037
1.372,-0.00803
1.376,-0.00906
1.38,0.01656
1.384,-0.01512
1.388,-0.01469
1.392,-0.00857
1.396,-0.01808
1.4,-0.01151
1.404,-0.00067
1.408,-0.00989
1.412,-0.03434
1.416,-0.00025
1.42,0.00616
1.424,-0.01377
1.428,0.02151
1.432,-0.00259
1.436,-0.0013
1.44,-0.02543
1.444,0.02981
1.448,0.02465
1.452,0.01326
1.456,0.0197
1.46,-0.01629
1.464,-0.01429
1.468,-4e-05
1.472,-0.00579
1.476,-0.02302
1.48,-0.00357
1.484,0.00613
1.488,-0.01013
1.492,0.01523
1.496,-0.0016
1.5,-0.01338
1.504,-0.01939
1.508,-0.02369
1.512,0.0061
1.516,-0.02774
1.52,0.00217
1.524,0.002
1.528,-0.02623
1.532,0.00211
1.536,-0.00563
1.54,0.02024
1.544,0.0
1.548,-0.0088
1.552,0.00143
1.556,0.01278
1.56,-0.01929
1.564,-0.01822
1.568,0.00573
1.572,0.02349
1.576,-0.02659
1.58,0.01627
1.584,0.0005
1.588,0.00534
1.592,0.00227
1.596,-0.01296
1.6,-0.01577
1.604,0.0261
1.608,-0.02658
1.612,-0.00587
1.616,0.01484
1.62,-0.0093
1.624,0.00343
1.628,-0.00695
1.632,-0.0195
1.636,0.00011
1.64,-0.0082
1.644,-0.01769
1.648,0.0017
1.652,-0.01383
1.656,-0.00544
1.66,-0.01663
1.664,0.01267
1.668,0.00435
1.672,-0.00523
1.676,-0.01207
1.68,-0.01312
1.684,-0.0127
1.688,-0.02351
1.692,0.01188
1.696,-0.02319
1.7,0.00274
1.704,0.00257
1.708,-0.0144
1.712,-0.01234
1.716,-0.02986
1.72,-0.01279
1.724,-0.01751
1.728,0.00646
1.732,-0.01355
1.736,-0.00848
1.74,0.01614
1.744,-0.01215
1.748,0.01303
1.752,0.05137
1.756,0.04331
1.76,0.07002
1.764,0.02446
1.768,0.06712
1.772,0.08063
1.776,0.06455
1.78,0.09702
1.784,0.05692
1.788,0.06119
1.792,0.06373
1.796,0.04848
1.8,0.0308
1.804,0.00926
1.808,0.01522
1.812,-0.00724
1.816,0.01881
1.82,-0.01136
1.824,-0.02525
1.828,0.003
1.832,0.01152
1.836,-0.00952
1.84,-0.02408
1.844,-0.03959
1.848,-0.02647
1.852,-0.00437
1.856,-0.00861
1.86,-0.04423
1.864,-0.01409
1.868,-0.04292
1.872,-0.00853
1.876,0.00695
1.88,-0.02244
1.884,-0.0054
1.888,-0.0359
1.892,-0.04894
1.896,-0.06579
1.9,-0.10194
1.904,-0.14242
1.908,-0.08847
1.912,-0.01525
1.916,0.09012
1.92,0.33802
1.924,0.55388
1.928,0.70795
1.932,0.907
1.936,0.98942
1.94,0.9382
1.944,0.77975
1.948,0.56706
1.952,0.3498
1.956,0.13179
1.96,-0.02126
1.964,-0.1344
1.968,-0.16088
1.972,-0.18621
1.976,-0.1345
1.98,-0.09065
1.984,-0.06144
1.988,-0.02697
1.992,-0.05005
1.996,-0.02631
2.0,0.0091
2.004,-0.00972
2.008,-0.01788
2.012,-0.00288
2.016,-0.02087
2.02,-0.03538
2.024,-0.01606
2.028,-0.00609
2.032,-0.02434
2.036,0.00424
2.04,-0.0157
2.044,-0.02015
2.048,-0.02844
2.052,0.01124
2.056,0.01539
2.06,-0.03718
2.064,-0.02001
2.068,-0.03041
2.072,-0.00152
2.076,-0.01978
2.08,-0.00401
2.084,-0.01935
2.088,-0.03099
2.092,0.00751
2.096,-0.01207
2.1,-0.01564
2.104,-0.02394
2.108,-0.00403
2.112,0.01176
2.116,-0.00696
2.12,0.03524
2.124,0.03075
2.128,0.01361
2.132,0.02615
2.136,0.01831
2.14,0.03954
2.144,0.0226
2.148,0.03259
2.152,0.0934
2.156,0.07154
2.16,0.09156
2.164,0.07843
2.168,0.10852
2.172,0.11142
2.176,0.0934
2.18,0.13203
2.184,0.14711
2.188,0.15573
2.192,0.18361
2.196,0.18464
2.2,0.16184
2.204,0.17787
2.208,0.19041
2.212,0.19651
2.216,0.19627
2.22,0.17502
2.224,0.19624
2.228,0.18402
2.232,0.1503
2.236,0.14164
2.24,0.14448
2.244,0.14478
2.248,0.12698
2.252,0.12104
2.256,0.10375
2.26,0.10479
2.264,0.10863
2.268,0.09567
2.272,0.05221
2.276,0.07929
2.28,0.07714
2.284,0.03517
2.288,0.06372
2.292,0.02944
2.296,0.00368
2.3,0.03642
2.304,0.0055
2.308,-0.00488
2.312,0.02639
2.316,0.01574
2.32,-0.01422
2.324,-0.0229
2.328,-0.01559
2.332,-0.01438
2.336,-0.00609
2.34,-0.05842
2.344,-0.01649
2.348,-0.01921
2.352,-0.02862
2.356,-0.0213
2.36,-0.01417
2.364,-0.04836
2.368,-0.04568
2.372,-0.02819
2.376,-0.02994
2.38,-0.02774
2.384,-0.0214
2.388,0.00426
2.392,-0.03337
2.396,-0.02341
2.4,-0.01416
2.404,-0.03261
2.408,-0.03384
2.412,-0.02301
2.416,-0.02134
2.42,-0.03979
2.424,-0.02015
2.428,-0.02215
2.432,-0.02382
2.436,-0.01385
2.44,-0.04941
2.444,-0.01643
2.448,-0.03619
2.452,-0.03009
2.456,-0.03314
2.46,-0.04407
2.464,-0.02247
2.468,0.00089
2.472,-0.02561
2.476,-0.00991
2.48,-0.0403
2.484,-0.03914
2.488,-0.02919
2.492,-0.03738
2.496,-0.03993
2.5,-0.01831
2.504,-0.02151
2.508,-0.01635
2.512,-0.02723
2.516,-0.03192
2.52,-0.03524
2.524,-0.0133
2.528,-0.03007
2.532,-0.01117
2.536,-0.01351
2.54,0.00391
2.544,-0.03363
2.548,-0.00714
2.552,-0.04433
2.556,-0.00745
2.56,-0.01663
2.564,-0.0078
2.568,-0.0546
2.572,-0.00363
2.576,-0.03021
2.58,-0.03127
2.584,-0.05086
2.588,-0.03946
2.592,-0.00959
2.596,-0.00272
2.6,-0.02022
2.604,-0.03786
2.608,-0.01871
2.612,-0.05103
2.616,-0.03252
2.62,-0.03867
2.624,-0.01209
2.628,-0.05193
2.632,-0.03517
2.636,-0.02333
2.64,-0.01992
2.644,-0.04885
2.648,-0.03741
2.652,-0.06115
2.656,-0.01668
2.66,-0.0365
2.664,-0.03561
2.668,-0.03877
2.672,-0.00674
2.676,-0.03089
2.68,-0.04333
2.684,-0.01449
2.688,-0.02073
2.692,-0.03056
2.696,-0.04349
2.7,-0.02934
2.704,-0.02205
2.708,-0.03208
2.712,-0.03136
2.716,-0.01583
2.72,-0.04203
2.724,-0.01885
2.728,-0.03527
2.732,-0.04793
2.736,-0.01705
2.74,-0.01818
2.744,-0.04094
2.748,-0.0408
2.752,-0.01202
2.756,-0.02677
2.76,-0.05576
2.764,-0.04172
2.768,-0.02363
2.772,-0.03719
2.776,-0.01503
2.78,-0.03502
2.784,-0.02063
2.788,-0.02802
2.792,-0.02336
2.796,-0.02661
2.8,-0.02829
2.804,-0.04676
2.808,-0.01098
2.812,-0.03595
2.816,-0.04507
2.82,-0.00582
2.824,-0.03765
2.828,-0.00717
2.832,-0.0602
2.836,-0.0236
2.84,-0.02838
2.844,-0.04012
2.848,-0.01204
2.852,-0.04395
2.856,-0.02736
2.86,-0.03628
2.864,-0.01618
2.868,-0.04485
2.872,-0.02601
2.876,-0.0272
2.88,-0.05948
2.884,0.01696
2.888,-0.0256
2.892,-0.02247
2.896,-0.01729
2.9,-0.03456
2.904,-0.03667
2.908,-0.06237
2.912,-0.03746
2.916,-0.03056
2.92,-0.0213
2.924,-0.02812
2.928,-0.02586
2.932,-0.02703
2.936,-0.02403
2.94,-0.02404
2.944,-0.02691
2.948,-0.01633
2.952,-0.05241
2.956,-0.03528
2.96,-0.01863
2.964,-0.03052
2.968,-0.04308
2.972,-0.03331
2.976,-0.03182
2.98,-0.02781
2.984,0.00042
2.988,-0.00812
2.992,-0.03594
2.996,-0.02605
3.0,0.00046
3.004,-0.03572
3.008,-0.01756
3.012,-0.03336
3.016,-0.04327
3.02,-0.03205
3.024,-0.02812
3.028,-0.01022
3.032,-0.04041
3.036,-0.0086
3.04,-0.03171
3.044,-0.03117
3.048,-0.04348
3.052,-0.0595
3.056,-0.02736
3.06,-0.03906
3.064,-0.02574
3.068,-0.02902
3.072,-0.05322
3.076,-0.02747
3.08,-0.01479
3.084,-0.00721
3.088,0.0038
3.092,0.01229
3.096,0.01147
3.1,0.03518
3.104,0.03972
3.108,0.0574
3.112,0.06594
3.116,0.06856
3.12,0.09792
3.124,0.04929
3.128,0.03125
3.132,0.0553
3.136,0.02816
3.14,0.02802
3.144,0.00988
3.148,0.00714
3.152,-0.01318
3.156,-0.02123
3.16,0.00999
3.164,-0.00441
3.168,-0.04074
3.172,-0.03225
3.176,-0.00974
3.18,-0.0267
3.184,-0.04546
3.188,-0.023
3.192,-0.01704
3.196,-0.03328
3.2,-0.02526
3.204,-0.03698
3.208,-0.00961
3.212,0.00135
3.216,-0.0267
3.22,-0.03713
3.224,-0.01868
3.228,-0.03207
3.232,-0.04646
3.236,-0.08878
3.24,-0.12305
3.244,-0.15717
3.248,-0.14509
3.252,-0.067
3.256,0.05967
3.26,0.27596
3.264,0.45735
3.268,0.66676
3.272,0.85438
3.276,0.97192
3.28,0.97072
3.284,0.82647
3.288,0.6358
3.292,0.40674
3.296,0.19506
3.3,0.01229
3.304,-0.09362
3.308,-0.16226
3.312,-0.20598
3.316,-0.20167
3.32,-0.14507
3.324,-0.09545
3.328,-0.05633
3.332,-0.03089
3.336,-0.05067
3.34,-0.0169
3.344,-0.01523
3.348,-0.06352
3.352,-0.04879
3.356,-0.00279
3.36,-0.03307
3.364,-0.02882
3.368,0.02663
3.372,-0.02435
3.376,-0.0306
3.38,-0.0618
3.384,-0.02986
3.388,-0.02244
3.392,-0.0404
3.396,-0.00523
3.4,-0.04126
3.404,-0.0072
3.408,-0.02124
3.412,-0.03488
3.416,-0.01685
3.42,-0.00319
3.424,-0.01417
3.428,-0.04442
3.432,-0.01071
3.436,-0.02639
3.44,-0.00824
3.444,-0.00533
3.448,-0.018
3.452,0.00108
3.456,-0.02023
3.46,0.01115
3.464,-0.00889
3.468,0.01361
3.472,0.01255
3.476,0.0064
3.48,0.04263
3.484,0.00861
3.488,0.0531
3.492,0.04354
3.496,0.05879
3.5,0.07022
3.504,0.07041
3.508,0.09914
3.512,0.08762
3.516,0.0746
3.52,0.12751
3.524,0.11764
3.528,0.16656
3.532,0.15874
3.536,0.16953
3.54,0.15971
3.544,0.19743
3.548,0.17765
3.552,0.1751
3.556,0.17316
3.56,0.18283
3.564,0.20948
3.568,0.19857
3.572,0.18421
3.576,0.16959
3.58,0.167
3.584,0.18183
3.588,0.15676
3.592,0.14374
3.596,0.15241
3.6,0.11511
3.604,0.10772
3.608,0.07025
3.612,0.0727
3.616,0.06316
3.62,0.05898
3.624,0.05585
3.628,0.0311
3.632,0.03773
3.636,0.0372
3.64,0.00938
3.644,0.01173
3.648,0.01175
3.652,-0.02066
3.656,0.01341
3.66,-0.01493
3.664,-0.00927
3.668,-0.03785
3.672,-0.00755
3.676,-0.00945
3.68,-0.0199
3.684,-0.03204
3.688,-0.01317
3.692,-0.04313
3.696,-0.00984
3.7,-0.01051
3.704,-0.01085
3.708,-0.00377
3.712,-0.02487
3.716,-0.01756
3.72,-0.0111
3.724,-0.01397
3.728,-0.03542
3.732,-0.02465
3.736,-0.02922
3.74,-0.01816
3.744,-0.01926
3.748,-0.00662
3.752,-0.00931
3.756,-0.00391
3.76,-0.02685
3.764,0.00057
3.768,-0.00821
3.772,0.02627
3.776,-0.01217
3.78,-0.05334
3.784,0.0055
3.788,-0.03674
3.792,-0.01973
3.796,-0.02367
3.8,-0.02256
3.804,0.00447
3.808,-0.00775
3.812,-0.01249
3.816,-0.02519
3.82,-0.02293
3.824,-0.01621
3.828,-0.01325
3.832,-0.02066
3.836,-0.04577
3.84,-0.01362
3.844,-0.01859
3.848,-0.03107
3.852,-0.01058
3.856,-0.00684
3.86,-0.02209
3.864,0.01987
3.868,-0.03208
3.872,-0.01936
3.876,-0.01449
3.88,-0.01541
3.884,-0.00067
3.888,-0.02787
3.892,-0.03236
3.896,0.00962
3.9,-0.01864
3.904,-0.01045
3.908,-0.00716
3.912,-0.00239
3.916,-0.00911
3.92,-0.03201
3.924,-0.02154
3.928,-0.01629
3.932,-0.00757
3.936,0.0054
3.94,-0.03138
3.944,-0.01148
3.948,-0.01439
3.952,-0.01256
3.956,-0.047
3.96,-0.03527
3.964,-0.02112
3.968,-0.02984
3.972,-0.02418
3.976,-0.02203
3.98,-0.0093
3.984,-0.03757
3.988,-0.03745
3.992,-0.03217
3.996,-0.00605
4.0,-0.03237
4.004,-0.00106
4.008,-0.00696
4.012,-0.01447
4.016,-0.03451
4.02,-0.01696
4.024,-0.01771
4.028,-0.02291
4.032,-0.03695
4.036,-0.02693
4.04,-0.02997
4.044,-0.02611
4.048,-0.01364
4.052,-0.02659
4.056,-0.03144
4.06,0.00852
4.064,-0.0074
4.068,0.01442
4.072,-0.00144
4.076,-0.02273
4.08,-0.00774
4.084,-0.01187
4.088,-0.00978
4.092,-0.00699
4.096,-0.01543
4.1,-0.00146
4.104,-0.0009
4.108,-0.04377
4.112,-0.00818
4.116,-0.00706
4.12,-0.02088
4.124,0.00842
4.128,-0.00768
4.132,0.00735
4.136,0.01077
4.14,0.00896
4.144,-0.01487
4.148,-0.0057
4.152,-0.00297
4.156,-0.01302
4.16,0.00694
4.164,0.0295
4.168,0.00729
4.172,0.04972
4.176,0.03605
4.18,0.04567
4.184,0.07966
4.188,0.06632
4.192,0.10071
4.196,0.09919
4.2,0.08924
4.204,0.06727
4.208,0.06634
4.212,0.07281
4.216,0.06671
4.22,0.02027
4.224,-0.00949
4.228,0.00834
4.232,0.00671
4.236,0.00423
4.24,0.0072
4.244,-0.02105
4.248,-0.02339
4.252,-0.02606
4.256,-0.00126
4.26,-0.01334
4.264,0.00022
4.268,-0.00252
4.272,-0.00079
4.276,-0.01162
4.28,-0.0043
4.284,-0.01636
4.288,-0.00377
4.292,-0.00648
4.296,-0.00562
4.3,-0.00571
4.304,-0.00999
4.308,-0.02951
4.312,-0.05711
4.316,-0.09775
4.32,-0.14668
4.324,-0.10331
4.328,-0.02612
4.332,0.06123
4.336,0.29224
4.34,0.49288
4.344,0.69618
4.348,0.87109
4.352,0.97772
4.356,0.96668
4.36,0.85887
4.364,0.67374
4.368,0.45453
4.372,0.19842
4.376,0.02959
4.38,-0.10794
4.384,-0.17123
4.388,-0.19088
4.392,-0.15346
4.396,-0.10117
4.4,-0.07485
4.404,-0.02178
4.408,-0.01126
4.412,-0.01344
4.416,0.00997
4.42,-0.01663
4.424,-0.00865
4.428,-0.02222
4.432,-0.02848
4.436,0.02092
4.44,-0.01019
4.444,-0.02042
4.448,-0.00415
4.452,0.00036
4.456,-0.02009
4.46,-0.00774
4.464,0.01768
4.468,0.00892
4.472,-0.00617
4.476,-0.02301
4.48,0.01892
4.484,0.01694
4.488,-0.00662
4.492,-0.00478
4.496,0.01141
4.5,0.01702
4.504,0.01876
4.508,0.00706
4.512,0.00073
4.516,0.00535
4.52,0.00136
4.524,0.01517
4.528,0.03275
4.532,0.00834
4.536,0.00488
4.54,0.02139
4.544,0.03977
4.548,0.01768
4.552,0.03997
4.556,0.03591
4.56,0.03924
4.564,0.08392
4.568,0.07537
4.572,0.07604
4.576,0.09545
4.58,0.10417
4.584,0.123
4.588,0.14532
4.592,0.13271
4.596,0.16841
4.6,0.16002
4.604,0.18007
4.608,0.16984
4.612,0.17907
4.616,0.2072
4.62,0.21125
4.624,0.21089
4.628,0.22171
4.632,0.20555
4.636,0.23618
4.64,0.24385
4.644,0.21628
4.648,0.21866
4.652,0.19986
4.656,0.20805
4.66,0.18634
4.664,0.1723
4.668,0.16773
4.672,0.14664
4.676,0.1424
4.68,0.1397
4.684,0.10815
4.688,0.11849
4.692,0.09316
4.696,0.09462
4.7,0.06286
4.704,0.05166
4.708,0.06743
4.712,0.04596
4.716,0.05066
4.72,0.06287
4.724,0.0469
4.728,0.02378
4.732,0.05121
4.736,0.00915
4.74,-0.00988
4.744,0.05107
4.748,0.00654
4.752,0.02508
4.756,0.00104
4.76,0.02228
4.764,0.01159
4.768,0.04724
4.772,0.00263
4.776,0.02819
4.78,0.01164
4.784,0.02072
4.788,0.01084
4.792,0.00839
4.796,-0.01431
4.8,0.01486
4.804,-0.01866
4.808,0.00682
4.812,0.01874
4.816,0.00626
4.82,0.01696
4.824,0.02601
4.828,0.02237
4.832,0.00877
4.836,0.00779
4.84,0.02142
4.844,0.01063
4.848,0.00517
4.852,-0.00324
4.856,0.00631
4.86,0.00704
4.864,-0.00285
4.868,0.01342
4.872,0.01204
4.876,-0.01201
4.88,-0.00962
4.884,0.01806
4.888,0.02099
4.892,0.02369
4.896,0.01233
4.9,0.00876
4.904,-0.00288
4.908,0.01425
4.912,-0.01103
4.916,-0.02009
4.92,0.00908
4.924,0.00698
4.928,0.02973
4.932,-0.00367
4.936,-0.00139
4.94,-0.00142
4.944,-0.00438
4.948,0.02065
4.952,0.0166
4.956,0.0242
4.96,0.00247
4.964,0.01286
4.968,0.0267
4.972,0.00343
4.976,-0.00615
4.98,-0.0228
4.984,0.01498
4.988,0.00682
4.992,-0.01814
4.996,0.01048
5.0,0.02717
5.004,0.03554
5.008,-0.00069
5.012,0.02147
5.016,0.0151
5.02,0.02188
5.024,0.01343
5.028,-0.01594
5.032,0.03291
5.036,0.02132
5.04,0.00918
5.044,0.01131
5.048,0.01217
5.052,0.02003
5.056,0.02089
5.06,-0.01551
5.064,0.00685
5.068,0.00388
5.072,0.01734
5.076,0.00374
5.08,0.00927
5.084,-0.01556
5.088,0.00241
5.092,0.00022
5.096,0.02418
5.1,0.02328
5.104,0.03056
5.108,-0.00183
5.112,0.01159
5.116,0.01702
5.12,0.03329
5.124,0.02228
5.128,0.02839
5.132,0.02144
5.136,0.04091
5.14,0.0218
5.144,0.01593
5.148,0.02308
5.152,0.03211
5.156,0.03161
5.16,-0.00025
5.164,0.01287
5.168,0.00367
5.172,0.00993
5.176,-0.00294
5.18,0.04618
5.184,0.01705
5.188,0.00662
5.192,0.00897
5.196,0.02562
5.2,0.00963
5.204,0.02295
5.208,0.0388
5.212,0.04846
5.216,0.04839
5.22,0.05049
5.224,0.11016
5.228,0.07518
5.232,0.09301
5.236,0.09615
5.24,0.13937
5.244,0.10246
5.248,0.11673
5.252,0.08018
5.256,0.09588
5.26,0.10951
5.264,0.07664
5.268,0.05308
5.272,0.04567
5.276,0.05729
5.28,0.05545
5.284,0.0348
5.288,0.01313
5.292,0.02657
5.296,0.02049
5.3,0.02136
5.304,0.03646
5.308,0.01553
5.312,0.00079
5.316,0.05255
5.32,-0.00354
5.324,0.01789
5.328,0.02342
5.332,0.00098
5.336,0.05289
5.34,0.03921
5.344,0.01406
5.348,0.00648
5.352,0.02844
5.356,0.04624
5.36,0.02213
5.364,-0.02836
5.368,-0.04991
5.372,-0.08812
5.376,-0.08218
5.38,-0.00471
5.384,0.11532
5.388,0.29295
5.392,0.52213
5.396,0.71986
5.4,0.90511
5.404,1.00967
5.408,0.99726
5.412,0.91128
5.416,0.70423
5.42,0.45724
5.424,0.25063
5.428,0.038
5.432,-0.05355
5.436,-0.16052
5.44,-0.14405
5.444,-0.12657
5.448,-0.06702
5.452,-0.0304
5.456,-0.00155
5.46,0.03267
5.464,0.00178
5.468,0.02144
5.472,0.00105
5.476,0.04045
5.48,0.03857
5.484,0.04508
5.488,0.03758
5.492,0.0307
5.496,0.01205
5.5,0.00693
5.504,0.04148
5.508,0.03136
5.512,0.00428
5.516,0.03922
5.52,0.01549
5.524,0.02114
5.528,0.03117
5.532,0.01167
5.536,0.04167
5.54,0.0402
5.544,0.0189
5.548,0.00931
5.552,0.03258
5.556,0.03764
5.56,0.06603
5.564,0.01893
5.568,0.04596
5.572,0.03356
5.576,0.03994
5.58,0.022
5.584,0.04304
5.588,0.06965
5.592,0.05058
5.596,0.03076
5.6,0.06256
5.604,0.05227
5.608,0.06933
5.612,0.08627
5.616,0.07626
5.62,0.09638
5.624,0.13734
5.628,0.13709
5.632,0.12349
5.636,0.11132
5.64,0.15045
5.644,0.16096
5.648,0.17094
5.652,0.18774
5.656,0.18792
5.66,0.22953
5.664,0.21363
5.668,0.22971
5.672,0.26155
5.676,0.23646
5.68,0.22859
5.684,0.22572
5.688,0.25164
5.692,0.24353
5.696,0.26398
5.7,0.2154
5.704,0.21972
5.708,0.21708
5.712,0.21749
5.716,0.19098
5.72,0.16869
5.724,0.20197
5.728,0.14264
5.732,0.14441
5.736,0.11391
5.74,0.15025
5.744,0.09558
5.748,0.12354
5.752,0.11796
5.756,0.0688
5.76,0.10688
5.764,0.08025
5.768,0.05365
5.772,0.09346
5.776,0.06317
5.78,0.06243
5.784,0.05602
5.788,0.0412
5.792,0.0435
5.796,0.0401
5.8,0.02645
5.804,0.01687
5.808,0.04218
5.812,0.02715
5.816,0.0149
5.82,0.02447
5.824,0.02071
5.828,0.05
5.832,0.03466
5.836,0.00555
5.84,0.02871
5.844,0.02279
5.848,0.01913
5.852,0.03867
5.856,0.02353
5.86,0.00885
5.864,0.02995
5.868,0.01535
5.872,0.03139
5.876,0.01552
5.88,0.05605
5.884,0.05197
5.888,0.02588
5.892,0.05247
5.896,0.02188
5.9,0.02764
5.904,0.05455
5.908,0.02242
5.912,0.04044
5.916,0.02996
5.92,0.05111
5.924,0.02986
5.928,0.0119
5.932,0.03812
5.936,0.03048
5.94,0.03206
5.944,0.03716
5.948,0.04483
5.952,0.01924
5.956,0.01183
5.96,0.01907
5.964,0.01086
5.968,0.01576
5.972,0.05511
5.976,0.02238
5.98,0.02434
5.984,0.03299
5.988,0.02516
5.992,0.01201
5.996,0.0319
6.0,0.02378
6.004,0.05828
6.008,0.04732
6.012,0.02091
6.016,0.04035
6.02,0.01879
6.024,0.03901
6.028,-0.00635
6.032,0.01684
6.036,0.03582
6.04,0.03424
6.044,0.0338
6.048,0.03508
6.052,0.04776
6.056,0.05836
6.06,0.02278
6.064,0.04911
6.068,0.04025
6.072,0.0243
6.076,0.03077
6.08,0.05455
6.084,0.0322
6.088,0.0252
6.092,0.02643
6.096,0.02313
6.1,0.00138
6.104,0.00628
6.108,0.02602
6.112,0.03128
6.116,0.05766
6.12,0.03174
6.124,0.04425
6.128,0.02407
6.132,0.02799
6.136,0.05295
6.14,0.01634
6.144,0.03002
6.148,0.05942
6.152,0.01682
6.156,0.00577
6.16,0.02247
6.164,0.03703
6.168,0.03463
6.172,0.03541
6.176,0.058
6.18,0.02799
6.184,0.04083
6.188,0.01712
6.192,0.01961
6.196,0.03502
6.2,0.02855
6.204,0.03026
6.208,0.01295
6.212,0.03544
6.216,0.04083
6.22,0.02519
6.224,0.04449
6.228,0.04874
6.232,-0.02037
6.236,0.03593
6.24,0.0461
6.244,0.04555
6.248,0.02097
6.252,0.01037
6.256,0.01873
6.26,0.03359
6.264,0.04655
6.268,0.02724
6.272,0.03932
6.276,0.0397
6.28,0.01701
6.284,0.03906
6.288,0.03666
6.292,0.03258
6.296,0.03649
6.3,0.02246
6.304,0.04388
6.308,0.01948
6.312,0.04711
6.316,0.03859
6.32,0.02914
6.324,0.02116
6.328,0.03685
6.332,0.01848
6.336,0.01972
6.34,0.00828
6.344,0.02593
6.348,0.04123
6.352,0.02212
6.356,0.02724
6.36,0.01321
6.364,0.02398
6.368,0.02371
6.372,0.04797
6.376,0.03825
6.38,0.02109
6.384,0.04122
6.388,0.04359
6.392,0.0125
6.396,0.03533
6.4,0.03688
6.404,0.03165
6.408,0.01527
6.412,0.04015
6.416,0.02333
6.42,0.03669
6.424,0.04269
6.428,0.04318
6.432,0.05646
6.436,0.06316
6.44,0.08414
6.444,0.07433
6.448,0.09103
6.452,0.10836
6.456,0.14904
6.46,0.15488
6.464,0.10716
6.468,0.13725
6.472,0.17092
6.476,0.12109
6.48,0.13187
6.484,0.11067
6.488,0.06608
6.492,0.0733
6.496,0.05716
6.5,0.06456
6.504,0.07754
6.508,0.02185
6.512,0.02497
6.516,0.03409
6.52,0.03029
6.524,0.04164
6.528,0.03746
6.532,0.02031
6.536,0.01964
6.54,0.04258
6.544,0.0477
6.548,0.02434
6.552,0.04168
6.556,0.03409
6.56,0.03096
6.564,0.01987
6.568,0.02148
6.572,0.03941
6.576,0.04047
6.58,0.02233
6.584,-0.01082
6.588,-0.06546
6.592,-0.08092
6.596,-0.10121
6.6,-0.04041
6.604,0.10451
6.608,0.22332
6.612,0.4404
6.616,0.67669
6.62,0.85246
6.624,0.99058
6.628,1.03788
6.632,0.94574
6.636,0.78286
6.64,0.55096
6.644,0.29971
6.648,0.12757
6.652,-0.03841
6.656,-0.1168
6.66,-0.12193
6.664,-0.12065
6.668,-0.0992
6.672,-0.0301
6.676,-0.02784
6.68,-0.01864
6.684,0.02064
6.688,0.01722
6.692,0.03641
6.696,0.02629
6.7,0.04252
6.704,0.04921
6.708,0.00368
6.712,0.04125
6.716,0.02621
6.72,0.03898
6.724,0.0216
6.728,0.01967
6.732,-0.00165
6.736,0.02603
6.74,0.00228
6.744,0.01588
6.748,0.05173
6.752,0.04338
6.756,0.03012
6.76,0.06042
6.764,0.04108
6.768,0.02881
6.772,0.01504
6.776,0.04911
6.78,0.05139
6.784,0.08361
6.788,0.03956
6.792,0.02223
6.796,0.04312
6.8,0.01816
6.804,0.0379
6.808,0.05373
6.812,0.04839
6.816,0.04905
6.82,0.05898
6.824,0.08351
6.828,0.06571
6.832,0.07025
6.836,0.08216
6.84,0.08989
6.844,0.11323
6.848,0.07981
6.852,0.12572
6.856,0.13357
6.86,0.15514
6.864,0.17698
6.868,0.18125
6.872,0.18645
6.876,0.18673
6.88,0.21482
6.884,0.22227
6.888,0.21755
6.892,0.22895
6.896,0.23993
6.9,0.23083
6.904,0.22678
6.908,0.26159
6.912,0.23501
6.916,0.23387
6.92,0.2547
6.924,0.2402
6.928,0.22285
6.932,0.20133
6.936,0.18604
6.94,0.18784
6.944,0.15125
6.948,0.16606
6.952,0.15972
6.956,0.13552
6.96,0.11364
6.964,0.1487
6.968,0.09715
6.972,0.09143
6.976,0.09725
6.98,0.09855
6.984,0.08045
6.988,0.05873
6.992,0.06359
6.996,0.07612
7.0,0.04776
7.004,0.04784
7.008,0.05371
7.012,0.02851
7.016,0.03678
7.02,0.01825
7.024,0.02679
7.028,0.01048
7.032,0.02029
7.036,0.0297
7.04,0.02535
7.044,0.02812
7.048,0.01991
7.052,0.00596
7.056,0.0051
7.06,0.03213
7.064,0.03058
7.068,0.01836
7.072,0.02124
7.076,0.05432
7.08,0.04781
7.084,0.02518
7.088,0.0127
7.092,0.03542
7.096,0.02525
7.1,0.01747
7.104,0.0134
7.108,0.04254
7.112,0.033
7.116,0.03252
7.12,0.02253
7.124,0.0301
7.128,0.02768
7.132,-0.01572
7.136,0.0305
7.14,0.03187
7.144,0.01391
7.148,0.02856
7.152,0.00787
7.156,0.0101
7.16,-0.01886
7.164,0.05489
7.168,0.029
7.172,0.02331
7.176,0.00566
7.18,0.00589
7.184,0.01839
7.188,0.02694
7.192,0.02267
7.196,0.00894
7.2,0.03783
7.204,0.03657
7.208,0.01767
7.212,0.0585
7.216,0.03292
7.22,0.00525
7.224,0.01202
7.228,-0.00238
7.232,0.02167
7.236,0.00366
7.24,0.04181
7.244,0.03273
7.248,0.03371
7.252,0.03237
7.256,0.00058
7.26,-0.01044
7.264,0.01339
7.268,0.02735
7.272,0.01798
7.276,0.02816
7.28,0.00987
7.284,0.01487
7.288,-0.01462
7.292,0.01589
7.296,0.00606
7.3,0.04233
7.304,0.02196
7.308,0.03344
7.312,-0.00864
7.316,-0.00507
7.32,-0.00331
7.324,0.00938
7.328,0.01095
7.332,0.00015
7.336,0.01715
7.34,-0.00643
7.344,0.01084
7.348,0.01885
7.352,0.0102
7.356,0.00019
7.36,0.02371
7.364,0.00749
7.368,0.01034
7.372,0.01415
7.376,0.01024
7.38,0.01732
7.384,-0.01215
7.388,0.01415
7.392,-0.00794
7.396,0.0043
7.4,0.04488
7.404,0.02292
7.408,0.01914
7.412,0.02427
7.416,0.00547
7.42,0.00821
7.424,0.00601
7.428,0.02748
7.432,-0.01643
7.436,0.02262
7.44,-0.00252
7.444,0.01283
7.448,0.00757
7.452,-0.00241
7.456,-0.00261
7.46,-0.01312
7.464,0.02409
7.468,0.01576
7.472,0.00958
7.476,0.00852
7.48,0.03104
7.484,-0.00014
7.488,-0.00401
7.492,0.00933
7.496,0.01045
7.5,0.01414
7.504,0.01904
7.508,-0.00931
7.512,0.01937
7.516,0.03888
7.52,0.05607
7.524,0.04693
7.528,0.02625
7.532,0.05646
7.536,0.06078
7.54,0.11055
7.544,0.06703
7.548,0.09974
7.552,0.13378
7.556,0.0858
7.56,0.10644
7.564,0.08154
7.568,0.10026
7.572,0.09323
7.576,0.06993
7.58,0.05142
7.584,0.06722
7.588,0.01787
7.592,0.03985
7.596,0.01368
7.6,0.02763
7.604,0.02163
7.608,-0.00568
7.612,0.01292
7.616,-0.00947
7.62,0.03736
7.624,0.00273
7.628,0.01514
7.632,0.01825
7.636,0.03333
7.64,-0.01165
7.644,0.01631
7.648,-0.0025
7.652,0.00603
7.656,0.01368
7.66,0.01962
7.664,-0.00103
7.668,-0.00735
7.672,-0.03287
7.676,-0.01195
7.68,-0.09099
7.684,-0.05492
7.688,-0.09975
7.692,-0.01004
7.696,0.10417
7.7,0.29554
7.704,0.51281
7.708,0.7243
7.712,0.8946
7.716,0.98959
7.72,0.98537
7.724,0.86349
7.728,0.68498
7.732,0.45058
7.736,0.19996
7.74,0.03571
7.744,-0.09024
7.748,-0.14721
7.752,-0.17584
7.756,-0.12408
7.76,-0.08983
7.764,-0.04856
7.768,-0.02168
7.772,-0.00654
7.776,0.01563
7.78,0.00265
7.784,0.00793
7.788,0.0098
7.792,0.01928
7.796,-0.02018
7.8,-0.01602
7.804,0.0058
7.808,0.01505
7.812,-0.0145
7.816,0.01364
7.82,-0.00625
7.824,0.00791
7.828,-0.0039
7.832,0.00059
7.836,0.01318
7.84,0.02934
7.844,-0.00188
7.848,-0.02055
7.852,0.00827
7.856,0.01161
7.86,0.0026
7.864,0.01289
7.868,-0.00378
7.872,0.00136
7.876,0.01759
7.88,0.00574
7.884,0.03104
7.888,0.02664
7.892,-0.00079
7.896,0.00455
7.9,0.02759
7.904,0.03318
7.908,0.01309
7.912,0.02293
7.916,0.04692
7.92,0.04648
7.924,0.05597
7.928,0.08507
7.932,0.09156
7.936,0.09192
7.94,0.09751
7.944,0.10288
7.948,0.12479
7.952,0.09531
7.956,0.13419
7.96,0.15448
7.964,0.15214
7.968,0.18539
7.972,0.15192
7.976,0.20744
7.98,0.19342
7.984,0.19699
7.988,0.22538
7.992,0.20482
7.996,0.22949
8.0,0.22076
8.004,0.22848
8.008,0.22966
8.012,0.21476
8.016,0.1982
8.02,0.20606
8.024,0.19165
8.028,0.17119
8.032,0.19077
8.036,0.15163
8.04,0.13696
8.044,0.14845
8.048,0.14715
8.052,0.11862
8.056,0.10088
8.06,0.07631
8.064,0.0894
8.068,0.0294
8.072,0.05899
8.076,0.05511
8.08,0.05591
8.084,0.01515
8.088,0.03635
8.092,-0.00449
8.096,0.05185
8.1,0.00525
8.104,0.00287
8.108,-0.02397
8.112,0.01073
8.116,-0.00431
8.12,0.00798
8.124,-0.01348
8.128,0.00647
8.132,-0.01671
8.136,-0.00143
8.14,-0.01605
8.144,0.03863
8.148,0.00527
8.152,-0.02168
8.156,-0.00398
8.16,-0.02267
8.164,-0.01928
8.168,-0.00068
8.172,0.01095
8.176,0.00034
8.18,-0.00792
8.184,0.00322
8.188,-0.00313
8.192,0.00202
8.196,0.01026
8.2,0.00631
8.204,-0.02237
8.208,-0.02426
8.212,0.00259
8.216,-0.0162
8.22,-0.01437
8.224,-0.02355
8.228,-0.03922
8.232,-0.0024
8.236,-0.01259
8.24,0.00733
8.244,-0.01661
8.248,-0.00608
8.252,0.00804
8.256,-0.01392
8.26,-0.00976
8.264,-0.01414
8.268,0.00401
8.272,-0.01723
8.276,0.00753
8.28,-0.03222
8.284,-0.0199
8.288,0.00758
8.292,0.00782
8.296,-0.00213
8.3,-0.04017
8.304,-0.00712
8.308,-0.02449
8.312,-0.01676
8.316,0.006
8.32,-0.0001
8.324,-0.00237
8.328,-0.0256
8.332,-0.02286
8.336,-0.01606
8.34,-0.00746
8.344,0.00081
8.348,0.03457
8.352,-0.00033
8.356,-0.01585
8.36,0.01185
8.364,-0.00887
8.368,-0.01387
8.372,-0.02184
8.376,-0.01078
8.38,-0.00639
8.384,-0.00486
8.388,-0.00703
8.392,-0.00325
8.396,-0.04342
8.4,-0.00457
8.404,-0.02471
8.408,-0.00763
8.412,-0.02534
8.416,-0.00504
8.42,-0.03257
8.424,-0.00553
8.428,-0.02091
8.432,-0.00623
8.436,-0.0067
8.44,-0.02687
8.444,-0.03832
8.448,-0.02505
8.452,0.00343
8.456,-0.02498
8.46,-0.01609
8.464,-0.00839
8.468,-0.02822
8.472,-0.01941
8.476,-0.00023
8.48,-0.03883
8.484,-0.00721
8.488,-0.00394
8.492,-0.04413
8.496,-0.00141
8.5,-0.03615
8.504,-0.00879
8.508,-0.00817
8.512,-0.01485
8.516,-0.00098
8.52,0.00154
8.524,-0.01771
8.528,-0.01821
8.532,-0.04406
8.536,-0.01627
8.54,-0.00157
8.544,-0.01954
8.548,-0.01813
8.552,0.01375
8.556,-0.02193
8.56,-0.03418
8.564,-0.01169
8.568,-0.00502
8.572,-0.02573
8.576,-0.05283
8.58,-0.02962
8.584,-0.00699
8.588,-0.02435
8.592,0.01198
8.596,-0.03568
8.6,-0.01912
8.604,-0.02728
8.608,-0.00284
8.612,-0.00626
8.616,-0.02525
8.62,-0.00782
8.624,-0.00726
8.628,0.00097
8.632,-0.00812
8.636,-0.00986
8.64,-0.03828
8.644,-0.00992
8.648,-0.04017
8.652,0.0018
8.656,-0.02156
8.66,-0.02966
8.664,-0.02259
8.668,-0.01522
8.672,-0.01107
8.676,-0.01877
8.68,0.00072
8.684,-0.03903
8.688,-0.02171
8.692,-0.05423
8.696,-0.01253
8.7,-0.01095
8.704,-0.00757
8.708,0.01022
8.712,0.00483
8.716,0.0294
8.72,-0.02045
8.724,0.02464
8.728,0.05274
8.732,0.03932
8.736,0.04757
8.74,0.09922
8.744,0.09591
8.748,0.10408
8.752,0.07271
8.756,0.07509
8.76,0.06228
8.764,0.04053
8.768,0.05138
8.772,0.02631
8.776,0.01501
8.78,0.00327
8.784,-0.01473
8.788,-0.03312
8.792,0.00382
8.796,-0.03277
8.8,-0.01297
8.804,-0.01231
8.808,0.00513
8.812,-0.02239
8.816,-0.00432
8.82,-0.00075
8.824,0.01836
8.828,0.00398
8.832,0.00144
8.836,-0.02469
8.84,-0.01119
8.844,-0.05033
8.848,-0.06263
8.852,-0.04135
8.856,-0.02597
8.86,-0.04936
8.864,-0.0613
8.868,-0.08037
8.872,-0.15063
8.876,-0.15395
8.88,-0.06248
8.884,0.04871
8.888,0.21699
8.892,0.45603
8.896,0.63945
8.9,0.82764
8.904,0.9501
8.908,0.96911
8.912,0.87228
8.916,0.67505
8.92,0.42985
8.924,0.21827
8.928,0.06163
8.932,-0.07825
8.936,-0.16152
8.94,-0.18197
8.944,-0.171
8.948,-0.14236
8.952,-0.08625
8.956,-0.03796
8.96,-0.04096
8.964,-0.00543
8.968,-0.04119
8.972,-0.02466
8.976,-0.02597
8.98,-0.00682
8.984,-0.01117
8.988,-0.04
8.992,-0.06025
8.996,-0.04384
9.0,-0.00698
9.004,-0.014
9.008,0.00628
9.012,-0.02745
9.016,-0.00508
9.02,-0.02484
9.024,-0.02079
9.028,-0.02843
9.032,-0.00239
9.036,-0.02077
9.04,-0.0143
9.044,-0.01888
9.048,-0.00983
9.052,-0.01018
9.056,-0.01447
9.06,-0.00315
9.064,-0.02912
9.068,-0.01654
9.072,-0.029
9.076,-0.01511
9.08,-0.02463
9.084,-0.02504
9.088,-0.02473
9.092,-0.00489
9.096,0.00536
9.1,-0.02259
9.104,0.00534
9.108,0.02776
9.112,0.02137
9.116,0.05131
9.12,0.03975
9.124,0.05417
9.128,0.08123
9.132,0.0643
9.136,0.08027
9.14,0.11927
9.144,0.12278
9.148,0.11039
9.152,0.12369
9.156,0.16293
9.16,0.15807
9.164,0.17225
9.168,0.20379
9.172,0.17407
9.176,0.19456
9.18,0.21093
9.184,0.19639
9.188,0.18454
9.192,0.1923
9.196,0.1885
9.2,0.1704
9.204,0.19398
9.208,0.15224
9.212,0.15807
9.216,0.12417
9.22,0.14251
9.224,0.12722
9.228,0.10673
9.232,0.11258
9.236,0.10367
9.24,0.08801
9.244,0.03871
9.248,0.0746
9.252,0.03786
9.256,0.02381
9.26,0.0373
9.264,0.0401
9.268,0.03787
9.272,0.00904
9.276,-0.01347
9.28,0.0016
9.284,-0.00698
9.288,-0.02731
9.292,-0.03951
9.296,-0.01086
9.3,-0.02569
9.304,-0.05416
9.308,-0.01103
9.312,-0.04055
9.316,-0.01693
9.32,-0.0557
9.324,-0.03891
9.328,-0.07148
9.332,-0.01054
9.336,-0.02617
9.34,-0.03516
9.344,-0.02433
9.348,-0.02297
9.352,-0.02849
9.356,-0.04908
9.36,-0.01945
9.364,-0.03754
9.368,-0.02549
9.372,-0.03642
9.376,-0.02996
9.38,-0.02699
9.384,-0.02378
9.388,-0.01577
9.392,-0.01084
9.396,-0.0244
9.4,-0.01422
9.404,-0.03573
9.408,-0.02537
9.412,-0.04686
9.416,-0.03351
9.42,-0.02375
9.424,-0.05673
9.428,-0.04773
9.432,-0.0528
9.436,-0.03091
9.44,-0.01991
9.444,-0.0111
9.448,-0.02138
9.452,-0.02674
9.456,-0.03251
9.46,-0.04207
9.464,-0.03784
9.468,0.00225
9.472,-0.03886
9.476,-0.02675
9.48,-0.0065
9.484,-0.02398
9.488,-0.03542
9.492,-0.02324
9.496,-0.02848
9.5,-0.03377
9.504,-0.0199
9.508,-0.0373
9.512,-0.0209
9.516,-0.03568
9.52,-0.04184
9.524,-0.06193
9.528,-0.05141
9.532,-0.01855
9.536,-0.01702
9.54,-0.01599
9.544,0.00357
9.548,-0.03933
9.552,-0.02491
9.556,-0.02419
9.56,-0.02783
9.564,-0.05095
9.568,-0.05905
9.572,-0.00611
9.576,-0.03754
9.58,-0.04337
9.584,-0.01755
9.588,-0.04505
9.592,-0.04359
9.596,-0.02417
9.6,-0.03853
9.604,-0.0237
9.608,-0.01453
9.612,-0.0463
9.616,-0.03603
9.62,-0.03043
9.624,-0.06926
9.628,-0.01413
9.632,-0.05086
9.636,-0.01908
9.64,-0.05127
9.644,-0.01729
9.648,-0.03633
9.652,-0.04325
9.656,-0.01405
9.66,-0.03342
9.664,-0.02365
9.668,-0.03957
9.672,-0.02271
9.676,-0.01595
9.68,-0.0226
9.684,-0.02164
9.688,-0.03683
9.692,-0.01744
9.696,-0.00655
9.7,-0.04017
9.704,-0.03651
9.708,-0.0463
9.712,-0.05387
9.716,-0.02947
9.72,-0.0557
9.724,-0.03036
9.728,-0.02701
9.732,-0.0258
9.736,-0.0282
9.74,-0.02285
9.744,-0.04949
9.748,-0.04985
9.752,-0.02402
9.756,-0.01779
9.76,-0.03836
9.764,-0.04841
9.768,-0.0251
9.772,-0.02423
9.776,-0.03342
9.78,-0.02613
9.784,-0.00667
9.788,-0.07167
9.792,-0.037
9.796,-0.03726
9.8,0.00663
9.804,-0.0235
9.808,-0.02983
9.812,-0.01562
9.816,-0.02796
9.82,-0.03345
9.824,-0.05295
9.828,-0.01642
9.832,-0.03303
9.836,-0.03302
9.84,-0.04588
9.844,-0.02442
9.848,-0.03143
9.852,-0.01794
9.856,-0.04508
9.86,-0.02599
9.864,-0.05673
9.868,-0.02001
9.872,-0.00828
9.876,-0.0419
9.88,-0.02243
9.884,-0.02428
9.888,-0.03449
9.892,-0.00109
9.896,-0.01393
9.9,-0.04211
9.904,-0.03383
9.908,-0.02543
9.912,-0.03101
9.916,-0.02191
9.92,-0.04221
9.924,-0.02516
9.928,-0.04706
9.932,-0.02161
9.936,-0.03898
9.94,-0.02747
9.944,-0.0458
9.948,-0.01503
9.952,-0.03579
9.956,-0.03635
9.96,-0.00723
9.964,-0.03223
9.968,-0.04886
9.972,-0.03772
9.976,-0.03525
9.98,-0.022
9.984,-0.02658
9.988,-0.01881
9.992,-0.05347
9.996,-0.02675
