t_seg,ecg_mV
0.0,0.02494
0.004,0.00812
0.008,0.02223
0.012,0.0113
0.016,0.00247
0.02,0.01981
0.024,0.03458
0.028,0.02628
0.032,0.02682
0.036,0.0418
0.04,0.02974
0.044,0.02256
0.048,0.0187
0.052,0.04242
0.056,0.01444
0.06,0.01483
0.064,0.03235
0.068,0.03533
0.072,0.00588
0.076,0.03104
0.08,0.0201
0.084,0.02353
0.088,0.01689
0.092,0.02028
0.096,0.04044
0.1,0.02953
0.104,0.01168
0.108,0.01577
0.112,0.00514
0.116,-0.00738
0.12,0.01134
0.124,0.03182
0.128,0.0289
0.132,0.00675
0.136,0.05341
0.14,0.03365
0.144,0.01067
0.148,0.02046
0.152,0.02121
0.156,0.01509
0.16,0.04134
0.164,0.04434
0.168,0.0193
0.172,0.02619
0.176,0.02498
0.18,0.0148
0.184,0.00202
0.188,0.0001
0.192,0.02295
0.196,0.02053
0.2,0.01843
0.204,0.01965
0.208,0.02144
0.212,0.01218
0.216,-0.00784
0.22,-0.01115
0.224,0.03223
0.228,0.01711
0.232,-0.00296
0.236,0.00474
0.24,0.02225
0.244,0.03742
0.248,0.03245
0.252,0.0215
0.256,0.02082
0.26,-0.00046
0.264,0.0184
0.268,0.00696
0.272,0.01618
0.276,-0.00869
0.28,0.02101
0.284,0.00695
0.288,0.0264
0.292,-0.00839
0.296,0.02267
0.3,0.01565
0.304,0.00364
0.308,0.01744
0.312,0.00137
0.316,0.03029
0.32,-0.01122
0.324,0.04937
0.328,-0.0021
0.332,-0.01063
0.336,-0.01674
0.34,0.01725
0.344,0.00525
0.348,-0.00468
0.352,-0.00488
0.356,-0.01096
0.36,0.01826
0.364,0.01705
0.368,0.01866
0.372,-0.0062
0.376,0.02491
0.38,0.01565
0.384,0.03126
0.388,0.02818
0.392,0.05739
0.396,0.07956
0.4,0.07318
0.404,0.09098
0.408,0.09562
0.412,0.08974
0.416,0.11257
0.42,0.09601
0.424,0.10704
0.428,0.10867
0.432,0.10983
0.436,0.06547
0.44,0.07994
0.444,0.07866
0.448,0.04696
0.452,0.03949
0.456,0.03607
0.46,0.03035
0.464,0.01535
0.468,0.02341
0.472,-0.02663
0.476,-0.00666
0.48,0.00866
0.484,0.02538
0.488,-0.00767
0.492,-0.00896
0.496,-0.00303
0.5,0.01822
0.504,-0.00608
0.508,0.01808
0.512,0.0347
0.516,0.01285
0.52,0.0291
0.524,0.02107
0.528,0.02802
0.532,-0.0155
0.536,-0.04625
0.54,-0.05718
0.544,-0.07815
0.548,-0.109
0.552,-0.02837
0.556,0.07282
0.56,0.25741
0.564,0.44515
0.568,0.67857
0.572,0.85671
0.576,1.00473
0.58,0.99493
0.584,0.91255
0.588,0.73808
0.592,0.45901
0.596,0.28446
0.6,0.06902
0.604,-0.0654
0.608,-0.15171
0.612,-0.18745
0.616,-0.15262
0.62,-0.09918
0.624,-0.07472
0.628,-0.02293
0.632,0.004
0.636,-0.0124
0.64,-0.00388
0.644,0.01862
0.648,-0.01656
0.652,0.01444
0.656,-0.01909
0.66,0.02087
0.664,0.0036
0.668,-0.00459
0.672,0.00172
0.676,0.03181
0.68,-0.01537
0.684,-0.0141
0.688,0.01835
0.692,0.01773
0.696,0.00038
0.7,0.01562
0.704,0.00345
0.708,0.01417
0.712,0.00445
0.716,0.00827
0.72,0.00848
0.724,-0.00136
0.728,0.00635
0.732,0.01484
0.736,0.01035
0.74,-0.00897
0.744,0.01568
0.748,0.04777
0.752,0.0295
0.756,0.02625
0.76,0.01807
0.764,0.00481
0.768,0.02607
0.772,0.01978
0.776,0.04589
0.78,0.02212
0.784,0.05721
0.788,0.05438
0.792,0.07633
0.796,0.07742
0.8,0.10347
0.804,0.0729
0.808,0.1108
0.812,0.13159
0.816,0.15844
0.82,0.14808
0.824,0.15388
0.828,0.16714
0.832,0.19014
0.836,0.1908
0.84,0.18303
0.844,0.19642
0.848,0.19606
0.852,0.20992
0.856,0.21441
0.86,0.23193
0.864,0.21727
0.868,0.19687
0.872,0.205
0.876,0.18797
0.88,0.18585
0.884,0.1795
0.888,0.17428
0.892,0.15764
0.896,0.15615
0.9,0.1567
0.904,0.1478
0.908,0.14347
0.912,0.09868
0.916,0.08386
0.92,0.07433
0.924,0.07843
0.928,0.05531
0.932,0.05204
0.936,0.02509
0.94,0.03281
0.944,0.05061
0.948,0.00519
0.952,0.00864
0.956,0.01238
0.96,0.0201
0.964,-0.00155
0.968,0.02047
0.972,0.02327
0.976,0.0229
0.98,0.00767
0.984,-0.00085
0.988,-0.0158
0.992,-0.00308
0.996,-0.00026
1.0,-0.03555
1.004,-0.00202
1.008,-0.00114
1.012,0.00335
1.016,0.0285
1.02,-0.00198
1.024,0.00083
1.028,0.00821
1.032,-0.00745
1.036,-0.00375
1.04,-0.033
1.044,-0.02247
1.048,-0.01355
1.052,-0.03442
1.056,0.00597
1.06,0.00118
1.064,0.00154
1.068,-0.00842
1.072,-0.0484
1.076,0.00358
1.08,-0.00911
1.084,0.02056
1.088,0.00474
1.092,-0.02945
1.096,-0.03613
1.1,-0.01244
1.104,-0.01047
1.108,-0.0068
1.112,0.01789
1.116,0.01934
1.12,0.00369
1.124,-0.00117
1.128,-0.01048
1.132,0.00251
1.136,-0.03651
1.14,0.00438
1.144,-0.00909
1.148,0.01663
1.152,-0.03918
1.156,0.00318
1.16,-0.0019
1.164,-0.01163
1.168,0.01391
1.172,-0.0262
1.176,-0.03005
1.18,-0.02155
1.184,0.00252
1.188,0.00179
1.192,-0.032
1.196,-0.00517
1.2,0.02814
1.204,-0.02424
1.208,-0.02534
1.212,-0.01564
1.216,-0.00493
1.22,-0.02635
1.224,-0.00399
1.228,-0.00677
1.232,-0.00648
1.236,-0.04242
1.24,-0.01512
1.244,-0.02239
1.248,-0.00574
1.252,-0.06502
1.256,0.00249
1.26,0.00066
1.264,-0.03813
1.268,-0.00996
1.272,-0.03844
1.276,-0.04052
1.28,-0.00507
1.284,0.0011
1.288,-0.01842
1.292,0.0042
1.296,-0.02548
1.3,0.00275
1.304,-0.0109
1.308,0.00434
1.312,-0.00029
1.316,-0.01863
1.32,-0.02637
1.324,-0.01219
1.328,-0.00787
1.332,0.00534
1.336,-0.02583
1.34,-0.01755
1.344,-0.02543
1.348,0.00807
1.352,-0.041
1.356,-0.02318
1.36,-0.00756
1.364,-0.01373
1.368,-0.02738
1.372,-0.01435
1.376,-0.0021
1.38,-0.01613
1.384,-0.00857
1.388,-0.0191
1.392,0.01743
1.396,-0.01985
1.4,-0.01511
1.404,-0.02939
1.408,-0.03292
1.412,-0.02376
1.416,-0.00176
1.42,-0.01658
1.424,-0.00665
1.428,-0.02777
1.432,-0.03883
1.436,-0.00946
1.44,-0.02195
1.444,-0.01743
1.448,-0.00982
1.452,-0.00492
1.456,-0.00716
1.46,-0.01421
1.464,-0.03167
1.468,-0.01293
1.472,-0.03038
1.476,-0.01695
1.48,-0.02604
1.484,-0.03928
1.488,-0.01233
1.492,0.00809
1.496,-0.01387
1.5,-0.03042
1.504,-0.03426
1.508,-0.01046
1.512,-0.03164
1.516,-0.04052
1.52,-0.01912
1.524,-0.01843
1.528,-0.01705
1.532,-0.01153
1.536,-0.03359
1.54,-0.01941
1.544,-0.00918
1.548,-0.01309
1.552,0.00111
1.556,-0.02709
1.56,-0.02662
1.564,-0.03061
1.568,-0.00337
1.572,-0.01436
1.576,-0.00533
1.58,-0.02244
1.584,-0.0065
1.588,0.00354
1.592,0.01332
1.596,0.00834
1.6,0.02982
1.604,0.0315
1.608,0.07075
1.612,0.04513
1.616,0.07178
1.62,0.05169
1.624,0.04053
1.628,0.05945
1.632,0.0953
1.636,0.09354
1.64,0.05778
1.644,0.0392
1.648,0.0071
1.652,0.0298
1.656,0.01251
1.66,0.00044
1.664,-0.00221
1.668,-0.01597
1.672,0.02283
1.676,-0.03555
1.68,-0.01208
1.684,-0.01963
1.688,-0.01424
1.692,-0.01751
1.696,-0.02526
1.7,-0.03706
1.704,-0.01616
1.708,-0.02601
1.712,-0.02627
1.716,-0.02547
1.72,-0.04118
1.724,-0.02667
1.728,-0.02834
1.732,-0.00532
1.736,-0.0191
1.74,-0.06543
1.744,-0.06957
1.748,-0.14345
1.752,-0.15735
1.756,-0.1099
1.76,-0.04231
1.764,0.11447
1.768,0.30883
1.772,0.50141
1.776,0.7382
1.78,0.89014
1.784,0.95537
1.788,0.94904
1.792,0.80664
1.796,0.62397
1.8,0.38225
1.804,0.16068
1.808,-0.03266
1.812,-0.12814
1.816,-0.18984
1.82,-0.18625
1.824,-0.14198
1.828,-0.11839
1.832,-0.04929
1.836,-0.03748
1.84,-0.0424
1.844,-0.02524
1.848,-0.01847
1.852,-0.01779
1.856,-0.03111
1.86,-0.04862
1.864,-0.03418
1.868,-0.02478
1.872,-0.02678
1.876,-0.03577
1.88,-0.02013
1.884,-0.02252
1.888,-0.01496
1.892,-0.01821
1.896,-0.01216
1.9,-0.05125
1.904,-0.0209
1.908,-0.06452
1.912,-0.02968
1.916,-0.02324
1.92,-0.04011
1.924,-0.00783
1.928,-0.00982
1.932,-0.02322
1.936,-0.0088
1.94,-0.00374
1.944,-0.0524
1.948,-0.01944
1.952,-0.01727
1.956,0.02426
1.96,-0.02724
1.964,-0.00503
1.968,0.02682
1.972,0.00563
1.976,0.01009
1.98,0.05924
1.984,0.02005
1.988,0.03417
1.992,0.04
1.996,0.01127
2.0,0.03768
2.004,0.04272
2.008,0.06509
2.012,0.07929
2.016,0.11116
2.02,0.1255
2.024,0.14103
2.028,0.13918
2.032,0.14132
2.036,0.14024
2.04,0.10903
2.044,0.18602
2.048,0.18813
2.052,0.1818
2.056,0.18675
2.06,0.19564
2.064,0.19288
2.068,0.19163
2.072,0.1943
2.076,0.1756
2.08,0.16334
2.084,0.16604
2.088,0.15779
2.092,0.16137
2.096,0.14693
2.1,0.12734
2.104,0.1695
2.108,0.10779
2.112,0.09152
2.116,0.08289
2.12,0.08939
2.124,0.07337
2.128,0.04758
2.132,0.03076
2.136,0.06703
2.14,0.00969
2.144,0.00205
2.148,0.01118
2.152,0.00614
2.156,0.00316
2.16,-0.01742
2.164,0.00394
2.168,-0.01359
2.172,0.00164
2.176,-0.01832
2.18,-0.00878
2.184,-0.02027
2.188,-0.00444
2.192,-0.00812
2.196,-0.03734
2.2,-0.02145
2.204,-0.00755
2.208,-0.02772
2.212,-0.01202
2.216,-0.03507
2.22,-0.03442
2.224,-0.01048
2.228,-0.03385
2.232,-0.04456
2.236,-0.03049
2.24,-0.02814
2.244,-0.02159
2.248,-0.02552
2.252,-0.02402
2.256,-0.01124
2.26,-0.01654
2.264,-0.04177
2.268,-0.0465
2.272,-0.00806
2.276,-0.02722
2.28,-0.0227
2.284,-0.03671
2.288,-0.02437
2.292,-0.02785
2.296,-0.0479
2.3,-0.01086
2.304,-0.04517
2.308,-0.0259
2.312,-0.03519
2.316,-0.02516
2.32,-0.02275
2.324,-0.04254
2.328,-0.0116
2.332,-0.01957
2.336,-0.04251
2.34,-0.03893
2.344,-0.0302
2.348,-0.00909
2.352,-0.03308
2.356,-0.03889
2.36,-0.01191
2.364,-0.02958
2.368,-0.03534
2.372,-0.01932
2.376,-0.04596
2.38,-0.00115
2.384,-0.01563
2.388,-0.01646
2.392,0.00091
2.396,-0.03399
2.4,-0.02791
2.404,0.00198
2.408,-0.05734
2.412,-0.0275
2.416,-0.02441
2.42,-0.02246
2.424,-0.01441
2.428,-0.04366
2.432,-0.05376
2.436,-0.03825
2.44,-0.06159
2.444,-0.02582
2.448,-0.02566
2.452,-0.05831
2.456,-0.03388
2.46,-0.0475
2.464,-0.01675
2.468,-0.0341
2.472,-0.0228
2.476,-0.04588
2.48,-0.0258
2.484,-0.02
2.488,-0.04179
2.492,-0.03131
2.496,-0.02057
2.5,-0.0277
2.504,-0.05431
2.508,-0.03287
2.512,-0.02496
2.516,-0.03899
2.52,-0.02039
2.524,-0.0542
2.528,-0.01587
2.532,-0.03209
2.536,-0.01282
2.54,-0.03356
2.544,-0.03426
2.548,-0.02831
2.552,0.00122
2.556,-0.02775
2.56,-0.03985
2.564,-0.0196
2.568,-0.03372
2.572,-0.01456
2.576,-0.02254
2.58,-0.03536
2.584,-0.02006
2.588,-0.01474
2.592,-0.03685
2.596,-0.06045
2.6,-0.03013
2.604,-0.02516
2.608,-0.03646
2.612,-0.00227
2.616,-0.02298
2.62,-0.02609
2.624,-0.0626
2.628,-0.0294
2.632,-0.05602
2.636,-0.03489
2.64,-0.01832
2.644,-0.02884
2.648,-0.00809
2.652,-0.01675
2.656,-0.001
2.66,-0.01508
2.664,0.01407
2.668,0.00568
2.672,0.04419
2.676,0.07661
2.68,0.06718
2.684,0.0375
2.688,0.05445
2.692,0.05314
2.696,0.0654
2.7,0.06205
2.704,0.0406
2.708,0.05367
2.712,0.02629
2.716,0.03174
2.72,0.00133
2.724,-0.00159
2.728,-0.01774
2.732,-0.0167
2.736,-0.02778
2.74,-0.00505
2.744,-0.02479
2.748,-0.01077
2.752,-0.01671
2.756,-0.02277
2.76,-0.01043
2.764,-0.02777
2.768,-0.02566
2.772,-0.05921
2.776,-0.03502
2.78,-0.02856
2.784,-0.01948
2.788,-0.01573
2.792,-0.03041
2.796,-0.06737
2.8,-0.02447
2.804,-0.05266
2.808,-0.09774
2.812,-0.12833
2.816,-0.12971
2.82,-0.12015
2.824,-0.02057
2.828,0.11049
2.832,0.30892
2.836,0.53082
2.84,0.72164
2.844,0.8823
2.848,0.96159
2.852,0.93399
2.856,0.77267
2.86,0.60469
2.864,0.37838
2.868,0.14751
2.872,-0.02189
2.876,-0.14965
2.88,-0.2101
2.884,-0.18128
2.888,-0.14107
2.892,-0.09845
2.896,-0.09003
2.9,-0.0294
2.904,-0.02859
2.908,-0.03561
2.912,-0.02184
2.916,-0.02793
2.92,-0.04402
2.924,-0.02906
2.928,-0.00599
2.932,-0.03789
2.936,-0.03081
2.94,-0.04626
2.944,-0.03479
2.948,-0.03296
2.952,-0.00089
2.956,-0.01693
2.96,-0.02935
2.964,-0.00849
2.968,-0.01655
2.972,-0.04401
2.976,-0.02
2.98,-0.01954
2.984,-0.03643
2.988,-0.02367
2.992,-0.02236
2.996,-0.05045
3.0,-0.01726
3.004,-0.01235
3.008,-0.01107
3.012,-0.03594
3.016,-0.05082
3.02,0.0003
3.024,-0.02811
3.028,0.004
3.032,-0.02297
3.036,0.00533
3.04,-0.01218
3.044,0.01999
3.048,0.04852
3.052,0.02616
3.056,0.02388
3.06,0.01012
3.064,0.03589
3.068,0.06647
3.072,0.0903
3.076,0.09469
3.08,0.09173
3.084,0.09388
3.088,0.09633
3.092,0.16078
3.096,0.1747
3.1,0.13534
3.104,0.1636
3.108,0.13428
3.112,0.16436
3.116,0.15669
3.12,0.1952
3.124,0.23325
3.128,0.17291
3.132,0.20727
3.136,0.20717
3.14,0.20039
3.144,0.17402
3.148,0.20229
3.152,0.18176
3.156,0.18985
3.16,0.14492
3.164,0.13262
3.168,0.13642
3.172,0.10656
3.176,0.11086
3.18,0.11054
3.184,0.08832
3.188,0.05398
3.192,0.06463
3.196,0.03931
3.2,0.06254
3.204,0.03328
3.208,0.00977
3.212,0.01182
3.216,-0.00413
3.22,-0.01604
3.224,0.00826
3.228,-0.03132
3.232,-0.03231
3.236,-0.00764
3.24,-0.0012
3.244,-0.0117
3.248,-0.0039
3.252,-0.01835
3.256,-0.01276
3.26,-0.01167
3.264,-0.0148
3.268,-0.00863
3.272,-0.02233
3.276,0.01019
3.28,-0.04189
3.284,-0.00651
3.288,-0.02282
3.292,-0.006
3.296,-0.02165
3.3,-0.02959
3.304,-0.0344
3.308,-0.02405
3.312,-0.0166
3.316,-0.02575
3.32,-0.01324
3.324,-0.01092
3.328,-0.03634
3.332,-0.01816
3.336,-0.05231
3.34,0.00619
3.344,-0.02799
3.348,-0.02151
3.352,-0.01623
3.356,-0.04072
3.36,-0.02612
3.364,-0.00289
3.368,-0.00245
3.372,-0.03731
3.376,-0.03684
3.38,-0.01726
3.384,-0.03822
3.388,-0.04074
3.392,-0.00148
3.396,-0.03564
3.4,-0.017
3.404,-0.00792
3.408,-0.02086
3.412,-0.01244
3.416,0.00791
3.42,-0.0158
3.424,-0.00553
3.428,-0.02984
3.432,0.00377
3.436,-0.02283
3.44,-0.0133
3.444,-0.04037
3.448,-0.01888
3.452,-0.01416
3.456,-0.02122
3.46,0.00423
3.464,-0.03688
3.468,-0.01596
3.472,-0.02811
3.476,0.00089
3.48,-0.0086
3.484,-0.04007
3.488,-0.04319
3.492,-0.03083
3.496,-0.00059
3.5,-0.00916
3.504,-0.00936
3.508,-0.00454
3.512,-0.02761
3.516,-0.01758
3.52,-0.00622
3.524,-0.01207
3.528,-0.0095
3.532,0.00286
3.536,-0.02271
3.54,0.00231
3.544,-0.00431
3.548,-0.00573
3.552,-0.00994
3.556,0.00762
3.56,0.01726
3.564,0.01335
3.568,0.03872
3.572,0.06159
3.576,0.05725
3.58,0.0767
3.584,0.06129
3.588,0.09333
3.592,0.08582
3.596,0.08334
3.6,0.06026
3.604,0.0843
3.608,0.05723
3.612,0.0421
3.616,0.01873
3.62,0.00418
3.624,-0.00709
3.628,0.0005
3.632,-0.00466
3.636,0.00039
3.64,0.00125
3.644,-0.0209
3.648,0.00298
3.652,0.0045
3.656,0.00131
3.66,-0.01082
3.664,-0.04107
3.668,-0.00855
3.672,-0.02865
3.676,0.00754
3.68,0.00542
3.684,0.01028
3.688,-0.00847
3.692,-0.02795
3.696,-0.00264
3.7,-0.02796
3.704,-0.03594
3.708,-0.05479
3.712,-0.09592
3.716,-0.12857
3.72,-0.1173
3.724,-0.05791
3.728,0.04007
3.732,0.21567
3.736,0.41038
3.74,0.62417
3.744,0.83778
3.748,0.95211
3.752,1.00423
3.756,0.90169
3.76,0.75106
3.764,0.51209
3.768,0.30011
3.772,0.06672
3.776,-0.08083
3.78,-0.16498
3.784,-0.16669
3.788,-0.15678
3.792,-0.13102
3.796,-0.0817
3.8,-0.0292
3.804,-0.01483
3.808,-0.01248
3.812,-0.0123
3.816,-0.02132
3.82,0.01784
3.824,0.00879
3.828,0.00484
3.832,-0.00063
3.836,-0.03071
3.84,-0.01073
3.844,-0.0099
3.848,0.00563
3.852,-0.01072
3.856,0.00098
3.86,-0.00851
3.864,0.00091
3.868,-0.00287
3.872,-0.00782
3.876,-0.03719
3.88,0.01937
3.884,0.01881
3.888,0.05711
3.892,-0.02222
3.896,0.01229
3.9,0.00608
3.904,-0.01016
3.908,0.00614
3.912,-0.02063
3.916,0.00649
3.92,0.01927
3.924,0.03372
3.928,0.03613
3.932,0.02287
3.936,0.01182
3.94,0.02072
3.944,0.01455
3.948,0.01837
3.952,0.03443
3.956,0.03472
3.96,0.07163
3.964,0.08777
3.968,0.08561
3.972,0.07166
3.976,0.09173
3.98,0.12741
3.984,0.10864
3.988,0.14568
3.992,0.15581
3.996,0.14229
4.0,0.17314
4.004,0.17819
4.008,0.21034
4.012,0.19877
4.016,0.21596
4.02,0.2156
4.024,0.19603
4.028,0.23651
4.032,0.21067
4.036,0.18707
4.04,0.21304
4.044,0.2051
4.048,0.18914
4.052,0.19065
4.056,0.17602
4.06,0.18603
4.064,0.17258
4.068,0.19006
4.072,0.15215
4.076,0.1381
4.08,0.11239
4.084,0.10002
4.088,0.10526
4.092,0.07381
4.096,0.08279
4.1,0.05338
4.104,0.0613
4.108,0.03998
4.112,0.04829
4.116,0.05228
4.12,-0.00581
4.124,0.02582
4.128,0.0352
4.132,0.03629
4.136,0.03366
4.14,0.01654
4.144,-0.0076
4.148,-0.00709
4.152,0.01182
4.156,0.01063
4.16,0.00599
4.164,0.00881
4.168,0.01666
4.172,0.0034
4.176,-0.02746
4.18,-0.00666
4.184,-0.01443
4.188,-0.00534
4.192,0.00758
4.196,-0.0021
4.2,-0.01188
4.204,0.02062
4.208,0.00518
4.212,0.00369
4.216,-0.023
4.22,0.02603
4.224,-0.00856
4.228,0.00852
4.232,0.00763
4.236,-0.00372
4.24,-0.02754
4.244,0.01495
4.248,-0.00532
4.252,-0.00125
4.256,0.00593
4.26,0.01143
4.264,-0.01428
4.268,0.0025
4.272,-0.0075
4.276,-0.00527
4.28,0.01048
4.284,0.0093
4.288,-0.01172
4.292,0.00944
4.296,0.02305
4.3,0.02046
4.304,-0.01522
4.308,-0.00123
4.312,0.01674
4.316,0.0005
4.32,0.00049
4.324,-0.01569
4.328,0.00142
4.332,-0.01795
4.336,0.00307
4.34,0.01391
4.344,0.01218
4.348,0.02287
4.352,0.00772
4.356,0.01571
4.36,0.01598
4.364,0.01185
4.368,-0.01164
4.372,-0.01406
4.376,-0.01003
4.38,-0.01377
4.384,0.00498
4.388,0.02162
4.392,9e-05
4.396,-8e-05
4.4,0.00325
4.404,0.01662
4.408,-0.00285
4.412,0.01606
4.416,0.00628
4.42,-0.01662
4.424,0.01471
4.428,0.02813
4.432,-0.00106
4.436,0.00742
4.44,0.02334
4.444,0.01139
4.448,0.03321
4.452,0.01599
4.456,0.02449
4.46,0.02184
4.464,0.03641
4.468,-0.02731
4.472,-0.02589
4.476,0.00965
4.48,-0.00288
4.484,0.00721
4.488,0.01618
4.492,0.01549
4.496,0.01229
4.5,-0.00041
4.504,0.01392
4.508,0.02506
4.512,0.0111
4.516,0.02569
4.52,0.01955
4.524,0.00994
4.528,0.00521
4.532,-0.01693
4.536,-0.00739
4.54,0.02374
4.544,0.02048
4.548,0.02129
4.552,0.00344
4.556,0.04122
4.56,0.02918
4.564,0.02801
4.568,0.00581
4.572,0.00706
4.576,-0.00572
4.58,-0.01682
4.584,0.02717
4.588,0.00667
4.592,0.00771
4.596,0.00318
4.6,0.01668
4.604,0.03402
4.608,0.01435
4.612,0.02153
4.616,0.03628
4.62,0.00979
4.624,0.01523
4.628,0.02406
4.632,0.01431
4.636,0.02979
4.64,0.03517
4.644,0.03739
4.648,0.00503
4.652,0.00867
4.656,0.02385
4.66,0.02479
4.664,3e-05
4.668,0.0493
4.672,0.03968
4.676,-0.00584
4.68,0.00935
4.684,0.01891
4.688,0.02137
4.692,0.00199
4.696,0.03043
4.7,0.0181
4.704,0.00841
4.708,0.00904
4.712,0.05962
4.716,0.04646
4.72,0.0212
4.724,0.04562
4.728,0.0734
4.732,0.08214
4.736,0.1031
4.74,0.09163
4.744,0.09381
4.748,0.09084
4.752,0.13207
4.756,0.12034
4.76,0.10999
4.764,0.07785
4.768,0.08175
4.772,0.08669
4.776,0.06979
4.78,0.04616
4.784,0.01323
4.788,0.01997
4.792,0.02547
4.796,0.03609
4.8,0.02907
4.804,0.00398
4.808,0.00234
4.812,0.03717
4.816,0.00707
4.82,0.01833
4.824,0.01989
4.828,0.00701
4.832,-0.00225
4.836,0.00222
4.84,0.02428
4.844,0.02599
4.848,-0.00208
4.852,0.04917
4.856,0.02158
4.86,-0.01141
4.864,-0.01205
4.868,-0.00821
4.872,-0.07093
4.876,-0.10866
4.88,-0.08471
4.884,-0.03566
4.888,0.09646
4.892,0.25571
4.896,0.46226
4.9,0.67879
4.904,0.86025
4.908,1.01238
4.912,1.00747
4.916,0.92913
4.92,0.73588
4.924,0.54949
4.928,0.308
4.932,0.09032
4.936,-0.04426
4.94,-0.11065
4.944,-0.17389
4.948,-0.1594
4.952,-0.07456
4.956,-0.0389
4.96,-0.02106
4.964,0.01617
4.968,-0.00729
4.972,0.02032
4.976,0.04876
4.98,0.0267
4.984,0.01436
4.988,0.02824
4.992,0.03673
4.996,0.01932
5.0,0.03497
5.004,0.014
5.008,0.01029
5.012,0.01369
5.016,0.00026
5.02,0.0449
5.024,0.02534
5.028,0.04683
5.032,0.02071
5.036,0.03202
5.04,-0.00791
5.044,0.01419
5.048,0.02177
5.052,0.02339
5.056,0.01659
5.06,-0.00331
5.064,0.04008
5.068,0.02981
5.072,0.03725
5.076,0.03379
5.08,0.03575
5.084,0.0285
5.088,0.05673
5.092,0.02652
5.096,0.04198
5.1,0.03487
5.104,0.04332
5.108,0.04851
5.112,0.0641
5.116,0.08059
5.12,0.07857
5.124,0.09023
5.128,0.11618
5.132,0.12266
5.136,0.12973
5.14,0.1392
5.144,0.14052
5.148,0.17941
5.152,0.15535
5.156,0.20785
5.16,0.18706
5.164,0.19595
5.168,0.2308
5.172,0.2486
5.176,0.2207
5.18,0.23814
5.184,0.22464
5.188,0.22703
5.192,0.25851
5.196,0.27074
5.2,0.25856
5.204,0.26082
5.208,0.21395
5.212,0.23916
5.216,0.20976
5.22,0.21227
5.224,0.21409
5.228,0.15949
5.232,0.17917
5.236,0.15865
5.24,0.12073
5.244,0.12688
5.248,0.1283
5.252,0.10371
5.256,0.12146
5.26,0.10144
5.264,0.08041
5.268,0.07153
5.272,0.07839
5.276,0.0691
5.28,0.02631
5.284,0.04758
5.288,0.06182
5.292,0.01021
5.296,0.05112
5.3,0.01182
5.304,0.01153
5.308,0.0238
5.312,0.03674
5.316,0.04797
5.32,0.02365
5.324,0.00209
5.328,0.01297
5.332,0.01946
5.336,0.03514
5.34,0.03799
5.344,0.03951
5.348,0.01696
5.352,0.04525
5.356,0.02238
5.36,0.01942
5.364,0.01186
5.368,0.01822
5.372,0.03907
5.376,0.01518
5.38,0.05428
5.384,0.05582
5.388,0.0355
5.392,-0.00179
5.396,0.00815
5.4,0.02684
5.404,0.02909
5.408,0.02756
5.412,0.03283
5.416,0.00861
5.42,0.0352
5.424,0.03655
5.428,0.02052
5.432,0.00608
5.436,0.01324
5.44,0.05181
5.444,0.02761
5.448,0.0261
5.452,0.017
5.456,-0.00323
5.46,0.03972
5.464,0.03313
5.468,0.03403
5.472,-0.0053
5.476,0.03477
5.48,0.04256
5.484,0.03613
5.488,0.01434
5.492,0.02631
5.496,0.06138
5.5,0.03201
5.504,0.02989
5.508,0.02426
5.512,0.05898
5.516,0.04002
5.52,0.04144
5.524,0.01394
5.528,0.02281
5.532,0.02648
5.536,0.01379
5.54,0.03485
5.544,0.01841
5.548,0.03755
5.552,0.03181
5.556,0.02702
5.56,0.02389
5.564,0.0091
5.568,0.05136
5.572,0.0217
5.576,0.04079
5.58,0.02939
5.584,0.04035
5.588,0.01886
5.592,0.01232
5.596,0.04874
5.6,0.05
5.604,0.03479
5.608,-0.01049
5.612,0.03415
5.616,0.04673
5.62,0.04239
5.624,0.02016
5.628,0.04371
5.632,0.03189
5.636,0.02924
5.64,0.03013
5.644,0.01963
5.648,0.01647
5.652,0.02422
5.656,0.02179
5.66,0.01621
5.664,0.04414
5.668,0.02841
5.672,0.03424
5.676,0.02884
5.68,0.03042
5.684,0.00636
5.688,0.025
5.692,0.01086
5.696,0.00763
5.7,0.0465
5.704,0.04759
5.708,0.02858
5.712,0.03322
5.716,0.03463
5.72,0.02134
5.724,0.0408
5.728,0.02279
5.732,-0.00041
5.736,0.0263
5.74,0.0315
5.744,0.02977
5.748,0.01608
5.752,0.02091
5.756,0.00267
5.76,0.00512
5.764,0.04528
5.768,0.03438
5.772,0.03811
5.776,0.00875
5.78,0.03031
5.784,0.03355
5.788,0.05642
5.792,0.01157
5.796,0.01964
5.8,0.0212
5.804,0.05352
5.808,0.0167
5.812,0.05265
5.816,0.03861
5.82,0.03655
5.824,0.0542
5.828,0.03479
5.832,0.04997
5.836,0.06158
5.84,0.0514
5.844,0.07105
5.848,0.0923
5.852,0.1054
5.856,0.13559
5.86,0.11226
5.864,0.12522
5.868,0.11832
5.872,0.11973
5.876,0.13097
5.88,0.10621
5.884,0.10743
5.888,0.08818
5.892,0.07872
5.896,0.0771
5.9,0.04085
5.904,0.04234
5.908,0.03493
5.912,0.05241
5.916,0.01153
5.92,0.04131
5.924,0.00749
5.928,0.05582
5.932,0.03889
5.936,0.03283
5.94,0.0022
5.944,0.04826
5.948,0.06393
5.952,0.01652
5.956,0.02377
5.96,0.02367
5.964,0.02805
5.968,0.02187
5.972,0.02936
5.976,-0.01311
5.98,-0.01193
5.984,-0.05657
5.988,-0.07312
5.992,-0.08772
5.996,-0.06542
6.0,0.04895
6.004,0.18961
6.008,0.38327
6.012,0.5906
6.016,0.80658
6.02,0.9587
6.024,1.01444
6.028,0.99431
6.032,0.82911
6.036,0.62774
6.04,0.39278
6.044,0.18765
6.048,0.02497
6.052,-0.09015
6.056,-0.13358
6.06,-0.12035
6.064,-0.09332
6.068,-0.06485
6.072,-0.03456
6.076,0.00035
6.08,0.04696
6.084,0.00896
6.088,0.06336
6.092,0.03799
6.096,0.01747
6.1,0.02708
6.104,0.0226
6.108,0.05792
6.112,0.03204
6.116,0.04859
6.12,0.02217
6.124,0.02808
6.128,0.03348
6.132,0.04001
6.136,0.03761
6.14,0.04309
6.144,0.01794
6.148,0.04444
6.152,0.04759
6.156,0.0288
6.16,0.05287
6.164,0.05478
6.168,0.02803
6.172,0.01675
6.176,0.04217
6.18,0.02411
6.184,0.03292
6.188,0.03322
6.192,0.07234
6.196,0.0481
6.2,0.06668
6.204,0.05798
6.208,0.07096
6.212,0.0405
6.216,0.06705
6.22,0.08654
6.224,0.0579
6.228,0.07754
6.232,0.09228
6.236,0.07522
6.24,0.07353
6.244,0.11307
6.248,0.13103
6.252,0.14285
6.256,0.16413
6.26,0.15829
6.264,0.16271
6.268,0.2078
6.272,0.19043
6.276,0.21327
6.28,0.20673
6.284,0.23815
6.288,0.20792
6.292,0.24261
6.296,0.23707
6.3,0.22942
6.304,0.24089
6.308,0.25067
6.312,0.23417
6.316,0.24306
6.32,0.21929
6.324,0.24488
6.328,0.2213
6.332,0.21015
6.336,0.2053
6.34,0.19928
6.344,0.15418
6.348,0.14614
6.352,0.16649
6.356,0.13262
6.36,0.11671
6.364,0.12672
6.368,0.10854
6.372,0.09848
6.376,0.09842
6.38,0.0999
6.384,0.0472
6.388,0.04357
6.392,0.0657
6.396,0.03846
6.4,0.0674
6.404,0.0606
6.408,0.0444
6.412,0.03902
6.416,0.01835
6.42,0.00749
6.424,0.03893
6.428,0.05723
6.432,0.01344
6.436,0.02772
6.44,0.02665
6.444,0.02961
6.448,0.0207
6.452,0.04459
6.456,0.00781
6.46,0.03106
6.464,0.02813
6.468,0.02978
6.472,0.02293
6.476,0.01178
6.48,0.00924
6.484,-0.00355
6.488,0.04044
6.492,0.0112
6.496,0.00132
6.5,0.04685
6.504,0.00819
6.508,0.02567
6.512,0.0064
6.516,0.02416
6.52,0.02403
6.524,0.04452
6.528,0.04481
6.532,0.04261
6.536,0.02853
6.54,0.01725
6.544,0.0379
6.548,0.02296
6.552,0.03818
6.556,0.05706
6.56,0.02164
6.564,0.04036
6.568,0.0453
6.572,0.0014
6.576,0.00337
6.58,0.01186
6.584,-0.00753
6.588,0.00543
6.592,-0.01122
6.596,0.04994
6.6,0.01247
6.604,0.02743
6.608,0.05475
6.612,0.01253
6.616,0.02136
6.62,0.01351
6.624,0.01927
6.628,0.01575
6.632,0.04002
6.636,0.0228
6.64,0.02229
6.644,0.01938
6.648,0.02372
6.652,0.01748
6.656,0.01175
6.66,0.0348
6.664,0.01981
6.668,0.01184
6.672,0.01616
6.676,0.02352
6.68,0.0335
6.684,-0.01111
6.688,0.01012
6.692,0.01389
6.696,0.02196
6.7,0.02002
6.704,0.01281
6.708,0.01581
6.712,0.01498
6.716,0.02297
6.72,0.02177
6.724,0.03771
6.728,0.02354
6.732,0.03773
6.736,0.00805
6.74,0.01144
6.744,-0.0113
6.748,0.01336
6.752,0.01201
6.756,0.03134
6.76,0.02857
6.764,0.00403
6.768,0.04136
6.772,0.0199
6.776,0.0155
6.78,0.0538
6.784,0.03026
6.788,0.03983
6.792,0.03758
6.796,0.0083
6.8,0.01183
6.804,0.0082
6.808,0.01512
6.812,0.01324
6.816,0.00295
6.82,0.03654
6.824,-0.00322
6.828,0.01152
6.832,0.02621
6.836,0.03566
6.84,0.01769
6.844,0.01732
6.848,0.0124
6.852,0.02926
6.856,0.04648
6.86,0.04023
6.864,0.03118
6.868,0.05063
6.872,0.04647
6.876,0.06689
6.88,0.05436
6.884,0.07059
6.888,0.09366
6.892,0.12424
6.896,0.09371
6.9,0.13834
6.904,0.13233
6.908,0.10896
6.912,0.10037
6.916,0.07749
6.92,0.02768
6.924,0.05739
6.928,0.05414
6.932,0.04948
6.936,0.03484
6.94,0.04871
6.944,0.02413
6.948,0.01716
6.952,0.02712
6.956,0.00722
6.96,0.01401
6.964,0.00447
6.968,0.00732
6.972,0.02971
6.976,0.02988
6.98,0.0104
6.984,0.015
6.988,0.0087
6.992,0.04405
6.996,0.00248
7.0,-0.00623
7.004,-0.00138
7.008,0.02255
7.012,0.00079
7.016,-0.04178
7.02,-0.05256
7.024,-0.09721
7.028,-0.09547
7.032,-0.03611
7.036,0.09042
7.04,0.298
7.044,0.4952
7.048,0.71764
7.052,0.89507
7.056,1.00093
7.06,0.98568
7.064,0.89903
7.068,0.68066
7.072,0.51439
7.076,0.24757
7.08,0.07286
7.084,-0.05382
7.088,-0.16246
7.092,-0.15545
7.096,-0.1302
7.1,-0.07875
7.104,-0.07898
7.108,-0.00285
7.112,0.01259
7.116,0.01826
7.12,0.02565
7.124,0.02034
7.128,0.00039
7.132,0.00735
7.136,0.00226
7.14,0.01501
7.144,-0.02497
7.148,-0.00573
7.152,0.00073
7.156,0.01831
7.16,0.02399
7.164,0.00187
7.168,-0.00566
7.172,0.01529
7.176,0.00583
7.18,0.02327
7.184,0.02868
7.188,-0.00503
7.192,0.01421
7.196,-0.00076
7.2,0.00484
7.204,-0.01159
7.208,0.02523
7.212,0.00808
7.216,0.00569
7.22,-0.00625
7.224,0.01378
7.228,0.04875
7.232,0.03093
7.236,0.01916
7.24,0.01383
7.244,0.02479
7.248,0.0388
7.252,0.02499
7.256,0.05233
7.26,0.07943
7.264,0.07553
7.268,0.05168
7.272,0.0921
7.276,0.12034
7.28,0.1058
7.284,0.11015
7.288,0.12912
7.292,0.13463
7.296,0.13807
7.3,0.19352
7.304,0.19715
7.308,0.19582
7.312,0.20539
7.316,0.17913
7.32,0.20058
7.324,0.24627
7.328,0.1974
7.332,0.19873
7.336,0.20342
7.34,0.24746
7.344,0.18596
7.348,0.21597
7.352,0.24504
7.356,0.21696
7.36,0.19649
7.364,0.18945
7.368,0.16323
7.372,0.20423
7.376,0.14379
7.38,0.16251
7.384,0.13687
7.388,0.11169
7.392,0.08413
7.396,0.09638
7.4,0.09532
7.404,0.07963
7.408,0.10184
7.412,0.04809
7.416,0.06533
7.42,0.05059
7.424,0.02944
7.428,0.03759
7.432,0.02364
7.436,0.03171
7.44,0.03714
7.444,0.06044
7.448,0.03037
7.452,0.01389
7.456,0.04412
7.46,0.00381
7.464,0.03132
7.468,0.00952
7.472,0.02218
7.476,0.01195
7.48,-0.00893
7.484,-0.01536
7.488,-0.02355
7.492,-0.00225
7.496,0.00344
7.5,0.01092
7.504,-0.02284
7.508,-0.00218
7.512,0.00242
7.516,-0.01374
7.52,0.01249
7.524,-0.01538
7.528,-0.00208
7.532,-0.02474
7.536,0.01238
7.54,-0.00816
7.544,-0.01201
7.548,-0.00942
7.552,0.00653
7.556,-0.01616
7.56,-0.01444
7.564,-0.02398
7.568,0.01197
7.572,-0.0102
7.576,-0.00969
7.58,0.00995
7.584,0.01028
7.588,0.02305
7.592,-0.01128
7.596,-0.00224
7.6,-0.01189
7.604,-0.00447
7.608,0.0012
7.612,-0.01266
7.616,-0.00999
7.62,-0.01063
7.624,0.00535
7.628,0.00963
7.632,-0.02414
7.636,-0.02573
7.64,-0.00636
7.644,-0.00202
7.648,-0.01906
7.652,0.01521
7.656,-0.00978
7.66,0.00722
7.664,0.01213
7.668,-0.03427
7.672,-0.01833
7.676,-0.0239
7.68,0.00382
7.684,-0.02787
7.688,0.00781
7.692,-0.01932
7.696,-0.02016
7.7,-0.01391
7.704,-0.00632
7.708,0.00718
7.712,-0.0007
7.716,-0.00011
7.72,-0.02669
7.724,-0.02183
7.728,-0.01932
7.732,0.01273
7.736,-0.0255
7.74,-0.00691
7.744,-0.0122
7.748,0.00649
7.752,-0.01641
7.756,-0.02276
7.76,0.01688
7.764,0.0013
7.768,-0.025
7.772,0.0158
7.776,-0.0271
7.78,0.01787
7.784,0.00768
7.788,0.00405
7.792,0.00319
7.796,-0.01116
7.8,-0.00993
7.804,-0.00724
7.808,-0.00274
7.812,-0.00732
7.816,-0.03271
7.82,0.00066
7.824,-0.02014
7.828,-0.00844
7.832,0.00799
7.836,-0.00322
7.84,0.01123
7.844,0.00161
7.848,-0.00974
7.852,0.01024
7.856,-0.03762
7.86,-0.0015
7.864,-0.038
7.868,-0.031
7.872,-0.02696
7.876,-0.00925
7.88,0.02418
7.884,0.0061
7.888,-0.01362
7.892,-0.00722
7.896,-0.0179
7.9,-0.03892
7.904,-0.00274
7.908,0.00923
7.912,-0.00742
7.916,0.01661
7.92,-0.00833
7.924,0.04335
7.928,0.04459
7.932,0.02361
7.936,0.06816
7.94,0.0752
7.944,0.0674
7.948,0.09837
7.952,0.07229
7.956,0.08682
7.96,0.08802
7.964,0.08555
7.968,0.062
7.972,0.0545
7.976,0.03344
7.98,0.01145
7.984,0.00862
7.988,0.01967
7.992,0.00316
7.996,-0.02492
8.0,-0.00579
8.004,0.01708
8.008,-0.0253
8.012,-0.01416
8.016,-0.03156
8.02,-0.01165
8.024,-0.03234
8.028,0.00176
8.032,-0.00355
8.036,-0.02869
8.04,-0.01068
8.044,-0.00353
8.048,-0.01773
8.052,-0.03044
8.056,-0.00848
8.06,0.00826
8.064,-0.04173
8.068,-0.01975
8.072,-0.04614
8.076,-0.05176
8.08,-0.12506
8.084,-0.13054
8.088,-0.05793
8.092,0.00524
8.096,0.18908
8.1,0.39711
8.104,0.59636
8.108,0.84555
8.112,0.95932
8.116,0.95109
8.12,0.91385
8.124,0.7307
8.128,0.53069
8.132,0.28548
8.136,0.08974
8.14,-0.04702
8.144,-0.12321
8.148,-0.18693
8.152,-0.18651
8.156,-0.12348
8.16,-0.09607
8.164,-0.06831
8.168,-0.01863
8.172,-0.01597
8.176,-0.03559
8.18,-0.00427
8.184,-0.0148
8.188,-0.01376
8.192,-0.01708
8.196,0.0061
8.2,-0.00825
8.204,-0.02773
8.208,0.01264
8.212,-0.03444
8.216,-0.0132
8.22,-0.00622
8.224,0.00421
8.228,-0.02252
8.232,-0.01721
8.236,-0.00262
8.24,-0.01057
8.244,-0.04032
8.248,-0.01817
8.252,-0.03532
8.256,-0.02998
8.26,-0.00544
8.264,-0.02274
8.268,-0.00059
8.272,-0.01987
8.276,-0.01532
8.28,-0.0269
8.284,-0.00491
8.288,-0.00917
8.292,0.00727
8.296,-0.01004
8.3,-0.00803
8.304,0.00828
8.308,0.00879
8.312,-0.00568
8.316,0.04907
8.32,0.03988
8.324,0.04378
8.328,0.06881
8.332,0.06138
8.336,0.07392
8.34,0.08144
8.344,0.10825
8.348,0.12812
8.352,0.11217
8.356,0.10321
8.36,0.15343
8.364,0.13405
8.368,0.1644
8.372,0.16284
8.376,0.14709
8.38,0.18794
8.384,0.16255
8.388,0.20868
8.392,0.19479
8.396,0.17943
8.4,0.19792
8.404,0.21475
8.408,0.21297
8.412,0.18518
8.416,0.208
8.42,0.15963
8.424,0.14395
8.428,0.14796
8.432,0.14786
8.436,0.12875
8.44,0.11339
8.444,0.11616
8.448,0.08052
8.452,0.11091
8.456,0.098
8.46,0.05005
8.464,0.03096
8.468,0.03941
8.472,0.02656
8.476,0.00228
8.48,0.00908
8.484,0.00724
8.488,-0.00465
8.492,-0.01669
8.496,-0.01586
8.5,-0.01341
8.504,-0.01698
8.508,-0.0085
8.512,-0.02274
8.516,-0.01814
8.52,-0.01499
8.524,-0.01129
8.528,0.00461
8.532,-0.01985
8.536,-0.03008
8.54,-0.03271
8.544,-0.04878
8.548,-0.01282
8.552,-0.01815
8.556,-0.03875
8.56,-0.01351
8.564,-0.01027
8.568,-0.02431
8.572,-0.04865
8.576,-0.02165
8.58,-0.02012
8.584,-0.02212
8.588,-0.02584
8.592,-0.01123
8.596,-0.02037
8.6,-0.04369
8.604,-0.06255
8.608,-0.02349
8.612,-0.04582
8.616,-0.0445
8.62,-0.04828
8.624,-0.02565
8.628,-0.04826
8.632,-0.00891
8.636,-0.02111
8.64,-0.0334
8.644,-0.01198
8.648,-0.04896
8.652,-0.02326
8.656,-0.02864
8.66,-0.0215
8.664,-0.01698
8.668,-0.01906
8.672,-0.01422
8.676,-0.02833
8.68,-0.05491
8.684,-0.05679
8.688,-0.03929
8.692,-0.05896
8.696,-0.01448
8.7,-0.01228
8.704,-0.01896
8.708,-0.01114
8.712,-0.03528
8.716,-0.0522
8.72,-0.04979
8.724,-0.03693
8.728,-0.03445
8.732,-0.0241
8.736,-0.03386
8.74,-0.04267
8.744,-0.05587
8.748,-0.0068
8.752,-0.01011
8.756,-0.04112
8.76,-0.02728
8.764,-0.03632
8.768,-0.06466
8.772,-0.03487
8.776,-0.033
8.78,-0.00816
8.784,0.00173
8.788,-0.03224
8.792,-0.03157
8.796,-0.01367
8.8,-0.0568
8.804,-0.06291
8.808,-0.05419
8.812,-0.01066
8.816,-0.00531
8.82,-0.02155
8.824,-0.03171
8.828,-0.04108
8.832,-0.03881
8.836,-0.03147
8.84,-0.02073
8.844,-0.03087
8.848,-0.05864
8.852,-0.02788
8.856,-0.01105
8.86,-0.02393
8.864,-0.04679
8.868,-0.03674
8.872,-0.02061
8.876,-0.03344
8.88,-0.05704
8.884,-0.02394
8.888,-0.048
8.892,-0.024
8.896,-0.01728
8.9,-0.04802
8.904,-0.02058
8.908,-0.03143
8.912,-0.03175
8.916,-0.0102
8.92,-0.04374
8.924,-0.01155
8.928,-0.02764
8.932,-0.02647
8.936,-0.02373
8.94,-0.02737
8.944,-0.00933
8.948,-0.00905
8.952,-0.00312
8.956,-0.00665
8.96,0.02649
8.964,0.00855
8.968,0.02721
8.972,0.05438
8.976,0.06192
8.98,0.04905
8.984,0.07604
8.988,0.08851
8.992,0.07416
8.996,0.06338
9.0,0.07795
9.004,0.06414
9.008,0.04444
9.012,0.02476
9.016,0.03657
9.02,-0.01309
9.024,0.01352
9.028,-0.00442
9.032,-0.0254
9.036,-0.0308
9.04,-0.0409
9.044,-0.01959
9.048,-0.02814
9.052,-0.04301
9.056,-0.02393
9.06,-0.05568
9.064,-0.02573
9.068,-0.02125
9.072,-0.02987
9.076,-0.05209
9.08,-0.02296
9.084,-0.0176
9.088,-0.03335
9.092,-0.03672
9.096,-0.04026
9.1,-0.03218
9.104,-0.044
9.108,-0.06293
9.112,-0.11291
9.116,-0.1525
9.12,-0.12788
9.124,-0.07752
9.128,0.02821
9.132,0.20847
9.136,0.4379
9.14,0.63523
9.144,0.83617
9.148,0.93068
9.152,0.96266
9.156,0.85345
9.16,0.68182
9.164,0.45691
9.168,0.24394
9.172,0.03943
9.176,-0.11554
9.18,-0.16563
9.184,-0.2099
9.188,-0.17454
9.192,-0.12686
9.196,-0.07946
9.2,-0.0468
9.204,-0.05492
9.208,-0.02854
9.212,-0.02093
9.216,-0.03074
9.22,-0.02365
9.224,-0.04199
9.228,-0.05423
9.232,-0.03734
9.236,-0.04327
9.24,-0.0519
9.244,-0.03122
9.248,-0.00792
9.252,-0.02752
9.256,-0.02347
9.26,-0.02362
9.264,-0.02044
9.268,-0.02615
9.272,-0.0258
9.276,-0.04915
9.28,-0.04658
9.284,-0.02775
9.288,-0.02579
9.292,-0.04108
9.296,-0.00794
9.3,-0.03404
9.304,-0.05244
9.308,-0.03555
9.312,-0.0413
9.316,-0.01442
9.32,0.00185
9.324,-0.02381
9.328,-0.0012
9.332,0.01104
9.336,-0.01626
9.34,0.00848
9.344,0.02322
9.348,0.02249
9.352,0.00511
9.356,0.02143
9.36,0.03456
9.364,0.0553
9.368,0.02296
9.372,0.0543
9.376,0.06314
9.38,0.10544
9.384,0.08632
9.388,0.09346
9.392,0.12206
9.396,0.14319
9.4,0.13765
9.404,0.15986
9.408,0.1725
9.412,0.19154
9.416,0.18058
9.42,0.19329
9.424,0.17406
9.428,0.16979
9.432,0.21471
9.436,0.16902
9.44,0.18597
9.444,0.17304
9.448,0.17708
9.452,0.13528
9.456,0.15922
9.46,0.14748
9.464,0.14637
9.468,0.12267
9.472,0.09834
9.476,0.11511
9.48,0.08243
9.484,0.08436
9.488,0.09147
9.492,0.0643
9.496,0.06231
9.5,0.05327
9.504,0.02595
9.508,0.00517
9.512,0.0003
9.516,0.00224
9.52,0.00647
9.524,-0.03187
9.528,0.0091
9.532,-0.01056
9.536,0.02371
9.54,-0.01786
9.544,-0.02874
9.548,-0.04058
9.552,0.00461
9.556,-0.0188
9.56,-0.01546
9.564,-0.02213
9.568,-0.03079
9.572,-0.02637
9.576,-0.05467
9.58,-0.00897
9.584,-0.03425
9.588,-0.04626
9.592,-0.01301
9.596,0.01119
9.6,-0.04979
9.604,-0.05014
9.608,-0.03501
9.612,-0.03927
9.616,-0.03102
9.62,-0.0253
9.624,-0.03377
9.628,-0.03118
9.632,-0.02574
9.636,-0.01854
9.64,-0.02328
9.644,-0.03416
9.648,-0.03631
9.652,-0.04736
9.656,-0.02373
9.66,-0.01448
9.664,-0.00536
9.668,-0.0422
9.672,-0.03161
9.676,-0.01796
9.68,-0.03408
9.684,-0.02223
9.688,-0.03022
9.692,-0.03124
9.696,-0.00863
9.7,-0.02516
9.704,-0.05447
9.708,-0.02027
9.712,-0.02359
9.716,-0.04968
9.72,-0.02953
9.724,-0.05259
9.728,-0.02817
9.732,-0.01558
9.736,-0.02256
9.74,-0.02751
9.744,-0.02367
9.748,-0.04224
9.752,-0.02009
9.756,-0.04714
9.76,-0.02511
9.764,-0.04089
9.768,-0.02073
9.772,-0.0141
9.776,-0.02203
9.78,-0.03079
9.784,-0.00896
9.788,-0.05144
9.792,-0.02654
9.796,-0.02986
9.8,-0.04015
9.804,-0.05592
9.808,-0.02744
9.812,-0.02528
9.816,-0.00323
9.82,-0.03889
9.824,-0.04266
9.828,-0.0152
9.832,-0.01462
9.836,-0.00586
9.84,-0.03829
9.844,-0.01875
9.848,-0.00843
9.852,0.00472
9.856,-0.04374
9.86,-0.01223
9.864,-0.00841
9.868,-0.02355
9.872,-0.00587
9.876,-0.00166
9.88,-0.0381
9.884,-0.02501
9.888,-0.02062
9.892,-0.02719
9.896,-0.01715
9.9,-0.02439
9.904,-0.02433
9.908,-0.0245
9.912,0.01107
9.916,-0.00929
9.92,-0.02879
9.924,-0.0182
9.928,-0.01691
9.932,-0.02561
9.936,0.00299
9.94,0.00352
9.944,-0.03082
9.948,-0.04268
9.952,-0.01905
9.956,0.00758
9.96,-0.01112
9.964,-0.02772
9.968,-0.03851
9.972,-0.01018
9.976,-0.03366
9.98,-0.00135
9.984,-0.0362
9.988,-0.02692
9.992,0.00125
9.996,-0.037
