t_seg,ecg_mV
0.0,0.01945
0.004,0.00355
0.008,0.01169
0.012,0.02471
0.016,0.01307
0.02,0.0085
0.024,0.00225
0.028,0.03451
0.032,0.03492
0.036,0.02236
0.04,0.02151
0.044,-0.01145
0.048,0.03579
0.052,0.03948
0.056,0.03163
0.06,0.03456
0.064,-0.00349
0.068,0.02506
0.072,0.00209
0.076,0.04617
0.08,0.00679
0.084,0.02604
0.088,0.02384
0.092,0.01172
0.096,0.01098
0.1,0.03052
0.104,0.03533
0.108,0.0294
0.112,0.0357
0.116,0.01726
0.12,0.0099
0.124,0.0092
0.128,0.0199
0.132,0.01972
0.136,0.05354
0.14,0.01547
0.144,0.0412
0.148,0.04932
0.152,0.01863
0.156,0.02267
0.16,0.00773
0.164,0.032
0.168,0.02021
0.172,0.04072
0.176,0.01673
0.18,-0.0042
0.184,0.03066
0.188,0.02756
0.192,0.01841
0.196,0.00805
0.2,0.02802
0.204,0.0266
0.208,0.03391
0.212,0.00177
0.216,0.04865
0.22,0.02558
0.224,0.02133
0.228,0.04136
0.232,0.03692
0.236,-0.02349
0.24,0.02384
0.244,-0.00087
0.248,0.0245
0.252,-0.00911
0.256,0.01855
0.26,0.02935
0.264,0.02652
0.268,0.03176
0.272,0.02862
0.276,0.02164
0.28,-0.00965
0.284,0.03549
0.288,0.02869
0.292,0.01257
0.296,0.00731
0.3,0.03437
0.304,0.01077
0.308,0.01069
0.312,0.01855
0.316,0.00654
0.32,0.04578
0.324,0.00066
0.328,0.03797
0.332,0.03099
0.336,0.02615
0.34,0.01413
0.344,-0.00133
0.348,0.0139
0.352,-0.00351
0.356,0.03056
0.36,0.00438
0.364,0.02076
0.368,0.02794
0.372,0.0328
0.376,0.00764
0.38,0.02391
0.384,-0.00609
0.388,0.00274
0.392,0.03432
0.396,0.02717
0.4,0.01257
0.404,0.0127
0.408,0.00607
0.412,0.01652
0.416,0.0274
0.42,-0.00119
0.424,0.03165
0.428,-0.00552
0.432,0.03312
0.436,0.02623
0.44,0.02027
0.444,-0.00134
0.448,0.01867
0.452,-0.01296
0.456,-0.00568
0.46,0.04481
0.464,0.02489
0.468,0.0209
0.472,0.01736
0.476,0.00923
0.48,0.03486
0.484,0.02054
0.488,-0.00298
0.492,0.02441
0.496,-0.01225
0.5,-0.0058
0.504,0.0198
0.508,0.01604
0.512,0.0262
0.516,0.02458
0.52,0.03031
0.524,0.03558
0.528,-0.00426
0.532,0.01304
0.536,0.03448
0.54,-0.00363
0.544,-0.00033
0.548,0.00979
0.552,0.01887
0.556,0.03143
0.56,0.02141
0.564,0.04141
0.568,0.05579
0.572,0.07455
0.576,0.07523
0.58,0.07907
0.584,0.09205
0.588,0.09557
0.592,0.112
0.596,0.12127
0.6,0.11465
0.604,0.11346
0.608,0.06
0.612,0.07832
0.616,0.06269
0.62,0.03729
0.624,0.02003
0.628,0.0377
0.632,0.02577
0.636,0.03033
0.64,0.01165
0.644,0.01072
0.648,0.02493
0.652,-0.00245
0.656,0.02787
0.66,-0.01813
0.664,0.03817
0.668,0.00732
0.672,0.00187
0.676,0.01155
0.68,0.02542
0.684,0.02079
0.688,0.0157
0.692,0.0111
0.696,0.00212
0.7,0.02917
0.704,-0.01616
0.708,-0.01906
0.712,-0.03493
0.716,-0.08927
0.72,-0.10672
0.724,-0.07036
0.728,-0.02035
0.732,0.13941
0.736,0.2689
0.74,0.50551
0.744,0.73465
0.748,0.87771
0.752,0.99825
0.756,0.97806
0.76,0.86531
0.764,0.69373
0.768,0.45975
0.772,0.19758
0.776,0.02343
0.78,-0.0732
0.784,-0.16917
0.788,-0.16782
0.792,-0.14202
0.796,-0.08172
0.8,-0.04824
0.804,0.01312
0.808,-0.0021
0.812,-0.00022
0.816,0.0231
0.82,0.01962
0.824,0.00065
0.828,0.01725
0.832,-0.00928
0.836,0.01447
0.84,0.00427
0.844,0.01457
0.848,-0.00451
0.852,0.0097
0.856,-0.01075
0.86,-0.0099
0.864,0.02067
0.868,0.02291
0.872,-0.00575
0.876,0.02359
0.88,0.02387
0.884,-0.01279
0.888,-0.01175
0.892,0.00259
0.896,0.00217
0.9,-0.0063
0.904,0.02112
0.908,-0.00633
0.912,-0.01059
0.916,0.01228
0.92,0.00095
0.924,0.00326
0.928,0.00709
0.932,0.00415
0.936,-0.00293
0.94,0.05064
0.944,0.01106
0.948,0.0497
0.952,0.03621
0.956,0.06237
0.96,0.06357
0.964,0.06277
0.968,0.09047
0.972,0.08485
0.976,0.09686
0.98,0.09764
0.984,0.10664
0.988,0.11469
0.992,0.14253
0.996,0.15969
1.0,0.1776
1.004,0.17685
1.008,0.1928
1.012,0.22919
1.016,0.20191
1.02,0.20479
1.024,0.22929
1.028,0.21706
1.032,0.21556
1.036,0.24431
1.04,0.22595
1.044,0.2412
1.048,0.23123
1.052,0.18159
1.056,0.20035
1.06,0.17842
1.064,0.15215
1.068,0.15116
1.072,0.12709
1.076,0.12538
1.08,0.1018
1.084,0.08267
1.088,0.07453
1.092,0.06761
1.096,0.10155
1.1,0.05541
1.104,0.07269
1.108,0.02843
1.112,0.04256
1.116,0.05512
1.12,0.0383
1.124,0.02976
1.128,0.03046
1.132,0.00458
1.136,0.04603
1.14,-0.00162
1.144,-0.00148
1.148,0.02978
1.152,0.01505
1.156,-0.00498
1.16,-0.00661
1.164,0.01427
1.168,-0.01605
1.172,0.00787
1.176,-0.00421
1.18,0.00658
1.184,-0.0046
1.188,0.00019
1.192,-0.00885
1.196,0.00129
1.2,-0.0082
1.204,-0.00744
1.208,-0.00344
1.212,0.01383
1.216,-0.02911
1.22,-0.02469
1.224,0.00385
1.228,0.00401
1.232,-0.02574
1.236,-0.01089
1.24,-0.00864
1.244,-0.01223
1.248,-0.00811
1.252,0.00863
1.256,0.00338
1.26,-0.01716
1.264,-0.00678
1.268,-0.00705
1.272,0.00991
1.276,-0.03201
1.28,0.00892
1.284,0.00884
1.288,0.00198
1.292,-0.0116
1.296,-0.02847
1.3,0.00491
1.304,-0.0105
1.308,0.00151
1.312,0.00457
1.316,0.03186
1.32,-0.01639
1.324,-0.00865
1.328,0.01725
1.332,-0.02093
1.336,-0.01413
1.34,0.00545
1.344,-0.0039
1.348,-0.00823
1.352,-0.0352
1.356,0.00265
1.36,-0.0272
1.364,-0.02009
1.368,-0.00056
1.372,-0.03931
1.376,-0.0325
1.38,-0.03569
1.384,-0.02104
1.388,0.01095
1.392,-0.0179
1.396,-0.01197
1.4,-0.02589
1.404,-0.02802
1.408,-0.03575
1.412,-0.01853
1.416,-0.014
1.42,-0.0062
1.424,-0.00426
1.428,-0.00733
1.432,-0.04685
1.436,0.01307
1.44,-0.03142
1.444,-0.01618
1.448,0.00598
1.452,-0.0133
1.456,-0.0005
1.46,-0.02783
1.464,-0.01366
1.468,-0.02218
1.472,-0.02172
1.476,-0.00639
1.48,-0.0037
1.484,-0.00713
1.488,0.0071
1.492,-0.01076
1.496,-0.00531
1.5,0.00932
1.504,-0.01723
1.508,0.00246
1.512,-0.00257
1.516,0.01338
1.52,0.02546
1.524,0.02539
1.528,0.00573
1.532,0.07038
1.536,0.06245
1.54,0.07904
1.544,0.08994
1.548,0.06382
1.552,0.08818
1.556,0.08703
1.56,0.08494
1.564,0.1004
1.568,0.08242
1.572,0.05415
1.576,0.0195
1.58,0.01673
1.584,0.03982
1.588,0.00139
1.592,0.00243
1.596,-0.01117
1.6,0.0059
1.604,-0.00707
1.608,0.00912
1.612,-0.01213
1.616,-0.02063
1.62,-0.0102
1.624,-0.01715
1.628,-0.02273
1.632,-0.02858
1.636,-0.02373
1.64,-0.02896
1.644,-0.01891
1.648,0.0103
1.652,-0.02871
1.656,-0.03369
1.66,-0.01211
1.664,-0.03959
1.668,-0.06183
1.672,-0.07193
1.676,-0.13723
1.68,-0.1462
1.684,-0.12846
1.688,-0.01178
1.692,0.13627
1.696,0.35482
1.7,0.55525
1.704,0.78491
1.708,0.9119
1.712,0.94874
1.716,0.91351
1.72,0.76974
1.724,0.55524
1.728,0.32865
1.732,0.10742
1.736,-0.04075
1.74,-0.14821
1.744,-0.17465
1.748,-0.15514
1.752,-0.14623
1.756,-0.11891
1.76,-0.05565
1.764,-0.05663
1.768,-0.02672
1.772,-0.00914
1.776,-0.01338
1.78,-0.01473
1.784,-0.02235
1.788,-0.00364
1.792,-0.01616
1.796,0.0003
1.8,-0.04807
1.804,-0.02226
1.808,-0.02668
1.812,-0.03484
1.816,0.00661
1.82,-0.01527
1.824,-0.02469
1.828,0.00673
1.832,-0.02681
1.836,-0.00685
1.84,-0.01074
1.844,0.02433
1.848,-0.05371
1.852,-0.05015
1.856,-0.06099
1.86,-0.0215
1.864,-0.04956
1.868,-0.00358
1.872,0.01063
1.876,-0.04148
1.88,-0.03466
1.884,-0.02024
1.888,-0.0151
1.892,0.0024
1.896,-0.00492
1.9,0.02937
1.904,0.01629
1.908,0.03028
1.912,0.00335
1.916,0.01507
1.92,0.03729
1.924,0.04917
1.928,0.07197
1.932,0.0925
1.936,0.08506
1.94,0.09876
1.944,0.08232
1.948,0.1235
1.952,0.12332
1.956,0.14781
1.96,0.13162
1.964,0.15715
1.968,0.16943
1.972,0.17588
1.976,0.18921
1.98,0.17313
1.984,0.20029
1.988,0.19494
1.992,0.17522
1.996,0.22275
2.0,0.18274
2.004,0.15757
2.008,0.19626
2.012,0.18082
2.016,0.16994
2.02,0.15529
2.024,0.14591
2.028,0.12031
2.032,0.15287
2.036,0.10363
2.04,0.08816
2.044,0.07985
2.048,0.04547
2.052,0.05016
2.056,0.03662
2.06,0.03644
2.064,0.0243
2.068,0.00254
2.072,0.00499
2.076,0.0423
2.08,0.01011
2.084,-0.00089
2.088,-0.00626
2.092,-0.00968
2.096,-0.01059
2.1,-0.00516
2.104,-0.00683
2.108,-0.03465
2.112,-0.02463
2.116,-0.02818
2.12,0.001
2.124,-0.00993
2.128,-0.00546
2.132,-0.0033
2.136,-0.02809
2.14,-0.01794
2.144,-0.02345
2.148,0.01462
2.152,-0.02094
2.156,-0.04709
2.16,-0.04553
2.164,0.00566
2.168,-0.03808
2.172,-0.04584
2.176,-0.04188
2.18,-0.05568
2.184,-0.02428
2.188,-0.00031
2.192,0.00998
2.196,-0.0383
2.2,-0.01101
2.204,-0.04283
2.208,-0.00259
2.212,-0.04258
2.216,-0.01953
2.22,0.00475
2.224,-0.00865
2.228,-0.02035
2.232,-0.00664
2.236,0.00928
2.24,0.04189
2.244,0.0457
2.248,0.05697
2.252,0.04884
2.256,0.06283
2.26,0.08096
2.264,0.06991
2.268,0.03995
2.272,0.07573
2.276,0.06973
2.28,0.05413
2.284,0.00567
2.288,0.04091
2.292,-0.01194
2.296,-0.01474
2.3,-0.02246
2.304,-0.00437
2.308,-0.03197
2.312,-0.00736
2.316,-0.00311
2.32,-0.01903
2.324,-0.03765
2.328,-0.04023
2.332,-0.03852
2.336,-0.03431
2.34,-0.0441
2.344,-0.03066
2.348,-0.02398
2.352,-0.04049
2.356,-0.02072
2.36,-0.0513
2.364,-0.02597
2.368,-0.03404
2.372,-0.05111
2.376,-0.04444
2.38,-0.0687
2.384,-0.11049
2.388,-0.16351
2.392,-0.12372
2.396,-0.07171
2.4,0.06168
2.404,0.2679
2.408,0.45058
2.412,0.68774
2.416,0.88289
2.42,0.96732
2.424,0.9521
2.428,0.83658
2.432,0.65121
2.436,0.38435
2.44,0.19932
2.444,0.00974
2.448,-0.11309
2.452,-0.1937
2.456,-0.19779
2.46,-0.1708
2.464,-0.13362
2.468,-0.05288
2.472,-0.044
2.476,-0.03963
2.48,-0.01245
2.484,-0.03231
2.488,-0.02519
2.492,-0.01511
2.496,-0.01375
2.5,-0.02896
2.504,-0.03071
2.508,-0.03211
2.512,-0.03992
2.516,-0.0105
2.52,-0.04881
2.524,-0.03127
2.528,-0.0175
2.532,-0.03504
2.536,-0.01346
2.54,-0.01431
2.544,-0.04766
2.548,-0.03625
2.552,-0.0285
2.556,-0.03767
2.56,-0.01603
2.564,-0.02199
2.568,-0.04176
2.572,-0.02935
2.576,-0.03182
2.58,-0.05277
2.584,-0.01382
2.588,-0.0554
2.592,-0.00478
2.596,-0.00717
2.6,-0.01607
2.604,-0.00934
2.608,-0.00546
2.612,0.01224
2.616,0.01247
2.62,0.01434
2.624,0.02947
2.628,0.03321
2.632,0.03578
2.636,0.06567
2.64,0.05119
2.644,0.05652
2.648,0.04689
2.652,0.10205
2.656,0.10006
2.66,0.08656
2.664,0.13339
2.668,0.16816
2.672,0.16268
2.676,0.17682
2.68,0.15117
2.684,0.17966
2.688,0.17997
2.692,0.196
2.696,0.212
2.7,0.17799
2.704,0.19189
2.708,0.17414
2.712,0.20341
2.716,0.18081
2.72,0.16131
2.724,0.13457
2.728,0.14062
2.732,0.13047
2.736,0.12944
2.74,0.10978
2.744,0.1029
2.748,0.11636
2.752,0.08506
2.756,0.05867
2.76,0.05074
2.764,0.07756
2.768,0.06212
2.772,0.02375
2.776,0.00483
2.78,3e-05
2.784,-0.01113
2.788,-0.01704
2.792,0.01892
2.796,-0.00449
2.8,0.00795
2.804,-0.00277
2.808,-0.01614
2.812,-0.01983
2.816,-0.01052
2.82,-0.02521
2.824,-0.03828
2.828,-0.00564
2.832,-0.0359
2.836,-0.02599
2.84,-0.021
2.844,-0.04307
2.848,-0.02185
2.852,-0.01791
2.856,-0.01578
2.86,-0.0152
2.864,-0.01005
2.868,-0.04288
2.872,-0.0327
2.876,-0.01298
2.88,-0.04648
2.884,-0.01598
2.888,-0.02054
2.892,-0.04473
2.896,-0.05716
2.9,-0.03155
2.904,-0.02078
2.908,-0.04273
2.912,-0.03842
2.916,-0.03214
2.92,-0.04848
2.924,-0.04689
2.928,-0.02787
2.932,-0.02677
2.936,-0.03091
2.94,-0.01258
2.944,-0.03559
2.948,-0.0354
2.952,-0.04105
2.956,-0.01888
2.96,-0.02542
2.964,-0.04121
2.968,-0.05538
2.972,-0.0053
2.976,-0.00884
2.98,-0.00396
2.984,-0.03773
2.988,0.01267
2.992,-0.02073
2.996,-0.03163
3.0,0.01741
3.004,0.01779
3.008,0.03775
3.012,0.04516
3.016,0.05632
3.02,0.05769
3.024,0.06968
3.028,0.05214
3.032,0.05441
3.036,0.07098
3.04,0.05069
3.044,0.04108
3.048,0.03117
3.052,-0.00522
3.056,0.01993
3.06,0.00202
3.064,-0.00329
3.068,-0.02572
3.072,-0.00163
3.076,-0.01723
3.08,-0.02594
3.084,-0.04663
3.088,-0.02843
3.092,-0.01495
3.096,-0.03741
3.1,-0.04603
3.104,-0.01578
3.108,-0.02199
3.112,-0.02293
3.116,-0.01017
3.12,-0.01517
3.124,-0.01835
3.128,-0.03679
3.132,-0.02011
3.136,-0.03502
3.14,-0.01694
3.144,-0.08291
3.148,-0.12643
3.152,-0.13613
3.156,-0.1281
3.16,-0.12738
3.164,-0.01324
3.168,0.11472
3.172,0.34718
3.176,0.53777
3.18,0.75507
3.184,0.90816
3.188,0.9916
3.192,0.92628
3.196,0.77302
3.2,0.55242
3.204,0.34249
3.208,0.12251
3.212,-0.03854
3.216,-0.1496
3.22,-0.20798
3.224,-0.17815
3.228,-0.14354
3.232,-0.08819
3.236,-0.08372
3.24,-0.07056
3.244,-0.03724
3.248,-0.01103
3.252,-0.04084
3.256,-0.01938
3.26,-0.03004
3.264,-0.01249
3.268,-0.03671
3.272,-0.00777
3.276,-0.02013
3.28,-0.01402
3.284,-0.04904
3.288,-0.03354
3.292,-0.01353
3.296,-0.00698
3.3,0.0015
3.304,-0.03081
3.308,-0.03808
3.312,-0.02174
3.316,-0.01819
3.32,-0.03529
3.324,-0.00992
3.328,-0.00434
3.332,-0.04404
3.336,-0.03272
3.34,-0.02106
3.344,-0.0209
3.348,-0.01823
3.352,-0.00689
3.356,-0.02231
3.36,-0.02253
3.364,-0.01377
3.368,0.01476
3.372,-0.00206
3.376,0.00558
3.38,0.04129
3.384,0.00677
3.388,0.03703
3.392,0.049
3.396,0.03488
3.4,0.02226
3.404,0.04959
3.408,0.05742
3.412,0.06788
3.416,0.07767
3.42,0.07797
3.424,0.10046
3.428,0.10457
3.432,0.12619
3.436,0.15381
3.44,0.16801
3.444,0.17254
3.448,0.1951
3.452,0.20228
3.456,0.21686
3.46,0.1969
3.464,0.19956
3.468,0.20091
3.472,0.18614
3.476,0.21442
3.48,0.18332
3.484,0.15592
3.488,0.19305
3.492,0.15042
3.496,0.16306
3.5,0.1303
3.504,0.15554
3.508,0.13824
3.512,0.11435
3.516,0.10103
3.52,0.11023
3.524,0.0436
3.528,0.09494
3.532,0.08285
3.536,0.04711
3.54,0.03591
3.544,0.02323
3.548,0.02651
3.552,0.03708
3.556,0.01513
3.56,-0.00383
3.564,-0.00658
3.568,0.05118
3.572,0.00039
3.576,-0.03431
3.58,0.00266
3.584,0.02169
3.588,-0.00841
3.592,-0.00922
3.596,-0.01192
3.6,0.02217
3.604,-0.02016
3.608,-0.03701
3.612,-0.00417
3.616,0.01187
3.62,0.00365
3.624,-0.02504
3.628,-0.04592
3.632,0.00254
3.636,-0.03651
3.64,0.01398
3.644,-0.03043
3.648,-0.01573
3.652,-0.0327
3.656,-0.02005
3.66,-0.00196
3.664,-0.00841
3.668,-0.01608
3.672,-0.03667
3.676,-0.01314
3.68,-0.00969
3.684,-0.03025
3.688,-0.01935
3.692,0.00315
3.696,-0.01008
3.7,-0.00056
3.704,-0.05445
3.708,-0.00532
3.712,-0.01904
3.716,-0.01589
3.72,0.00158
3.724,-0.01351
3.728,-0.03954
3.732,0.00132
3.736,-0.00733
3.74,0.00505
3.744,-0.00436
3.748,0.00294
3.752,-0.04174
3.756,0.00284
3.76,0.00372
3.764,-0.01384
3.768,0.00463
3.772,-0.0152
3.776,0.00088
3.78,-0.03264
3.784,-0.01169
3.788,0.02154
3.792,0.0097
3.796,0.02996
3.8,0.01102
3.804,0.0225
3.808,0.0308
3.812,0.03363
3.816,0.07296
3.82,0.0714
3.824,0.06392
3.828,0.10126
3.832,0.06137
3.836,0.07178
3.84,0.09854
3.844,0.09684
3.848,0.05866
3.852,0.05951
3.856,0.02597
3.86,0.0121
3.864,0.00256
3.868,0.00085
3.872,0.01629
3.876,-0.00556
3.88,-0.0165
3.884,-0.00886
3.888,-0.00634
3.892,-0.00587
3.896,-0.01201
3.9,-0.02907
3.904,-0.01955
3.908,-0.00533
3.912,-0.01088
3.916,-0.00662
3.92,-0.00348
3.924,-0.00318
3.928,0.01641
3.932,-0.00525
3.936,-0.0278
3.94,-0.03177
3.944,-0.02018
3.948,-0.04644
3.952,-0.11837
3.956,-0.12729
3.96,-0.11493
3.964,-0.03755
3.968,0.04153
3.972,0.23625
3.976,0.43936
3.98,0.6698
3.984,0.83155
3.988,0.97397
3.992,0.96773
3.996,0.87407
4.0,0.7095
4.004,0.44057
4.008,0.2479
4.012,0.07825
4.016,-0.09165
4.02,-0.14284
4.024,-0.18933
4.028,-0.16164
4.032,-0.13193
4.036,-0.08263
4.04,-0.0317
4.044,-0.01151
4.048,-0.01762
4.052,-0.00678
4.056,-0.01105
4.06,-0.00157
4.064,-0.00479
4.068,-0.00721
4.072,-0.01402
4.076,0.00717
4.08,-0.00248
4.084,0.01126
4.088,0.00102
4.092,0.0224
4.096,-0.02646
4.1,-0.00462
4.104,-0.00692
4.108,-0.00863
4.112,-0.00256
4.116,-0.02208
4.12,-0.02376
4.124,-0.00518
4.128,0.00085
4.132,-0.01013
4.136,0.03466
4.14,0.00142
4.144,0.03032
4.148,-0.00304
4.152,-0.01839
4.156,0.00374
4.16,0.01627
4.164,0.01989
4.168,0.02603
4.172,0.02212
4.176,0.01478
4.18,0.01975
4.184,0.02972
4.188,0.05415
4.192,0.06914
4.196,0.04383
4.2,0.02556
4.204,0.06353
4.208,0.07837
4.212,0.07171
4.216,0.08974
4.22,0.10359
4.224,0.15704
4.228,0.11359
4.232,0.12894
4.236,0.16992
4.24,0.14455
4.244,0.16011
4.248,0.15405
4.252,0.18462
4.256,0.21184
4.26,0.22568
4.264,0.21998
4.268,0.23634
4.272,0.23812
4.276,0.25238
4.28,0.19482
4.284,0.21882
4.288,0.21579
4.292,0.17304
4.296,0.1896
4.3,0.13874
4.304,0.15909
4.308,0.16491
4.312,0.15872
4.316,0.11773
4.32,0.11534
4.324,0.12319
4.328,0.08929
4.332,0.08471
4.336,0.08461
4.34,0.06004
4.344,0.07991
4.348,0.03392
4.352,0.05031
4.356,0.04273
4.36,0.0254
4.364,0.02154
4.368,0.02571
4.372,0.01882
4.376,0.01366
4.38,0.00633
4.384,0.01623
4.388,0.00975
4.392,0.01684
4.396,-0.01161
4.4,-0.0135
4.404,0.00789
4.408,0.01913
4.412,0.00393
4.416,-0.00255
4.42,0.00629
4.424,-0.00925
4.428,-0.01439
4.432,-0.00548
4.436,0.00515
4.44,-0.01575
4.444,0.01862
4.448,-0.01878
4.452,0.01382
4.456,-0.00336
4.46,0.01243
4.464,0.01366
4.468,0.01687
4.472,0.02184
4.476,0.00694
4.48,-0.02023
4.484,0.01181
4.488,0.00116
4.492,0.00129
4.496,-0.01034
4.5,-0.01217
4.504,-0.01508
4.508,-0.00143
4.512,-0.01004
4.516,-0.00478
4.52,-0.00568
4.524,0.01532
4.528,-0.02807
4.532,0.0094
4.536,0.01857
4.54,-0.0024
4.544,0.03187
4.548,-0.01546
4.552,0.04016
4.556,-0.00153
4.56,0.01798
4.564,-0.00843
4.568,-0.0093
4.572,0.04444
4.576,0.00543
4.58,-0.00474
4.584,-0.02213
4.588,0.02861
4.592,0.02113
4.596,0.03191
4.6,0.03859
4.604,0.04534
4.608,0.02943
4.612,0.04503
4.616,0.01237
4.62,0.06957
4.624,0.07149
4.628,0.10633
4.632,0.11401
4.636,0.08985
4.64,0.11205
4.644,0.14322
4.648,0.11064
4.652,0.09151
4.656,0.10488
4.66,0.09788
4.664,0.05343
4.668,0.07905
4.672,0.04646
4.676,0.01452
4.68,0.02864
4.684,0.0128
4.688,0.0326
4.692,0.00348
4.696,-0.00411
4.7,-0.01453
4.704,0.01898
4.708,0.01819
4.712,0.02159
4.716,0.00973
4.72,0.014
4.724,0.03137
4.728,0.02021
4.732,0.03962
4.736,0.00025
4.74,-0.00825
4.744,0.00253
4.748,0.01129
4.752,0.00746
4.756,-0.02504
4.76,-0.03059
4.764,-0.07619
4.768,-0.11356
4.772,-0.07802
4.776,-0.01656
4.78,0.11388
4.784,0.30993
4.788,0.49516
4.792,0.73499
4.796,0.89955
4.8,1.01355
4.804,0.9807
4.808,0.86121
4.812,0.68724
4.816,0.43152
4.82,0.2254
4.824,0.03802
4.828,-0.07194
4.832,-0.14113
4.836,-0.15834
4.84,-0.14218
4.844,-0.07549
4.848,-0.03372
4.852,-0.01159
4.856,-0.00342
4.86,0.00955
4.864,0.01576
4.868,0.0085
4.872,0.03893
4.876,-0.00266
4.88,0.00506
4.884,0.00545
4.888,0.03046
4.892,0.02309
4.896,0.04608
4.9,0.01135
4.904,-0.00921
4.908,0.03224
4.912,0.03097
4.916,0.01505
4.92,-0.00599
4.924,0.02322
4.928,0.03959
4.932,0.0206
4.936,0.02204
4.94,0.02211
4.944,0.04107
4.948,0.02144
4.952,0.02029
4.956,0.02709
4.96,0.03542
4.964,0.01771
4.968,0.05023
4.972,0.02149
4.976,0.03138
4.98,0.05461
4.984,0.0536
4.988,0.056
4.992,0.04393
4.996,0.03364
5.0,0.05817
5.004,0.03412
5.008,0.08811
5.012,0.08348
5.016,0.08436
5.02,0.11471
5.024,0.11941
5.028,0.1067
5.032,0.13934
5.036,0.15012
5.04,0.1398
5.044,0.15862
5.048,0.19953
5.052,0.18935
5.056,0.21897
5.06,0.19582
5.064,0.20485
5.068,0.23309
5.072,0.22002
5.076,0.19931
5.08,0.22603
5.084,0.23116
5.088,0.23605
5.092,0.25548
5.096,0.22923
5.1,0.24963
5.104,0.21106
5.108,0.23121
5.112,0.18574
5.116,0.21189
5.12,0.14636
5.124,0.15864
5.128,0.15958
5.132,0.13048
5.136,0.14341
5.14,0.09693
5.144,0.1135
5.148,0.10798
5.152,0.09112
5.156,0.08963
5.16,0.05974
5.164,0.05551
5.168,0.09085
5.172,0.05586
5.176,0.04948
5.18,0.06297
5.184,0.03604
5.188,0.03165
5.192,0.04647
5.196,0.0423
5.2,0.02137
5.204,0.02814
5.208,0.01526
5.212,0.03955
5.216,0.03792
5.22,0.01957
5.224,0.04134
5.228,0.03169
5.232,0.02036
5.236,0.01468
5.24,0.02182
5.244,0.00334
5.248,0.02803
5.252,0.03013
5.256,0.04621
5.26,0.05727
5.264,0.05089
5.268,0.00675
5.272,0.0387
5.276,0.01348
5.28,0.0489
5.284,0.0494
5.288,0.02481
5.292,0.04333
5.296,0.02625
5.3,0.04181
5.304,0.03529
5.308,0.02861
5.312,0.01777
5.316,0.04063
5.32,0.01843
5.324,0.00146
5.328,0.02976
5.332,0.03359
5.336,0.03391
5.34,0.02039
5.344,0.00903
5.348,0.02643
5.352,0.01406
5.356,0.0135
5.36,0.03312
5.364,0.00857
5.368,0.02314
5.372,0.01189
5.376,0.0291
5.38,0.01705
5.384,0.03129
5.388,0.02019
5.392,0.01112
5.396,0.03696
5.4,0.01953
5.404,0.03014
5.408,0.01028
5.412,0.02081
5.416,0.04332
5.42,0.019
5.424,0.05481
5.428,0.0347
5.432,0.02209
5.436,0.04226
5.44,0.05373
5.444,0.0328
5.448,0.04221
5.452,0.02297
5.456,0.01264
5.46,0.02525
5.464,0.02258
5.468,0.0496
5.472,0.0385
5.476,0.04514
5.48,0.09089
5.484,0.07379
5.488,0.11051
5.492,0.1181
5.496,0.1402
5.5,0.13722
5.504,0.14742
5.508,0.13368
5.512,0.10745
5.516,0.10659
5.52,0.0713
5.524,0.08469
5.528,0.03489
5.532,0.07305
5.536,0.03961
5.54,0.05715
5.544,0.02581
5.548,0.05043
5.552,0.00869
5.556,0.03462
5.56,0.0091
5.564,0.01374
5.568,0.02848
5.572,0.03626
5.576,0.04088
5.58,-0.00819
5.584,0.01918
5.588,0.03195
5.592,0.01865
5.596,0.04017
5.6,0.00455
5.604,0.05105
5.608,0.03406
5.612,0.02758
5.616,0.00615
5.62,0.0063
5.624,-0.02241
5.628,-0.05147
5.632,-0.07975
5.636,-0.06509
5.64,0.00747
5.644,0.18201
5.648,0.3798
5.652,0.57597
5.656,0.77854
5.66,0.9455
5.664,1.03275
5.668,0.98767
5.672,0.83317
5.676,0.649
5.68,0.40479
5.684,0.1954
5.688,0.00849
5.692,-0.08691
5.696,-0.12065
5.7,-0.12938
5.704,-0.09998
5.708,-0.07718
5.712,-0.01268
5.716,0.00685
5.72,0.01483
5.724,0.02204
5.728,0.0387
5.732,0.04378
5.736,0.02164
5.74,0.0265
5.744,0.04649
5.748,0.02808
5.752,0.03209
5.756,0.05234
5.76,0.05109
5.764,0.0177
5.768,0.02995
5.772,0.02687
5.776,0.02163
5.78,0.0147
5.784,0.04446
5.788,0.02721
5.792,0.03467
5.796,0.0048
5.8,0.03064
5.804,0.03478
5.808,0.04597
5.812,0.04092
5.816,0.05834
5.82,0.01891
5.824,0.06556
5.828,0.04124
5.832,0.04416
5.836,0.03016
5.84,0.03384
5.844,0.06024
5.848,0.04006
5.852,0.10145
5.856,0.07272
5.86,0.08606
5.864,0.07564
5.868,0.08365
5.872,0.07755
5.876,0.1241
5.88,0.11146
5.884,0.1082
5.888,0.08783
5.892,0.1374
5.896,0.15206
5.9,0.16173
5.904,0.16773
5.908,0.18877
5.912,0.19639
5.916,0.18945
5.92,0.22542
5.924,0.22389
5.928,0.24362
5.932,0.20457
5.936,0.24565
5.94,0.25758
5.944,0.23213
5.948,0.22537
5.952,0.24205
5.956,0.24537
5.96,0.2642
5.964,0.22824
5.968,0.22218
5.972,0.25301
5.976,0.22148
5.98,0.20628
5.984,0.20033
5.988,0.2126
5.992,0.14386
5.996,0.15535
6.0,0.12943
6.004,0.11981
6.008,0.10353
6.012,0.08972
6.016,0.11331
6.02,0.08721
6.024,0.08173
6.028,0.08655
6.032,0.07769
6.036,0.06925
6.04,0.05676
6.044,0.0505
6.048,0.03841
6.052,0.05042
6.056,0.02731
6.06,0.03114
6.064,0.02293
6.068,0.05189
6.072,0.03651
6.076,0.00696
6.08,0.02884
6.084,0.02986
6.088,0.01439
6.092,0.01966
6.096,0.02485
6.1,0.04144
6.104,0.0337
6.108,0.02158
6.112,0.036
6.116,0.02828
6.12,0.01711
6.124,0.03442
6.128,0.03801
6.132,0.01487
6.136,0.04084
6.14,0.05183
6.144,0.01378
6.148,0.02662
6.152,0.01969
6.156,0.0073
6.16,0.03071
6.164,0.0172
6.168,0.04308
6.172,0.00778
6.176,-0.01086
6.18,0.03191
6.184,0.01597
6.188,0.02427
6.192,0.04945
6.196,0.03784
6.2,0.04499
6.204,0.04053
6.208,0.05109
6.212,0.03708
6.216,0.03228
6.22,0.03038
6.224,0.05448
6.228,0.03802
6.232,0.03013
6.236,0.07287
6.24,0.01757
6.244,0.07725
6.248,0.0802
6.252,0.1059
6.256,0.08764
6.26,0.10984
6.264,0.10289
6.268,0.11393
6.272,0.14814
6.276,0.13526
6.28,0.11419
6.284,0.11458
6.288,0.10435
6.292,0.0885
6.296,0.09011
6.3,0.06268
6.304,0.03723
6.308,0.0567
6.312,0.04107
6.316,0.03797
6.32,0.02383
6.324,0.02434
6.328,0.05548
6.332,0.02284
6.336,0.02523
6.34,0.01412
6.344,0.02609
6.348,0.03388
6.352,0.04666
6.356,0.00818
6.36,0.02233
6.364,0.01906
6.368,0.0209
6.372,0.05313
6.376,0.03032
6.38,0.03449
6.384,0.00139
6.388,0.02337
6.392,-0.0323
6.396,-0.06517
6.4,-0.05755
6.404,-0.06469
6.408,-0.03956
6.412,0.11188
6.416,0.25521
6.42,0.47045
6.424,0.67389
6.428,0.88569
6.432,0.98349
6.436,1.01018
6.44,0.95769
6.444,0.74501
6.448,0.51843
6.452,0.31136
6.456,0.09243
6.46,-0.03145
6.464,-0.13991
6.468,-0.16451
6.472,-0.09976
6.476,-0.07572
6.48,-0.02218
6.484,-0.00376
6.488,0.02395
6.492,0.00856
6.496,0.00757
6.5,0.03498
6.504,0.04308
6.508,0.00416
6.512,0.01832
6.516,0.02445
6.52,0.0467
6.524,0.03204
6.528,0.03173
6.532,0.03818
6.536,0.01816
6.54,0.0283
6.544,0.03799
6.548,0.02182
6.552,0.00862
6.556,-0.00209
6.56,0.04082
6.564,0.02722
6.568,0.02172
6.572,0.00016
6.576,0.04154
6.58,0.02476
6.584,0.04646
6.588,0.04288
6.592,0.02152
6.596,0.04361
6.6,0.03043
6.604,0.02667
6.608,0.07017
6.612,0.0638
6.616,0.04399
6.62,0.05566
6.624,0.05168
6.628,0.07162
6.632,0.07392
6.636,0.10008
6.64,0.07676
6.644,0.08418
6.648,0.10385
6.652,0.09672
6.656,0.11829
6.66,0.12881
6.664,0.13584
6.668,0.15588
6.672,0.13427
6.676,0.19786
6.68,0.1704
6.684,0.20061
6.688,0.20338
6.692,0.23684
6.696,0.2081
6.7,0.24006
6.704,0.23868
6.708,0.21487
6.712,0.27552
6.716,0.23487
6.72,0.24733
6.724,0.23655
6.728,0.24248
6.732,0.235
6.736,0.22127
6.74,0.21874
6.744,0.18697
6.748,0.17331
6.752,0.17833
6.756,0.18107
6.76,0.14509
6.764,0.14981
6.768,0.12509
6.772,0.12214
6.776,0.09872
6.78,0.10687
6.784,0.12405
6.788,0.08027
6.792,0.06037
6.796,0.04293
6.8,0.05361
6.804,0.05167
6.808,0.042
6.812,0.06162
6.816,0.01517
6.82,0.03817
6.824,0.02574
6.828,0.01684
6.832,0.03639
6.836,0.04484
6.84,0.00518
6.844,0.02685
6.848,0.04344
6.852,0.0052
6.856,0.04228
6.86,0.037
6.864,0.0322
6.868,0.02311
6.872,0.01515
6.876,0.03102
6.88,0.02206
6.884,0.02213
6.888,0.02662
6.892,-0.00215
6.896,0.02171
6.9,-0.00016
6.904,0.02253
6.908,0.01028
6.912,0.03344
6.916,-0.01288
6.92,0.01826
6.924,0.02352
6.928,0.02838
6.932,0.01479
6.936,-0.0035
6.94,0.01751
6.944,0.01547
6.948,0.00722
6.952,0.00056
6.956,0.05157
6.96,0.03278
6.964,0.02583
6.968,0.00402
6.972,0.0248
6.976,0.02879
6.98,0.00343
6.984,0.00125
6.988,-0.00612
6.992,0.00797
6.996,0.01797
7.0,0.02708
7.004,0.03123
7.008,0.00416
7.012,0.01791
7.016,0.01406
7.02,0.03297
7.024,0.05009
7.028,-0.00344
7.032,-0.00466
7.036,0.00825
7.04,0.02061
7.044,0.01352
7.048,0.01615
7.052,0.00269
7.056,0.02376
7.06,0.01453
7.064,0.04939
7.068,0.01094
7.072,0.01335
7.076,0.03751
7.08,0.00564
7.084,0.04189
7.088,0.03352
7.092,0.02402
7.096,0.05872
7.1,0.03595
7.104,0.06087
7.108,0.06537
7.112,0.08551
7.116,0.08487
7.12,0.1097
7.124,0.10338
7.128,0.10254
7.132,0.10417
7.136,0.10388
7.14,0.10399
7.144,0.09491
7.148,0.1078
7.152,0.07766
7.156,0.03323
7.16,0.06035
7.164,0.05665
7.168,0.03107
7.172,0.03091
7.176,0.02613
7.18,0.01268
7.184,-0.008
7.188,-0.00818
7.192,-0.01559
7.196,0.00217
7.2,0.02166
7.204,0.00578
7.208,0.02545
7.212,0.0066
7.216,-0.00368
7.22,0.01877
7.224,-0.00117
7.228,0.03124
7.232,0.03821
7.236,0.00977
7.24,0.01002
7.244,-0.012
7.248,-0.00068
7.252,-0.05933
7.256,-0.09225
7.26,-0.11246
7.264,-0.07649
7.268,0.07771
7.272,0.25434
7.276,0.41633
7.28,0.65532
7.284,0.84415
7.288,0.96968
7.292,1.00828
7.296,0.91422
7.3,0.77639
7.304,0.526
7.308,0.27993
7.312,0.08509
7.316,-0.02105
7.32,-0.1434
7.324,-0.16554
7.328,-0.13264
7.332,-0.12206
7.336,-0.05967
7.34,-0.02641
7.344,0.00207
7.348,0.0208
7.352,-0.00942
7.356,0.02678
7.36,0.008
7.364,-0.00543
7.368,0.02721
7.372,0.01305
7.376,-0.00056
7.38,0.00463
7.384,0.02585
7.388,0.01842
7.392,0.02757
7.396,0.00139
7.4,0.01034
7.404,-0.01052
7.408,0.00191
7.412,-0.01233
7.416,-0.00696
7.42,0.01676
7.424,0.02483
7.428,-0.00134
7.432,-0.01087
7.436,-0.00223
7.44,0.0261
7.444,-0.01056
7.448,0.01044
7.452,-0.01302
7.456,0.02546
7.46,-0.00528
7.464,0.02678
7.468,0.0239
7.472,-0.00487
7.476,0.02896
7.48,0.03188
7.484,0.02694
7.488,0.03777
7.492,0.04644
7.496,0.06322
7.5,0.05355
7.504,0.10106
7.508,0.09146
7.512,0.10025
7.516,0.12382
7.52,0.10909
7.524,0.1197
7.528,0.14764
7.532,0.14448
7.536,0.16268
7.54,0.17787
7.544,0.20401
7.548,0.18805
7.552,0.22842
7.556,0.21665
7.56,0.19735
7.564,0.23525
7.568,0.22859
7.572,0.19799
7.576,0.2398
7.58,0.20997
7.584,0.21462
7.588,0.22821
7.592,0.20719
7.596,0.25249
7.6,0.18531
7.604,0.17546
7.608,0.14346
7.612,0.13804
7.616,0.13451
7.62,0.10573
7.624,0.11228
7.628,0.11079
7.632,0.078
7.636,0.07487
7.64,0.07538
7.644,0.07217
7.648,0.04849
7.652,0.03968
7.656,0.04068
7.66,0.01536
7.664,0.04907
7.668,0.01318
7.672,0.02133
7.676,0.00566
7.68,0.02411
7.684,0.01593
7.688,0.00948
7.692,-0.00758
7.696,0.02285
7.7,0.0143
7.704,0.01101
7.708,0.0118
7.712,-0.00488
7.716,-0.00671
7.72,0.00463
7.724,-0.00363
7.728,-0.00248
7.732,0.00945
7.736,0.03824
7.74,0.02694
7.744,0.00839
7.748,-0.01246
7.752,0.03461
7.756,0.00639
7.76,0.04344
7.764,0.05795
7.768,0.06299
7.772,0.07942
7.776,0.0722
7.78,0.0918
7.784,0.09548
7.788,0.09962
7.792,0.11762
7.796,0.09277
7.8,0.06505
7.804,0.10059
7.808,0.04797
7.812,0.02199
7.816,0.01049
7.82,0.02561
7.824,-0.00052
7.828,0.02153
7.832,-0.00915
7.836,0.00849
7.84,0.0038
7.844,-0.01586
7.848,0.00649
7.852,0.01048
7.856,-0.01389
7.86,-0.02151
7.864,-0.01053
7.868,-0.03827
7.872,-0.00189
7.876,0.01109
7.88,-0.0107
7.884,-0.00033
7.888,-0.04822
7.892,0.00892
7.896,-0.0008
7.9,-0.01566
7.904,-0.04704
7.908,-0.06484
7.912,-0.11345
7.916,-0.12834
7.92,-0.08062
7.924,0.0587
7.928,0.22966
7.932,0.39255
7.936,0.61443
7.94,0.8054
7.944,0.98012
7.948,0.99364
7.952,0.91018
7.956,0.73941
7.96,0.54307
7.964,0.27574
7.968,0.10801
7.972,-0.06088
7.976,-0.147
7.98,-0.18449
7.984,-0.15024
7.988,-0.11557
7.992,-0.08948
7.996,-0.02584
8.0,-0.02754
8.004,-0.00776
8.008,-0.01208
8.012,-0.00899
8.016,-0.01393
8.02,-0.01156
8.024,0.0246
8.028,-0.01212
8.032,-0.0114
8.036,0.00883
8.04,-0.02134
8.044,-0.01694
8.048,-0.03755
8.052,-0.01824
8.056,-0.01598
8.06,-0.00664
8.064,0.00218
8.068,-0.03284
8.072,-0.03778
8.076,-0.02818
8.08,-0.00569
8.084,0.01888
8.088,-0.01601
8.092,0.00901
8.096,-0.00981
8.1,0.03273
8.104,-0.01851
8.108,-0.00167
8.112,0.00203
8.116,0.00768
8.12,0.01399
8.124,0.01005
8.128,-0.0029
8.132,-0.00705
8.136,0.04093
8.14,0.00876
8.144,0.04037
8.148,0.02069
8.152,0.02045
8.156,0.02472
8.16,0.04927
8.164,0.08835
8.168,0.0863
8.172,0.10537
8.176,0.12349
8.18,0.10866
8.184,0.12974
8.188,0.1281
8.192,0.15252
8.196,0.15608
8.2,0.17477
8.204,0.15751
8.208,0.20252
8.212,0.19022
8.216,0.19642
8.22,0.19909
8.224,0.16461
8.228,0.2173
8.232,0.20842
8.236,0.21056
8.24,0.17897
8.244,0.17131
8.248,0.1956
8.252,0.13815
8.256,0.17384
8.26,0.16514
8.264,0.1423
8.268,0.10387
8.272,0.11507
8.276,0.11286
8.28,0.08442
8.284,0.10187
8.288,0.04235
8.292,0.08635
8.296,0.07261
8.3,0.06459
8.304,0.05721
8.308,0.02517
8.312,0.01095
8.316,0.01922
8.32,-0.00081
8.324,-0.01597
8.328,0.02738
8.332,0.00192
8.336,-0.00601
8.34,-0.00593
8.344,0.00118
8.348,-0.0113
8.352,-0.03377
8.356,-0.03412
8.36,0.00714
8.364,-0.00832
8.368,-0.00702
8.372,-0.03227
8.376,-0.02817
8.38,-0.03407
8.384,-0.02808
8.388,0.02173
8.392,-0.02221
8.396,0.01505
8.4,-0.00999
8.404,-0.02553
8.408,-0.04196
8.412,-0.01231
8.416,-0.01588
8.42,-0.03785
8.424,-0.00699
8.428,-0.02679
8.432,-0.01326
8.436,-0.02848
8.44,-0.04168
8.444,-0.02168
8.448,-0.03529
8.452,-0.04521
8.456,-0.01731
8.46,-0.02146
8.464,-0.0208
8.468,-0.03504
8.472,-0.03373
8.476,-0.02052
8.48,-0.01376
8.484,-0.01552
8.488,-0.04087
8.492,-0.03178
8.496,-0.01646
8.5,-0.03647
8.504,-0.02811
8.508,-0.04551
8.512,-0.0111
8.516,-0.01297
8.52,-0.04363
8.524,-0.00137
8.528,-0.03351
8.532,-0.02165
8.536,-0.00628
8.54,-0.04756
8.544,0.00469
8.548,-0.03505
8.552,0.00526
8.556,-0.02025
8.56,0.03467
8.564,0.05121
8.568,0.04434
8.572,0.05207
8.576,0.08794
8.58,0.03375
8.584,0.08537
8.588,0.07981
8.592,0.06251
8.596,0.06247
8.6,0.03899
8.604,0.02351
8.608,0.03644
8.612,0.03214
8.616,0.003
8.62,0.00339
8.624,0.02917
8.628,-0.00759
8.632,-0.01495
8.636,-0.02022
8.64,0.00603
8.644,-0.02636
8.648,-0.01781
8.652,-0.01899
8.656,-0.00883
8.66,-0.02519
8.664,-0.05566
8.668,-0.0045
8.672,-0.03912
8.676,-0.03057
8.68,-0.02261
8.684,-0.0189
8.688,-0.03017
8.692,-0.02482
8.696,-0.05286
8.7,-0.03311
8.704,-0.04907
8.708,-0.14044
8.712,-0.10882
8.716,-0.12451
8.72,-0.05097
8.724,0.07967
8.728,0.23883
8.732,0.44814
8.736,0.68324
8.74,0.85034
8.744,0.97356
8.748,0.97018
8.752,0.85932
8.756,0.64731
8.76,0.40052
8.764,0.23227
8.768,0.01339
8.772,-0.12218
8.776,-0.179
8.78,-0.1784
8.784,-0.15094
8.788,-0.14206
8.792,-0.09001
8.796,-0.05383
8.8,-0.04213
8.804,-0.02081
8.808,-0.02495
8.812,-0.02374
8.816,-0.04098
8.82,-0.02085
8.824,-0.02384
8.828,-0.03193
8.832,-0.01813
8.836,-0.00523
8.84,-0.03316
8.844,-0.02196
8.848,-0.01859
8.852,-0.03458
8.856,-0.03812
8.86,-0.03659
8.864,0.01068
8.868,-0.04183
8.872,0.001
8.876,-0.01843
8.88,-0.01538
8.884,-0.00708
8.888,-0.0229
8.892,-0.01622
8.896,-0.02767
8.9,-0.00294
8.904,-0.02141
8.908,-0.02585
8.912,-0.02896
8.916,-0.02082
8.92,-0.00695
8.924,-0.00895
8.928,0.00794
8.932,-0.01689
8.936,0.01364
8.94,0.02277
8.944,0.01783
8.948,0.01937
8.952,0.04266
8.956,0.03779
8.96,0.07077
8.964,0.06409
8.968,0.06257
8.972,0.07752
8.976,0.10673
8.98,0.09599
8.984,0.10222
8.988,0.14147
8.992,0.14435
8.996,0.14635
9.0,0.17307
9.004,0.12763
9.008,0.15669
9.012,0.17558
9.016,0.19903
9.02,0.20166
9.024,0.19126
9.028,0.19862
9.032,0.17185
9.036,0.17745
9.04,0.19406
9.044,0.17985
9.048,0.18048
9.052,0.14147
9.056,0.14941
9.06,0.12284
9.064,0.11275
9.068,0.1043
9.072,0.08868
9.076,0.1179
9.08,0.06812
9.084,0.07829
9.088,0.05053
9.092,0.03159
9.096,0.01267
9.1,0.04525
9.104,0.02225
9.108,-0.01729
9.112,0.03713
9.116,0.01314
9.12,0.02351
9.124,-0.01254
9.128,-0.04348
9.132,-0.00232
9.136,-0.02954
9.14,-0.02271
9.144,-0.00727
9.148,-0.03025
9.152,0.00629
9.156,-0.05484
9.16,-0.0192
9.164,-0.00968
9.168,-0.00818
9.172,-0.03169
9.176,-0.02535
9.18,-0.00761
9.184,-0.01338
9.188,-0.02552
9.192,-0.03854
9.196,-0.02276
9.2,-0.00751
9.204,-0.01273
9.208,-0.03036
9.212,-0.04335
9.216,-0.03075
9.22,-0.03266
9.224,-0.04575
9.228,-0.02424
9.232,-0.02107
9.236,-0.00396
9.24,-0.01551
9.244,-0.0325
9.248,-0.04583
9.252,-0.02183
9.256,-0.05265
9.26,-0.03047
9.264,0.00189
9.268,-0.01351
9.272,-0.02957
9.276,-0.02691
9.28,-0.02759
9.284,-0.01883
9.288,0.00701
9.292,-0.0369
9.296,-0.01951
9.3,-0.03853
9.304,-0.02021
9.308,-0.03005
9.312,-0.03185
9.316,-0.02294
9.32,-0.02607
9.324,-0.04175
9.328,-0.013
9.332,-0.03025
9.336,0.03473
9.34,-0.00191
9.344,-0.00635
9.348,0.04529
9.352,0.03017
9.356,0.04763
9.36,0.06872
9.364,0.09036
9.368,0.05672
9.372,0.05855
9.376,0.06107
9.38,0.04765
9.384,0.03789
9.388,0.02489
9.392,0.01307
9.396,0.002
9.4,0.00773
9.404,-0.01174
9.408,-0.03489
9.412,-0.03587
9.416,-0.01761
9.42,-0.01335
9.424,-0.0091
9.428,-0.01377
9.432,-0.02507
9.436,-0.01147
9.44,0.00362
9.444,-0.0395
9.448,-0.04985
9.452,-0.02915
9.456,-0.02293
9.46,-0.01523
9.464,-0.02545
9.468,-0.01794
9.472,-0.04944
9.476,-0.01829
9.48,-0.02792
9.484,-0.06735
9.488,-0.11922
9.492,-0.15076
9.496,-0.15488
9.5,-0.07527
9.504,0.02668
9.508,0.20573
9.512,0.41213
9.516,0.63028
9.52,0.81727
9.524,0.93751
9.528,0.98009
9.532,0.86433
9.536,0.68744
9.54,0.46803
9.544,0.27798
9.548,0.04598
9.552,-0.09875
9.556,-0.17512
9.56,-0.21332
9.564,-0.20248
9.568,-0.12271
9.572,-0.06334
9.576,-0.06612
9.58,-0.06915
9.584,-0.03178
9.588,-0.02705
9.592,-0.00414
9.596,-0.02648
9.6,-0.01561
9.604,-0.04193
9.608,-0.04999
9.612,-0.04786
9.616,-0.00509
9.62,-0.01266
9.624,-0.05219
9.628,-0.02403
9.632,-0.03179
9.636,-0.01805
9.64,-0.0276
9.644,-0.03342
9.648,-0.02222
9.652,-0.01986
9.656,-0.03552
9.66,-0.04957
9.664,-0.05229
9.668,-0.00728
9.672,-0.04237
9.676,-0.05889
9.68,-0.01764
9.684,-0.01294
9.688,-0.03599
9.692,-0.02222
9.696,-0.02945
9.7,-0.00783
9.704,-0.01369
9.708,-0.00921
9.712,0.00961
9.716,-0.00318
9.72,-0.00953
9.724,0.00667
9.728,0.00498
9.732,0.03513
9.736,0.02606
9.74,0.06463
9.744,0.0907
9.748,0.05152
9.752,0.06187
9.756,0.07598
9.76,0.11837
9.764,0.12415
9.768,0.11943
9.772,0.137
9.776,0.15374
9.78,0.15387
9.784,0.17121
9.788,0.20151
9.792,0.18805
9.796,0.17268
9.8,0.17177
9.804,0.20737
9.808,0.2058
9.812,0.18837
9.816,0.20898
9.82,0.18888
9.824,0.18765
9.828,0.15594
9.832,0.15701
9.836,0.16953
9.84,0.14686
9.844,0.15043
9.848,0.13013
9.852,0.10021
9.856,0.07311
9.86,0.04459
9.864,0.08439
9.868,0.06619
9.872,0.07787
9.876,0.0247
9.88,0.01969
9.884,0.03118
9.888,0.03966
9.892,0.01331
9.896,0.01433
9.9,-0.02337
9.904,-0.00146
9.908,-0.01412
9.912,-0.0312
9.916,-0.02231
9.92,-0.05937
9.924,-0.02157
9.928,-0.02004
9.932,0.00196
9.936,0.00982
9.94,-0.03693
9.944,-0.01234
9.948,-0.01879
9.952,-0.02179
9.956,-0.03946
9.96,-0.03721
9.964,-0.02105
9.968,-0.01934
9.972,-0.02867
9.976,-0.01098
9.98,-0.03086
9.984,-0.02664
9.988,-0.03162
9.992,-0.01242
9.996,-0.02486
