t_seg,ecg_mV
0.0,-0.02328
0.004,-0.0773
0.008,-0.01522
0.012,0.03372
0.016,-0.02501
0.02,-0.02981
0.024,-0.02727
0.028,0.00571
0.032,0.03439
0.036,-0.08202
0.04,0.00802
0.044,-0.04411
0.048,-0.09447
0.052,-0.04023
0.056,-0.12222
0.06,-0.15295
0.064,-0.10648
0.068,-0.04543
0.072,0.16184
0.076,0.31041
0.08,0.61674
0.084,0.77534
0.088,0.89893
0.092,0.97552
0.096,0.90171
0.1,0.81389
0.104,0.60582
0.108,0.28647
0.112,0.14389
0.116,-0.00448
0.12,-0.10451
0.124,-0.19551
0.128,-0.19752
0.132,-0.14032
0.136,-0.06975
0.14,-0.04363
0.144,-0.02771
0.148,-0.03283
0.152,-0.04816
0.156,-0.06967
0.16,-0.00252
0.164,-0.03313
0.168,-0.00786
0.172,0.07281
0.176,-0.06612
0.18,0.02787
0.184,-0.04839
0.188,-0.02764
0.192,-0.03888
0.196,-0.01468
0.2,0.00216
0.204,-0.00375
0.208,0.04731
0.212,-0.03067
0.216,0.02135
0.22,-0.02726
0.224,-0.04225
0.228,-0.01263
0.232,-0.06342
0.236,0.03167
0.24,0.03898
0.244,-0.02268
0.248,-0.05705
0.252,0.01373
0.256,-0.00152
0.26,0.02096
0.264,-0.02963
0.268,0.01178
0.272,0.02743
0.276,0.08379
0.28,-0.01408
0.284,0.04947
0.288,0.00829
0.292,0.03748
0.296,0.09667
0.3,-0.0036
0.304,0.00444
0.308,0.05995
0.312,0.06316
0.316,0.15509
0.32,0.06441
0.324,0.17804
0.328,0.1182
0.332,0.16619
0.336,0.12769
0.34,0.10768
0.344,0.16825
0.348,0.22457
0.352,0.1899
0.356,0.19314
0.36,0.27639
0.364,0.15525
0.368,0.26619
0.372,0.29938
0.376,0.25647
0.38,0.27816
0.384,0.31928
0.388,0.28235
0.392,0.21873
0.396,0.25292
0.4,0.18145
0.404,0.23807
0.408,0.22099
0.412,0.18619
0.416,0.17599
0.42,0.12777
0.424,0.04764
0.428,0.06388
0.432,0.07806
0.436,0.1033
0.44,0.05314
0.444,0.09327
0.448,-0.00112
0.452,0.0595
0.456,-0.07208
0.46,0.03068
0.464,-0.02707
0.468,0.02244
0.472,-0.01265
0.476,-0.02935
0.48,0.00278
0.484,0.02509
0.488,0.00317
0.492,0.05252
0.496,-0.04583
0.5,-0.05054
0.504,-0.1153
0.508,-0.11868
0.512,-0.10306
0.516,-0.03721
0.52,0.02055
0.524,0.13057
0.528,0.36874
0.532,0.60774
0.536,0.8086
0.54,0.96987
0.544,1.01906
0.548,0.87868
0.552,0.69135
0.556,0.45098
0.56,0.28187
0.564,0.13821
0.568,-0.07341
0.572,-0.11656
0.576,-0.23106
0.58,-0.19379
0.584,-0.14378
0.588,-0.12281
0.592,-0.07518
0.596,-0.02876
0.6,-0.03149
0.604,-0.00205
0.608,-0.01453
0.612,-0.00974
0.616,-0.06071
0.62,-0.04021
0.624,-0.0337
0.628,0.01727
0.632,-0.03332
0.636,-0.03991
0.64,-0.04835
0.644,0.00799
0.648,-0.03679
0.652,-0.05884
0.656,-0.06648
0.66,-0.06366
0.664,0.00838
0.668,-0.06632
0.672,0.0072
0.676,0.03788
0.68,-0.03301
0.684,0.00738
0.688,0.03906
0.692,-0.06283
0.696,-0.025
0.7,0.07777
0.704,-0.00816
0.708,0.00342
0.712,0.02953
0.716,-0.03061
0.72,-0.01055
0.724,-0.00522
0.728,0.09157
0.732,0.02623
0.736,-0.04014
0.74,0.05556
0.744,0.01777
0.748,0.03394
0.752,0.03843
0.756,0.02432
0.76,0.0892
0.764,0.01868
0.768,0.09146
0.772,0.11285
0.776,0.1251
0.78,0.11659
0.784,0.16359
0.788,0.17178
0.792,0.15558
0.796,0.19521
0.8,0.13926
0.804,0.21286
0.808,0.21744
0.812,0.14594
0.816,0.18612
0.82,0.21872
0.824,0.13238
0.828,0.17095
0.832,0.1964
0.836,0.2112
0.84,0.23975
0.844,0.20081
0.848,0.11203
0.852,0.09833
0.856,0.09289
0.86,0.12192
0.864,0.11912
0.868,0.07923
0.872,0.06951
0.876,0.09543
0.88,0.1022
0.884,0.10685
0.888,0.02592
0.892,0.06653
0.896,-0.02991
0.9,0.00297
0.904,0.02532
0.908,-0.00029
0.912,-0.02549
0.916,-0.02115
0.92,-0.01487
0.924,0.00043
0.928,0.0172
0.932,-0.04652
0.936,-0.04014
0.94,-0.00231
0.944,-0.03031
0.948,-0.04253
0.952,-0.03022
0.956,-0.01457
0.96,-0.07097
0.964,-0.00716
0.968,-0.06875
0.972,-0.0603
0.976,-0.01407
0.98,0.01572
0.984,-6e-05
0.988,0.03462
0.992,0.05111
0.996,0.08378
1.0,0.14219
1.004,0.06389
1.008,0.0609
1.012,0.04757
1.016,0.09909
1.02,0.0232
1.024,0.02326
1.028,-0.06044
1.032,0.02224
1.036,-0.01789
1.04,-0.00959
1.044,0.0434
1.048,-0.00466
1.052,-0.02855
1.056,-0.06833
1.06,0.00812
1.064,-0.06036
1.068,-0.05891
1.072,-0.05292
1.076,-0.07095
1.08,-0.09877
1.084,-0.03989
1.088,-0.03546
1.092,-0.02905
1.096,-0.01942
1.1,0.00476
1.104,-0.01893
1.108,-0.0388
1.112,-0.03546
1.116,-0.04052
1.12,-0.01438
1.124,-0.03014
1.128,-0.07103
1.132,-0.16896
1.136,-0.10604
1.14,-0.11635
1.144,-0.04072
1.148,0.15934
1.152,0.36286
1.156,0.5581
1.16,0.73518
1.164,0.88882
1.168,0.99225
1.172,0.92195
1.176,0.75962
1.18,0.58368
1.184,0.36392
1.188,0.14281
1.192,-0.04913
1.196,-0.13198
1.2,-0.19244
1.204,-0.17359
1.208,-0.08715
1.212,-0.10589
1.216,-0.06842
1.22,-0.0127
1.224,-0.00736
1.228,-0.09733
1.232,-0.10538
1.236,-0.03815
1.24,-0.00356
1.244,-0.04198
1.248,0.00919
1.252,-0.04367
1.256,-0.00765
1.26,-0.03638
1.264,-0.04036
1.268,-0.11933
1.272,-0.03875
1.276,-0.01536
1.28,0.01765
1.284,0.01233
1.288,-0.03225
1.292,-0.00218
1.296,-0.01041
1.3,-0.09977
1.304,-0.02841
1.308,0.01192
1.312,0.02946
1.316,-0.05423
1.32,-0.04551
1.324,-0.0102
1.328,0.00227
1.332,-0.00534
1.336,0.00255
1.34,-0.01439
1.344,-0.04233
1.348,-0.05765
1.352,-0.05391
1.356,-0.00406
1.36,-0.03603
1.364,-0.01404
1.368,-0.02914
1.372,0.01821
1.376,0.00719
1.38,0.08335
1.384,0.00941
1.388,0.04864
1.392,0.09104
1.396,0.17812
1.4,0.07325
1.404,0.07893
1.408,0.13232
1.412,0.1368
1.416,0.14006
1.42,0.14662
1.424,0.1899
1.428,0.11088
1.432,0.12696
1.436,0.15309
1.44,0.19453
1.444,0.24466
1.448,0.19596
1.452,0.18587
1.456,0.26349
1.46,0.16391
1.464,0.19289
1.468,0.26876
1.472,0.21083
1.476,0.172
1.48,0.23207
1.484,0.22323
1.488,0.2704
1.492,0.17876
1.496,0.19767
1.5,0.2018
1.504,0.10341
1.508,0.15563
1.512,0.1046
1.516,0.14711
1.52,0.03995
1.524,0.06905
1.528,0.0647
1.532,0.06285
1.536,0.04937
1.54,-0.03165
1.544,0.01098
1.548,-0.0177
1.552,-0.02694
1.556,-0.03974
1.56,-0.03988
1.564,0.01815
1.568,-0.01392
1.572,0.02916
1.576,-0.02232
1.58,0.01782
1.584,-0.05491
1.588,-0.00075
1.592,-0.03194
1.596,0.00111
1.6,0.01315
1.604,-0.04229
1.608,-0.07101
1.612,-0.13094
1.616,-0.10293
1.62,-0.13562
1.624,-0.13636
1.628,0.05308
1.632,0.1794
1.636,0.33542
1.64,0.60693
1.644,0.82535
1.648,0.95221
1.652,0.96687
1.656,0.91892
1.66,0.75204
1.664,0.56135
1.668,0.32748
1.672,0.05975
1.676,-0.04583
1.68,-0.08076
1.684,-0.0611
1.688,-0.1451
1.692,-0.18224
1.696,-0.10058
1.7,-0.08442
1.704,-0.06014
1.708,-0.03661
1.712,-0.00543
1.716,-0.03025
1.72,-0.01727
1.724,-0.06235
1.728,-0.06508
1.732,0.01902
1.736,-0.0854
1.74,-0.03714
1.744,0.00479
1.748,-0.04338
1.752,-0.07025
1.756,-0.00942
1.76,-0.01099
1.764,0.02619
1.768,-0.06178
1.772,-0.01186
1.776,-0.0044
1.78,-0.09087
1.784,0.0088
1.788,0.00641
1.792,-0.0267
1.796,-0.03937
1.8,-0.10924
1.804,-0.03989
1.808,-0.04143
1.812,-0.02538
1.816,-0.03052
1.82,-0.04636
1.824,0.01371
1.828,0.05598
1.832,-0.01112
1.836,-0.03591
1.84,-0.03633
1.844,0.05716
1.848,0.00028
1.852,0.01335
1.856,0.04643
1.86,-0.04329
1.864,0.09549
1.868,0.08503
1.872,0.06399
1.876,0.02893
1.88,0.1273
1.884,0.13427
1.888,0.14081
1.892,0.1075
1.896,0.15848
1.9,0.20993
1.904,0.13522
1.908,0.20839
1.912,0.11714
1.916,0.17599
1.92,0.25312
1.924,0.24911
1.928,0.16431
1.932,0.22309
1.936,0.26623
1.94,0.20086
1.944,0.24357
1.948,0.22353
1.952,0.24682
1.956,0.12794
1.96,0.21163
1.964,0.16864
1.968,0.09606
1.972,0.09337
1.976,0.10548
1.98,0.06829
1.984,0.08622
1.988,0.04103
1.992,-0.03199
1.996,0.07904
2.0,0.01894
2.004,0.0718
2.008,0.02882
2.012,0.04837
2.016,0.01621
2.02,0.01053
2.024,-0.01058
2.028,-0.00833
2.032,0.0215
2.036,0.01961
2.04,-0.03815
2.044,0.00072
2.048,0.0141
2.052,-0.03246
2.056,-0.03014
2.06,0.02908
2.064,-0.05762
2.068,0.00686
2.072,-0.01521
2.076,-0.05342
2.08,-0.02211
2.084,-0.00802
2.088,0.00744
2.092,0.01985
2.096,0.00181
2.1,0.08007
2.104,0.06434
2.108,0.02706
2.112,0.08436
2.116,0.01548
2.12,0.03158
2.124,0.12867
2.128,0.12827
2.132,0.05172
2.136,0.07335
2.14,0.06988
2.144,0.05563
2.148,0.04148
2.152,-0.00504
2.156,0.0392
2.16,-0.02348
2.164,0.04209
2.168,-0.03346
2.172,-0.05597
2.176,-0.00227
2.18,0.00416
2.184,0.0255
2.188,-0.00194
2.192,0.05462
2.196,-0.00868
2.2,-0.03804
2.204,-0.05611
2.208,-0.0362
2.212,0.02531
2.216,-0.01608
2.22,-0.05355
2.224,-0.0279
2.228,-0.00355
2.232,-0.05062
2.236,-0.07326
2.24,0.00354
2.244,-0.04663
2.248,-0.13175
2.252,-0.16186
2.256,-0.07942
2.26,0.09253
2.264,0.18259
2.268,0.42677
2.272,0.65122
2.276,0.79136
2.28,0.94232
2.284,1.00037
2.288,0.88808
2.292,0.73435
2.296,0.39908
2.3,0.2828
2.304,0.06893
2.308,-0.01389
2.312,-0.10678
2.316,-0.18979
2.32,-0.1396
2.324,-0.08768
2.328,-0.07382
2.332,-0.02121
2.336,0.00579
2.34,0.01006
2.344,0.01072
2.348,-0.02434
2.352,0.0281
2.356,0.02922
2.36,-0.03451
2.364,0.03213
2.368,-0.04588
2.372,-0.03883
2.376,0.01509
2.38,0.03271
2.384,0.001
2.388,-0.02887
2.392,0.00632
2.396,0.00021
2.4,0.00093
2.404,-0.03142
2.408,0.03494
2.412,0.04261
2.416,0.04156
2.42,0.0552
2.424,-0.0373
2.428,-0.03625
2.432,0.07099
2.436,0.03793
2.44,0.05954
2.444,-0.04312
2.448,0.02956
2.452,-0.07641
2.456,-0.01612
2.46,-0.02491
2.464,0.02957
2.468,-0.01864
2.472,0.01221
2.476,0.05575
2.48,0.01918
2.484,0.03283
2.488,0.06649
2.492,0.01504
2.496,0.09891
2.5,0.06601
2.504,0.06197
2.508,0.11231
2.512,0.15722
2.516,0.14957
2.52,0.14338
2.524,0.14122
2.528,0.17323
2.532,0.21672
2.536,0.18038
2.54,0.20763
2.544,0.22001
2.548,0.2353
2.552,0.20106
2.556,0.22175
2.56,0.26364
2.564,0.26408
2.568,0.18677
2.572,0.2555
2.576,0.18682
2.58,0.21316
2.584,0.22636
2.588,0.17069
2.592,0.24655
2.596,0.11125
2.6,0.13842
2.604,0.18429
2.608,0.21275
2.612,0.12142
2.616,0.12278
2.62,0.05596
2.624,0.15102
2.628,0.08241
2.632,0.02992
2.636,0.02667
2.64,0.06823
2.644,0.03635
2.648,0.05088
2.652,0.00404
2.656,-0.01089
2.66,0.02945
2.664,0.06419
2.668,0.02284
2.672,0.027
2.676,-0.00816
2.68,-0.01743
2.684,0.00548
2.688,0.02719
2.692,-0.03245
2.696,-0.02472
2.7,0.01067
2.704,-0.01557
2.708,-0.0103
2.712,0.06685
2.716,0.02733
2.72,0.00589
2.724,-0.05132
2.728,-0.05031
2.732,-0.01298
2.736,-0.03531
2.74,0.0177
2.744,-0.08376
2.748,0.02087
2.752,0.07318
2.756,0.01543
2.76,-0.05271
2.764,-0.10274
2.768,-0.05177
2.772,0.00746
2.776,0.00878
2.78,-0.01512
2.784,0.01835
2.788,-0.02371
2.792,0.00338
2.796,0.00413
2.8,0.04121
2.804,0.04299
2.808,-0.00477
2.812,0.04152
2.816,0.01993
2.82,0.02179
2.824,0.02853
2.828,-0.00299
2.832,-0.02975
2.836,-0.01293
2.84,-0.03844
2.844,0.02875
2.848,0.00564
2.852,-0.02611
2.856,0.02278
2.86,-0.06738
2.864,0.02618
2.868,-0.00889
2.872,0.00299
2.876,0.00635
2.88,0.0257
2.884,0.01862
2.888,0.01669
2.892,-0.01135
2.896,0.05866
2.9,0.02245
2.904,0.01824
2.908,0.01156
2.912,0.04944
2.916,-0.05829
2.92,0.0022
2.924,-0.05926
2.928,0.00137
2.932,-0.05247
2.936,0.01982
2.94,-0.00888
2.944,-0.0393
2.948,0.03336
2.952,-0.00175
2.956,-0.11258
2.96,-0.03239
2.964,0.03389
2.968,-0.02765
2.972,-0.09324
2.976,0.0425
2.98,0.0819
2.984,0.04963
2.988,0.04072
2.992,0.0161
2.996,0.00237
3.0,-0.05422
3.004,0.04636
3.008,0.0274
3.012,-0.01269
3.016,-0.03961
3.02,0.01372
3.024,-0.01282
3.028,-0.00642
3.032,0.02791
3.036,0.0232
3.04,-0.02181
3.044,0.03806
3.048,-0.02823
3.052,0.01973
3.056,0.03939
3.06,0.00124
3.064,-0.0038
3.068,0.0227
3.072,0.0095
3.076,0.02135
3.08,0.02337
3.084,0.00509
3.088,0.03747
3.092,-0.01705
3.096,0.05089
3.1,0.01916
3.104,0.01629
3.108,0.0128
3.112,-0.04797
3.116,-0.01984
3.12,-0.01272
3.124,-0.01527
3.128,0.04662
3.132,0.03931
3.136,0.03973
3.14,0.06836
3.144,0.03372
3.148,0.05477
3.152,0.10313
3.156,0.09365
3.16,0.07577
3.164,0.1915
3.168,0.15761
3.172,0.05312
3.176,0.14665
3.18,0.13584
3.184,0.06123
3.188,0.06372
3.192,0.12086
3.196,0.05678
3.2,0.011
3.204,0.0074
3.208,0.01202
3.212,-0.04605
3.216,-0.00762
3.22,0.00192
3.224,0.00359
3.228,-0.02612
3.232,0.01101
3.236,-0.03248
3.24,0.01451
3.244,0.01548
3.248,0.03437
3.252,0.05127
3.256,0.03807
3.26,-0.00652
3.264,0.0476
3.268,0.06251
3.272,-0.01946
3.276,-0.02704
3.28,-0.02007
3.284,0.06603
3.288,-0.14777
3.292,-0.10368
3.296,-0.13738
3.3,-0.01501
3.304,0.06841
3.308,0.31279
3.312,0.56033
3.316,0.71295
3.32,0.92372
3.324,1.00025
3.328,0.97169
3.332,0.88949
3.336,0.68497
3.34,0.43766
3.344,0.26232
3.348,0.09811
3.352,-0.09611
3.356,-0.07946
3.36,-0.21343
3.364,-0.12381
3.368,-0.04331
3.372,-0.03762
3.376,0.00496
3.38,0.07541
3.384,0.03547
3.388,0.04523
3.392,0.04523
3.396,-0.0237
3.4,0.00116
3.404,0.00593
3.408,0.0181
3.412,-0.00373
3.416,-0.0148
3.42,-0.00442
3.424,0.03244
3.428,0.09393
3.432,0.0026
3.436,-0.00288
3.44,0.05582
3.444,0.06135
3.448,0.06712
3.452,0.01696
3.456,0.00837
3.46,-0.00928
3.464,-0.04781
3.468,-0.01912
3.472,0.02684
3.476,-0.00165
3.48,0.01867
3.484,-0.04816
3.488,0.00507
3.492,-0.04107
3.496,-0.02249
3.5,0.01022
3.504,0.0082
3.508,0.03588
3.512,0.00497
3.516,0.01721
3.52,0.03074
3.524,0.00046
3.528,0.11395
3.532,0.15458
3.536,0.09866
3.54,0.09185
3.544,0.08178
3.548,0.1039
3.552,0.1479
3.556,0.15457
3.56,0.18545
3.564,0.06874
3.568,0.18195
3.572,0.13257
3.576,0.1144
3.58,0.20071
3.584,0.20276
3.588,0.19305
3.592,0.23065
3.596,0.20864
3.6,0.19583
3.604,0.23275
3.608,0.30987
3.612,0.23773
3.616,0.20281
3.62,0.22113
3.624,0.26531
3.628,0.14489
3.632,0.22661
3.636,0.19789
3.64,0.15693
3.644,0.18066
3.648,0.18825
3.652,0.14555
3.656,0.12118
3.66,0.08846
3.664,0.10677
3.668,0.1516
3.672,0.12966
3.676,0.07008
3.68,0.13069
3.684,0.03416
3.688,0.06893
3.692,0.06488
3.696,0.09114
3.7,0.02508
3.704,-0.00822
3.708,0.02213
3.712,0.04993
3.716,-0.00253
3.72,0.07268
3.724,0.00362
3.728,0.021
3.732,-0.02939
3.736,0.06856
3.74,0.02281
3.744,-0.05372
3.748,-0.04046
3.752,0.06477
3.756,-0.00334
3.76,0.01232
3.764,0.01172
3.768,0.03203
3.772,-0.01703
3.776,-0.01837
3.78,0.08199
3.784,-0.01323
3.788,0.00748
3.792,0.02759
3.796,0.07118
3.8,0.0502
3.804,-0.0075
3.808,0.03531
3.812,0.08093
3.816,-0.01879
3.82,-0.03039
3.824,0.06311
3.828,0.05452
3.832,0.08089
3.836,0.16083
3.84,0.05792
3.844,0.16806
3.848,0.08553
3.852,0.12533
3.856,0.18579
3.86,0.09606
3.864,0.10952
3.868,0.07185
3.872,0.10086
3.876,0.06
3.88,0.06682
3.884,0.04394
3.888,0.00737
3.892,0.05765
3.896,0.06849
3.9,0.07174
3.904,0.05407
3.908,0.0246
3.912,-0.03148
3.916,0.02879
3.92,0.00733
3.924,0.02738
3.928,0.04904
3.932,0.01688
3.936,-0.03271
3.94,0.02607
3.944,0.01823
3.948,-0.02221
3.952,0.00449
3.956,-0.03877
3.96,-0.01369
3.964,-0.02249
3.968,-0.03201
3.972,-0.06114
3.976,-0.00678
3.98,0.00356
3.984,0.10273
3.988,0.27202
3.992,0.44954
3.996,0.67509
4.0,0.86638
4.004,0.99554
4.008,0.99993
4.012,0.95444
4.016,0.78696
4.02,0.54335
4.024,0.36243
4.028,0.07153
4.032,-0.02025
4.036,-0.13132
4.04,-0.09666
4.044,-0.08932
4.048,-0.07187
4.052,-0.08599
4.056,0.01279
4.06,-0.01287
4.064,0.03084
4.068,-0.01256
4.072,-0.04451
4.076,0.02438
4.08,0.00694
4.084,0.07478
4.088,0.00241
4.092,0.09879
4.096,0.01242
4.1,0.00109
4.104,-0.01373
4.108,-0.01381
4.112,0.02345
4.116,0.0488
4.12,0.02621
4.124,-0.00335
4.128,0.02572
4.132,0.02356
4.136,0.04541
4.14,0.05084
4.144,-0.03566
4.148,0.01608
4.152,0.05521
4.156,0.02535
4.16,0.01173
4.164,-0.00834
4.168,0.02558
4.172,-0.00507
4.176,0.04335
4.18,0.1137
4.184,0.01959
4.188,0.03221
4.192,0.07871
4.196,0.02483
4.2,0.05082
4.204,0.06602
4.208,0.06394
4.212,0.04918
4.216,0.10453
4.22,0.12767
4.224,0.08854
4.228,0.16609
4.232,0.17277
4.236,0.08818
4.24,0.14676
4.244,0.12784
4.248,0.19094
4.252,0.13269
4.256,0.20249
4.26,0.16588
4.264,0.27682
4.268,0.20855
4.272,0.21072
4.276,0.27365
4.28,0.29799
4.284,0.26201
4.288,0.24176
4.292,0.30642
4.296,0.29087
4.3,0.19187
4.304,0.15583
4.308,0.16996
4.312,0.17306
4.316,0.21717
4.32,0.27046
4.324,0.20464
4.328,0.17617
4.332,0.18012
4.336,0.10069
4.34,0.11527
4.344,0.14204
4.348,0.15134
4.352,0.14569
4.356,0.09288
4.36,0.06468
4.364,0.05306
4.368,0.12668
4.372,0.11964
4.376,0.05819
4.38,0.03948
4.384,0.03313
4.388,0.0112
4.392,0.02838
4.396,0.02259
4.4,0.00052
4.404,0.06794
4.408,0.05468
4.412,-0.06199
4.416,0.03092
4.42,0.05065
4.424,0.00137
4.428,0.05512
4.432,0.02629
4.436,0.03466
4.44,0.03159
4.444,0.02359
4.448,0.00124
4.452,0.03048
4.456,0.07834
4.46,-0.00935
4.464,-0.02864
4.468,-0.01056
4.472,0.04767
4.476,0.0428
4.48,-0.02813
4.484,0.01177
4.488,-0.00288
4.492,-0.02437
4.496,0.05425
4.5,0.05676
4.504,0.06737
4.508,0.06035
4.512,-0.01125
4.516,0.01355
4.52,0.07608
4.524,0.06863
4.528,0.01962
4.532,0.05195
4.536,0.016
4.54,0.04188
4.544,0.01734
4.548,0.03689
4.552,0.06935
4.556,0.07102
4.56,0.04627
4.564,0.10701
4.568,0.08102
4.572,0.11339
4.576,0.16178
4.58,0.14021
4.584,0.12537
4.588,0.14756
4.592,0.13445
4.596,0.11038
4.6,0.08792
4.604,0.07599
4.608,0.116
4.612,0.1062
4.616,0.11613
4.62,0.02717
4.624,0.03
4.628,0.07317
4.632,0.10944
4.636,0.00653
4.64,0.04783
4.644,0.05654
4.648,0.06733
4.652,0.05826
4.656,0.06931
4.66,0.09272
4.664,0.02563
4.668,0.01931
4.672,0.05759
4.676,-0.0037
4.68,0.06992
4.684,0.01157
4.688,0.02868
4.692,0.03521
4.696,0.07615
4.7,-0.00696
4.704,-0.01809
4.708,-0.0009
4.712,-0.02825
4.716,-0.08591
4.72,-0.00683
4.724,0.03047
4.728,0.08928
4.732,0.36642
4.736,0.5737
4.74,0.71093
4.744,0.98117
4.748,1.04796
4.752,0.96871
4.756,0.89381
4.76,0.69734
4.764,0.38776
4.768,0.24009
4.772,-0.04061
4.776,-0.09966
4.78,-0.16361
4.784,-0.17555
4.788,-0.09519
4.792,-0.04366
4.796,0.02582
4.8,-0.04039
4.804,0.01474
4.808,-0.03749
4.812,0.01417
4.816,-0.00072
4.82,0.03576
4.824,-0.00239
4.828,0.02297
4.832,0.05008
4.836,0.06532
4.84,0.03122
4.844,0.04375
4.848,0.03753
4.852,0.03159
4.856,0.05069
4.86,0.02255
4.864,-0.00218
4.868,-0.00482
4.872,0.04912
4.876,0.04768
4.88,0.00453
4.884,0.11862
4.888,-0.00368
4.892,0.0102
4.896,0.01546
4.9,0.02103
4.904,0.0721
4.908,0.01886
4.912,0.06185
4.916,0.04817
4.92,0.02251
4.924,0.09441
4.928,0.04008
4.932,0.12044
4.936,0.06318
4.94,0.11123
4.944,0.10012
4.948,0.02783
4.952,0.08902
4.956,0.06926
4.96,0.09497
4.964,0.13141
4.968,0.05015
4.972,0.13671
4.976,0.07232
4.98,0.19311
4.984,0.22596
4.988,0.22129
4.992,0.22484
4.996,0.20335
5.0,0.19112
5.004,0.20796
5.008,0.29017
5.012,0.22667
5.016,0.26133
5.02,0.25448
5.024,0.23102
5.028,0.26196
5.032,0.32448
5.036,0.32433
5.04,0.34566
5.044,0.29222
5.048,0.30776
5.052,0.28027
5.056,0.24901
5.06,0.31906
5.064,0.27872
5.068,0.25668
5.072,0.23593
5.076,0.22805
5.08,0.18877
5.084,0.16737
5.088,0.15958
5.092,0.11335
5.096,0.08501
5.1,0.10979
5.104,0.00591
5.108,0.02746
5.112,0.09681
5.116,0.15201
5.12,-0.00971
5.124,0.10409
5.128,0.01361
5.132,0.04878
5.136,0.05161
5.14,0.03714
5.144,0.02623
5.148,0.05932
5.152,0.05692
5.156,0.07615
5.16,0.00143
5.164,-0.06286
5.168,-0.04479
5.172,-0.08321
5.176,-0.10943
5.18,-0.05628
5.184,0.04551
5.188,0.1826
5.192,0.44094
5.196,0.61013
5.2,0.80504
5.204,0.95594
5.208,1.03254
5.212,0.94619
5.216,0.79406
5.22,0.5503
5.224,0.40245
5.228,0.23626
5.232,-0.01738
5.236,-0.13726
5.24,-0.14334
5.244,-0.15455
5.248,-0.08878
5.252,-0.03844
5.256,-0.00212
5.26,-0.02977
5.264,-0.04472
5.268,0.02079
5.272,0.07124
5.276,0.03626
5.28,0.01902
5.284,0.02025
5.288,-0.00426
5.292,0.0594
5.296,0.0426
5.3,0.09413
5.304,0.03533
5.308,0.00422
5.312,0.07586
5.316,0.00772
5.32,0.01563
5.324,0.07191
5.328,-0.05411
5.332,-0.05191
5.336,0.01855
5.34,-0.01495
5.344,0.06581
5.348,0.04895
5.352,0.03164
5.356,-0.03319
5.36,-0.03105
5.364,0.01023
5.368,-0.02755
5.372,0.05527
5.376,0.07645
5.38,0.02445
5.384,-0.01812
5.388,0.08555
5.392,0.02303
5.396,0.06506
5.4,0.07695
5.404,0.06029
5.408,0.02106
5.412,0.02453
5.416,0.06009
5.42,0.10836
5.424,0.11708
5.428,0.07505
5.432,0.09761
5.436,0.13213
5.44,0.17765
5.444,0.18035
5.448,0.16267
5.452,0.23014
5.456,0.31195
5.46,0.26983
5.464,0.29228
5.468,0.28257
5.472,0.3015
5.476,0.40459
5.48,0.32142
5.484,0.32044
5.488,0.33542
5.492,0.33837
5.496,0.27037
5.5,0.26921
5.504,0.28573
5.508,0.24088
5.512,0.26775
5.516,0.27912
5.52,0.17009
5.524,0.1739
5.528,0.21182
5.532,0.11415
5.536,0.2007
5.54,0.1293
5.544,0.18999
5.548,0.08396
5.552,0.13238
5.556,0.0955
5.56,0.05583
5.564,0.05006
5.568,0.04037
5.572,0.00717
5.576,0.05128
5.58,0.04217
5.584,0.05161
5.588,0.02901
5.592,0.04226
5.596,-0.0447
5.6,-0.02064
5.604,-0.0289
5.608,-0.12592
5.612,-0.12253
5.616,-0.13333
5.62,-0.04545
5.624,0.19574
5.628,0.2954
5.632,0.52498
5.636,0.67937
5.64,0.85998
5.644,0.96817
5.648,0.96131
5.652,0.91069
5.656,0.84267
5.66,0.4329
5.664,0.24944
5.668,0.06598
5.672,0.00218
5.676,-0.07382
5.68,-0.18385
5.684,-0.11842
5.688,-0.06072
5.692,-0.00684
5.696,-0.022
5.7,-0.00316
5.704,0.02421
5.708,-0.01739
5.712,0.02839
5.716,0.00894
5.72,0.0346
5.724,-0.01814
5.728,0.0303
5.732,-0.06629
5.736,-0.00594
5.74,0.04098
5.744,0.0111
5.748,-0.01307
5.752,-0.00481
5.756,0.00051
5.76,-0.00065
5.764,0.0021
5.768,-0.07895
5.772,0.04658
5.776,-0.04713
5.78,0.02651
5.784,0.03621
5.788,-0.0588
5.792,0.05376
5.796,0.07103
5.8,0.00975
5.804,0.00415
5.808,0.02782
5.812,0.02976
5.816,-0.02872
5.82,0.03314
5.824,-0.00774
5.828,-0.00693
5.832,-0.04681
5.836,0.02687
5.84,0.03104
5.844,0.04881
5.848,0.04839
5.852,0.06992
5.856,0.02612
5.86,0.08797
5.864,0.10544
5.868,0.13358
5.872,0.19636
5.876,0.07895
5.88,0.11659
5.884,0.11989
5.888,0.2085
5.892,0.15889
5.896,0.18422
5.9,0.17025
5.904,0.17149
5.908,0.16348
5.912,0.2349
5.916,0.19926
5.92,0.24251
5.924,0.20336
5.928,0.2136
5.932,0.25682
5.936,0.22693
5.94,0.17675
5.944,0.23171
5.948,0.16541
5.952,0.20258
5.956,0.19999
5.96,0.20075
5.964,0.14733
5.968,0.16491
5.972,0.16216
5.976,0.18259
5.98,0.11149
5.984,0.10431
5.988,0.04807
5.992,0.10253
5.996,0.09037
6.0,0.12057
6.004,0.09137
6.008,0.14468
6.012,0.14887
6.016,0.03244
6.02,0.09806
6.024,0.00472
6.028,0.02167
6.032,0.04104
6.036,0.01755
6.04,-0.02374
6.044,0.0089
6.048,0.02508
6.052,0.01946
6.056,-0.03242
6.06,-0.00415
6.064,-0.03261
6.068,-0.02217
6.072,0.01769
6.076,0.05315
6.08,0.00622
6.084,0.05453
6.088,0.02421
6.092,-0.03119
6.096,-0.03991
6.1,0.00405
6.104,-0.00254
6.108,0.05044
6.112,-0.02746
6.116,-0.01206
6.12,-0.0194
6.124,0.05367
6.128,-0.01095
6.132,-0.01621
6.136,0.01404
6.14,-0.03529
6.144,0.02709
6.148,0.01825
6.152,-0.05172
6.156,-0.06777
6.16,0.03119
6.164,0.07506
6.168,0.00144
6.172,0.00722
6.176,0.01254
6.18,-0.03115
6.184,-0.02062
6.188,0.04294
6.192,0.00957
6.196,-0.01783
6.2,0.03399
6.204,-0.02599
6.208,-0.00021
6.212,0.02836
6.216,0.0583
6.22,0.05466
6.224,0.09119
6.228,0.09132
6.232,0.12067
6.236,0.02712
6.24,0.15238
6.244,0.1095
6.248,0.08543
6.252,0.06415
6.256,0.02096
6.26,-0.02227
6.264,0.04525
6.268,0.06371
6.272,-0.08778
6.276,-0.00761
6.28,-0.00107
6.284,0.07169
6.288,0.00643
6.292,-0.04385
6.296,-0.04542
6.3,-0.02575
6.304,0.01188
6.308,-0.06177
6.312,-0.04986
6.316,-0.0053
6.32,-0.03949
6.324,0.01135
6.328,0.02321
6.332,0.01934
6.336,-0.02024
6.34,-0.05316
6.344,0.01658
6.348,-0.04037
6.352,-0.04191
6.356,-0.1275
6.36,-0.08994
6.364,-0.10569
6.368,0.04495
6.372,0.14276
6.376,0.418
6.38,0.66542
6.384,0.84081
6.388,0.98162
6.392,0.99384
6.396,0.97332
6.4,0.81454
6.404,0.60945
6.408,0.26838
6.412,0.1407
6.416,0.01456
6.42,-0.1794
6.424,-0.21746
6.428,-0.18678
6.432,-0.12282
6.436,-0.09674
6.44,-0.09025
6.444,-0.02548
6.448,-0.059
6.452,0.00973
6.456,-0.03462
6.46,-0.05045
6.464,-0.05112
6.468,-0.01914
6.472,-0.01837
6.476,0.00932
6.48,-0.04579
6.484,0.0316
6.488,-0.07085
6.492,0.06092
6.496,0.01317
6.5,-0.01848
6.504,-0.0207
6.508,0.00552
6.512,0.00305
6.516,-0.02959
6.52,0.0506
6.524,-0.03609
6.528,-0.05746
6.532,0.06428
6.536,-0.02408
6.54,0.00438
6.544,0.03374
6.548,0.0221
6.552,0.00483
6.556,0.05212
6.56,0.00964
6.564,0.02582
6.568,0.0038
6.572,0.01097
6.576,0.00286
6.58,0.00736
6.584,0.0177
6.588,0.0014
6.592,0.06266
6.596,0.02353
6.6,0.02252
6.604,0.02593
6.608,0.00321
6.612,0.04596
6.616,0.06498
6.62,0.07776
6.624,0.1255
6.628,0.14935
6.632,0.16944
6.636,0.1947
6.64,0.24993
6.644,0.2258
6.648,0.27464
6.652,0.25556
6.656,0.34564
6.66,0.27946
6.664,0.35805
6.668,0.2381
6.672,0.286
6.676,0.21896
6.68,0.27323
6.684,0.29064
6.688,0.24271
6.692,0.20016
6.696,0.1912
6.7,0.13432
6.704,0.15272
6.708,0.148
6.712,0.13887
6.716,0.16289
6.72,0.0867
6.724,0.08253
6.728,0.0925
6.732,0.09387
6.736,0.05545
6.74,0.04116
6.744,-0.02802
6.748,-0.0497
6.752,0.03537
6.756,0.08461
6.76,-0.03767
6.764,0.03489
6.768,0.03261
6.772,-0.06127
6.776,-0.03569
6.78,-0.11248
6.784,-0.13148
6.788,-0.08977
6.792,-0.07244
6.796,-0.04505
6.8,0.06659
6.804,0.34814
6.808,0.52768
6.812,0.80774
6.816,0.90563
6.82,0.97561
6.824,0.91584
6.828,0.84372
6.832,0.5855
6.836,0.35949
6.84,0.12356
6.844,0.03821
6.848,-0.12111
6.852,-0.19437
6.856,-0.12693
6.86,-0.16993
6.864,-0.13508
6.868,-0.09713
6.872,-0.05942
6.876,0.00121
6.88,-0.03194
6.884,-0.00327
6.888,-0.03646
6.892,0.01082
6.896,-0.08276
6.9,-0.00233
6.904,-0.05202
6.908,-0.07464
6.912,-0.06092
6.916,0.01602
6.92,-0.03387
6.924,0.04474
6.928,-0.03279
6.932,-0.00815
6.936,0.03566
6.94,-0.01141
6.944,0.02392
6.948,-0.03735
6.952,-0.00477
6.956,-0.04311
6.96,0.03578
6.964,-0.02394
6.968,-0.03844
6.972,-0.04027
6.976,-0.02816
6.98,-0.01065
6.984,-0.01432
6.988,-0.06689
6.992,-0.0107
6.996,-0.014
7.0,-0.00079
7.004,0.00685
7.008,-0.04749
7.012,0.03089
7.016,-0.02605
7.02,0.01326
7.024,0.01647
7.028,0.03529
7.032,0.06297
7.036,0.09617
7.04,0.09279
7.044,0.00974
7.048,0.0991
7.052,0.09668
7.056,0.18376
7.06,0.17258
7.064,0.19725
7.068,0.15571
7.072,0.18663
7.076,0.19674
7.08,0.29025
7.084,0.29695
7.088,0.30413
7.092,0.30595
7.096,0.33193
7.1,0.34105
7.104,0.29728
7.108,0.26398
7.112,0.26285
7.116,0.22976
7.12,0.2528
7.124,0.16498
7.128,0.18214
7.132,0.23855
7.136,0.17348
7.14,0.09867
7.144,0.07969
7.148,0.12823
7.152,0.08727
7.156,0.14001
7.16,0.03176
7.164,0.05519
7.168,0.04085
7.172,0.03539
7.176,0.03297
7.18,0.00482
7.184,0.00787
7.188,0.06293
7.192,-0.00039
7.196,0.03033
7.2,0.03121
7.204,-0.00357
7.208,-0.02187
7.212,-0.03857
7.216,-0.06272
7.22,-0.17188
7.224,-0.16191
7.228,-0.0627
7.232,-0.00788
7.236,0.24483
7.24,0.46355
7.244,0.63611
7.248,0.78926
7.252,0.93556
7.256,0.93848
7.26,0.89709
7.264,0.70359
7.268,0.43543
7.272,0.20281
7.276,0.06216
7.28,-0.11214
7.284,-0.19591
7.288,-0.08801
7.292,-0.21168
7.296,-0.0872
7.3,-0.06167
7.304,-0.03434
7.308,-0.00478
7.312,-0.08125
7.316,-0.02008
7.32,-0.04912
7.324,-0.02784
7.328,0.02521
7.332,-0.02194
7.336,-0.04324
7.34,-0.03662
7.344,-0.04679
7.348,0.01987
7.352,-0.00328
7.356,-0.02011
7.36,-0.01273
7.364,-0.07766
7.368,-0.01817
7.372,-0.02645
7.376,-0.10721
7.38,-0.03248
7.384,-0.05813
7.388,-0.05792
7.392,0.02587
7.396,-0.01858
7.4,-0.03601
7.404,-0.05113
7.408,-0.05812
7.412,0.00408
7.416,0.01763
7.42,0.01083
7.424,-0.04266
7.428,-0.03029
7.432,-0.02049
7.436,-0.03732
7.44,0.01415
7.444,0.02029
7.448,0.00283
7.452,0.03307
7.456,0.03134
7.46,0.02099
7.464,0.03134
7.468,0.04115
7.472,0.10507
7.476,0.04311
7.48,0.04697
7.484,-0.00611
7.488,0.14195
7.492,0.15885
7.496,0.10792
7.5,0.07514
7.504,0.15588
7.508,0.15597
7.512,0.13013
7.516,0.18792
7.52,0.15282
7.524,0.22957
7.528,0.20646
7.532,0.215
7.536,0.19512
7.54,0.18451
7.544,0.19658
7.548,0.15265
7.552,0.14017
7.556,0.09694
7.56,0.23083
7.564,0.2226
7.568,0.14742
7.572,0.12127
7.576,0.1677
7.58,0.08725
7.584,0.15877
7.588,0.06525
7.592,-0.00287
7.596,0.0995
7.6,-0.01149
7.604,0.05387
7.608,0.07027
7.612,0.02377
7.616,-0.01185
7.62,0.00254
7.624,-0.01681
7.628,0.02443
7.632,-0.00292
7.636,-0.06004
7.64,0.00556
7.644,-0.01806
7.648,-0.03629
7.652,0.05233
7.656,-0.04053
7.66,-0.05353
7.664,-0.04538
7.668,-0.02718
7.672,-0.08058
7.676,-0.00133
7.68,-0.03888
7.684,-0.02765
7.688,-0.0819
7.692,-0.08143
7.696,-0.04807
7.7,0.03651
7.704,-0.04687
7.708,0.00176
7.712,-0.00721
7.716,0.03855
7.72,-0.03171
7.724,-0.02835
7.728,-0.0827
7.732,-0.0509
7.736,-0.04834
7.74,-0.08461
7.744,-0.03429
7.748,0.05595
7.752,0.03376
7.756,0.05596
7.76,0.07659
7.764,0.08282
7.768,0.00138
7.772,0.06768
7.776,0.10405
7.78,0.16573
7.784,0.05297
7.788,0.07749
7.792,0.04076
7.796,0.00082
7.8,-0.04215
7.804,-0.05879
7.808,-0.03694
7.812,0.0301
7.816,-0.07002
7.82,-0.05305
7.824,-0.04405
7.828,-0.03915
7.832,-0.00826
7.836,-0.0307
7.84,-0.03643
7.844,-0.04026
7.848,-0.04247
7.852,-0.03817
7.856,-0.00089
7.86,0.00101
7.864,-0.0805
7.868,-0.02179
7.872,-0.04732
7.876,-0.09537
7.88,0.00087
7.884,-0.02757
7.888,-0.08013
7.892,-0.12002
7.896,-0.12671
7.9,-0.18534
7.904,-0.07822
7.908,-0.02932
7.912,0.15482
7.916,0.3492
7.92,0.58345
7.924,0.81622
7.928,0.90134
7.932,0.97945
7.936,0.87691
7.94,0.82499
7.944,0.54003
7.948,0.26545
7.952,0.10411
7.956,-0.03922
7.96,-0.1628
7.964,-0.2352
7.968,-0.19398
7.972,-0.15065
7.976,-0.08225
7.98,-0.02732
7.984,-0.06993
7.988,-0.06868
7.992,-0.0387
7.996,-0.02756
8.0,-0.05094
8.004,-0.06629
8.008,-0.02613
8.012,0.00385
8.016,0.00398
8.02,-0.03073
8.024,-0.01866
8.028,-0.09694
8.032,-0.04963
8.036,-0.05176
8.04,-0.01417
8.044,-0.05241
8.048,0.00106
8.052,-0.04104
8.056,-0.01123
8.06,-0.07103
8.064,-0.0432
8.068,-0.01566
8.072,-0.04132
8.076,0.03017
8.08,-0.00945
8.084,0.0242
8.088,-0.06124
8.092,-0.02892
8.096,-0.01139
8.1,0.03453
8.104,-0.02493
8.108,-0.04046
8.112,0.031
8.116,0.03346
8.12,-0.00676
8.124,0.03158
8.128,-0.02491
8.132,-0.00148
8.136,0.07535
8.14,0.05076
8.144,0.0888
8.148,0.12758
8.152,0.07488
8.156,0.07934
8.16,0.09828
8.164,0.08461
8.168,0.11277
8.172,0.11395
8.176,0.05464
8.18,0.19008
8.184,0.1233
8.188,0.18841
8.192,0.14122
8.196,0.13734
8.2,0.18111
8.204,0.20621
8.208,0.23668
8.212,0.15551
8.216,0.24896
8.22,0.21175
8.224,0.16478
8.228,0.17451
8.232,0.10164
8.236,0.15685
8.24,0.19144
8.244,0.11669
8.248,0.15007
8.252,0.14834
8.256,0.13878
8.26,0.15785
8.264,0.11422
8.268,0.09842
8.272,0.15787
8.276,0.1042
8.28,0.21338
8.284,0.16479
8.288,0.13991
8.292,0.11193
8.296,0.17999
8.3,0.06602
8.304,0.12699
8.308,0.05555
8.312,0.06163
8.316,0.06224
8.32,-0.0066
8.324,0.06427
8.328,0.00406
8.332,-0.06038
8.336,0.00071
8.34,0.00702
8.344,-0.08327
8.348,-0.01027
8.352,-0.0385
8.356,-0.06948
8.36,-0.0375
8.364,-0.12172
8.368,0.03444
8.372,-0.01206
8.376,0.00461
8.38,-0.00811
8.384,-0.04469
8.388,0.03784
8.392,-0.02067
8.396,-0.06025
8.4,-0.02009
8.404,-0.06783
8.408,-0.06177
8.412,-0.12257
8.416,-0.10311
8.42,-0.11338
8.424,-0.04413
8.428,0.04221
8.432,0.18394
8.436,0.43591
8.44,0.61388
8.444,0.88081
8.448,0.90988
8.452,0.87087
8.456,0.81951
8.46,0.68232
8.464,0.45507
8.468,0.20493
8.472,0.1303
8.476,-0.12116
8.48,-0.18705
8.484,-0.20504
8.488,-0.1699
8.492,-0.13214
8.496,-0.13102
8.5,-0.05581
8.504,0.02305
8.508,-0.11423
8.512,-0.01987
8.516,0.00389
8.52,-0.05329
8.524,0.01358
8.528,-0.01266
8.532,-0.03336
8.536,-0.01879
8.54,-0.07892
8.544,-0.00339
8.548,0.01837
8.552,0.01118
8.556,-0.00483
8.56,-0.0245
8.564,-0.02054
8.568,0.00025
8.572,-0.06746
8.576,-0.04055
8.58,-0.02171
8.584,-0.03249
8.588,0.04662
8.592,-0.00754
8.596,-0.05593
8.6,-0.01838
8.604,0.01365
8.608,0.00935
8.612,-0.0013
8.616,-0.03715
8.62,-0.03008
8.624,-0.03566
8.628,-0.0459
8.632,0.01697
8.636,0.03267
8.64,0.00845
8.644,-0.04624
8.648,-0.02366
8.652,0.05289
8.656,0.10557
8.66,0.07414
8.664,0.03076
8.668,0.04894
8.672,0.1394
8.676,0.07493
8.68,0.10117
8.684,0.07111
8.688,0.09725
8.692,0.09872
8.696,0.12766
8.7,0.0812
8.704,0.18062
8.708,0.18003
8.712,0.25569
8.716,0.19858
8.72,0.23692
8.724,0.10796
8.728,0.22708
8.732,0.21409
8.736,0.18154
8.74,0.17247
8.744,0.17334
8.748,0.18013
8.752,0.13823
8.756,0.20116
8.76,0.18701
8.764,0.13259
8.768,0.12672
8.772,0.14335
8.776,0.19699
8.78,0.03861
8.784,0.09794
8.788,0.0625
8.792,0.09539
8.796,0.12145
8.8,0.04942
8.804,-0.01636
8.808,0.02919
8.812,0.02043
8.816,-0.00312
8.82,-0.01164
8.824,0.0445
8.828,0.01674
8.832,0.0077
8.836,-0.0349
8.84,-0.02221
8.844,-0.05135
8.848,0.01188
8.852,0.03023
8.856,-0.03862
8.86,-0.02636
8.864,-0.0521
8.868,0.00594
8.872,-0.05714
8.876,-0.02438
8.88,0.01427
8.884,-0.06963
8.888,-0.03075
8.892,-0.01082
8.896,-0.03988
8.9,-0.01678
8.904,0.05346
8.908,-0.03686
8.912,0.00376
8.916,-0.01635
8.92,-0.03537
8.924,0.03656
8.928,0.01216
8.932,0.01576
8.936,0.01617
8.94,-0.07579
8.944,-0.0111
8.948,0.02057
8.952,0.09724
8.956,-0.0281
8.96,0.05105
8.964,-0.01728
8.968,-0.03579
8.972,0.00266
8.976,-0.00439
8.98,0.01361
8.984,0.08239
8.988,-0.021
8.992,0.03989
8.996,0.11722
9.0,0.09181
9.004,0.06712
9.008,0.09882
9.012,0.12295
9.016,0.05778
9.02,0.06988
9.024,0.01822
9.028,0.07524
9.032,0.00966
9.036,0.00808
9.04,-0.00473
9.044,0.01455
9.048,0.00182
9.052,-0.00792
9.056,0.0172
9.06,-0.05511
9.064,0.06419
9.068,-0.06538
9.072,0.0013
9.076,-0.02558
9.08,-0.03678
9.084,0.01031
9.088,-0.03954
9.092,0.04267
9.096,0.00172
9.1,-0.02351
9.104,-0.01741
9.108,-0.03764
9.112,0.04718
9.116,0.0329
9.12,-0.02768
9.124,-0.08532
9.128,-0.09054
9.132,-0.07527
9.136,-0.08025
9.14,-0.05801
9.144,0.09598
9.148,0.29531
9.152,0.49647
9.156,0.71297
9.16,0.91499
9.164,1.0524
9.168,0.93626
9.172,0.84998
9.176,0.63076
9.18,0.44083
9.184,0.19314
9.188,-0.05747
9.192,-0.0804
9.196,-0.21619
9.2,-0.17895
9.204,-0.11653
9.208,-0.08255
9.212,-0.08528
9.216,-0.01453
9.22,0.00527
9.224,-0.03658
9.228,-0.01892
9.232,-0.01289
9.236,0.03162
9.24,0.00922
9.244,-0.02198
9.248,0.0366
9.252,-0.04445
9.256,0.00026
9.26,0.01353
9.264,-0.00283
9.268,0.01561
9.272,-0.06243
9.276,-0.01063
9.28,0.02159
9.284,0.03479
9.288,0.02531
9.292,0.05463
9.296,-0.03998
9.3,0.00289
9.304,-0.00116
9.308,-0.02669
9.312,-0.04602
9.316,-0.02554
9.32,0.02331
9.324,0.00838
9.328,0.02017
9.332,0.0376
9.336,0.00881
9.34,0.01113
9.344,0.00579
9.348,-0.00463
9.352,0.00836
9.356,0.06596
9.36,0.0394
9.364,0.01324
9.368,0.04505
9.372,0.03897
9.376,0.02486
9.38,0.10008
9.384,0.08252
9.388,0.06686
9.392,0.0978
9.396,0.13479
9.4,0.09287
9.404,0.13099
9.408,0.17603
9.412,0.18365
9.416,0.21561
9.42,0.22799
9.424,0.28282
9.428,0.32145
9.432,0.27941
9.436,0.30518
9.44,0.3465
9.444,0.33394
9.448,0.30155
9.452,0.33061
9.456,0.27821
9.46,0.33216
9.464,0.28594
9.468,0.29119
9.472,0.21427
9.476,0.21132
9.48,0.22784
9.484,0.18637
9.488,0.15216
9.492,0.16546
9.496,0.11884
9.5,0.07422
9.504,0.05573
9.508,0.10069
9.512,0.03941
9.516,0.11311
9.52,0.07099
9.524,0.04762
9.528,0.05242
9.532,0.07258
9.536,0.03351
9.54,0.01517
9.544,0.00228
9.548,0.0805
9.552,-0.02455
9.556,-0.00332
9.56,-0.04163
9.564,-0.07844
9.568,-0.12165
9.572,-0.09475
9.576,-0.10859
9.58,-0.03051
9.584,0.1197
9.588,0.31931
9.592,0.45929
9.596,0.76743
9.6,0.93856
9.604,0.99699
9.608,0.98164
9.612,0.85833
9.616,0.61757
9.62,0.45648
9.624,0.19539
9.628,0.05557
9.632,-0.04865
9.636,-0.13958
9.64,-0.24734
9.644,-0.11021
9.648,-0.11505
9.652,-0.03642
9.656,-0.02333
9.66,-0.00681
9.664,-0.02017
9.668,0.03474
9.672,-0.01972
9.676,0.04856
9.68,0.00952
9.684,-0.00645
9.688,-0.00115
9.692,0.02487
9.696,-0.04552
9.7,0.00661
9.704,0.02544
9.708,-0.00474
9.712,-0.01238
9.716,0.0803
9.72,-0.03218
9.724,-0.00518
9.728,-0.03784
9.732,0.05188
9.736,-0.00638
9.74,0.01343
9.744,0.00988
9.748,0.0217
9.752,0.01416
9.756,0.02107
9.76,0.06187
9.764,0.04362
9.768,0.05361
9.772,0.00551
9.776,0.02037
9.78,0.05459
9.784,-0.03928
9.788,0.02473
9.792,-0.04701
9.796,0.05457
9.8,-0.06284
9.804,0.05453
9.808,0.04046
9.812,0.07119
9.816,0.06035
9.82,0.13977
9.824,0.08193
9.828,0.11446
9.832,0.0941
9.836,0.15874
9.84,0.14254
9.844,0.16192
9.848,0.19551
9.852,0.24242
9.856,0.16544
9.86,0.13115
9.864,0.18757
9.868,0.18017
9.872,0.22142
9.876,0.22475
9.88,0.22887
9.884,0.29149
9.888,0.27674
9.892,0.19247
9.896,0.22833
9.9,0.219
9.904,0.17969
9.908,0.29038
9.912,0.21406
9.916,0.21591
9.92,0.16925
9.924,0.1366
9.928,0.15976
9.932,0.14346
9.936,0.11611
9.94,0.10982
9.944,0.10728
9.948,0.06972
9.952,0.10806
9.956,0.06665
9.96,0.04283
9.964,0.09943
9.968,0.06158
9.972,-0.00035
9.976,0.02076
9.98,-0.01979
9.984,0.05784
9.988,0.09806
9.992,0.03453
9.996,-0.00998
