t_seg,ecg_mV
0.0,0.00687
0.004,0.02488
0.008,0.008
0.012,-0.00573
0.016,-0.01309
0.02,0.04948
0.024,0.0082
0.028,0.01364
0.032,0.00888
0.036,0.01487
0.04,-0.00592
0.044,0.00418
0.048,0.02323
0.052,-0.00491
0.056,0.03226
0.06,0.01855
0.064,0.02154
0.068,0.01217
0.072,0.03567
0.076,0.02247
0.08,0.00496
0.084,0.0048
0.088,0.05284
0.092,0.00739
0.096,0.00714
0.1,0.05062
0.104,0.00626
0.108,0.04513
0.112,0.01276
0.116,0.00761
0.12,0.02584
0.124,-0.00075
0.128,0.02394
0.132,0.03354
0.136,0.01112
0.14,0.01877
0.144,0.03972
0.148,0.01506
0.152,0.03357
0.156,0.02536
0.16,0.02072
0.164,0.00906
0.168,0.02158
0.172,0.03072
0.176,0.01001
0.18,0.0251
0.184,0.0163
0.188,0.02123
0.192,0.0111
0.196,0.02654
0.2,0.02759
0.204,0.02693
0.208,-0.00415
0.212,0.02675
0.216,0.01766
0.22,0.00381
0.224,0.01111
0.228,0.03586
0.232,0.03129
0.236,0.0376
0.24,0.01224
0.244,0.00702
0.248,0.0108
0.252,0.01566
0.256,0.04113
0.26,0.03181
0.264,0.01027
0.268,0.00854
0.272,0.03811
0.276,0.01116
0.28,0.03838
0.284,0.03399
0.288,0.02481
0.292,0.0424
0.296,0.01877
0.3,0.01649
0.304,0.01922
0.308,0.04182
0.312,0.00344
0.316,0.01672
0.32,0.02742
0.324,0.0103
0.328,0.03186
0.332,0.01752
0.336,0.03283
0.34,0.02611
0.344,0.01743
0.348,0.03004
0.352,0.04052
0.356,-0.00376
0.36,0.009
0.364,0.03052
0.368,0.02107
0.372,0.00768
0.376,0.03703
0.38,0.025
0.384,0.03737
0.388,0.03148
0.392,0.01337
0.396,0.00359
0.4,0.00863
0.404,0.01259
0.408,0.02271
0.412,0.00127
0.416,0.0305
0.42,0.03369
0.424,0.03484
0.428,0.04044
0.432,0.04683
0.436,0.05727
0.44,0.07596
0.444,0.08281
0.448,0.09806
0.452,0.08744
0.456,0.10276
0.46,0.11611
0.464,0.11319
0.468,0.10767
0.472,0.11017
0.476,0.12169
0.48,0.10868
0.484,0.1103
0.488,0.05541
0.492,0.05482
0.496,0.06227
0.5,0.03072
0.504,0.02375
0.508,0.039
0.512,0.04268
0.516,0.01991
0.52,0.03435
0.524,0.04157
0.528,0.04547
0.532,0.03324
0.536,0.03683
0.54,0.03967
0.544,0.03831
0.548,0.02477
0.552,0.01144
0.556,0.02645
0.56,0.04426
0.564,0.01261
0.568,0.04223
0.572,0.01774
0.576,0.00834
0.58,-0.00021
0.584,-0.01561
0.588,-0.05285
0.592,-0.10566
0.596,-0.04756
0.6,0.02046
0.604,0.19237
0.608,0.35107
0.612,0.5773
0.616,0.76436
0.62,0.90915
0.624,1.01713
0.628,0.9873
0.632,0.87073
0.636,0.66096
0.64,0.42135
0.644,0.17952
0.648,0.02022
0.652,-0.08301
0.656,-0.14113
0.66,-0.13325
0.664,-0.10775
0.668,-0.075
0.672,0.01774
0.676,-0.01907
0.68,0.02615
0.684,0.03531
0.688,0.00952
0.692,0.01272
0.696,0.03383
0.7,0.03037
0.704,0.03828
0.708,0.03316
0.712,0.02923
0.716,0.00986
0.72,0.0628
0.724,0.05136
0.728,0.0418
0.732,0.02271
0.736,0.0041
0.74,0.01396
0.744,0.03361
0.748,0.02456
0.752,0.05431
0.756,0.00807
0.76,0.04214
0.764,0.01617
0.768,0.01372
0.772,0.01613
0.776,0.01109
0.78,0.05446
0.784,0.02725
0.788,0.01954
0.792,0.03985
0.796,0.04649
0.8,0.04411
0.804,0.04724
0.808,0.049
0.812,0.07531
0.816,0.06622
0.82,0.0632
0.824,0.0644
0.828,0.07838
0.832,0.04347
0.836,0.093
0.84,0.13892
0.844,0.1289
0.848,0.16978
0.852,0.13182
0.856,0.15809
0.86,0.17843
0.864,0.22167
0.868,0.22133
0.872,0.18776
0.876,0.19902
0.88,0.19674
0.884,0.22751
0.888,0.23437
0.892,0.21207
0.896,0.23208
0.9,0.24169
0.904,0.26598
0.908,0.21626
0.912,0.25791
0.916,0.22621
0.92,0.24926
0.924,0.23628
0.928,0.2394
0.932,0.20991
0.936,0.18647
0.94,0.20264
0.944,0.19337
0.948,0.14797
0.952,0.1638
0.956,0.16471
0.96,0.12908
0.964,0.12244
0.968,0.12438
0.972,0.11123
0.976,0.1338
0.98,0.07336
0.984,0.06446
0.988,0.04274
0.992,0.06694
0.996,0.07205
1.0,0.06144
1.004,0.04641
1.008,0.03993
1.012,0.04873
1.016,0.07645
1.02,0.04987
1.024,0.04778
1.028,0.0374
1.032,0.04752
1.036,0.05341
1.04,0.01406
1.044,0.03803
1.048,0.01722
1.052,0.04662
1.056,0.03681
1.06,0.03908
1.064,0.04232
1.068,0.02803
1.072,0.0148
1.076,0.0225
1.08,0.03428
1.084,0.04705
1.088,0.03506
1.092,0.01658
1.096,0.0271
1.1,0.01975
1.104,0.05682
1.108,0.02605
1.112,0.03046
1.116,0.03672
1.12,0.00595
1.124,0.04577
1.128,0.01925
1.132,0.02449
1.136,0.0197
1.14,0.01273
1.144,0.05948
1.148,0.00025
1.152,0.02779
1.156,0.01842
1.16,0.02744
1.164,0.02986
1.168,0.01067
1.172,0.04116
1.176,0.02258
1.18,0.00116
1.184,-0.00175
1.188,0.04793
1.192,0.01881
1.196,0.06269
1.2,0.04444
1.204,0.05117
1.208,0.01793
1.212,0.0285
1.216,0.05006
1.22,0.05379
1.224,0.0559
1.228,0.03539
1.232,0.06734
1.236,0.05374
1.24,0.12067
1.244,0.11483
1.248,0.11054
1.252,0.10277
1.256,0.14207
1.26,0.13286
1.264,0.11384
1.268,0.10764
1.272,0.1458
1.276,0.09467
1.28,0.11828
1.284,0.07047
1.288,0.0492
1.292,0.03737
1.296,0.06036
1.3,0.05035
1.304,0.02319
1.308,0.04282
1.312,0.0465
1.316,0.03209
1.32,0.02305
1.324,0.02938
1.328,0.03183
1.332,0.06018
1.336,0.03977
1.34,0.0277
1.344,-0.0088
1.348,0.01548
1.352,0.03684
1.356,0.04083
1.36,0.05458
1.364,0.04798
1.368,-0.00677
1.372,-0.00285
1.376,-0.00866
1.38,-0.07185
1.384,-0.07635
1.388,-0.07705
1.392,0.00824
1.396,0.14072
1.4,0.37464
1.404,0.56615
1.408,0.78826
1.412,0.93334
1.416,1.03845
1.42,0.98952
1.424,0.87074
1.428,0.6712
1.432,0.45277
1.436,0.1999
1.44,0.01742
1.444,-0.08218
1.448,-0.12597
1.452,-0.15318
1.456,-0.09319
1.46,-0.03816
1.464,-0.02204
1.468,-0.01143
1.472,0.00744
1.476,0.03033
1.48,0.0276
1.484,-0.00371
1.488,0.03827
1.492,0.01284
1.496,0.037
1.5,0.02905
1.504,0.02062
1.508,0.02116
1.512,0.03512
1.516,0.04135
1.52,0.04361
1.524,0.03525
1.528,0.03424
1.532,0.02669
1.536,0.03927
1.54,0.05421
1.544,0.04935
1.548,0.02726
1.552,0.03121
1.556,0.0349
1.56,0.01097
1.564,0.02448
1.568,0.05078
1.572,0.0237
1.576,0.01682
1.58,0.03821
1.584,0.05251
1.588,0.04596
1.592,0.03952
1.596,0.03321
1.6,0.05703
1.604,0.04433
1.608,0.05293
1.612,0.05614
1.616,0.05274
1.62,0.05742
1.624,0.10639
1.628,0.08174
1.632,0.07053
1.636,0.10713
1.64,0.13388
1.644,0.16043
1.648,0.14106
1.652,0.16332
1.656,0.17043
1.66,0.17504
1.664,0.21577
1.668,0.20118
1.672,0.24688
1.676,0.21492
1.68,0.22954
1.684,0.22781
1.688,0.22582
1.692,0.22197
1.696,0.22369
1.7,0.22535
1.704,0.24352
1.708,0.23965
1.712,0.25578
1.716,0.22464
1.72,0.21418
1.724,0.21879
1.728,0.18263
1.732,0.20079
1.736,0.17125
1.74,0.16453
1.744,0.15031
1.748,0.10887
1.752,0.14635
1.756,0.11549
1.76,0.08829
1.764,0.10163
1.768,0.09016
1.772,0.10709
1.776,0.07338
1.78,0.09372
1.784,0.06244
1.788,0.06612
1.792,0.03488
1.796,0.06299
1.8,0.06886
1.804,0.03749
1.808,0.03852
1.812,0.04878
1.816,0.06149
1.82,0.04311
1.824,0.07349
1.828,0.07844
1.832,0.07588
1.836,0.11653
1.84,0.12726
1.844,0.11833
1.848,0.1124
1.852,0.11584
1.856,0.12268
1.86,0.13533
1.864,0.11992
1.868,0.08288
1.872,0.10616
1.876,0.08074
1.88,0.07699
1.884,0.05265
1.888,0.03788
1.892,0.03961
1.896,0.03026
1.9,-0.0015
1.904,0.00688
1.908,0.05156
1.912,0.03027
1.916,0.01768
1.92,0.03327
1.924,0.01573
1.928,-0.00155
1.932,0.03079
1.936,0.03017
1.94,-0.00011
1.944,0.02661
1.948,0.04812
1.952,0.02085
1.956,0.01739
1.96,0.01206
1.964,-0.02224
1.968,0.01785
1.972,-0.00855
1.976,-0.05191
1.98,-0.10602
1.984,-0.10846
1.988,-0.06509
1.992,0.0567
1.996,0.2515
2.0,0.44486
2.004,0.67542
2.008,0.8771
2.012,0.99427
2.016,0.99747
2.02,0.95143
2.024,0.78207
2.028,0.56292
2.032,0.33435
2.036,0.12206
2.04,-0.00295
2.044,-0.14504
2.048,-0.16141
2.052,-0.14804
2.056,-0.09187
2.06,-0.0545
2.064,-0.01199
2.068,-0.0052
2.072,0.03801
2.076,0.00038
2.08,0.02458
2.084,0.03075
2.088,-0.00013
2.092,0.02618
2.096,0.03323
2.1,-0.00076
2.104,0.0252
2.108,0.02084
2.112,-0.00675
2.116,0.01922
2.12,0.0246
2.124,0.00294
2.128,0.00762
2.132,0.02664
2.136,0.0291
2.14,0.00223
2.144,0.00925
2.148,0.0151
2.152,0.04288
2.156,0.02035
2.16,-0.01559
2.164,0.01348
2.168,0.01655
2.172,0.02049
2.176,0.01962
2.18,0.02514
2.184,0.00993
2.188,0.04434
2.192,0.01323
2.196,0.02085
2.2,0.03843
2.204,0.04614
2.208,0.05784
2.212,0.07175
2.216,0.08478
2.22,0.0826
2.224,0.10887
2.228,0.09575
2.232,0.08859
2.236,0.10724
2.24,0.12241
2.244,0.10628
2.248,0.13742
2.252,0.16784
2.256,0.16817
2.26,0.16766
2.264,0.1678
2.268,0.19732
2.272,0.21501
2.276,0.21436
2.28,0.21691
2.284,0.24533
2.288,0.2308
2.292,0.19705
2.296,0.24253
2.3,0.24347
2.304,0.23312
2.308,0.22382
2.312,0.2391
2.316,0.20284
2.32,0.19815
2.324,0.20342
2.328,0.22541
2.332,0.14436
2.336,0.1503
2.34,0.13644
2.344,0.1492
2.348,0.11401
2.352,0.10469
2.356,0.10184
2.36,0.07258
2.364,0.09961
2.368,0.05779
2.372,0.08953
2.376,0.07548
2.38,0.03367
2.384,0.04948
2.388,0.01188
2.392,0.0355
2.396,0.03118
2.4,0.0218
2.404,0.04026
2.408,0.02268
2.412,0.03467
2.416,0.02075
2.42,0.01621
2.424,0.0288
2.428,0.02474
2.432,0.01207
2.436,0.02688
2.44,0.01914
2.444,0.01152
2.448,0.01298
2.452,5e-05
2.456,0.01583
2.46,0.0196
2.464,0.01339
2.468,0.0146
2.472,0.00322
2.476,0.00608
2.48,0.03766
2.484,0.00407
2.488,0.03002
2.492,0.02873
2.496,0.01552
2.5,0.01169
2.504,0.02184
2.508,0.02488
2.512,0.01889
2.516,-0.00631
2.52,0.01836
2.524,-0.00347
2.528,-0.00094
2.532,0.01653
2.536,0.02332
2.54,0.00859
2.544,0.01308
2.548,0.02396
2.552,0.00589
2.556,-0.00119
2.56,-0.0242
2.564,-0.00643
2.568,0.0064
2.572,0.02653
2.576,0.0084
2.58,0.02242
2.584,0.00447
2.588,-0.01776
2.592,0.00881
2.596,0.03587
2.6,-0.0172
2.604,0.01068
2.608,0.01976
2.612,0.00171
2.616,-0.02139
2.62,-0.01213
2.624,0.00742
2.628,0.01375
2.632,-0.00265
2.636,0.02473
2.64,0.0071
2.644,-0.00605
2.648,0.00954
2.652,0.01248
2.656,-0.00612
2.66,0.00444
2.664,0.04469
2.668,0.02078
2.672,0.05435
2.676,0.0619
2.68,0.05023
2.684,0.07227
2.688,0.09361
2.692,0.09203
2.696,0.11441
2.7,0.08157
2.704,0.11347
2.708,0.08773
2.712,0.10766
2.716,0.10145
2.72,0.05907
2.724,0.08502
2.728,0.06025
2.732,0.00167
2.736,0.02526
2.74,0.01712
2.744,0.02023
2.748,0.00254
2.752,-0.00363
2.756,0.0158
2.76,-0.00365
2.764,-0.02452
2.768,-0.00413
2.772,-0.01823
2.776,0.0047
2.78,-0.01444
2.784,-0.00042
2.788,-0.03386
2.792,0.03429
2.796,-0.03535
2.8,0.00129
2.804,0.0041
2.808,0.01037
2.812,0.00812
2.816,0.00395
2.82,-0.04291
2.824,-0.07388
2.828,-0.10984
2.832,-0.1358
2.836,-0.04625
2.84,0.06604
2.844,0.29202
2.848,0.49078
2.852,0.70413
2.856,0.89049
2.86,1.00255
2.864,0.95889
2.868,0.85961
2.872,0.67598
2.876,0.43959
2.88,0.2028
2.884,0.04441
2.888,-0.08256
2.892,-0.17207
2.896,-0.17688
2.9,-0.15463
2.904,-0.08984
2.908,-0.03512
2.912,-0.02171
2.916,-0.03239
2.92,-0.01313
2.924,-9e-05
2.928,-0.00967
2.932,-0.01314
2.936,-0.00663
2.94,-0.02617
2.944,0.02099
2.948,-0.00542
2.952,0.00119
2.956,-0.0255
2.96,-0.02949
2.964,-0.00167
2.968,-0.02169
2.972,0.00166
2.976,0.00753
2.98,0.00422
2.984,-0.00326
2.988,0.00227
2.992,0.00923
2.996,-0.0311
3.0,0.00828
3.004,-0.00032
3.008,-0.00165
3.012,-0.02078
3.016,-0.01521
3.02,0.00101
3.024,-0.00747
3.028,-0.00518
3.032,0.0082
3.036,-0.00087
3.04,-0.0014
3.044,0.01985
3.048,0.00822
3.052,0.03247
3.056,0.01925
3.06,0.02048
3.064,0.03936
3.068,0.04581
3.072,0.05004
3.076,0.06366
3.08,0.07084
3.084,0.09182
3.088,0.10899
3.092,0.13143
3.096,0.10709
3.1,0.14324
3.104,0.10858
3.108,0.1821
3.112,0.15665
3.116,0.16387
3.12,0.19509
3.124,0.16608
3.128,0.17694
3.132,0.20247
3.136,0.23864
3.14,0.19201
3.144,0.22039
3.148,0.2054
3.152,0.20804
3.156,0.20745
3.16,0.18684
3.164,0.19797
3.168,0.16655
3.172,0.16489
3.176,0.15387
3.18,0.14227
3.184,0.142
3.188,0.14349
3.192,0.12626
3.196,0.13285
3.2,0.06716
3.204,0.07366
3.208,0.06076
3.212,0.07169
3.216,0.04888
3.22,0.04162
3.224,0.08539
3.228,0.05188
3.232,0.03359
3.236,0.0152
3.24,-0.0164
3.244,-0.00241
3.248,0.019
3.252,-0.00475
3.256,0.00444
3.26,-0.0243
3.264,0.00414
3.268,-0.01717
3.272,-0.01566
3.276,0.01078
3.28,0.00476
3.284,-0.03762
3.288,0.0144
3.292,-0.00406
3.296,-0.02837
3.3,-0.00116
3.304,-0.01788
3.308,-0.04657
3.312,-0.01183
3.316,-0.0171
3.32,-0.00927
3.324,-0.01862
3.328,-0.02641
3.332,-0.02274
3.336,-0.00839
3.34,-0.01978
3.344,-0.03565
3.348,0.00414
3.352,-0.01708
3.356,-0.01289
3.36,-0.01809
3.364,0.01745
3.368,0.01491
3.372,0.04201
3.376,0.0485
3.38,0.0582
3.384,0.07045
3.388,0.05678
3.392,0.08838
3.396,0.12179
3.4,0.09857
3.404,0.07983
3.408,0.06238
3.412,0.05765
3.416,0.03055
3.42,0.03162
3.424,0.01802
3.428,0.00042
3.432,0.00203
3.436,0.01169
3.44,-0.00276
3.444,-0.0338
3.448,-0.02945
3.452,-0.02134
3.456,-0.0091
3.46,-0.00938
3.464,-0.00552
3.468,-0.01304
3.472,-0.01808
3.476,-0.01313
3.48,0.00232
3.484,-0.01634
3.488,-0.01575
3.492,-0.02309
3.496,-0.011
3.5,-0.02087
3.504,-0.04231
3.508,-0.02326
3.512,-0.03824
3.516,-0.09048
3.52,-0.10268
3.524,-0.11446
3.528,-0.12104
3.532,0.00535
3.536,0.13677
3.54,0.34497
3.544,0.55056
3.548,0.75787
3.552,0.90679
3.556,0.97815
3.56,0.9493
3.564,0.76539
3.568,0.56201
3.572,0.33327
3.576,0.11466
3.58,-0.04587
3.584,-0.15688
3.588,-0.17854
3.592,-0.15965
3.596,-0.15832
3.6,-0.09299
3.604,-0.03216
3.608,-0.03298
3.612,-0.02105
3.616,-0.02896
3.62,-0.02955
3.624,-0.02026
3.628,-0.02338
3.632,-0.01846
3.636,-0.02775
3.64,-0.04374
3.644,-0.01279
3.648,-0.01539
3.652,-0.03102
3.656,-0.03913
3.66,-0.01787
3.664,-0.02295
3.668,-0.0225
3.672,-0.03468
3.676,-0.00987
3.68,-0.04491
3.684,-0.02518
3.688,-0.03536
3.692,-0.00941
3.696,-0.05274
3.7,-0.02197
3.704,-0.02805
3.708,-0.01045
3.712,-0.02555
3.716,-0.02899
3.72,0.01334
3.724,-0.02075
3.728,-0.03919
3.732,-0.01083
3.736,-0.00752
3.74,-0.01541
3.744,0.00062
3.748,-0.02241
3.752,0.01279
3.756,0.02253
3.76,0.00062
3.764,0.0261
3.768,0.04385
3.772,0.04837
3.776,0.04402
3.78,0.07659
3.784,0.09489
3.788,0.1009
3.792,0.12343
3.796,0.11523
3.8,0.16747
3.804,0.17361
3.808,0.16078
3.812,0.18401
3.816,0.16273
3.82,0.14507
3.824,0.20009
3.828,0.1872
3.832,0.18921
3.836,0.20086
3.84,0.18654
3.844,0.19258
3.848,0.17622
3.852,0.17631
3.856,0.16921
3.86,0.18236
3.864,0.16253
3.868,0.16071
3.872,0.13664
3.876,0.1209
3.88,0.14084
3.884,0.08017
3.888,0.08446
3.892,0.08774
3.896,0.09114
3.9,0.06317
3.904,0.04402
3.908,0.03642
3.912,0.04729
3.916,0.02895
3.92,0.0067
3.924,-0.0317
3.928,-0.01736
3.932,-0.01143
3.936,-0.00499
3.94,-0.01245
3.944,-0.02246
3.948,-0.01136
3.952,-0.00058
3.956,0.00278
3.96,0.00263
3.964,-0.00962
3.968,-0.01156
3.972,-0.01735
3.976,-0.01606
3.98,-0.02692
3.984,-0.03111
3.988,0.0022
3.992,-0.04676
3.996,-0.02819
4.0,-0.02769
4.004,-0.01868
4.008,-0.02913
4.012,-0.00281
4.016,0.00217
4.02,0.00315
4.024,-0.00063
4.028,-0.00603
4.032,-0.02658
4.036,-0.01032
4.04,-0.00275
4.044,0.03878
4.048,0.04511
4.052,0.05506
4.056,0.06975
4.06,0.04374
4.064,0.06334
4.068,0.05528
4.072,0.08226
4.076,0.05114
4.08,0.05353
4.084,0.04796
4.088,0.05825
4.092,0.03617
4.096,0.01262
4.1,-0.00815
4.104,-0.00305
4.108,-0.02563
4.112,-0.0072
4.116,-0.00574
4.12,-0.05282
4.124,-0.03958
4.128,-0.02904
4.132,-0.01029
4.136,-0.02834
4.14,-0.00173
4.144,-0.0306
4.148,-0.02435
4.152,-0.03747
4.156,-0.02722
4.16,-0.01644
4.164,-0.03675
4.168,-0.0418
4.172,-0.05232
4.176,-0.01079
4.18,-0.04018
4.184,-0.07985
4.188,-0.0729
4.192,-0.1699
4.196,-0.14852
4.2,-0.07827
4.204,0.0722
4.208,0.24834
4.212,0.41983
4.216,0.66354
4.22,0.80493
4.224,0.93311
4.228,0.95029
4.232,0.8619
4.236,0.6391
4.24,0.43932
4.244,0.20939
4.248,0.00607
4.252,-0.08733
4.256,-0.1783
4.26,-0.2121
4.264,-0.15764
4.268,-0.11086
4.272,-0.07494
4.276,-0.04673
4.28,-0.04626
4.284,-0.05998
4.288,-0.03592
4.292,-0.03391
4.296,-0.00859
4.3,-0.01588
4.304,-0.03901
4.308,-0.04191
4.312,-0.04663
4.316,-0.03926
4.32,-0.01897
4.324,-0.03838
4.328,-0.00955
4.332,-0.00479
4.336,-0.03682
4.34,-0.02496
4.344,-0.00716
4.348,-0.02734
4.352,-0.0353
4.356,-0.02238
4.36,-0.03739
4.364,-0.01876
4.368,-0.02388
4.372,-0.01935
4.376,-0.01601
4.38,-0.00466
4.384,-0.03321
4.388,-0.05714
4.392,-0.02061
4.396,-0.04061
4.4,-0.02395
4.404,-0.02589
4.408,-0.01873
4.412,-0.00299
4.416,-0.01394
4.42,0.02549
4.424,0.0376
4.428,0.02537
4.432,0.04884
4.436,0.05891
4.44,0.0675
4.444,0.06133
4.448,0.05556
4.452,0.06675
4.456,0.10211
4.46,0.10374
4.464,0.0847
4.468,0.14873
4.472,0.12631
4.476,0.14215
4.48,0.13051
4.484,0.17271
4.488,0.19055
4.492,0.20157
4.496,0.18848
4.5,0.17625
4.504,0.19696
4.508,0.19555
4.512,0.18627
4.516,0.18108
4.52,0.19145
4.524,0.15397
4.528,0.15707
4.532,0.16914
4.536,0.14164
4.54,0.13378
4.544,0.1061
4.548,0.09158
4.552,0.06911
4.556,0.08981
4.56,0.04737
4.564,0.08297
4.568,0.06383
4.572,0.05229
4.576,0.07257
4.58,0.03322
4.584,-0.02195
4.588,0.02331
4.592,0.0287
4.596,0.02909
4.6,-0.01664
4.604,-0.0124
4.608,-0.05593
4.612,-0.00179
4.616,-0.00962
4.62,-0.01682
4.624,-0.00245
4.628,-0.024
4.632,-0.04513
4.636,-0.0518
4.64,-0.00081
4.644,-0.01134
4.648,-0.04549
4.652,-0.04367
4.656,-0.00453
4.66,-0.04277
4.664,-0.03309
4.668,-0.06302
4.672,-0.00986
4.676,-0.0351
4.68,-0.04825
4.684,0.01578
4.688,-0.04065
4.692,-0.0323
4.696,-0.00355
4.7,-0.04367
4.704,-0.04352
4.708,-0.02151
4.712,-0.01244
4.716,-0.03117
4.72,-0.01881
4.724,-0.02315
4.728,-0.0212
4.732,-0.05015
4.736,-0.05029
4.74,-0.03227
4.744,-0.02606
4.748,-0.02912
4.752,-0.04206
4.756,-0.04512
4.76,-0.05298
4.764,-0.00582
4.768,-0.03387
4.772,-0.02561
4.776,-0.04132
4.78,0.00917
4.784,-0.01347
4.788,-0.03717
4.792,-0.01593
4.796,0.01063
4.8,-0.01554
4.804,0.01299
4.808,0.00077
4.812,0.0247
4.816,0.06431
4.82,0.07468
4.824,0.03538
4.828,0.07709
4.832,0.06645
4.836,0.08903
4.84,0.05207
4.844,0.09036
4.848,0.02394
4.852,0.02697
4.856,0.03454
4.86,0.03215
4.864,-0.00253
4.868,0.00207
4.872,-0.01847
4.876,-0.03481
4.88,-0.01287
4.884,-0.01706
4.888,0.0123
4.892,-0.01812
4.896,-0.03594
4.9,-0.02726
4.904,-0.03391
4.908,-0.03535
4.912,-0.00934
4.916,-0.01711
4.92,-0.04756
4.924,-0.02205
4.928,-0.03259
4.932,-0.05933
4.936,-0.02818
4.94,0.02152
4.944,-0.04919
4.948,-0.05615
4.952,-0.0919
4.956,-0.10542
4.96,-0.13961
4.964,-0.12374
4.968,-0.07104
4.972,0.08647
4.976,0.24868
4.98,0.43736
4.984,0.65915
4.988,0.83503
4.992,0.94248
4.996,0.95103
5.0,0.84677
5.004,0.65801
5.008,0.42593
5.012,0.21497
5.016,0.03626
5.02,-0.10922
5.024,-0.21548
5.028,-0.1763
5.032,-0.17977
5.036,-0.11402
5.04,-0.09226
5.044,-0.05797
5.048,-0.02506
5.052,-0.04444
5.056,-0.03355
5.06,0.00944
5.064,-0.03519
5.068,-0.04668
5.072,-0.02192
5.076,-0.03257
5.08,-0.02885
5.084,-0.03379
5.088,-0.02222
5.092,-0.01468
5.096,-0.01336
5.1,-0.02536
5.104,-0.00789
5.108,-0.00888
5.112,-0.02082
5.116,-0.03676
5.12,-0.04663
5.124,-0.02986
5.128,-0.01258
5.132,-0.03846
5.136,-0.03296
5.14,-0.02016
5.144,-0.02397
5.148,-0.04689
5.152,-0.02121
5.156,-0.03964
5.16,0.00021
5.164,-0.03124
5.168,0.00122
5.172,0.0061
5.176,0.00158
5.18,-0.00039
5.184,0.0165
5.188,0.01467
5.192,0.00074
5.196,0.048
5.2,0.05562
5.204,0.04161
5.208,0.06431
5.212,0.06119
5.216,0.07888
5.22,0.05454
5.224,0.08494
5.228,0.07808
5.232,0.12297
5.236,0.1041
5.24,0.11074
5.244,0.15477
5.248,0.1603
5.252,0.14221
5.256,0.20348
5.26,0.19033
5.264,0.20083
5.268,0.20128
5.272,0.20576
5.276,0.21203
5.28,0.16887
5.284,0.19864
5.288,0.18766
5.292,0.1945
5.296,0.16188
5.3,0.15608
5.304,0.1425
5.308,0.14823
5.312,0.13696
5.316,0.13475
5.32,0.11651
5.324,0.1119
5.328,0.1154
5.332,0.09088
5.336,0.05942
5.34,0.02152
5.344,0.07038
5.348,0.06855
5.352,0.01919
5.356,-0.00113
5.36,0.02129
5.364,-0.00963
5.368,0.01818
5.372,0.00165
5.376,-0.01745
5.38,-0.02173
5.384,0.00121
5.388,-0.02769
5.392,-0.01725
5.396,-0.01157
5.4,-0.04008
5.404,-0.03033
5.408,-0.04248
5.412,-0.0087
5.416,-0.01638
5.42,-0.01025
5.424,-0.02193
5.428,-0.02053
5.432,-0.01082
5.436,-0.04036
5.44,0.00609
5.444,-0.00688
5.448,-0.0439
5.452,-0.03863
5.456,-0.02971
5.46,-0.02216
5.464,-0.02845
5.468,-0.00063
5.472,-0.01281
5.476,-0.01395
5.48,-0.02187
5.484,-0.02231
5.488,0.00256
5.492,-0.01898
5.496,-0.00442
5.5,-0.02014
5.504,-0.00754
5.508,-0.02681
5.512,-0.01737
5.516,-0.01525
5.52,0.00454
5.524,1e-05
5.528,-0.01085
5.532,-0.03651
5.536,-0.00666
5.54,0.00702
5.544,0.01748
5.548,0.01534
5.552,0.01874
5.556,0.04523
5.56,0.05217
5.564,0.04893
5.568,0.05568
5.572,0.09525
5.576,0.06754
5.58,0.07647
5.584,0.08722
5.588,0.0766
5.592,0.07171
5.596,0.05732
5.6,0.03798
5.604,0.03269
5.608,0.04083
5.612,0.02519
5.616,0.03932
5.62,-0.00773
5.624,-0.00611
5.628,-0.00984
5.632,-0.03032
5.636,-0.01985
5.64,-0.02388
5.644,-0.03045
5.648,-0.021
5.652,-0.02863
5.656,-0.04289
5.66,-0.03266
5.664,-0.00284
5.668,-0.01185
5.672,0.01454
5.676,-0.01022
5.68,-0.0102
5.684,-0.01327
5.688,-0.02173
5.692,-0.02177
5.696,-0.0664
5.7,-0.07999
5.704,-0.14156
5.708,-0.11007
5.712,-0.08021
5.716,0.05602
5.72,0.21177
5.724,0.44787
5.728,0.6423
5.732,0.85023
5.736,0.96228
5.74,0.97477
5.744,0.89177
5.748,0.72825
5.752,0.48488
5.756,0.27524
5.76,0.04911
5.764,-0.06183
5.768,-0.13704
5.772,-0.16139
5.776,-0.17655
5.78,-0.12875
5.784,-0.07812
5.788,-0.0572
5.792,-0.02997
5.796,-0.03202
5.8,-0.01594
5.804,-0.00553
5.808,-0.00457
5.812,-0.00351
5.816,-0.01635
5.82,-0.01467
5.824,-0.00555
5.828,0.0012
5.832,0.00562
5.836,-0.01537
5.84,-0.00394
5.844,-0.00174
5.848,0.00603
5.852,-0.01011
5.856,0.00434
5.86,-0.02712
5.864,-0.00217
5.868,-0.01973
5.872,-0.00053
5.876,-0.00603
5.88,-0.04049
5.884,-0.0148
5.888,0.00409
5.892,-0.00411
5.896,-0.0073
5.9,-0.02471
5.904,-0.00303
5.908,0.01512
5.912,-0.01004
5.916,0.00564
5.92,-0.01055
5.924,0.01433
5.928,0.03823
5.932,0.04535
5.936,0.03223
5.94,0.03194
5.944,0.03542
5.948,0.07269
5.952,0.0459
5.956,0.07013
5.96,0.09242
5.964,0.06916
5.968,0.11809
5.972,0.14986
5.976,0.16577
5.98,0.15748
5.984,0.16174
5.988,0.15825
5.992,0.1829
5.996,0.18862
6.0,0.19348
6.004,0.15856
6.008,0.20848
6.012,0.20338
6.016,0.2009
6.02,0.2378
6.024,0.22646
6.028,0.20133
6.032,0.20511
6.036,0.199
6.04,0.20783
6.044,0.16835
6.048,0.19984
6.052,0.16366
6.056,0.14157
6.06,0.14003
6.064,0.15857
6.068,0.1124
6.072,0.12229
6.076,0.08672
6.08,0.09503
6.084,0.04383
6.088,0.07498
6.092,0.02766
6.096,0.05267
6.1,0.02834
6.104,0.05069
6.108,0.0115
6.112,0.02765
6.116,0.02405
6.12,0.00841
6.124,0.01779
6.128,0.01605
6.132,0.00228
6.136,0.01527
6.14,-0.01113
6.144,0.03258
6.148,0.01948
6.152,-0.00547
6.156,-0.00012
6.16,0.00244
6.164,-0.01591
6.168,0.00376
6.172,-0.00136
6.176,0.00273
6.18,0.01947
6.184,0.03248
6.188,0.01959
6.192,0.02765
6.196,0.0184
6.2,0.03256
6.204,0.08593
6.208,0.06912
6.212,0.09203
6.216,0.08853
6.22,0.11117
6.224,0.12235
6.228,0.11043
6.232,0.11691
6.236,0.11038
6.24,0.0988
6.244,0.07323
6.248,0.05757
6.252,0.06375
6.256,0.04303
6.26,0.02882
6.264,0.00297
6.268,0.02453
6.272,0.02236
6.276,0.01878
6.28,-0.01968
6.284,-0.00397
6.288,0.02533
6.292,0.00843
6.296,-0.02681
6.3,-0.02494
6.304,0.01091
6.308,0.01248
6.312,-0.00903
6.316,0.00223
6.32,0.00939
6.324,0.0318
6.328,-0.02432
6.332,0.03141
6.336,-0.01466
6.34,-0.00649
6.344,-0.00966
6.348,-0.0951
6.352,-0.11898
6.356,-0.11589
6.36,-0.04657
6.364,0.04382
6.368,0.23446
6.372,0.40688
6.376,0.64895
6.38,0.83751
6.384,0.96105
6.388,1.00621
6.392,0.94313
6.396,0.76086
6.4,0.55177
6.404,0.29345
6.408,0.10157
6.412,-0.04594
6.416,-0.13775
6.42,-0.17346
6.424,-0.17062
6.428,-0.10442
6.432,-0.04247
6.436,-0.00659
6.44,-0.00707
6.444,0.01117
6.448,0.01689
6.452,0.00872
6.456,0.02861
6.46,0.04454
6.464,0.0062
6.468,-0.01586
6.472,-0.00446
6.476,0.01642
6.48,0.00822
6.484,0.0116
6.488,0.0157
6.492,0.00789
6.496,0.01555
6.5,0.03176
6.504,0.01391
6.508,0.02307
6.512,-0.01546
6.516,0.02499
6.52,-0.01013
6.524,0.00107
6.528,0.01523
6.532,-0.0137
6.536,0.02834
6.54,0.02181
6.544,0.01694
6.548,0.00367
6.552,0.03922
6.556,0.01071
6.56,0.04978
6.564,0.04021
6.568,0.03238
6.572,0.02742
6.576,0.03208
6.58,0.05411
6.584,0.03746
6.588,0.04797
6.592,0.0831
6.596,0.09565
6.6,0.1124
6.604,0.13294
6.608,0.10221
6.612,0.11657
6.616,0.14639
6.62,0.14887
6.624,0.14604
6.628,0.18622
6.632,0.17668
6.636,0.19031
6.64,0.19837
6.644,0.19775
6.648,0.17806
6.652,0.23906
6.656,0.2449
6.66,0.24196
6.664,0.20683
6.668,0.22227
6.672,0.20117
6.676,0.2118
6.68,0.22061
6.684,0.22864
6.688,0.20427
6.692,0.20158
6.696,0.16354
6.7,0.18642
6.704,0.20466
6.708,0.16758
6.712,0.13448
6.716,0.11945
6.72,0.13333
6.724,0.11362
6.728,0.10449
6.732,0.08761
6.736,0.09073
6.74,0.04377
6.744,0.0555
6.748,0.0595
6.752,0.06391
6.756,0.03569
6.76,0.06696
6.764,0.04614
6.768,0.01569
6.772,0.01717
6.776,0.03805
6.78,0.06553
6.784,0.04223
6.788,-0.00238
6.792,0.02623
6.796,0.00802
6.8,-0.00349
6.804,0.00966
6.808,0.01073
6.812,0.02369
6.816,0.01614
6.82,0.0221
6.824,0.01857
6.828,0.02318
6.832,0.00973
6.836,0.00891
6.84,-0.0075
6.844,0.03155
6.848,0.00957
6.852,0.02469
6.856,-0.00992
6.86,0.04839
6.864,0.03209
6.868,-0.00891
6.872,0.03394
6.876,0.01243
6.88,0.01761
6.884,0.01557
6.888,-0.02557
6.892,0.01489
6.896,0.01299
6.9,0.00798
6.904,0.01214
6.908,0.00147
6.912,0.04557
6.916,0.0378
6.92,0.01033
6.924,0.03692
6.928,0.03014
6.932,0.01742
6.936,0.02884
6.94,0.02737
6.944,0.06455
6.948,0.04789
6.952,0.04747
6.956,0.07615
6.96,0.07387
6.964,0.05799
6.968,0.10145
6.972,0.09848
6.976,0.13371
6.98,0.10126
6.984,0.12639
6.988,0.11896
6.992,0.12181
6.996,0.07569
7.0,0.09917
7.004,0.07047
7.008,0.05039
7.012,0.07319
7.016,0.06026
7.02,0.03344
7.024,0.0162
7.028,0.02875
7.032,0.01283
7.036,0.0297
7.04,0.01049
7.044,-0.00153
7.048,0.01166
7.052,0.02782
7.056,-0.00501
7.06,0.02312
7.064,0.05336
7.068,0.04536
7.072,0.01763
7.076,0.01814
7.08,0.00817
7.084,0.01088
7.088,0.02183
7.092,0.00928
7.096,0.00768
7.1,0.0019
7.104,-0.037
7.108,-0.07073
7.112,-0.08031
7.116,-0.07476
7.12,0.04702
7.124,0.22307
7.128,0.45147
7.132,0.63662
7.136,0.80491
7.14,0.97726
7.144,1.0278
7.148,0.96256
7.152,0.81447
7.156,0.57325
7.16,0.3355
7.164,0.12756
7.168,-0.02978
7.172,-0.10586
7.176,-0.15498
7.18,-0.14608
7.184,-0.08132
7.188,-0.03917
7.192,-0.03972
7.196,-0.00084
7.2,0.01834
7.204,0.03017
7.208,0.01218
7.212,0.02172
7.216,0.03176
7.22,0.0223
7.224,0.03496
7.228,0.04562
7.232,0.03468
7.236,0.03337
7.24,0.02645
7.244,0.00469
7.248,0.02174
7.252,0.01609
7.256,0.03235
7.26,0.01868
7.264,0.02663
7.268,0.02966
7.272,0.03338
7.276,0.04123
7.28,0.03625
7.284,0.02555
7.288,0.0507
7.292,0.03925
7.296,0.00889
7.3,0.0476
7.304,0.03241
7.308,0.03503
7.312,0.03925
7.316,0.04496
7.32,0.05418
7.324,0.0416
7.328,0.04778
7.332,0.04349
7.336,0.09187
7.34,0.04794
7.344,0.06694
7.348,0.09309
7.352,0.10549
7.356,0.09405
7.36,0.07871
7.364,0.11098
7.368,0.12706
7.372,0.13409
7.376,0.16421
7.38,0.19055
7.384,0.18012
7.388,0.16271
7.392,0.20438
7.396,0.20973
7.4,0.1891
7.404,0.21835
7.408,0.23618
7.412,0.24403
7.416,0.22918
7.42,0.28635
7.424,0.25049
7.428,0.24796
7.432,0.23726
7.436,0.24293
7.44,0.23281
7.444,0.24697
7.448,0.24181
7.452,0.23102
7.456,0.19016
7.46,0.18224
7.464,0.16077
7.468,0.15607
7.472,0.13617
7.476,0.13807
7.48,0.11235
7.484,0.12381
7.488,0.09315
7.492,0.08081
7.496,0.11614
7.5,0.0598
7.504,0.08261
7.508,0.10164
7.512,0.07622
7.516,0.07637
7.52,0.03477
7.524,0.02683
7.528,0.06888
7.532,0.05234
7.536,0.02436
7.54,0.02625
7.544,0.0413
7.548,0.03186
7.552,0.01857
7.556,0.04521
7.56,0.04505
7.564,0.047
7.568,0.02735
7.572,0.04187
7.576,0.06241
7.58,0.05715
7.584,0.05971
7.588,0.08032
7.592,0.0963
7.596,0.11229
7.6,0.11928
7.604,0.12075
7.608,0.14272
7.612,0.15355
7.616,0.12024
7.62,0.13406
7.624,0.11799
7.628,0.11116
7.632,0.09936
7.636,0.08692
7.64,0.04366
7.644,0.07759
7.648,0.05032
7.652,0.03146
7.656,0.0476
7.66,0.06128
7.664,0.03874
7.668,0.03287
7.672,0.01033
7.676,0.02841
7.68,0.03189
7.684,0.04923
7.688,0.023
7.692,0.00711
7.696,0.03331
7.7,0.03568
7.704,0.0347
7.708,0.04991
7.712,0.03307
7.716,0.0433
7.72,0.03198
7.724,0.00853
7.728,-0.01289
7.732,-0.02456
7.736,-0.09292
7.74,-0.0467
7.744,-0.05452
7.748,-0.00891
7.752,0.20003
7.756,0.37254
7.76,0.56498
7.764,0.78744
7.768,0.93752
7.772,1.03267
7.776,1.00032
7.78,0.88165
7.784,0.66162
7.788,0.40782
7.792,0.19783
7.796,0.07606
7.8,-0.095
7.804,-0.13509
7.808,-0.13299
7.812,-0.09061
7.816,-0.05174
7.82,0.01117
7.824,0.01563
7.828,0.05568
7.832,0.02152
7.836,0.02535
7.84,0.0327
7.844,0.03036
7.848,0.02109
7.852,0.01914
7.856,0.04573
7.86,0.05397
7.864,0.05471
7.868,0.00793
7.872,0.0431
7.876,0.04964
7.88,0.03578
7.884,0.04174
7.888,0.02195
7.892,-0.00549
7.896,0.02387
7.9,0.0311
7.904,0.04869
7.908,0.03289
7.912,0.03424
7.916,0.03765
7.92,0.06314
7.924,0.0355
7.928,0.02349
7.932,0.01077
7.936,0.0465
7.94,0.03895
7.944,0.05283
7.948,0.0754
7.952,0.03114
7.956,0.02195
7.96,0.08835
7.964,0.0625
7.968,0.08623
7.972,0.07202
7.976,0.07553
7.98,0.08795
7.984,0.0961
7.988,0.09498
7.992,0.11617
7.996,0.08241
8.0,0.14015
8.004,0.13918
8.008,0.18406
8.012,0.17907
8.016,0.19427
8.02,0.20286
8.024,0.20451
8.028,0.20685
8.032,0.21942
8.036,0.235
8.04,0.22606
8.044,0.22845
8.048,0.23521
8.052,0.22356
8.056,0.24714
8.06,0.23686
8.064,0.24002
8.068,0.26359
8.072,0.21763
8.076,0.23217
8.08,0.2067
8.084,0.19534
8.088,0.22002
8.092,0.19897
8.096,0.15746
8.1,0.15311
8.104,0.13322
8.108,0.14343
8.112,0.11682
8.116,0.08892
8.12,0.11034
8.124,0.10253
8.128,0.07
8.132,0.07858
8.136,0.05559
8.14,0.06439
8.144,0.07021
8.148,0.05748
8.152,0.02911
8.156,0.04091
8.16,0.04484
8.164,0.02144
8.168,0.04158
8.172,0.06534
8.176,0.03933
8.18,0.02945
8.184,0.00996
8.188,0.03613
8.192,0.0242
8.196,0.03736
8.2,0.03774
8.204,0.04255
8.208,0.02802
8.212,0.02932
8.216,0.01404
8.22,-0.0033
8.224,0.03715
8.228,0.04089
8.232,0.03236
8.236,0.03536
8.24,0.01284
8.244,0.0197
8.248,0.01914
8.252,-0.00309
8.256,0.03897
8.26,0.01301
8.264,0.01805
8.268,-0.00502
8.272,0.01155
8.276,0.04638
8.28,0.01802
8.284,0.03391
8.288,0.0616
8.292,0.03517
8.296,0.00734
8.3,0.05071
8.304,0.01924
8.308,0.00909
8.312,0.0379
8.316,0.03484
8.32,0.01122
8.324,0.02695
8.328,0.03146
8.332,0.02566
8.336,0.03835
8.34,0.01846
8.344,0.02751
8.348,0.0064
8.352,0.01724
8.356,0.01579
8.36,0.04596
8.364,0.02917
8.368,0.02825
8.372,0.04638
8.376,0.03955
8.38,0.06885
8.384,0.06182
8.388,0.07455
8.392,0.10081
8.396,0.10885
8.4,0.12756
8.404,0.10787
8.408,0.11922
8.412,0.12618
8.416,0.12299
8.42,0.1047
8.424,0.1346
8.428,0.09601
8.432,0.06866
8.436,0.02059
8.44,0.04691
8.444,0.03128
8.448,0.03091
8.452,0.02942
8.456,0.0284
8.46,0.00672
8.464,0.02468
8.468,0.0351
8.472,0.00238
8.476,0.03238
8.48,0.02977
8.484,0.01842
8.488,0.01786
8.492,0.00101
8.496,0.03693
8.5,0.03482
8.504,0.02196
8.508,0.01487
8.512,0.00802
8.516,0.00997
8.52,0.00738
8.524,-0.00443
8.528,-0.03601
8.532,-0.10006
8.536,-0.07874
8.54,-0.07044
8.544,0.05806
8.548,0.23073
8.552,0.42661
8.556,0.62687
8.56,0.82209
8.564,0.96898
8.568,1.01656
8.572,0.98009
8.576,0.79137
8.58,0.58907
8.584,0.35158
8.588,0.15844
8.592,-0.02804
8.596,-0.12216
8.6,-0.13003
8.604,-0.14342
8.608,-0.09141
8.612,-0.07874
8.616,-0.01823
8.62,-0.00203
8.624,-0.01436
8.628,-0.00658
8.632,0.02282
8.636,0.04845
8.64,0.00631
8.644,0.04039
8.648,0.02395
8.652,0.02135
8.656,0.05101
8.66,0.04753
8.664,0.02507
8.668,0.02092
8.672,0.02833
8.676,0.02349
8.68,0.02549
8.684,0.03487
8.688,0.01609
8.692,0.03116
8.696,-0.01063
8.7,0.01999
8.704,-0.00945
8.708,0.03424
8.712,0.03089
8.716,0.0233
8.72,0.02081
8.724,0.0309
8.728,0.0416
8.732,0.01454
8.736,0.02686
8.74,0.01588
8.744,0.03368
8.748,0.0323
8.752,0.00081
8.756,0.06671
8.76,0.03071
8.764,0.04372
8.768,0.07913
8.772,0.07932
8.776,0.10459
8.78,0.07522
8.784,0.09987
8.788,0.11544
8.792,0.11257
8.796,0.13787
8.8,0.14812
8.804,0.1207
8.808,0.18598
8.812,0.18301
8.816,0.21112
8.82,0.19618
8.824,0.21816
8.828,0.22983
8.832,0.24478
8.836,0.26886
8.84,0.22863
8.844,0.20761
8.848,0.22557
8.852,0.25003
8.856,0.21008
8.86,0.21998
8.864,0.2568
8.868,0.21153
8.872,0.21153
8.876,0.20829
8.88,0.16599
8.884,0.1554
8.888,0.19063
8.892,0.14834
8.896,0.13924
8.9,0.09942
8.904,0.12554
8.908,0.08913
8.912,0.09728
8.916,0.10861
8.92,0.03225
8.924,0.05163
8.928,0.06112
8.932,0.04229
8.936,0.03413
8.94,0.04911
8.944,0.03462
8.948,0.01995
8.952,0.02674
8.956,0.03723
8.96,0.03553
8.964,0.02523
8.968,0.04937
8.972,0.01459
8.976,0.01109
8.98,0.02594
8.984,0.00261
8.988,-0.00503
8.992,0.02795
8.996,0.01452
9.0,0.03808
9.004,0.01147
9.008,0.02858
9.012,0.02265
9.016,-0.01574
9.02,0.03122
9.024,0.01636
9.028,0.01118
9.032,0.02595
9.036,0.0212
9.04,0.00413
9.044,0.03709
9.048,-0.01897
9.052,0.02001
9.056,-0.0136
9.06,0.01164
9.064,0.03346
9.068,0.00934
9.072,0.00889
9.076,0.00095
9.08,0.01086
9.084,0.03458
9.088,0.03011
9.092,0.03056
9.096,0.06018
9.1,0.0688
9.104,0.10346
9.108,0.07637
9.112,0.06971
9.116,0.08376
9.12,0.11934
9.124,0.11627
9.128,0.11779
9.132,0.11046
9.136,0.1138
9.14,0.08039
9.144,0.07975
9.148,0.08051
9.152,0.06088
9.156,0.03395
9.16,0.03707
9.164,0.03828
9.168,0.04137
9.172,0.01094
9.176,0.00637
9.18,0.00503
9.184,0.00227
9.188,0.02161
9.192,0.00998
9.196,-0.00267
9.2,-0.00715
9.204,0.00843
9.208,0.01717
9.212,0.02833
9.216,0.02685
9.22,0.01048
9.224,0.04074
9.228,0.01375
9.232,0.00893
9.236,-0.00268
9.24,9e-05
9.244,-0.04661
9.248,-0.07565
9.252,-0.11943
9.256,-0.10385
9.26,-0.04515
9.264,0.09912
9.268,0.31245
9.272,0.4721
9.276,0.7273
9.28,0.88741
9.284,1.01186
9.288,0.98105
9.292,0.87035
9.296,0.67482
9.3,0.41721
9.304,0.2381
9.308,0.01417
9.312,-0.10359
9.316,-0.15026
9.32,-0.16916
9.324,-0.12629
9.328,-0.09821
9.332,-0.04751
9.336,-0.02258
9.34,-0.03119
9.344,-0.0108
9.348,-0.02028
9.352,0.00169
9.356,0.02692
9.36,0.00533
9.364,0.0046
9.368,-0.01214
9.372,0.02865
9.376,-0.01725
9.38,-0.00889
9.384,-0.01747
9.388,0.01484
9.392,0.01593
9.396,-0.00314
9.4,-0.02818
9.404,-0.01759
9.408,0.00205
9.412,-0.00649
9.416,-0.00791
9.42,-0.01426
9.424,0.00147
9.428,0.02271
9.432,0.01785
9.436,0.02611
9.44,0.02074
9.444,0.00781
9.448,-0.00972
9.452,0.01864
9.456,0.03045
9.46,0.00272
9.464,-0.00498
9.468,-0.01508
9.472,0.01466
9.476,0.02817
9.48,0.03571
9.484,0.03017
9.488,0.04792
9.492,0.02867
9.496,0.06627
9.5,0.05502
9.504,0.09282
9.508,0.09571
9.512,0.09786
9.516,0.12508
9.52,0.11182
9.524,0.12919
9.528,0.15685
9.532,0.12503
9.536,0.1821
9.54,0.17349
9.544,0.18694
9.548,0.19261
9.552,0.21082
9.556,0.20405
9.56,0.20773
9.564,0.22509
9.568,0.21671
9.572,0.2179
9.576,0.21819
9.58,0.20413
9.584,0.17971
9.588,0.19719
9.592,0.17705
9.596,0.20997
9.6,0.16052
9.604,0.16437
9.608,0.14667
9.612,0.14349
9.616,0.1272
9.62,0.11138
9.624,0.1138
9.628,0.08102
9.632,0.04387
9.636,0.07388
9.64,0.06618
9.644,0.05192
9.648,0.01588
9.652,0.05083
9.656,0.02126
9.66,0.05555
9.664,-0.00436
9.668,0.0237
9.672,0.00076
9.676,-0.00438
9.68,-0.01037
9.684,-0.02264
9.688,-0.01641
9.692,-0.00249
9.696,-0.00887
9.7,0.00302
9.704,0.01536
9.708,-0.00245
9.712,-0.03275
9.716,0.00896
9.72,0.01022
9.724,-0.03299
9.728,-0.0093
9.732,-0.01521
9.736,0.01449
9.74,0.00543
9.744,0.00222
9.748,0.00041
9.752,-0.00235
9.756,-0.01296
9.76,0.00343
9.764,-0.01514
9.768,-0.03223
9.772,-0.02763
9.776,-0.00019
9.78,0.00764
9.784,0.00592
9.788,-0.02228
9.792,-0.02006
9.796,0.01381
9.8,-0.01378
9.804,-0.01309
9.808,-0.01727
9.812,-0.01504
9.816,0.0091
9.82,0.00298
9.824,-0.00065
9.828,-0.02706
9.832,0.0103
9.836,0.00699
9.84,-0.0091
9.844,-0.02308
9.848,0.02211
9.852,-0.03053
9.856,-0.01966
9.86,0.00042
9.864,-0.00127
9.868,-0.02457
9.872,-0.00719
9.876,-0.01984
9.88,-0.01266
9.884,-0.01913
9.888,0.00138
9.892,-0.01273
9.896,-0.01137
9.9,-0.02346
9.904,0.00591
9.908,-0.02987
9.912,0.01883
9.916,0.00686
9.92,-0.00252
9.924,-0.00469
9.928,-0.03224
9.932,-0.00775
9.936,-0.01419
9.94,-0.01883
9.944,0.00242
9.948,0.00517
9.952,-0.01265
9.956,-0.01885
9.96,-0.0173
9.964,-0.00837
9.968,-0.01463
9.972,-0.02472
9.976,-0.01746
9.98,0.00413
9.984,-0.02473
9.988,-0.02397
9.992,-0.01864
9.996,-0.01425
