t_seg,ecg_mV
0.0,0.0266
0.004,0.00187
0.008,0.07209
0.012,0.03992
0.016,0.03092
0.02,0.01861
0.024,-0.02066
0.028,0.02647
0.032,0.01499
0.036,-0.04085
0.04,0.07
0.044,-0.00287
0.048,-0.00818
0.052,0.06421
0.056,0.03715
0.06,0.00665
0.064,0.0566
0.068,0.05228
0.072,0.00552
0.076,0.03439
0.08,0.01784
0.084,0.04074
0.088,0.08737
0.092,0.0055
0.096,0.0157
0.1,0.02177
0.104,-0.00311
0.108,0.05058
0.112,0.08452
0.116,0.03404
0.12,-0.02165
0.124,-0.00019
0.128,0.05947
0.132,0.02624
0.136,0.00671
0.14,-0.02943
0.144,0.0544
0.148,0.05218
0.152,0.03836
0.156,-0.00088
0.16,0.04118
0.164,0.00846
0.168,-0.01812
0.172,0.03675
0.176,0.07013
0.18,0.04077
0.184,-0.04296
0.188,0.09932
0.192,0.02077
0.196,0.054
0.2,-0.02074
0.204,0.05068
0.208,0.00884
0.212,-0.00467
0.216,-0.02646
0.22,0.01557
0.224,0.06248
0.228,0.04754
0.232,0.14421
0.236,0.07824
0.24,0.09524
0.244,0.14985
0.248,0.10889
0.252,0.12271
0.256,0.13302
0.26,0.14313
0.264,0.13619
0.268,0.13398
0.272,0.0434
0.276,0.06876
0.28,0.10365
0.284,0.06412
0.288,0.04128
0.292,0.00432
0.296,0.09659
0.3,0.0145
0.304,0.04568
0.308,-0.03005
0.312,-0.01088
0.316,-0.05083
0.32,0.01065
0.324,0.07202
0.328,0.03682
0.332,0.00881
0.336,-0.03431
0.34,0.00972
0.344,0.02903
0.348,0.06333
0.352,0.01031
0.356,-0.01139
0.36,0.05459
0.364,0.03042
0.368,-0.00017
0.372,0.03186
0.376,-0.01215
0.38,-0.02248
0.384,-0.12478
0.388,-0.08797
0.392,0.09036
0.396,0.21434
0.4,0.33831
0.404,0.62908
0.408,0.84727
0.412,0.99651
0.416,0.99663
0.42,0.8947
0.424,0.77482
0.428,0.59392
0.432,0.37403
0.436,0.12719
0.44,-0.00193
0.444,-0.07165
0.448,-0.19406
0.452,-0.13183
0.456,-0.14193
0.46,0.00986
0.464,0.00221
0.468,0.01324
0.472,0.00778
0.476,0.03037
0.48,0.08737
0.484,0.10291
0.488,-0.00874
0.492,0.10359
0.496,0.17925
0.5,0.08155
0.504,0.03786
0.508,0.04764
0.512,0.10072
0.516,0.12709
0.52,0.12777
0.524,0.06586
0.528,0.07336
0.532,0.08045
0.536,0.02483
0.54,0.06725
0.544,0.01368
0.548,-0.00922
0.552,-0.01708
0.556,0.04212
0.56,-0.00099
0.564,0.0512
0.568,-0.05859
0.572,0.00314
0.576,0.01923
0.58,0.01551
0.584,-0.00855
0.588,-0.0307
0.592,0.07388
0.596,0.07366
0.6,0.07613
0.604,-0.00204
0.608,0.04306
0.612,0.0169
0.616,0.03056
0.62,0.06144
0.624,0.03127
0.628,-0.05057
0.632,0.01443
0.636,-0.03201
0.64,0.08862
0.644,0.2367
0.648,0.39681
0.652,0.67546
0.656,0.83238
0.66,0.99399
0.664,1.17818
0.668,1.11601
0.672,1.12454
0.676,0.92314
0.68,0.65189
0.684,0.42126
0.688,0.27284
0.692,0.17269
0.696,0.06616
0.7,0.08072
0.704,0.11001
0.708,0.15218
0.712,0.20719
0.716,0.18123
0.72,0.15248
0.724,0.17068
0.728,0.16489
0.732,0.19002
0.736,0.14666
0.74,0.08604
0.744,0.17696
0.748,0.11442
0.752,0.11183
0.756,0.09193
0.76,0.10577
0.764,-0.03178
0.768,0.04789
0.772,0.08208
0.776,0.08118
0.78,0.02511
0.784,0.02317
0.788,-0.00773
0.792,-0.00438
0.796,0.01215
0.8,-0.04218
0.804,0.05204
0.808,-0.00741
0.812,-0.04836
0.816,-0.0361
0.82,0.06197
0.824,0.02429
0.828,-0.01329
0.832,0.01049
0.836,0.02489
0.84,0.03533
0.844,0.04173
0.848,0.02549
0.852,0.03449
0.856,0.01922
0.86,0.07605
0.864,0.00379
0.868,0.05881
0.872,0.0131
0.876,0.06381
0.88,0.09424
0.884,0.07994
0.888,0.08037
0.892,0.0809
0.896,0.1544
0.9,0.16424
0.904,0.13466
0.908,0.15858
0.912,0.17364
0.916,0.20895
0.92,0.23662
0.924,0.25749
0.928,0.23722
0.932,0.23789
0.936,0.24826
0.94,0.24937
0.944,0.33719
0.948,0.19991
0.952,0.32549
0.956,0.31904
0.96,0.25171
0.964,0.32386
0.968,0.3026
0.972,0.33137
0.976,0.26817
0.98,0.25498
0.984,0.24196
0.988,0.16863
0.992,0.23434
0.996,0.18537
1.0,0.12487
1.004,0.13347
1.008,0.14427
1.012,0.12833
1.016,0.06421
1.02,0.05322
1.024,0.0879
1.028,0.00905
1.032,0.02707
1.036,0.06764
1.04,0.06839
1.044,-0.01878
1.048,-0.00692
1.052,0.0135
1.056,0.01556
1.06,-0.00354
1.064,0.01955
1.068,0.05758
1.072,-0.04943
1.076,0.03666
1.08,-0.02644
1.084,-0.00825
1.088,-0.08286
1.092,-0.14623
1.096,-0.10479
1.1,-0.12898
1.104,-0.01296
1.108,0.1499
1.112,0.34587
1.116,0.46333
1.12,0.72715
1.124,0.88551
1.128,1.03349
1.132,0.96482
1.136,0.85185
1.14,0.58994
1.144,0.41635
1.148,0.17171
1.152,0.05313
1.156,-0.10049
1.16,-0.18174
1.164,-0.17065
1.168,-0.11033
1.172,-0.06379
1.176,-0.07362
1.18,-0.00641
1.184,0.01274
1.188,-0.03896
1.192,-0.00664
1.196,-0.01917
1.2,-0.05615
1.204,-0.02589
1.208,0.00294
1.212,0.01144
1.216,0.02055
1.22,-0.05115
1.224,0.02521
1.228,0.00796
1.232,0.02832
1.236,-0.04685
1.24,0.00906
1.244,0.10044
1.248,0.0233
1.252,0.06902
1.256,-0.02949
1.26,-0.00389
1.264,0.01508
1.268,0.03028
1.272,0.04011
1.276,0.00043
1.28,-0.02007
1.284,0.04979
1.288,0.02548
1.292,-0.02272
1.296,-0.01651
1.3,0.04803
1.304,0.00196
1.308,0.05313
1.312,0.05772
1.316,-0.05144
1.32,0.02526
1.324,-0.02485
1.328,-0.02222
1.332,-0.01703
1.336,0.07798
1.34,-0.00758
1.344,0.12287
1.348,0.12653
1.352,0.12325
1.356,0.1609
1.36,0.11497
1.364,0.06446
1.368,0.11278
1.372,0.15575
1.376,0.15628
1.38,0.09943
1.384,0.19677
1.388,0.21328
1.392,0.19023
1.396,0.22925
1.4,0.21334
1.404,0.21848
1.408,0.17759
1.412,0.2004
1.416,0.19303
1.42,0.22515
1.424,0.2015
1.428,0.15903
1.432,0.17578
1.436,0.22988
1.44,0.11361
1.444,0.13495
1.448,0.17736
1.452,0.19006
1.456,0.12416
1.46,0.13229
1.464,0.05488
1.468,0.05632
1.472,0.04017
1.476,0.00584
1.48,0.05317
1.484,0.09068
1.488,0.03022
1.492,0.03059
1.496,0.06219
1.5,-0.00662
1.504,-0.0324
1.508,0.04094
1.512,0.00554
1.516,0.05239
1.52,-0.02295
1.524,0.01859
1.528,-0.03514
1.532,-0.0094
1.536,0.02727
1.54,-0.01329
1.544,0.01852
1.548,-0.014
1.552,-0.03824
1.556,0.0269
1.56,-0.01532
1.564,0.07029
1.568,-0.01319
1.572,-0.05405
1.576,-0.06967
1.58,-0.07838
1.584,-0.03796
1.588,0.00646
1.592,-0.04233
1.596,0.08179
1.6,-0.05308
1.604,-0.00667
1.608,-0.02615
1.612,-0.05178
1.616,-0.02763
1.62,-0.0329
1.624,-0.01782
1.628,0.03449
1.632,-0.06171
1.636,0.02114
1.64,0.03259
1.644,0.03452
1.648,-0.01283
1.652,-0.01742
1.656,-0.05321
1.66,0.03337
1.664,-0.00363
1.668,-0.09421
1.672,-0.0644
1.676,-0.01307
1.68,0.00306
1.684,-0.06203
1.688,0.00937
1.692,0.06155
1.696,0.00434
1.7,0.0187
1.704,0.04922
1.708,0.02374
1.712,0.04032
1.716,0.03728
1.72,0.10138
1.724,0.06538
1.728,0.06019
1.732,0.09999
1.736,0.0396
1.74,0.02522
1.744,0.01457
1.748,0.03755
1.752,0.00126
1.756,0.00281
1.76,-0.01114
1.764,0.11531
1.768,0.03167
1.772,-0.04698
1.776,-0.01972
1.78,0.05902
1.784,-0.01983
1.788,-0.01775
1.792,-0.09238
1.796,-0.05177
1.8,-0.01379
1.804,-0.06521
1.808,-0.01276
1.812,-0.04249
1.816,-0.0096
1.82,-0.05107
1.824,-0.0137
1.828,0.01136
1.832,0.03301
1.836,-0.00294
1.84,-0.09741
1.844,-0.06177
1.848,-0.10431
1.852,-0.1486
1.856,-0.08192
1.86,0.00744
1.864,0.0255
1.868,0.23458
1.872,0.47871
1.876,0.71885
1.88,0.92166
1.884,0.90211
1.888,0.99926
1.892,0.86879
1.896,0.66991
1.9,0.42092
1.904,0.14884
1.908,-0.005
1.912,-0.02977
1.916,-0.15333
1.92,-0.19082
1.924,-0.15308
1.928,-0.0871
1.932,-0.15529
1.936,-0.04284
1.94,-0.00652
1.944,-0.01842
1.948,0.00361
1.952,0.0291
1.956,0.02144
1.96,-0.02932
1.964,-0.05758
1.968,-0.04604
1.972,0.06927
1.976,-0.05846
1.98,0.01029
1.984,-0.03876
1.988,-0.00716
1.992,0.00578
1.996,-0.05531
2.0,-0.05941
2.004,0.01203
2.008,-0.03081
2.012,-0.07168
2.016,-0.00439
2.02,-0.08383
2.024,0.00122
2.028,0.01741
2.032,-0.05468
2.036,-0.04066
2.04,-0.00761
2.044,-0.06798
2.048,-0.01113
2.052,-0.02536
2.056,-0.0134
2.06,0.04696
2.064,-0.01066
2.068,0.01301
2.072,0.03742
2.076,-0.01639
2.08,-0.00318
2.084,0.04257
2.088,0.03252
2.092,0.04139
2.096,0.05605
2.1,0.02498
2.104,0.06097
2.108,0.04297
2.112,0.08621
2.116,0.13405
2.12,0.11921
2.124,0.15
2.128,0.18244
2.132,0.15256
2.136,0.12805
2.14,0.25352
2.144,0.15924
2.148,0.18204
2.152,0.16524
2.156,0.20701
2.16,0.17692
2.164,0.14706
2.168,0.21747
2.172,0.19011
2.176,0.16421
2.18,0.19318
2.184,0.18808
2.188,0.16334
2.192,0.17304
2.196,0.13902
2.2,0.17433
2.204,0.12139
2.208,0.08689
2.212,0.04977
2.216,0.09015
2.22,0.03805
2.224,0.03865
2.228,0.06196
2.232,0.10814
2.236,0.12783
2.24,0.03133
2.244,0.03209
2.248,0.04699
2.252,0.02204
2.256,0.03154
2.26,-0.07074
2.264,0.00436
2.268,0.01612
2.272,0.05522
2.276,0.00491
2.28,-0.05784
2.284,0.0203
2.288,-0.00325
2.292,0.01838
2.296,0.05657
2.3,0.06807
2.304,0.01223
2.308,0.02511
2.312,0.08002
2.316,0.09709
2.32,0.07469
2.324,0.08968
2.328,0.12012
2.332,0.13833
2.336,0.08127
2.34,0.01444
2.344,0.04141
2.348,-0.00777
2.352,-0.00661
2.356,0.03011
2.36,-0.02843
2.364,-0.06158
2.368,-0.05896
2.372,0.04221
2.376,-0.00051
2.38,-0.03385
2.384,-0.0496
2.388,0.0139
2.392,-0.06783
2.396,-0.06115
2.4,-0.07254
2.404,-0.03949
2.408,0.01912
2.412,0.0015
2.416,-0.02991
2.42,0.00177
2.424,-0.06856
2.428,-0.02034
2.432,-0.10479
2.436,0.01449
2.44,-0.05895
2.444,-0.11412
2.448,-0.15912
2.452,-0.16882
2.456,-0.04571
2.46,0.13743
2.464,0.36439
2.468,0.50806
2.472,0.76356
2.476,0.93895
2.48,0.94541
2.484,1.00907
2.488,0.80767
2.492,0.5316
2.496,0.34587
2.5,0.10344
2.504,-0.02302
2.508,-0.15928
2.512,-0.18543
2.516,-0.1689
2.52,-0.16725
2.524,-0.08327
2.528,-0.10897
2.532,-0.08933
2.536,-0.01011
2.54,-0.04914
2.544,-0.06418
2.548,-0.02171
2.552,-0.07186
2.556,0.0152
2.56,0.04715
2.564,-0.09679
2.568,-0.04235
2.572,-0.03232
2.576,-0.06031
2.58,-0.03025
2.584,-0.01822
2.588,-0.00325
2.592,-0.0611
2.596,0.00493
2.6,0.02511
2.604,0.00329
2.608,-0.0348
2.612,-0.023
2.616,-0.05776
2.62,-0.02388
2.624,0.004
2.628,0.02269
2.632,-0.08098
2.636,-0.00968
2.64,-0.02547
2.644,-0.00749
2.648,-0.04272
2.652,-0.00779
2.656,-0.05356
2.66,-0.01307
2.664,-0.00012
2.668,0.05772
2.672,-0.03293
2.676,0.00035
2.68,-0.06676
2.684,0.00919
2.688,0.10093
2.692,0.05826
2.696,0.04364
2.7,-0.00472
2.704,0.02713
2.708,0.09665
2.712,0.1079
2.716,0.10211
2.72,0.17246
2.724,0.15759
2.728,0.16352
2.732,0.18551
2.736,0.18817
2.74,0.18719
2.744,0.27604
2.748,0.24053
2.752,0.26121
2.756,0.26362
2.76,0.29105
2.764,0.30077
2.768,0.23078
2.772,0.22077
2.776,0.24152
2.78,0.20225
2.784,0.20593
2.788,0.18756
2.792,0.14512
2.796,0.20318
2.8,0.14558
2.804,0.11302
2.808,0.01354
2.812,0.07023
2.816,0.07563
2.82,0.06155
2.824,0.01247
2.828,0.07315
2.832,0.02191
2.836,0.01253
2.84,0.04381
2.844,-0.00209
2.848,-0.03173
2.852,0.00408
2.856,-0.02667
2.86,-0.04094
2.864,-0.03208
2.868,-0.00675
2.872,-0.10354
2.876,-0.15935
2.88,-0.21407
2.884,-0.19644
2.888,-0.116
2.892,0.03764
2.896,0.06952
2.9,0.20051
2.904,0.27374
2.908,0.35415
2.912,0.39288
2.916,0.35777
2.92,0.27869
2.924,0.23154
2.928,0.09599
2.932,-0.04482
2.936,-0.1682
2.94,-0.14715
2.944,-0.17684
2.948,-0.17925
2.952,-0.23813
2.956,-0.12694
2.96,-0.0855
2.964,-0.05903
2.968,-0.02977
2.972,-0.073
2.976,-0.04061
2.98,-0.07647
2.984,-0.04603
2.988,-0.04523
2.992,-0.03441
2.996,-0.07137
3.0,-0.05495
3.004,-0.01995
3.008,-0.08593
3.012,-0.0684
3.016,-0.00397
3.02,-0.03786
3.024,-0.03803
3.028,-0.08494
3.032,-0.03451
3.036,-0.07467
3.04,-0.0567
3.044,-0.02412
3.048,-0.04472
3.052,-0.06479
3.056,-0.05889
3.06,-0.03979
3.064,-0.05574
3.068,0.02338
3.072,-0.00743
3.076,0.0029
3.08,-0.05109
3.084,0.04037
3.088,-0.05331
3.092,-0.02425
3.096,0.0702
3.1,0.02654
3.104,0.04811
3.108,0.03894
3.112,-0.01197
3.116,0.04876
3.12,0.00236
3.124,0.03852
3.128,0.08329
3.132,0.11119
3.136,0.13162
3.14,0.10184
3.144,0.08772
3.148,0.14525
3.152,0.15984
3.156,0.11188
3.16,0.15329
3.164,0.14486
3.168,0.15699
3.172,0.14304
3.176,0.16445
3.18,0.1854
3.184,0.20779
3.188,0.15465
3.192,0.17771
3.196,0.25462
3.2,0.15015
3.204,0.22196
3.208,0.22323
3.212,0.14029
3.216,0.20466
3.22,0.16722
3.224,0.12846
3.228,0.11584
3.232,0.17972
3.236,0.13315
3.24,0.07045
3.244,0.08763
3.248,0.0556
3.252,0.10567
3.256,0.02087
3.26,0.02763
3.264,0.06103
3.268,0.00755
3.272,0.04531
3.276,0.04095
3.28,-0.00974
3.284,0.04854
3.288,0.01234
3.292,-0.00672
3.296,-0.05316
3.3,-0.05702
3.304,-0.03528
3.308,0.03391
3.312,-0.0569
3.316,0.00353
3.32,0.03449
3.324,0.06931
3.328,-0.00191
3.332,0.0634
3.336,0.08213
3.34,0.066
3.344,0.00162
3.348,0.03503
3.352,0.09012
3.356,0.03207
3.36,0.0216
3.364,-0.00226
3.368,0.00012
3.372,0.02246
3.376,0.00706
3.38,-0.03024
3.384,-0.00282
3.388,0.02279
3.392,-0.02602
3.396,-0.01528
3.4,-0.10447
3.404,-0.04217
3.408,-0.03005
3.412,-0.02294
3.416,-0.0617
3.42,-0.01606
3.424,-0.02851
3.428,-0.00825
3.432,-0.06281
3.436,-0.03098
3.44,-0.03986
3.444,-0.03903
3.448,-0.03879
3.452,-0.02589
3.456,-0.04473
3.46,0.0082
3.464,-0.06052
3.468,-0.07011
3.472,-0.08683
3.476,-0.12086
3.48,-0.08686
3.484,0.0914
3.488,0.28325
3.492,0.44289
3.496,0.73112
3.5,0.85478
3.504,1.03863
3.508,0.92821
3.512,0.89854
3.516,0.62273
3.52,0.4024
3.524,0.1635
3.528,0.02518
3.532,-0.16609
3.536,-0.19252
3.54,-0.22431
3.544,-0.14815
3.548,-0.12382
3.552,-0.08394
3.556,-0.03953
3.56,-0.04049
3.564,-0.04381
3.568,-0.06039
3.572,-0.02957
3.576,-0.04129
3.58,-0.06703
3.584,-0.00696
3.588,-0.00986
3.592,-0.03034
3.596,-0.02009
3.6,-0.07029
3.604,0.01064
3.608,-0.0061
3.612,-0.02896
3.616,-0.00047
3.62,0.01198
3.624,0.00158
3.628,0.03872
3.632,-0.01917
3.636,-0.01055
3.64,-0.00655
3.644,-0.07799
3.648,-0.00931
3.652,-0.05203
3.656,-0.05746
3.66,-0.04597
3.664,-0.02971
3.668,-0.04737
3.672,0.00929
3.676,-0.00446
3.68,-0.06273
3.684,-0.00461
3.688,-0.04145
3.692,0.0091
3.696,-0.01543
3.7,-0.02764
3.704,0.04256
3.708,0.03064
3.712,-0.03503
3.716,0.05085
3.72,0.09604
3.724,0.06151
3.728,0.08721
3.732,0.11637
3.736,0.1697
3.74,0.05577
3.744,0.13334
3.748,0.09372
3.752,0.14709
3.756,0.25131
3.76,0.11143
3.764,0.16812
3.768,0.20246
3.772,0.19406
3.776,0.20347
3.78,0.26382
3.784,0.15425
3.788,0.27534
3.792,0.16062
3.796,0.15096
3.8,0.21024
3.804,0.2158
3.808,0.1625
3.812,0.19098
3.816,0.12057
3.82,0.13158
3.824,0.10928
3.828,0.18501
3.832,0.11053
3.836,0.16299
3.84,0.0769
3.844,0.11122
3.848,0.01685
3.852,0.00906
3.856,0.06614
3.86,0.04246
3.864,0.03411
3.868,0.09072
3.872,0.05338
3.876,0.07578
3.88,0.12528
3.884,0.05596
3.888,0.06021
3.892,0.10293
3.896,0.11339
3.9,0.09055
3.904,0.10115
3.908,0.0406
3.912,0.09817
3.916,0.02414
3.92,-0.00678
3.924,0.07265
3.928,0.02518
3.932,-0.03252
3.936,0.0118
3.94,0.00258
3.944,0.04146
3.948,0.03464
3.952,0.00888
3.956,-0.03757
3.96,-0.04308
3.964,0.09556
3.968,0.01754
3.972,0.01153
3.976,0.01089
3.98,-0.04404
3.984,-0.05619
3.988,0.00384
3.992,-0.06028
3.996,-0.02639
4.0,-0.01746
4.004,0.00534
4.008,-0.08157
4.012,-0.02014
4.016,-0.09839
4.02,-0.07771
4.024,-0.15219
4.028,-0.17441
4.032,-0.08039
4.036,0.04176
4.04,0.18471
4.044,0.32615
4.048,0.49412
4.052,0.6099
4.056,0.60078
4.06,0.61964
4.064,0.5153
4.068,0.39128
4.072,0.22986
4.076,0.05039
4.08,-0.05175
4.084,-0.18572
4.088,-0.21119
4.092,-0.11556
4.096,-0.15699
4.1,-0.06885
4.104,-0.08008
4.108,-0.10979
4.112,-0.09417
4.116,0.00859
4.12,0.02368
4.124,-0.01842
4.128,-0.0002
4.132,-0.01067
4.136,-0.06356
4.14,-0.01786
4.144,0.04449
4.148,-0.02273
4.152,0.02475
4.156,0.04412
4.16,0.01535
4.164,0.01577
4.168,0.004
4.172,-0.03013
4.176,0.0492
4.18,0.00602
4.184,0.04714
4.188,0.00604
4.192,-0.00835
4.196,-0.00592
4.2,-0.03061
4.204,-0.02098
4.208,0.06343
4.212,-0.00365
4.216,0.02409
4.22,-0.00915
4.224,0.04739
4.228,-0.00039
4.232,0.01188
4.236,-0.04356
4.24,0.05247
4.244,0.00071
4.248,0.00195
4.252,0.05032
4.256,0.05164
4.26,0.05719
4.264,0.06078
4.268,0.08764
4.272,0.062
4.276,0.04886
4.28,0.10055
4.284,0.05072
4.288,0.13395
4.292,0.1363
4.296,0.09108
4.3,0.13344
4.304,0.14009
4.308,0.15341
4.312,0.21647
4.316,0.21473
4.32,0.18427
4.324,0.18868
4.328,0.29374
4.332,0.233
4.336,0.31498
4.34,0.25298
4.344,0.25874
4.348,0.27613
4.352,0.2953
4.356,0.28716
4.36,0.22665
4.364,0.2906
4.368,0.26765
4.372,0.21027
4.376,0.24742
4.38,0.23193
4.384,0.16805
4.388,0.14671
4.392,0.1028
4.396,0.11737
4.4,0.07929
4.404,0.13712
4.408,0.10486
4.412,0.09476
4.416,0.06578
4.42,0.02506
4.424,0.06351
4.428,-0.0169
4.432,0.00994
4.436,0.04592
4.44,-0.03864
4.444,-0.01149
4.448,-0.03273
4.452,0.01422
4.456,0.03431
4.46,0.002
4.464,-0.04418
4.468,-0.00135
4.472,-0.0204
4.476,0.05753
4.48,-0.0683
4.484,-0.07515
4.488,-0.13479
4.492,-0.11456
4.496,-0.12867
4.5,-0.06534
4.504,0.08994
4.508,0.22877
4.512,0.46168
4.516,0.61332
4.52,0.84576
4.524,0.98278
4.528,1.02808
4.532,0.87797
4.536,0.65945
4.54,0.55505
4.544,0.26313
4.548,0.07349
4.552,-0.08906
4.556,-0.1236
4.56,-0.14395
4.564,-0.2148
4.568,-0.07086
4.572,-0.03409
4.576,-0.01304
4.58,-0.077
4.584,-0.00205
4.588,0.04378
4.592,-0.00947
4.596,-0.02208
4.6,0.00133
4.604,-0.04226
4.608,-0.01987
4.612,0.0638
4.616,0.05509
4.62,-0.05743
4.624,0.00704
4.628,0.06115
4.632,0.02338
4.636,-0.01668
4.64,0.02057
4.644,0.01025
4.648,-0.05074
4.652,-0.01308
4.656,0.047
4.66,-0.0444
4.664,0.02549
4.668,-0.00172
4.672,0.0276
4.676,0.00582
4.68,0.00746
4.684,0.03767
4.688,-0.01359
4.692,0.03883
4.696,-0.06695
4.7,0.00584
4.704,-0.01809
4.708,0.04222
4.712,0.00729
4.716,0.06672
4.72,0.103
4.724,0.06316
4.728,0.01821
4.732,0.01932
4.736,0.03173
4.74,0.06496
4.744,0.08453
4.748,0.12794
4.752,0.09837
4.756,0.15926
4.76,0.20332
4.764,0.15732
4.768,0.1729
4.772,0.2532
4.776,0.2544
4.78,0.26576
4.784,0.2854
4.788,0.32421
4.792,0.30269
4.796,0.33025
4.8,0.3472
4.804,0.3034
4.808,0.32622
4.812,0.31214
4.816,0.2654
4.82,0.26717
4.824,0.28409
4.828,0.27105
4.832,0.23233
4.836,0.18688
4.84,0.13142
4.844,0.2448
4.848,0.19069
4.852,0.13565
4.856,0.18558
4.86,0.09941
4.864,0.08354
4.868,0.06262
4.872,0.00816
4.876,0.0902
4.88,0.06386
4.884,0.06013
4.888,0.03175
4.892,0.0737
4.896,0.02465
4.9,0.05891
4.904,-0.02798
4.908,0.0207
4.912,-0.00446
4.916,-0.01766
4.92,0.00148
4.924,-0.06974
4.928,-0.11454
4.932,-0.05812
4.936,0.03897
4.94,0.19652
4.944,0.50043
4.948,0.72003
4.952,0.84153
4.956,0.97751
4.96,1.02063
4.964,0.91181
4.968,0.73741
4.972,0.56668
4.976,0.32358
4.98,0.09263
4.984,0.00266
4.988,-0.11445
4.992,-0.1171
4.996,-0.12183
5.0,-0.09032
5.004,-0.05238
5.008,-0.08819
5.012,0.00687
5.016,0.01281
5.02,0.02489
5.024,0.07117
5.028,-0.02405
5.032,0.02729
5.036,-0.00124
5.04,-0.00994
5.044,0.0179
5.048,0.01785
5.052,0.03937
5.056,0.08538
5.06,0.01503
5.064,0.12002
5.068,0.03107
5.072,0.01206
5.076,0.0243
5.08,0.04598
5.084,-0.03741
5.088,0.03712
5.092,0.00059
5.096,-0.01236
5.1,0.06896
5.104,0.06751
5.108,0.03016
5.112,-0.00269
5.116,0.04931
5.12,0.01353
5.124,0.01894
5.128,0.02769
5.132,0.02675
5.136,0.0266
5.14,0.0545
5.144,0.07144
5.148,0.10326
5.152,0.01326
5.156,0.09699
5.16,0.09072
5.164,0.06873
5.168,0.07892
5.172,0.06021
5.176,0.09863
5.18,0.09435
5.184,0.11571
5.188,0.15159
5.192,0.12287
5.196,0.25581
5.2,0.0961
5.204,0.22226
5.208,0.17153
5.212,0.22634
5.216,0.18335
5.22,0.29044
5.224,0.22643
5.228,0.23258
5.232,0.21703
5.236,0.24661
5.24,0.18926
5.244,0.28765
5.248,0.27548
5.252,0.17264
5.256,0.19642
5.26,0.2493
5.264,0.18956
5.268,0.22267
5.272,0.21392
5.276,0.18939
5.28,0.15465
5.284,0.15508
5.288,0.09522
5.292,0.14294
5.296,0.09528
5.3,0.1479
5.304,0.09463
5.308,0.08649
5.312,0.05598
5.316,0.08405
5.32,-0.00088
5.324,0.06575
5.328,0.06201
5.332,0.10542
5.336,0.08893
5.34,0.02637
5.344,0.01676
5.348,0.04346
5.352,0.05771
5.356,0.06171
5.36,0.01986
5.364,0.05607
5.368,0.07581
5.372,0.02335
5.376,0.03242
5.38,-0.01854
5.384,0.02385
5.388,0.03107
5.392,0.04945
5.396,0.01217
5.4,-0.00763
5.404,0.03497
5.408,0.11101
5.412,-0.00549
5.416,0.04421
5.42,0.02786
5.424,0.12205
5.428,0.08716
5.432,0.10187
5.436,0.10907
5.44,0.10641
5.444,0.11546
5.448,0.12568
5.452,0.1035
5.456,0.11868
5.46,0.04072
5.464,0.09659
5.468,0.14183
5.472,0.07108
5.476,0.07264
5.48,0.05307
5.484,0.0685
5.488,0.03549
5.492,0.01442
5.496,-0.03352
5.5,0.04153
5.504,0.01851
5.508,0.058
5.512,0.02661
5.516,0.06378
5.52,0.04948
5.524,-0.01354
5.528,-0.01962
5.532,0.06472
5.536,0.01373
5.54,-0.00914
5.544,0.03258
5.548,0.06393
5.552,-0.01595
5.556,0.02486
5.56,0.00114
5.564,0.01938
5.568,0.00332
5.572,-0.02776
5.576,-0.0882
5.58,-0.15662
5.584,0.03358
5.588,0.20302
5.592,0.44492
5.596,0.59857
5.6,0.77785
5.604,0.88911
5.608,0.96155
5.612,0.96989
5.616,0.79404
5.62,0.64102
5.624,0.34273
5.628,0.15009
5.632,0.03636
5.636,-0.04507
5.64,-0.06834
5.644,-0.1611
5.648,-0.03451
5.652,-0.03461
5.656,-0.05576
5.66,0.05154
5.664,0.01474
5.668,-0.04304
5.672,0.04854
5.676,0.04944
5.68,0.02909
5.684,0.05893
5.688,0.03429
5.692,-0.03401
5.696,0.00659
5.7,-0.00079
5.704,0.0786
5.708,0.05955
5.712,0.00274
5.716,0.04005
5.72,0.03929
5.724,0.04512
5.728,0.0688
5.732,-0.00246
5.736,0.01434
5.74,0.00645
5.744,0.04122
5.748,0.0112
5.752,0.01181
5.756,0.01346
5.76,-0.00166
5.764,0.06211
5.768,0.0272
5.772,0.10306
5.776,-0.00106
5.78,-0.03195
5.784,0.09342
5.788,0.06674
5.792,-0.01332
5.796,0.1071
5.8,-0.0154
5.804,0.0658
5.808,0.08508
5.812,0.06103
5.816,0.09764
5.82,0.07508
5.824,0.13904
5.828,0.15857
5.832,0.10026
5.836,0.10236
5.84,0.13813
5.844,0.15792
5.848,0.23324
5.852,0.1349
5.856,0.2166
5.86,0.24968
5.864,0.18983
5.868,0.2517
5.872,0.21195
5.876,0.15626
5.88,0.25435
5.884,0.26671
5.888,0.26153
5.892,0.27523
5.896,0.3074
5.9,0.21469
5.904,0.26654
5.908,0.24115
5.912,0.19993
5.916,0.25701
5.92,0.18497
5.924,0.24733
5.928,0.18366
5.932,0.18855
5.936,0.21412
5.94,0.26305
5.944,0.23346
5.948,0.19162
5.952,0.20856
5.956,0.21243
5.96,0.14496
5.964,0.1308
5.968,0.17093
5.972,0.21035
5.976,0.11232
5.98,0.12714
5.984,0.02879
5.988,0.09644
5.992,-0.02565
5.996,0.1863
6.0,0.14304
6.004,0.05388
6.008,0.00259
6.012,0.04955
6.016,0.05704
6.02,0.14454
6.024,0.12128
6.028,-0.0115
6.032,-0.04102
6.036,0.07637
6.04,0.09204
6.044,0.06057
6.048,0.10671
6.052,0.03677
6.056,-0.00715
6.06,0.06405
6.064,0.02416
6.068,-0.01988
6.072,0.05665
6.076,0.00337
6.08,-0.06103
6.084,-0.14259
6.088,-0.0975
6.092,0.02095
6.096,0.15992
6.1,0.28219
6.104,0.48856
6.108,0.71736
6.112,0.87338
6.116,0.96867
6.12,0.97348
6.124,0.92618
6.128,0.71566
6.132,0.48641
6.136,0.23626
6.14,0.06673
6.144,-0.01902
6.148,-0.13998
6.152,-0.18194
6.156,-0.07045
6.16,-0.0309
6.164,0.01553
6.168,-0.04269
6.172,0.06654
6.176,0.01814
6.18,0.08909
6.184,0.14769
6.188,0.11568
6.192,0.12304
6.196,0.04925
6.2,0.10531
6.204,0.13814
6.208,0.1621
6.212,0.10513
6.216,0.16892
6.22,0.15675
6.224,0.05856
6.228,0.05932
6.232,-0.00456
6.236,0.06088
6.24,0.06378
6.244,0.02428
6.248,0.02529
6.252,-0.03517
6.256,0.03881
6.26,0.08687
6.264,0.09398
6.268,-0.0012
6.272,0.1
6.276,0.03249
6.28,0.0592
6.284,-0.02133
6.288,0.09841
6.292,0.07314
6.296,0.0876
6.3,0.04915
6.304,0.06304
6.308,0.11002
6.312,0.0864
6.316,0.11569
6.32,0.03615
6.324,0.02118
6.328,0.06157
6.332,-0.02351
6.336,0.05849
6.34,0.01165
6.344,0.11609
6.348,0.29486
6.352,0.54392
6.356,0.75678
6.36,0.99454
6.364,1.1275
6.368,1.25419
6.372,1.16827
6.376,0.96949
6.38,0.81276
6.384,0.59284
6.388,0.37102
6.392,0.23191
6.396,0.11515
6.4,0.05608
6.404,0.12197
6.408,0.09678
6.412,0.19758
6.416,0.11784
6.42,0.21518
6.424,0.20777
6.428,0.2395
6.432,0.17637
6.436,0.17074
6.44,0.16024
6.444,0.19204
6.448,0.12534
6.452,0.13011
6.456,0.13755
6.46,0.11187
6.464,0.07668
6.468,0.14228
6.472,0.09215
6.476,0.01587
6.48,0.10469
6.484,0.10608
6.488,-0.00151
6.492,-0.0266
6.496,0.1138
6.5,0.0324
6.504,-0.00213
6.508,0.10194
6.512,0.0631
6.516,0.04041
6.52,0.09032
6.524,0.04083
6.528,0.12263
6.532,0.11384
6.536,0.07984
6.54,-0.0349
6.544,-0.00359
6.548,0.07536
6.552,0.11231
6.556,0.06096
6.56,-0.01526
6.564,0.08677
6.568,0.01359
6.572,0.0515
6.576,0.04922
6.58,0.12034
6.584,0.10242
6.588,0.05679
6.592,0.08051
6.596,0.09269
6.6,0.12236
6.604,0.14828
6.608,0.21362
6.612,0.20895
6.616,0.18869
6.62,0.25042
6.624,0.23269
6.628,0.23789
6.632,0.263
6.636,0.26695
6.64,0.2715
6.644,0.25497
6.648,0.20958
6.652,0.36432
6.656,0.21317
6.66,0.21334
6.664,0.2021
6.668,0.21705
6.672,0.14442
6.676,0.18844
6.68,0.15387
6.684,0.13785
6.688,0.21291
6.692,0.15348
6.696,0.17238
6.7,0.15276
6.704,0.1674
6.708,0.08598
6.712,0.17796
6.716,0.12238
6.72,0.11515
6.724,0.02427
6.728,0.13354
6.732,0.0964
6.736,0.07705
6.74,0.07834
6.744,0.08752
6.748,0.00075
6.752,0.07831
6.756,0.03632
6.76,0.07745
6.764,0.07166
6.768,0.11697
6.772,0.07441
6.776,0.11175
6.78,0.13932
6.784,0.07008
6.788,0.0939
6.792,0.06375
6.796,0.16302
6.8,0.1062
6.804,0.06306
6.808,0.12189
6.812,0.04939
6.816,0.09222
6.82,0.06676
6.824,0.01698
6.828,0.07172
6.832,0.07659
6.836,0.00829
6.84,0.04856
6.844,0.07004
6.848,0.01837
6.852,0.06329
6.856,0.07775
6.86,0.00875
6.864,0.00949
6.868,0.05511
6.872,0.0415
6.876,0.04859
6.88,-0.00455
6.884,-0.00828
6.888,-0.05172
6.892,0.04769
6.896,-0.00799
6.9,0.04372
6.904,0.00721
6.908,-0.00599
6.912,-0.13905
6.916,-0.11778
6.92,-0.08745
6.924,0.00827
6.928,0.06982
6.932,0.1398
6.936,0.33625
6.94,0.42662
6.944,0.50431
6.948,0.4882
6.952,0.44638
6.956,0.38589
6.96,0.28257
6.964,0.16664
6.968,0.04409
6.972,-0.08451
6.976,-0.10626
6.98,-0.21556
6.984,-0.14929
6.988,-0.03402
6.992,-0.02648
6.996,-0.01047
7.0,0.05863
7.004,0.03919
7.008,0.00291
7.012,0.03754
7.016,0.02031
7.02,0.02735
7.024,-0.01448
7.028,0.04025
7.032,0.00829
7.036,0.00794
7.04,0.0704
7.044,-0.00197
7.048,-0.02623
7.052,-0.02202
7.056,-0.03145
7.06,-0.03182
7.064,0.03979
7.068,-0.03281
7.072,-0.07876
7.076,0.06158
7.08,0.00176
7.084,0.05835
7.088,0.02483
7.092,-0.01504
7.096,0.02353
7.1,-0.02827
7.104,0.05329
7.108,0.06926
7.112,0.01835
7.116,-0.01709
7.12,-0.05876
7.124,0.07416
7.128,0.07721
7.132,0.02028
7.136,0.10584
7.14,0.02248
7.144,0.05492
7.148,-0.00284
7.152,0.04632
7.156,0.12806
7.16,0.16471
7.164,0.17373
7.168,0.082
7.172,0.05522
7.176,0.10913
7.18,0.0812
7.184,0.15543
7.188,0.18719
7.192,0.14407
7.196,0.18667
7.2,0.11158
7.204,0.24976
7.208,0.29533
7.212,0.19369
7.216,0.25413
7.22,0.18209
7.224,0.2354
7.228,0.20304
7.232,0.25804
7.236,0.23883
7.24,0.18732
7.244,0.1428
7.248,0.25774
7.252,0.27154
7.256,0.26153
7.26,0.19283
7.264,0.21875
7.268,0.25745
7.272,0.18478
7.276,0.23875
7.28,0.2262
7.284,0.20386
7.288,0.17961
7.292,0.15649
7.296,0.18961
7.3,0.17926
7.304,0.13059
7.308,0.12403
7.312,0.13101
7.316,0.05821
7.32,0.09678
7.324,0.07636
7.328,0.02204
7.332,0.05356
7.336,0.0733
7.34,-0.00089
7.344,0.01925
7.348,-0.00841
7.352,7e-05
7.356,0.08172
7.36,0.01778
7.364,0.01929
7.368,-0.00294
7.372,0.00484
7.376,0.01687
7.38,0.008
7.384,0.01721
7.388,-0.03975
7.392,-0.03101
7.396,-0.00302
7.4,0.03894
7.404,0.0153
7.408,-0.02673
7.412,-0.09094
7.416,-0.12554
7.42,-0.05426
7.424,0.16801
7.428,0.25166
7.432,0.4857
7.436,0.69095
7.44,0.86883
7.444,0.93998
7.448,0.94524
7.452,0.96353
7.456,0.80088
7.46,0.45796
7.464,0.26234
7.468,0.06844
7.472,-0.05674
7.476,-0.11337
7.48,-0.15473
7.484,-0.15813
7.488,-0.11583
7.492,-0.04938
7.496,-0.0319
7.5,-0.06474
7.504,-0.03929
7.508,0.01861
7.512,0.05836
7.516,-0.04066
7.52,-0.00387
7.524,0.07341
7.528,0.03055
7.532,-0.00756
7.536,0.01285
7.54,0.05184
7.544,-0.07995
7.548,0.00235
7.552,-0.04071
7.556,0.01179
7.56,0.02206
7.564,-0.01692
7.568,0.07008
7.572,0.00025
7.576,-0.00798
7.58,0.04916
7.584,-0.02073
7.588,0.01163
7.592,0.04847
7.596,-0.03142
7.6,0.0282
7.604,0.02995
7.608,0.04809
7.612,-0.03408
7.616,0.07342
7.62,0.02541
7.624,-0.02049
7.628,0.02192
7.632,0.00469
7.636,0.10992
7.64,0.02294
7.644,0.04095
7.648,0.0782
7.652,0.11579
7.656,0.09049
7.66,0.09964
7.664,0.06301
7.668,0.11134
7.672,0.11011
7.676,0.12898
7.68,0.1351
7.684,0.13276
7.688,0.19168
7.692,0.115
7.696,0.24192
7.7,0.18392
7.704,0.18953
7.708,0.17666
7.712,0.1972
7.716,0.26885
7.72,0.15093
7.724,0.24869
7.728,0.18729
7.732,0.22929
7.736,0.2062
7.74,0.24646
7.744,0.25096
7.748,0.18237
7.752,0.15412
7.756,0.20068
7.76,0.21537
7.764,0.23297
7.768,0.19542
7.772,0.16129
7.776,0.192
7.78,0.21424
7.784,0.233
7.788,0.21384
7.792,0.12267
7.796,0.11618
7.8,0.16774
7.804,0.09202
7.808,0.11073
7.812,0.08593
7.816,0.1356
7.82,0.05786
7.824,-0.00401
7.828,0.01764
7.832,0.02565
7.836,-0.01318
7.84,0.02128
7.844,0.05363
7.848,0.00707
7.852,-0.01729
7.856,-0.00611
7.86,-0.0167
7.864,-0.02048
7.868,0.00044
7.872,-0.0722
7.876,0.04892
7.88,-0.04608
7.884,-0.01058
7.888,0.0309
7.892,-0.04148
7.896,-0.01474
7.9,0.00903
7.904,-0.01418
7.908,-0.11699
7.912,-0.11823
7.916,-0.0802
7.92,-0.03461
7.924,0.13687
7.928,0.3204
7.932,0.49473
7.936,0.7035
7.94,0.90148
7.944,1.0964
7.948,0.93431
7.952,0.83627
7.956,0.57821
7.96,0.39893
7.964,0.15601
7.968,0.01227
7.972,-0.10174
7.976,-0.14358
7.98,-0.1681
7.984,-0.11921
7.988,-0.06265
7.992,-0.02809
7.996,-0.07513
8.0,0.03557
8.004,0.00519
8.008,-0.04287
8.012,-0.03731
8.016,0.02465
8.02,0.03164
8.024,-0.0658
8.028,0.06728
8.032,-0.07653
8.036,0.03889
8.04,-0.06908
8.044,0.02666
8.048,-0.02078
8.052,-0.03538
8.056,-0.0793
8.06,-0.02212
8.064,0.01047
8.068,-0.01784
8.072,-0.03509
8.076,-0.03302
8.08,0.03678
8.084,-0.02928
8.088,0.03282
8.092,-0.02518
8.096,0.02946
8.1,0.0016
8.104,-0.0096
8.108,0.0244
8.112,-0.00033
8.116,-0.03718
8.12,0.03351
8.124,0.00511
8.128,-0.00138
8.132,0.0651
8.136,0.01487
8.14,0.06374
8.144,-0.00273
8.148,0.0091
8.152,0.00833
8.156,0.04576
8.16,0.06049
8.164,0.1268
8.168,0.03951
8.172,0.13583
8.176,0.16957
8.18,0.11494
8.184,0.16558
8.188,0.13937
8.192,0.13874
8.196,0.17665
8.2,0.17454
8.204,0.12619
8.208,0.15382
8.212,0.21074
8.216,0.18539
8.22,0.2041
8.224,0.20438
8.228,0.14213
8.232,0.17477
8.236,0.19973
8.24,0.23989
8.244,0.13981
8.248,0.20075
8.252,0.16332
8.256,0.20548
8.26,0.19733
8.264,0.12839
8.268,0.18079
8.272,0.0986
8.276,0.0917
8.28,0.1349
8.284,0.07391
8.288,0.09502
8.292,0.01922
8.296,0.05959
8.3,0.04506
8.304,-0.02754
8.308,0.05826
8.312,-0.00089
8.316,-0.02025
8.32,0.02304
8.324,0.02886
8.328,-0.05579
8.332,-0.03971
8.336,0.01272
8.34,0.03827
8.344,0.04385
8.348,0.03321
8.352,-0.00717
8.356,0.07117
8.36,0.02615
8.364,-0.00118
8.368,0.03148
8.372,0.07143
8.376,0.07292
8.38,0.07557
8.384,0.07785
8.388,0.06572
8.392,0.12941
8.396,0.0366
8.4,0.08605
8.404,0.03358
8.408,0.07994
8.412,0.03538
8.416,0.0069
8.42,-0.00516
8.424,0.02746
8.428,0.01042
8.432,-0.05084
8.436,0.04592
8.44,0.06425
8.444,-0.08496
8.448,-0.03003
8.452,-0.0593
8.456,-0.05682
8.46,0.01421
8.464,0.04191
8.468,-0.07173
8.472,-0.02317
8.476,-0.03683
8.48,0.00869
8.484,0.00593
8.488,-0.06208
8.492,-0.04311
8.496,0.0143
8.5,-0.01162
8.504,-0.16546
8.508,-0.13882
8.512,-0.17416
8.516,-0.11814
8.52,-0.04996
8.524,0.11473
8.528,0.37359
8.532,0.61564
8.536,0.78484
8.54,0.92112
8.544,0.95937
8.548,0.93371
8.552,0.82182
8.556,0.48947
8.56,0.32608
8.564,0.14781
8.568,-0.0698
8.572,-0.16072
8.576,-0.18053
8.58,-0.21488
8.584,-0.14925
8.588,-0.14545
8.592,-0.09538
8.596,0.03748
8.6,-0.02368
8.604,0.02222
8.608,0.02443
8.612,-0.02262
8.616,-0.04513
8.62,0.00504
8.624,0.00321
8.628,-0.01814
8.632,-0.04347
8.636,-0.03592
8.64,-0.05788
8.644,0.01244
8.648,-0.03261
8.652,-0.03959
8.656,-0.05278
8.66,-0.00059
8.664,-0.00081
8.668,0.01556
8.672,0.09172
8.676,-0.0553
8.68,-0.03094
8.684,0.02341
8.688,-0.01439
8.692,0.06806
8.696,-0.02352
8.7,-0.03737
8.704,-0.0326
8.708,-0.02887
8.712,-0.05398
8.716,0.01115
8.72,-0.013
8.724,-0.02864
8.728,-0.01961
8.732,-0.04816
8.736,-0.00269
8.74,0.05129
8.744,0.00249
8.748,0.03537
8.752,0.05126
8.756,-0.00245
8.76,0.03413
8.764,0.06575
8.768,0.0766
8.772,0.08579
8.776,0.14458
8.78,0.07969
8.784,0.14285
8.788,0.11339
8.792,0.14337
8.796,0.13671
8.8,0.13381
8.804,0.16086
8.808,0.16594
8.812,0.16627
8.816,0.26544
8.82,0.24194
8.824,0.17998
8.828,0.22595
8.832,0.24957
8.836,0.26307
8.84,0.25423
8.844,0.15345
8.848,0.29252
8.852,0.22604
8.856,0.22771
8.86,0.17488
8.864,0.21547
8.868,0.24754
8.872,0.21846
8.876,0.21922
8.88,0.16432
8.884,0.13081
8.888,0.14783
8.892,0.07743
8.896,0.01575
8.9,0.04292
8.904,0.06515
8.908,0.09805
8.912,0.03054
8.916,0.01606
8.92,-0.07964
8.924,-0.0232
8.928,-0.03171
8.932,-0.04806
8.936,-0.03357
8.94,-0.00422
8.944,0.03806
8.948,0.04702
8.952,-0.01126
8.956,0.03701
8.96,-0.06554
8.964,0.00765
8.968,-0.05954
8.972,0.02063
8.976,-0.02196
8.98,-0.06019
8.984,-0.13436
8.988,-0.16348
8.992,-0.10925
8.996,-0.13096
9.0,-0.00762
9.004,0.18703
9.008,0.38621
9.012,0.57558
9.016,0.7082
9.02,0.89631
9.024,0.9885
9.028,0.89508
9.032,0.77133
9.036,0.58699
9.04,0.29636
9.044,0.06711
9.048,-0.06579
9.052,-0.21077
9.056,-0.22585
9.06,-0.15427
9.064,-0.13148
9.068,-0.15919
9.072,-0.02448
9.076,-0.078
9.08,-0.03144
9.084,-0.01414
9.088,-0.08819
9.092,-0.008
9.096,-0.03935
9.1,-0.00256
9.104,-0.004
9.108,-0.02068
9.112,-0.00585
9.116,-0.03062
9.12,-0.05061
9.124,-0.0326
9.128,-0.04677
9.132,-0.08881
9.136,-0.04911
9.14,-0.02877
9.144,-0.01979
9.148,-0.02684
9.152,-0.05385
9.156,-0.01761
9.16,-0.03522
9.164,-0.04864
9.168,-0.04503
9.172,-0.02204
9.176,-0.03818
9.18,-0.05135
9.184,0.01569
9.188,0.00064
9.192,0.00249
9.196,0.02094
9.2,-0.06826
9.204,-0.00822
9.208,0.00171
9.212,-0.01043
9.216,0.01202
9.22,0.05613
9.224,-0.00664
9.228,-0.01606
9.232,0.11061
9.236,0.02646
9.24,0.03465
9.244,0.02031
9.248,0.06255
9.252,0.08953
9.256,0.07736
9.26,0.06329
9.264,0.13596
9.268,0.09038
9.272,0.13081
9.276,0.17565
9.28,0.17523
9.284,0.12294
9.288,0.1248
9.292,0.13562
9.296,0.19897
9.3,0.17699
9.304,0.20568
9.308,0.19251
9.312,0.18339
9.316,0.17331
9.32,0.1377
9.324,0.1871
9.328,0.1914
9.332,0.17082
9.336,0.13434
9.34,0.10449
9.344,0.13419
9.348,0.06713
9.352,0.09249
9.356,0.054
9.36,0.13293
9.364,0.03638
9.368,0.0457
9.372,0.05441
9.376,0.06857
9.38,0.02355
9.384,0.05918
9.388,-0.07126
9.392,-0.02608
9.396,-0.05878
9.4,0.01225
9.404,-0.00377
9.408,-0.05336
9.412,0.01041
9.416,-0.04172
9.42,0.00216
9.424,-0.03954
9.428,0.01687
9.432,-0.02673
9.436,-0.03196
9.44,0.01179
9.444,-0.00159
9.448,0.01519
9.452,-0.00303
9.456,0.01203
9.46,0.08814
9.464,0.06723
9.468,0.0121
9.472,0.04284
9.476,0.04331
9.48,0.05704
9.484,0.05239
9.488,0.12553
9.492,0.07298
9.496,-0.01695
9.5,0.0858
9.504,-0.03086
9.508,-0.14512
9.512,-0.00711
9.516,0.00394
9.52,-0.09757
9.524,-0.004
9.528,-0.03283
9.532,-0.05118
9.536,0.03367
9.54,-0.08595
9.544,-0.02921
9.548,-0.04786
9.552,-0.02345
9.556,-0.04127
9.56,-0.11026
9.564,-0.02884
9.568,-0.03055
9.572,0.0249
9.576,-0.06302
9.58,-0.01233
9.584,-0.10727
9.588,0.00764
9.592,-0.08567
9.596,-0.0551
9.6,-0.12638
9.604,-0.12236
9.608,-0.12577
9.612,-0.01751
9.616,0.19416
9.62,0.41804
9.624,0.63196
9.628,0.7977
9.632,0.96278
9.636,0.95441
9.64,0.92023
9.644,0.71147
9.648,0.48788
9.652,0.21565
9.656,0.02525
9.66,-0.09687
9.664,-0.20184
9.668,-0.18319
9.672,-0.18466
9.676,-0.05996
9.68,-0.10425
9.684,-0.12167
9.688,-0.04913
9.692,-0.08476
9.696,-0.00302
9.7,-0.04552
9.704,-0.00218
9.708,-0.043
9.712,-0.05483
9.716,-0.05369
9.72,-0.06952
9.724,0.01815
9.728,-0.03765
9.732,-0.02728
9.736,-0.06702
9.74,0.01461
9.744,-0.04721
9.748,-0.06686
9.752,-0.03504
9.756,-0.00181
9.76,-0.03199
9.764,-0.03539
9.768,0.00676
9.772,-0.01873
9.776,-0.03398
9.78,0.04631
9.784,-0.08175
9.788,0.05029
9.792,-0.05463
9.796,-0.04689
9.8,-0.02185
9.804,-0.02502
9.808,-0.00281
9.812,0.05497
9.816,0.02427
9.82,0.00307
9.824,-0.01467
9.828,-0.02101
9.832,-0.01217
9.836,-0.01028
9.84,0.00473
9.844,0.02553
9.848,0.0693
9.852,0.01921
9.856,0.03229
9.86,0.14835
9.864,0.13386
9.868,0.06059
9.872,0.14158
9.876,0.1183
9.88,0.05947
9.884,0.14939
9.888,0.11828
9.892,0.15537
9.896,0.20769
9.9,0.13762
9.904,0.19187
9.908,0.17687
9.912,0.1842
9.916,0.18896
9.92,0.18026
9.924,0.19571
9.928,0.11703
9.932,0.19542
9.936,0.15144
9.94,0.1499
9.944,0.10149
9.948,0.0793
9.952,0.15048
9.956,0.0788
9.96,0.12096
9.964,0.07572
9.968,0.0793
9.972,0.15239
9.976,0.03565
9.98,0.029
9.984,0.00166
9.988,0.04784
9.992,0.01186
9.996,-0.01275
