t_seg,ecg_mV
0.0,-0.02003
0.004,-0.02266
0.008,-0.02412
0.012,-0.05391
0.016,-0.06563
0.02,-0.04671
0.024,-0.06486
0.028,-0.12247
0.032,-0.16264
0.036,-0.12669
0.04,-0.03813
0.044,0.08033
0.048,0.24972
0.052,0.50466
0.056,0.70352
0.06,0.85971
0.064,0.95845
0.068,0.93415
0.072,0.84948
0.076,0.62112
0.08,0.38359
0.084,0.17864
0.088,0.03166
0.092,-0.17557
0.096,-0.20893
0.1,-0.18126
0.104,-0.15892
0.108,-0.11793
0.112,-0.08016
0.116,-0.05962
0.12,-0.03303
0.124,-0.02722
0.128,-0.03452
0.132,-0.0482
0.136,-0.04059
0.14,-0.05347
0.144,-0.02229
0.148,-0.02971
0.152,-0.01692
0.156,-0.00865
0.16,-0.03103
0.164,-0.0198
0.168,-0.03405
0.172,-0.01935
0.176,-0.04802
0.18,-0.02786
0.184,-0.03467
0.188,-0.022
0.192,-0.02663
0.196,-0.04553
0.2,-0.00487
0.204,-0.02619
0.208,-0.03977
0.212,-0.01604
0.216,-0.03627
0.22,-0.04167
0.224,-0.00554
0.228,-0.01358
0.232,-0.03507
0.236,-0.01865
0.24,0.00267
0.244,-0.00895
0.248,-0.00055
0.252,-0.00454
0.256,0.01211
0.26,0.03131
0.264,0.02222
0.268,0.01724
0.272,0.0238
0.276,0.04356
0.28,0.04572
0.284,0.06664
0.288,0.07697
0.292,0.08802
0.296,0.09561
0.3,0.11803
0.304,0.13235
0.308,0.07791
0.312,0.11164
0.316,0.14911
0.32,0.16717
0.324,0.17791
0.328,0.15765
0.332,0.17216
0.336,0.16918
0.34,0.2059
0.344,0.19003
0.348,0.16111
0.352,0.18674
0.356,0.17669
0.36,0.19464
0.364,0.16561
0.368,0.15605
0.372,0.14996
0.376,0.16204
0.38,0.12113
0.384,0.11692
0.388,0.10153
0.392,0.09728
0.396,0.10546
0.4,0.08571
0.404,0.09044
0.408,0.06319
0.412,0.04313
0.416,0.05969
0.42,0.02454
0.424,0.04453
0.428,0.01838
0.432,-0.01036
0.436,0.02089
0.44,-0.00112
0.444,0.00277
0.448,-0.00261
0.452,-0.01587
0.456,-0.03132
0.46,-0.0029
0.464,-0.0282
0.468,-0.0286
0.472,-0.04819
0.476,-0.01812
0.48,-0.01785
0.484,-0.067
0.488,-0.06267
0.492,-0.04624
0.496,-0.0358
0.5,-0.02956
0.504,-0.03797
0.508,-0.01083
0.512,-0.01494
0.516,-0.04779
0.52,-0.02182
0.524,-0.02957
0.528,-0.03372
0.532,-0.04476
0.536,-0.02421
0.54,-0.03753
0.544,-0.06259
0.548,-0.02045
0.552,-0.03117
0.556,-0.02823
0.56,-0.04966
0.564,-0.04381
0.568,-0.0404
0.572,-0.01914
0.576,-0.01869
0.58,-0.03325
0.584,0.01928
0.588,-0.03598
0.592,-0.05381
0.596,-0.011
0.6,-0.04455
0.604,-0.03992
0.608,-0.01757
0.612,-0.05053
0.616,-0.03319
0.62,-0.02478
0.624,-0.01901
0.628,-0.01295
0.632,-0.03581
0.636,-0.01264
0.64,-0.05692
0.644,-0.04279
0.648,-0.0357
0.652,-0.03159
0.656,-0.02683
0.66,-0.01057
0.664,-0.01891
0.668,-0.01084
0.672,-0.0203
0.676,-0.0556
0.68,0.00333
0.684,-0.0149
0.688,-0.03338
0.692,-0.03857
0.696,-0.02096
0.7,-0.02808
0.704,-0.01238
0.708,-0.00139
0.712,-0.01901
0.716,-0.0012
0.72,0.00166
0.724,-0.02275
0.728,-0.01776
0.732,-0.02686
0.736,-0.03394
0.74,-0.03369
0.744,-0.04879
0.748,-0.03143
0.752,-0.03546
0.756,-0.01804
0.76,-0.01367
0.764,-0.02988
0.768,-0.03804
0.772,-0.02754
0.776,-0.03335
0.78,-0.03089
0.784,-0.00255
0.788,-0.00921
0.792,-0.02166
0.796,-0.01171
0.8,-0.02839
0.804,-0.04012
0.808,-0.0375
0.812,-0.03315
0.816,-0.03757
0.82,-0.0117
0.824,-0.0176
0.828,-0.02982
0.832,-0.0195
0.836,-0.02416
0.84,-0.01116
0.844,0.00743
0.848,-0.03984
0.852,0.00024
0.856,-0.01468
0.86,-0.01258
0.864,-0.00438
0.868,0.04684
0.872,0.01958
0.876,0.06485
0.88,0.0555
0.884,0.05208
0.888,0.07641
0.892,0.10043
0.896,0.09899
0.9,0.06667
0.904,0.07453
0.908,0.06172
0.912,0.0459
0.916,0.0404
0.92,0.03172
0.924,0.00227
0.928,0.01856
0.932,-0.01834
0.936,-0.00809
0.94,0.00988
0.944,-0.02135
0.948,-0.02147
0.952,-0.00729
0.956,-0.02465
0.96,-0.0425
0.964,-0.02739
0.968,-0.03072
0.972,-0.03572
0.976,-0.04841
0.98,-0.00203
0.984,-0.01978
0.988,-0.03421
0.992,-0.02702
0.996,-0.02898
1.0,-0.03188
1.004,-0.01499
1.008,-0.02581
1.012,-0.08048
1.016,-0.11603
1.02,-0.14423
1.024,-0.15396
1.028,-0.02229
1.032,0.0426
1.036,0.21977
1.04,0.43748
1.044,0.62635
1.048,0.80571
1.052,0.97329
1.056,0.95807
1.06,0.89273
1.064,0.69399
1.068,0.51492
1.072,0.26519
1.076,0.05645
1.08,-0.10697
1.084,-0.17678
1.088,-0.21706
1.092,-0.17445
1.096,-0.14384
1.1,-0.06882
1.104,-0.04461
1.108,-0.02994
1.112,0.02175
1.116,-0.01933
1.12,-0.00576
1.124,-0.0107
1.128,-0.02742
1.132,-0.03444
1.136,0.00863
1.14,-0.03557
1.144,-0.01401
1.148,-0.02567
1.152,-0.00876
1.156,0.00968
1.16,-0.03564
1.164,-0.0132
1.168,0.00163
1.172,-0.03057
1.176,-0.03924
1.18,-0.02295
1.184,-0.02217
1.188,-0.00903
1.192,-0.04187
1.196,-0.01299
1.2,-0.04339
1.204,-0.01144
1.208,-0.01783
1.212,-0.05278
1.216,-0.00252
1.22,-0.02079
1.224,0.01382
1.228,0.00441
1.232,-0.02275
1.236,-0.02122
1.24,0.00052
1.244,-0.00859
1.248,0.05523
1.252,0.0387
1.256,0.026
1.26,0.04173
1.264,0.03879
1.268,0.06219
1.272,0.04084
1.276,0.07011
1.28,0.09492
1.284,0.07839
1.288,0.11175
1.292,0.1126
1.296,0.1556
1.3,0.1609
1.304,0.1343
1.308,0.14126
1.312,0.16877
1.316,0.2147
1.32,0.21781
1.324,0.21444
1.328,0.20614
1.332,0.20382
1.336,0.21907
1.34,0.20934
1.344,0.18641
1.348,0.18676
1.352,0.20487
1.356,0.21004
1.36,0.17694
1.364,0.14281
1.368,0.14589
1.372,0.129
1.376,0.1423
1.38,0.12303
1.384,0.09227
1.388,0.12236
1.392,0.09513
1.396,0.06726
1.4,0.06892
1.404,0.05329
1.408,0.07307
1.412,0.05423
1.416,0.03868
1.42,0.03949
1.424,0.04105
1.428,0.0035
1.432,0.00108
1.436,-0.00246
1.44,0.01051
1.444,-0.01726
1.448,0.02238
1.452,-0.03979
1.456,-0.021
1.46,-0.03789
1.464,0.00189
1.468,-0.02469
1.472,-0.00782
1.476,-0.00321
1.48,0.01692
1.484,0.00171
1.488,-0.01455
1.492,-0.01433
1.496,-0.00019
1.5,-0.00339
1.504,0.01388
1.508,-0.01979
1.512,-0.00423
1.516,-0.00192
1.52,-0.00324
1.524,0.02523
1.528,-0.00176
1.532,-0.01007
1.536,-0.0072
1.54,0.0006
1.544,-0.01512
1.548,0.00198
1.552,0.01107
1.556,0.00425
1.56,-0.02305
1.564,-0.01752
1.568,0.0049
1.572,0.00409
1.576,-0.00108
1.58,-0.00752
1.584,-0.0153
1.588,-0.00614
1.592,-0.02508
1.596,-0.0296
1.6,-0.01056
1.604,0.00894
1.608,-0.00438
1.612,0.00321
1.616,-0.00444
1.62,0.01145
1.624,-0.00479
1.628,0.00233
1.632,0.02431
1.636,-0.01057
1.64,0.01555
1.644,-0.01703
1.648,0.02521
1.652,-0.00287
1.656,-0.01659
1.66,-0.00699
1.664,0.01571
1.668,-0.01464
1.672,-0.00509
1.676,0.01275
1.68,-0.01129
1.684,-0.00699
1.688,-0.00726
1.692,-0.01676
1.696,-0.00947
1.7,0.00771
1.704,-0.02065
1.708,-0.00937
1.712,0.00687
1.716,-0.00522
1.72,-0.0025
1.724,0.01887
1.728,-0.00838
1.732,0.00117
1.736,-0.00623
1.74,0.00543
1.744,-0.02289
1.748,-0.01553
1.752,-0.00323
1.756,0.01641
1.76,-0.00594
1.764,-0.00172
1.768,0.01336
1.772,-0.02278
1.776,0.01931
1.78,0.02032
1.784,0.05757
1.788,0.039
1.792,0.03013
1.796,0.05407
1.8,0.06418
1.804,0.06853
1.808,0.04732
1.812,0.08244
1.816,0.09272
1.82,0.09187
1.824,0.0912
1.828,0.07468
1.832,0.08065
1.836,0.04964
1.84,0.03713
1.844,0.03436
1.848,0.04135
1.852,0.03407
1.856,0.02161
1.86,0.0273
1.864,0.0249
1.868,0.00618
1.872,0.01094
1.876,-0.01973
1.88,0.00097
1.884,0.02581
1.888,0.00545
1.892,0.00776
1.896,-0.00159
1.9,0.01112
1.904,0.00066
1.908,-0.01167
1.912,-0.00287
1.916,0.01149
1.92,0.03359
1.924,0.00064
1.928,-0.01843
1.932,-0.00726
1.936,-0.03053
1.94,-0.07978
1.944,-0.11191
1.948,-0.12998
1.952,-0.03365
1.956,0.056
1.96,0.24599
1.964,0.46418
1.968,0.71317
1.972,0.87818
1.976,0.9922
1.98,1.00182
1.984,0.89903
1.988,0.69485
1.992,0.48335
1.996,0.23489
2.0,0.06933
2.004,-0.10304
2.008,-0.15684
2.012,-0.1381
2.016,-0.12228
2.02,-0.08269
2.024,-0.05182
2.028,-0.01718
2.032,-0.01202
2.036,0.00709
2.04,0.00673
2.044,0.00733
2.048,-0.01758
2.052,-0.03547
2.056,-0.00155
2.06,0.00558
2.064,0.00715
2.068,-0.00897
2.072,0.01506
2.076,0.00331
2.08,0.01439
2.084,0.02215
2.088,-0.01692
2.092,0.03292
2.096,0.00833
2.1,0.00499
2.104,0.04418
2.108,0.0045
2.112,-0.00079
2.116,0.00493
2.12,0.00938
2.124,-0.00897
2.128,-0.00891
2.132,0.02211
2.136,-0.00212
2.14,-0.0007
2.144,0.01082
2.148,0.01095
2.152,0.02515
2.156,0.01391
2.16,0.02959
2.164,0.01004
2.168,0.02269
2.172,0.03047
2.176,0.05191
2.18,0.07657
2.184,0.07487
2.188,0.05168
2.192,0.10692
2.196,0.07757
2.2,0.09731
2.204,0.11034
2.208,0.12711
2.212,0.1574
2.216,0.17676
2.22,0.17499
2.224,0.19451
2.228,0.17325
2.232,0.22362
2.236,0.18583
2.24,0.20963
2.244,0.22148
2.248,0.21413
2.252,0.25981
2.256,0.24796
2.26,0.21714
2.264,0.22433
2.268,0.23112
2.272,0.23912
2.276,0.20938
2.28,0.20044
2.284,0.18847
2.288,0.18779
2.292,0.17974
2.296,0.14983
2.3,0.17453
2.304,0.1237
2.308,0.14365
2.312,0.12011
2.316,0.11213
2.32,0.12241
2.324,0.08963
2.328,0.07906
2.332,0.07441
2.336,0.04332
2.34,0.05173
2.344,0.05099
2.348,0.04286
2.352,0.03336
2.356,0.06448
2.36,0.02751
2.364,0.02282
2.368,0.02016
2.372,0.03346
2.376,0.022
2.38,0.01981
2.384,-0.00785
2.388,-0.00445
2.392,0.02512
2.396,0.01003
2.4,0.02579
2.404,0.00815
2.408,0.00833
2.412,-0.00114
2.416,0.01716
2.42,0.01933
2.424,0.00233
2.428,0.03175
2.432,0.0236
2.436,0.05078
2.44,-0.00146
2.444,0.04916
2.448,0.03313
2.452,0.02552
2.456,0.01531
2.46,0.03067
2.464,0.03536
2.468,0.01742
2.472,0.05735
2.476,0.07387
2.48,0.08771
2.484,0.07634
2.488,0.08164
2.492,0.10169
2.496,0.10539
2.5,0.15132
2.504,0.10811
2.508,0.09528
2.512,0.08487
2.516,0.09516
2.52,0.08894
2.524,0.07197
2.528,0.05757
2.532,0.03713
2.536,0.02499
2.54,-0.00875
2.544,0.02761
2.548,0.03425
2.552,0.02988
2.556,0.00989
2.56,0.00323
2.564,0.0158
2.568,0.02319
2.572,-0.001
2.576,0.01715
2.58,-0.00139
2.584,0.05464
2.588,0.02281
2.592,0.03706
2.596,0.0473
2.6,0.02146
2.604,0.01063
2.608,0.00421
2.612,0.00101
2.616,-0.029
2.62,-0.07801
2.624,-0.0795
2.628,-0.0837
2.632,-0.03756
2.636,0.07113
2.64,0.25445
2.644,0.44603
2.648,0.66182
2.652,0.86901
2.656,1.01459
2.66,1.00272
2.664,0.92488
2.668,0.75894
2.672,0.52539
2.676,0.30572
2.68,0.11284
2.684,-0.0407
2.688,-0.11842
2.692,-0.1463
2.696,-0.12204
2.7,-0.08836
2.704,-0.02223
2.708,-0.00999
2.712,-0.00997
2.716,0.0213
2.72,0.02245
2.724,0.01977
2.728,-0.00409
2.732,0.01518
2.736,0.04194
2.74,0.00294
2.744,-0.00951
2.748,0.00215
2.752,0.04523
2.756,0.0519
2.76,0.04343
2.764,0.02572
2.768,0.03359
2.772,0.02241
2.776,0.01314
2.78,0.03287
2.784,0.00809
2.788,0.01665
2.792,0.02018
2.796,0.03214
2.8,0.00438
2.804,0.02271
2.808,0.00854
2.812,0.01392
2.816,0.02625
2.82,0.0554
2.824,0.05994
2.828,0.01842
2.832,0.01645
2.836,0.03713
2.84,0.01766
2.844,0.07646
2.848,0.04744
2.852,0.05947
2.856,0.06159
2.86,0.08403
2.864,0.07298
2.868,0.09041
2.872,0.10378
2.876,0.09252
2.88,0.13009
2.884,0.12251
2.888,0.15309
2.892,0.16355
2.896,0.17416
2.9,0.17924
2.904,0.20167
2.908,0.1772
2.912,0.21442
2.916,0.20467
2.92,0.21831
2.924,0.22957
2.928,0.2347
2.932,0.25195
2.936,0.22551
2.94,0.28042
2.944,0.23507
2.948,0.2566
2.952,0.25137
2.956,0.23084
2.96,0.24465
2.964,0.22096
2.968,0.2384
2.972,0.21595
2.976,0.20115
2.98,0.17337
2.984,0.15107
2.988,0.12363
2.992,0.1099
2.996,0.13972
3.0,0.09703
3.004,0.11133
3.008,0.08296
3.012,0.09242
3.016,0.06582
3.02,0.06947
3.024,0.06083
3.028,0.03011
3.032,0.0817
3.036,0.04967
3.04,0.03929
3.044,0.05488
3.048,0.03228
3.052,0.03269
3.056,0.03835
3.06,0.00348
3.064,0.01239
3.068,0.02508
3.072,0.01922
3.076,0.03386
3.08,0.02265
3.084,0.02675
3.088,0.02839
3.092,0.02546
3.096,0.00572
3.1,0.03102
3.104,0.04088
3.108,0.0072
3.112,0.00803
3.116,0.01104
3.12,0.02237
3.124,0.0132
3.128,0.04706
3.132,0.02961
3.136,0.02405
3.14,0.03219
3.144,0.02581
3.148,0.05504
3.152,0.04407
3.156,0.03637
3.16,0.02179
3.164,0.04483
3.168,0.0169
3.172,0.02771
3.176,0.00581
3.18,0.02196
3.184,0.02696
3.188,0.04214
3.192,0.01978
3.196,0.06375
3.2,0.05376
3.204,0.02379
3.208,0.02477
3.212,0.04869
3.216,0.07338
3.22,0.01956
3.224,0.03994
3.228,0.0287
3.232,0.05093
3.236,0.03095
3.24,0.0164
3.244,0.00603
3.248,0.03026
3.252,0.03152
3.256,0.02784
3.26,0.04031
3.264,0.03813
3.268,0.06861
3.272,0.04767
3.276,0.01657
3.28,0.04098
3.284,0.04059
3.288,0.02846
3.292,0.02237
3.296,0.03877
3.3,0.01051
3.304,0.02449
3.308,-0.00306
3.312,0.01441
3.316,0.00965
3.32,0.02732
3.324,0.03819
3.328,0.01751
3.332,0.03305
3.336,0.02545
3.34,0.04228
3.344,0.04595
3.348,0.02008
3.352,0.01657
3.356,0.01031
3.36,0.01475
3.364,0.05103
3.368,0.03383
3.372,0.01312
3.376,0.00987
3.38,0.03985
3.384,0.02909
3.388,0.02627
3.392,0.03902
3.396,0.02601
3.4,0.01123
3.404,0.00657
3.408,0.04912
3.412,0.01927
3.416,0.0411
3.42,0.01945
3.424,0.03469
3.428,0.04728
3.432,0.03458
3.436,0.02373
3.44,0.00795
3.444,0.03139
3.448,0.02185
3.452,0.01956
3.456,0.04275
3.46,0.04037
3.464,0.03605
3.468,0.05974
3.472,0.04052
3.476,0.01426
3.48,0.01017
3.484,0.02693
3.488,0.03283
3.492,0.0466
3.496,0.03712
3.5,0.03496
3.504,0.04496
3.508,0.05164
3.512,0.04865
3.516,0.09057
3.52,0.09
3.524,0.11597
3.528,0.12396
3.532,0.12381
3.536,0.13462
3.54,0.17206
3.544,0.10551
3.548,0.13519
3.552,0.10225
3.556,0.09628
3.56,0.11514
3.564,0.05218
3.568,0.08218
3.572,0.03517
3.576,0.03833
3.58,0.04568
3.584,0.03189
3.588,0.01597
3.592,0.02373
3.596,0.04586
3.6,-0.00653
3.604,0.03007
3.608,0.04785
3.612,0.02908
3.616,0.03357
3.62,0.02758
3.624,0.03324
3.628,0.02014
3.632,0.04999
3.636,0.05208
3.64,0.01179
3.644,0.03192
3.648,0.02418
3.652,0.03248
3.656,-0.02182
3.66,-0.0408
3.664,-0.07324
3.668,-0.07161
3.672,-0.03252
3.676,0.03282
3.68,0.25201
3.684,0.42057
3.688,0.65158
3.692,0.8478
3.696,0.98333
3.7,1.02686
3.704,0.97933
3.708,0.79899
3.712,0.56702
3.716,0.35431
3.72,0.15683
3.724,0.00238
3.728,-0.10639
3.732,-0.1459
3.736,-0.12511
3.74,-0.06412
3.744,-0.03028
3.748,-0.03307
3.752,0.03752
3.756,0.02295
3.76,0.01791
3.764,0.02744
3.768,0.06471
3.772,0.02391
3.776,0.03343
3.78,0.00062
3.784,0.02519
3.788,0.01839
3.792,0.03541
3.796,0.04052
3.8,0.02222
3.804,0.02934
3.808,0.01955
3.812,0.0373
3.816,0.01032
3.82,0.03169
3.824,0.04523
3.828,0.02265
3.832,-0.00212
3.836,0.00158
3.84,0.04425
3.844,0.01621
3.848,0.02523
3.852,0.06598
3.856,0.04932
3.86,0.0539
3.864,0.06075
3.868,0.05049
3.872,0.02359
3.876,0.05579
3.88,0.04183
3.884,0.01659
3.888,0.03306
3.892,0.07229
3.896,0.05167
3.9,0.08014
3.904,0.08073
3.908,0.09034
3.912,0.1046
3.916,0.10966
3.92,0.11057
3.924,0.11525
3.928,0.15494
3.932,0.1812
3.936,0.19068
3.94,0.17731
3.944,0.20108
3.948,0.2392
3.952,0.17232
3.956,0.21101
3.96,0.20642
3.964,0.25139
3.968,0.22149
3.972,0.21675
3.976,0.25628
3.98,0.22588
3.984,0.26752
3.988,0.25914
3.992,0.2377
3.996,0.23314
4.0,0.21675
4.004,0.21938
4.008,0.21126
4.012,0.1917
4.016,0.19067
4.02,0.16134
4.024,0.1531
4.028,0.16329
4.032,0.1393
4.036,0.14556
4.04,0.09961
4.044,0.12224
4.048,0.10391
4.052,0.08435
4.056,0.07963
4.06,0.08151
4.064,0.08374
4.068,0.05895
4.072,0.06124
4.076,0.07643
4.08,0.06198
4.084,0.05064
4.088,0.074
4.092,0.00136
4.096,0.04714
4.1,0.02932
4.104,0.03714
4.108,0.04916
4.112,0.01913
4.116,0.03691
4.12,0.03995
4.124,0.04101
4.128,0.01736
4.132,0.01952
4.136,0.03915
4.14,0.03503
4.144,0.02007
4.148,0.04417
4.152,0.02285
4.156,0.0219
4.16,0.03316
4.164,0.00176
4.168,0.01793
4.172,0.01221
4.176,0.0283
4.18,0.03145
4.184,0.04218
4.188,0.0428
4.192,0.03714
4.196,0.00564
4.2,0.00928
4.204,0.01784
4.208,0.01493
4.212,0.01942
4.216,0.01786
4.22,0.01724
4.224,0.04609
4.228,0.01321
4.232,0.02454
4.236,0.01303
4.24,0.02985
4.244,0.02251
4.248,0.01723
4.252,0.03314
4.256,0.02261
4.26,0.04525
4.264,-0.01545
4.268,0.06615
4.272,0.02273
4.276,0.01982
4.28,0.01914
4.284,0.02349
4.288,0.01155
4.292,0.01667
4.296,0.01974
4.3,0.04048
4.304,0.03047
4.308,0.03118
4.312,0.04532
4.316,0.03064
4.32,0.01527
4.324,0.01936
4.328,0.0326
4.332,0.02703
4.336,0.00591
4.34,0.00747
4.344,0.02178
4.348,0.03553
4.352,0.03322
4.356,-0.00823
4.36,0.03623
4.364,0.03024
4.368,0.00729
4.372,0.01915
4.376,0.0056
4.38,0.01854
4.384,0.00331
4.388,0.00917
4.392,0.01969
4.396,0.00771
4.4,0.05097
4.404,0.0141
4.408,0.03033
4.412,0.04401
4.416,0.00422
4.42,0.0305
4.424,-0.00446
4.428,0.02729
4.432,0.02036
4.436,-0.00018
4.44,0.03118
4.444,0.00692
4.448,0.02079
4.452,0.01266
4.456,0.05193
4.46,0.02161
4.464,0.01236
4.468,0.0157
4.472,0.03356
4.476,0.02756
4.48,0.0443
4.484,-0.00798
4.488,-0.0021
4.492,-0.00501
4.496,-0.00134
4.5,0.01755
4.504,0.00392
4.508,0.02088
4.512,0.01809
4.516,0.01297
4.52,0.01095
4.524,0.02504
4.528,0.00043
4.532,0.02093
4.536,0.03917
4.54,-0.00167
4.544,0.03073
4.548,0.02468
4.552,0.01734
4.556,0.02636
4.56,0.0295
4.564,0.02356
4.568,-0.0045
4.572,0.01605
4.576,0.02358
4.58,0.00426
4.584,-0.01194
4.588,0.02187
4.592,-0.01557
4.596,-0.00452
4.6,0.01106
4.604,0.00454
4.608,0.01732
4.612,0.00412
4.616,0.02247
4.62,0.02117
4.624,0.01691
4.628,0.00303
4.632,0.01689
4.636,0.01655
4.64,-0.00457
4.644,-0.00599
4.648,0.02517
4.652,0.00528
4.656,0.01324
4.66,-0.00894
4.664,0.01632
4.668,0.03528
4.672,0.02197
4.676,0.01553
4.68,0.02847
4.684,-0.00651
4.688,0.00539
4.692,0.02103
4.696,0.007
4.7,0.01486
4.704,0.05782
4.708,0.04296
4.712,0.02715
4.716,0.05354
4.72,0.03977
4.724,0.06922
4.728,0.06657
4.732,0.08686
4.736,0.09555
4.74,0.1011
4.744,0.09734
4.748,0.10079
4.752,0.09572
4.756,0.0847
4.76,0.0931
4.764,0.07846
4.768,0.03342
4.772,0.03131
4.776,0.03037
4.78,0.01082
4.784,0.01422
4.788,0.02273
4.792,0.0336
4.796,0.0304
4.8,-0.00672
4.804,-0.001
4.808,-0.02043
4.812,0.00292
4.816,0.00387
4.82,0.02415
4.824,0.0171
4.828,0.00099
4.832,0.00554
4.836,-0.01152
4.84,0.0018
4.844,-0.01719
4.848,0.02759
4.852,0.01586
4.856,0.0115
4.86,-0.02888
4.864,-0.05194
4.868,-0.09751
4.872,-0.09359
4.876,-0.06488
4.88,0.05598
4.884,0.21769
4.888,0.38982
4.892,0.61323
4.896,0.83693
4.9,0.97149
4.904,0.99548
4.908,0.91827
4.912,0.77547
4.916,0.57369
4.92,0.31235
4.924,0.1052
4.928,-0.05396
4.932,-0.12884
4.936,-0.1396
4.94,-0.13588
4.944,-0.09648
4.948,-0.06358
4.952,-0.01892
4.956,-0.03399
4.96,-0.02025
4.964,0.00227
4.968,0.02438
4.972,0.02637
4.976,-0.00321
4.98,0.01401
4.984,-0.0114
4.988,0.0015
4.992,0.00115
4.996,0.02259
5.0,-0.01543
5.004,0.01679
5.008,-0.00623
5.012,0.01148
5.016,-0.01237
5.02,0.01535
5.024,0.00043
5.028,-0.00709
5.032,0.00516
5.036,-0.00037
5.04,-0.00623
5.044,-0.00862
5.048,0.00555
5.052,-0.00198
5.056,-0.00022
5.06,0.00292
5.064,0.01336
5.068,0.01858
5.072,-0.00941
5.076,0.02904
5.08,0.01344
5.084,0.03647
5.088,0.01511
5.092,0.02643
5.096,0.02757
5.1,0.05831
5.104,0.04019
5.108,0.06164
5.112,0.05628
5.116,0.08361
5.12,0.10328
5.124,0.09941
5.128,0.0971
5.132,0.11721
5.136,0.1294
5.14,0.12741
5.144,0.16021
5.148,0.18492
5.152,0.14541
5.156,0.21322
5.16,0.2051
5.164,0.22502
5.168,0.22369
5.172,0.21208
5.176,0.2273
5.18,0.21201
5.184,0.20835
5.188,0.21315
5.192,0.25403
5.196,0.19138
5.2,0.22816
5.204,0.18869
5.208,0.16198
5.212,0.17541
5.216,0.14752
5.22,0.15644
5.224,0.13531
5.228,0.13754
5.232,0.12483
5.236,0.10273
5.24,0.12441
5.244,0.08084
5.248,0.08592
5.252,0.05415
5.256,0.05271
5.26,0.06654
5.264,0.06927
5.268,0.05207
5.272,0.0306
5.276,0.04619
5.28,0.00989
5.284,0.03373
5.288,0.03606
5.292,0.03609
5.296,0.02185
5.3,-0.00708
5.304,0.02514
5.308,-0.01901
5.312,-0.00548
5.316,0.01438
5.32,-0.01228
5.324,0.00866
5.328,-0.00488
5.332,0.0074
5.336,-0.0138
5.34,0.02625
5.344,0.00078
5.348,0.00088
5.352,-0.04905
5.356,0.02216
5.36,0.01455
5.364,-0.00998
5.368,-0.0338
5.372,0.00716
5.376,0.00258
5.38,-0.009
5.384,-0.02351
5.388,-0.00937
5.392,0.00596
5.396,-0.00202
5.4,-0.0239
5.404,0.00779
5.408,-0.00367
5.412,-0.0125
5.416,-0.00341
5.42,-0.02542
5.424,-0.01157
5.428,-0.0328
5.432,0.01782
5.436,-0.01934
5.44,-0.0051
5.444,-0.02682
5.448,-0.01547
5.452,-0.01156
5.456,-0.00574
5.46,-0.02291
5.464,-0.02698
5.468,-0.01181
5.472,0.00913
5.476,0.00111
5.48,-0.02488
5.484,-0.00693
5.488,-0.00917
5.492,0.00375
5.496,-0.03142
5.5,0.00769
5.504,-0.00313
5.508,-0.01579
5.512,-0.01941
5.516,-0.02627
5.52,-0.00945
5.524,0.01707
5.528,0.00134
5.532,-0.01596
5.536,-0.03872
5.54,-0.01792
5.544,-0.00871
5.548,-0.01389
5.552,0.00303
5.556,0.01662
5.56,0.00966
5.564,0.01965
5.568,-0.00796
5.572,0.00878
5.576,0.02175
5.58,0.00029
5.584,0.01237
5.588,-0.00923
5.592,-0.02797
5.596,-0.01037
5.6,-0.02108
5.604,-0.00937
5.608,-0.01424
5.612,-0.02081
5.616,-0.02853
5.62,-0.00892
5.624,-0.0027
5.628,0.005
5.632,0.02656
5.636,0.01633
5.64,-0.01307
5.644,0.02791
5.648,-0.01999
5.652,-0.0137
5.656,0.01554
5.66,-0.00113
5.664,-0.01426
5.668,-0.00485
5.672,-0.00609
5.676,-0.01863
5.68,-0.00692
5.684,0.00808
5.688,-0.00671
5.692,-0.01921
5.696,-0.04051
5.7,-0.00364
5.704,-0.02115
5.708,-0.01563
5.712,0.00626
5.716,0.00485
5.72,-0.01309
5.724,0.00556
5.728,-0.00027
5.732,-0.01088
5.736,-0.00768
5.74,-0.02243
5.744,-0.03398
5.748,0.00891
5.752,-0.02004
5.756,-0.03187
5.76,-0.01178
5.764,-0.01069
5.768,-0.00581
5.772,-0.01353
5.776,-0.03659
5.78,0.00949
5.784,-0.02217
5.788,-0.03463
5.792,0.00353
5.796,-0.00452
5.8,-0.03854
5.804,-0.01158
5.808,-0.03068
5.812,-0.02611
5.816,-0.00276
5.82,-0.00363
5.824,-0.0058
5.828,-0.02997
5.832,-0.04136
5.836,-0.02764
5.84,0.00812
5.844,-0.03079
5.848,-0.00892
5.852,-0.00384
5.856,-0.01001
5.86,0.00032
5.864,-0.02941
5.868,-0.03065
5.872,0.0021
5.876,0.0106
5.88,-0.01025
5.884,-0.01556
5.888,-0.01128
5.892,-0.012
5.896,-0.01895
5.9,0.03247
5.904,-0.01128
5.908,-0.0023
5.912,-0.0339
5.916,0.0008
5.92,-0.00889
5.924,0.03305
5.928,0.04671
5.932,0.03254
5.936,0.08277
5.94,0.0616
5.944,0.0834
5.948,0.06441
5.952,0.06696
5.956,0.06949
5.96,0.08062
5.964,0.10029
5.968,0.04591
5.972,0.03596
5.976,0.02135
5.98,0.03896
5.984,0.00227
5.988,0.00755
5.992,-0.01894
5.996,-0.02739
6.0,-0.01089
6.004,-0.01605
6.008,-0.03366
6.012,-0.01861
6.016,-0.0021
6.02,0.00301
6.024,-0.01467
6.028,-0.00443
6.032,-0.02844
6.036,-0.02542
6.04,-0.04288
6.044,0.00438
6.048,-0.03828
6.052,-0.00211
6.056,-0.00395
6.06,-0.02296
6.064,-0.03584
6.068,-0.05053
6.072,-0.08126
6.076,-0.13569
6.08,-0.10698
6.084,-0.0918
6.088,0.03935
6.092,0.18222
6.096,0.416
6.1,0.63193
6.104,0.78716
6.108,0.94295
6.112,0.98661
6.116,0.87313
6.12,0.7056
6.124,0.50632
6.128,0.2342
6.132,0.06395
6.136,-0.07096
6.14,-0.17633
6.144,-0.18482
6.148,-0.14968
6.152,-0.10407
6.156,-0.07091
6.16,-0.04636
6.164,-0.02664
6.168,-0.01723
6.172,-0.03311
6.176,-0.00902
6.18,-0.03135
6.184,-0.01118
6.188,-0.04283
6.192,-0.03705
6.196,-0.03577
6.2,-0.02105
6.204,-0.03723
6.208,-0.02661
6.212,-0.02617
6.216,-0.04502
6.22,-0.01401
6.224,-0.02271
6.228,-0.02517
6.232,-0.04624
6.236,-0.03286
6.24,-0.02654
6.244,-0.00722
6.248,-0.01043
6.252,-0.0021
6.256,-0.02661
6.26,0.02694
6.264,-0.01082
6.268,-0.04757
6.272,-0.03133
6.276,-0.0347
6.28,-0.0081
6.284,-0.01315
6.288,0.01184
6.292,0.01991
6.296,-0.00095
6.3,0.01158
6.304,0.01072
6.308,0.01239
6.312,0.02778
6.316,0.04544
6.32,0.0566
6.324,0.04864
6.328,0.07269
6.332,0.0615
6.336,0.08708
6.34,0.11155
6.344,0.10373
6.348,0.12332
6.352,0.12256
6.356,0.13037
6.36,0.13374
6.364,0.16544
6.368,0.18201
6.372,0.19234
6.376,0.18005
6.38,0.18077
6.384,0.22328
6.388,0.17989
6.392,0.20094
6.396,0.20172
6.4,0.19451
6.404,0.18226
6.408,0.16921
6.412,0.16101
6.416,0.17606
6.42,0.17107
6.424,0.15062
6.428,0.09178
6.432,0.08954
6.436,0.12049
6.44,0.08649
6.444,0.08539
6.448,0.07154
6.452,0.05718
6.456,0.05529
6.46,0.03447
6.464,0.01013
6.468,0.04407
6.472,0.0294
6.476,0.0257
6.48,0.01125
6.484,-0.02057
6.488,0.01056
6.492,-0.00593
6.496,-0.00485
6.5,-0.0027
6.504,-0.01699
6.508,-0.02853
6.512,-0.0044
6.516,-0.02689
6.52,-0.032
6.524,-0.02714
6.528,-0.02198
6.532,-0.04224
6.536,-0.00908
6.54,-0.05836
6.544,-0.01177
6.548,-0.03476
6.552,-0.02936
6.556,-0.03281
6.56,-0.03494
6.564,-0.03977
6.568,-0.02386
6.572,-0.04403
6.576,-0.01376
6.58,-0.05622
6.584,-0.03408
6.588,-0.03631
6.592,-0.00875
6.596,-0.02396
6.6,-0.04471
6.604,-0.03548
6.608,-0.02494
6.612,-0.01782
6.616,-0.02137
6.62,-0.02747
6.624,-0.01658
6.628,-0.01816
6.632,-0.03977
6.636,-0.00818
6.64,-0.02701
6.644,0.01236
6.648,-0.04477
6.652,-0.03878
6.656,-0.03075
6.66,-0.03319
6.664,-0.00554
6.668,-0.01673
6.672,-0.01254
6.676,-0.01337
6.68,-0.01755
6.684,-0.02864
6.688,-0.05267
6.692,-0.01751
6.696,-0.00109
6.7,-0.04065
6.704,-0.00189
6.708,-0.03308
6.712,-0.00641
6.716,-0.02568
6.72,-0.02383
6.724,-0.01532
6.728,-0.0284
6.732,-0.04673
6.736,-0.02643
6.74,-0.03575
6.744,-0.04795
6.748,-0.00888
6.752,-0.02803
6.756,-0.04692
6.76,-0.00824
6.764,-0.02693
6.768,-0.02367
6.772,-0.03608
6.776,-0.01824
6.78,-0.01245
6.784,-0.04135
6.788,-0.02254
6.792,-0.05262
6.796,-0.00827
6.8,-0.03141
6.804,-0.04286
6.808,-0.01782
6.812,-0.01149
6.816,-0.01338
6.82,-0.04564
6.824,-0.04732
6.828,-0.02498
6.832,-0.02577
6.836,-0.03463
6.84,-0.00711
6.844,-0.04486
6.848,-0.0042
6.852,-0.02123
6.856,-0.02708
6.86,-0.01681
6.864,-0.00345
6.868,-0.01561
6.872,-0.0404
6.876,-0.03745
6.88,-0.02875
6.884,-0.01833
6.888,-0.02001
6.892,-0.02671
6.896,-0.03714
6.9,-0.02157
6.904,-0.00201
6.908,0.00266
6.912,0.00831
6.916,-0.00956
6.92,0.03413
6.924,0.03816
6.928,0.03849
6.932,0.06609
6.936,0.06976
6.94,0.10981
6.944,0.05459
6.948,0.07236
6.952,0.06322
6.956,0.02367
6.96,0.01325
6.964,0.03668
6.968,0.00114
6.972,0.00613
6.976,-0.01967
6.98,-0.0179
6.984,-0.00943
6.988,-0.02887
6.992,-0.01452
6.996,-0.01935
7.0,-0.00298
7.004,-0.02705
7.008,-0.06166
7.012,-0.01735
7.016,-0.01172
7.02,-0.02386
7.024,-0.03563
7.028,-0.01207
7.032,-0.02226
7.036,-0.04134
7.04,-0.01525
7.044,-0.02666
7.048,-0.02225
7.052,-0.06364
7.056,-0.08223
7.06,-0.10972
7.064,-0.14293
7.068,-0.13654
7.072,-0.07924
7.076,0.12234
7.08,0.31874
7.084,0.51369
7.088,0.74039
7.092,0.87725
7.096,0.93829
7.1,0.95249
7.104,0.81343
7.108,0.57506
7.112,0.35675
7.116,0.13644
7.12,-0.03556
7.124,-0.13515
7.128,-0.18302
7.132,-0.19276
7.136,-0.19436
7.14,-0.10869
7.144,-0.0953
7.148,-0.0457
7.152,-0.05907
7.156,-0.00335
7.16,-0.02419
7.164,-0.04023
7.168,-0.0343
7.172,-0.02667
7.176,-0.03739
7.18,-0.03114
7.184,-0.04882
7.188,-0.04875
7.192,-0.02585
7.196,-0.02537
7.2,-0.02207
7.204,-0.02548
7.208,-0.00598
7.212,-0.02152
7.216,-0.00725
7.22,-0.03142
7.224,-0.02832
7.228,-0.0359
7.232,-0.02767
7.236,0.0157
7.24,-0.04852
7.244,-0.02326
7.248,-0.01699
7.252,-0.01958
7.256,-0.03067
7.26,-0.02937
7.264,-0.02756
7.268,0.0064
7.272,-0.02407
7.276,0.02526
7.28,-0.01967
7.284,0.00537
7.288,-0.00998
7.292,0.00265
7.296,0.02487
7.3,0.05907
7.304,0.01851
7.308,0.02222
7.312,0.04055
7.316,0.05449
7.32,0.07554
7.324,0.06888
7.328,0.07728
7.332,0.11475
7.336,0.1204
7.34,0.14754
7.344,0.12954
7.348,0.17196
7.352,0.16187
7.356,0.14763
7.36,0.19464
7.364,0.17875
7.368,0.19304
7.372,0.18704
7.376,0.1919
7.38,0.1889
7.384,0.19648
7.388,0.18761
7.392,0.1833
7.396,0.1965
7.4,0.18134
7.404,0.16275
7.408,0.14341
7.412,0.15125
7.416,0.12819
7.42,0.09804
7.424,0.13249
7.428,0.08433
7.432,0.0785
7.436,0.06668
7.44,0.08742
7.444,0.05081
7.448,0.04614
7.452,0.03765
7.456,0.02398
7.46,0.02172
7.464,0.00324
7.468,0.02666
7.472,0.02854
7.476,-0.00293
7.48,0.01397
7.484,0.01098
7.488,-0.01522
7.492,-0.00763
7.496,-0.02189
7.5,-0.01853
7.504,-0.03458
7.508,-0.03705
7.512,-0.0484
7.516,-0.03395
7.52,-0.02715
7.524,-0.02295
7.528,-0.02187
7.532,-0.02165
7.536,-0.01996
7.54,-0.01216
7.544,-0.04467
7.548,-0.03802
7.552,-0.03268
7.556,-0.04392
7.56,-0.0265
7.564,-0.03133
7.568,-0.02235
7.572,-0.02024
7.576,-0.03828
7.58,-0.02462
7.584,-0.00484
7.588,-0.02001
7.592,-0.03578
7.596,-0.0469
7.6,-0.0428
7.604,-0.0127
7.608,-0.02533
7.612,-0.0505
7.616,-0.03782
7.62,-0.03465
7.624,-0.00251
7.628,-0.02618
7.632,0.01501
7.636,-0.02291
7.64,-0.04439
7.644,-0.0459
7.648,-0.03421
7.652,-0.0264
7.656,-0.03807
7.66,-0.01958
7.664,-0.01388
7.668,-0.03795
7.672,-0.02705
7.676,-0.01388
7.68,-0.02516
7.684,-0.06376
7.688,-0.04566
7.692,-0.01912
7.696,-0.01979
7.7,-0.02942
7.704,-0.00557
7.708,-0.06154
7.712,-0.04339
7.716,-0.03251
7.72,-0.02332
7.724,-0.02229
7.728,-0.02592
7.732,-0.0418
7.736,-0.03268
7.74,-0.05015
7.744,-0.01106
7.748,0.02993
7.752,-0.00625
7.756,-0.00888
7.76,0.00272
7.764,0.01062
7.768,0.00727
7.772,0.02019
7.776,0.04449
7.78,0.04342
7.784,0.07373
7.788,0.07597
7.792,0.08552
7.796,0.05171
7.8,0.11459
7.804,0.06728
7.808,0.04937
7.812,0.06359
7.816,0.06875
7.82,0.03392
7.824,0.00909
7.828,0.01813
7.832,0.00976
7.836,0.00384
7.84,-0.01903
7.844,-0.01521
7.848,-0.01835
7.852,-0.04028
7.856,-0.02675
7.86,-0.00601
7.864,-0.02805
7.868,-0.0312
7.872,-0.00185
7.876,-0.02924
7.88,-0.00467
7.884,0.00462
7.888,-0.00637
7.892,-0.01237
7.896,0.02765
7.9,-0.02278
7.904,0.02102
7.908,-0.00185
7.912,-0.01663
7.916,-0.05852
7.92,-0.09774
7.924,-0.10353
7.928,-0.13792
7.932,-0.06007
7.936,0.0666
7.94,0.23187
7.944,0.41791
7.948,0.63141
7.952,0.8236
7.956,0.93493
7.96,0.98824
7.964,0.88732
7.968,0.72077
7.972,0.5107
7.976,0.23932
7.98,0.07835
7.984,-0.08796
7.988,-0.1763
7.992,-0.19187
7.996,-0.16985
8.0,-0.11413
8.004,-0.0879
8.008,-0.00292
8.012,-0.0298
8.016,-0.01275
8.02,-0.02835
8.024,0.01627
8.028,-0.03019
8.032,-0.02291
8.036,-0.02736
8.04,0.01916
8.044,-0.00711
8.048,-0.04622
8.052,-0.02149
8.056,-0.01404
8.06,-0.0057
8.064,-0.01094
8.068,-0.01351
8.072,-0.01446
8.076,0.00865
8.08,-0.01028
8.084,-0.01484
8.088,-0.01437
8.092,0.00638
8.096,-0.04264
8.1,-0.02474
8.104,0.00509
8.108,-0.02561
8.112,0.00576
8.116,-0.00519
8.12,-0.00889
8.124,-0.01312
8.128,-0.01699
8.132,-0.00878
8.136,0.00746
8.14,0.02105
8.144,0.0035
8.148,0.00194
8.152,-0.00258
8.156,0.06239
8.16,0.04923
8.164,0.05224
8.168,0.05637
8.172,0.04541
8.176,0.05369
8.18,0.09488
8.184,0.10704
8.188,0.11522
8.192,0.10678
8.196,0.14359
8.2,0.13889
8.204,0.16171
8.208,0.17027
8.212,0.16115
8.216,0.22074
8.22,0.20826
8.224,0.20437
8.228,0.18287
8.232,0.19973
8.236,0.20746
8.24,0.2163
8.244,0.1952
8.248,0.22359
8.252,0.1855
8.256,0.19389
8.26,0.18652
8.264,0.16343
8.268,0.15535
8.272,0.17047
8.276,0.14005
8.28,0.11605
8.284,0.1317
8.288,0.12172
8.292,0.10109
8.296,0.11004
8.3,0.07038
8.304,0.04359
8.308,0.05374
8.312,0.04466
8.316,0.02813
8.32,0.04366
8.324,0.01924
8.328,0.01418
8.332,0.02686
8.336,0.00886
8.34,0.0074
8.344,0.03218
8.348,0.01098
8.352,-0.0044
8.356,0.03465
8.36,0.00442
8.364,0.02896
8.368,-0.00521
8.372,0.01774
8.376,0.02678
8.38,0.00601
8.384,0.00721
8.388,0.01796
8.392,-0.02266
8.396,-0.00333
8.4,0.00899
8.404,-0.00536
8.408,-0.00132
8.412,0.0095
8.416,0.02217
8.42,0.01246
8.424,0.00258
8.428,-0.0052
8.432,0.00464
8.436,0.00967
8.44,0.01006
8.444,0.02209
8.448,0.00939
8.452,0.00612
8.456,-0.00487
8.46,-0.00132
8.464,0.03107
8.468,0.01469
8.472,-0.02306
8.476,0.01163
8.48,-0.00398
8.484,0.01196
8.488,-0.00939
8.492,-0.01933
8.496,-0.00345
8.5,-0.01711
8.504,0.00711
8.508,-0.00042
8.512,-0.01916
8.516,-0.01598
8.52,-0.01935
8.524,0.02164
8.528,0.0062
8.532,0.00875
8.536,-0.00404
8.54,0.00774
8.544,-0.01911
8.548,-0.00627
8.552,0.01164
8.556,0.00506
8.56,1e-05
8.564,0.02293
8.568,-0.00807
8.572,0.00246
8.576,-0.00706
8.58,0.02701
8.584,-0.00522
8.588,-0.02626
8.592,0.01447
8.596,0.0175
8.6,0.00105
8.604,-0.03806
8.608,-0.0122
8.612,0.00595
8.616,-0.03037
8.62,0.00617
8.624,0.01509
8.628,-0.00847
8.632,0.01922
8.636,0.00856
8.64,0.01578
8.644,-0.00369
8.648,-0.0028
8.652,0.00817
8.656,-0.0104
8.66,-0.00605
8.664,0.00477
8.668,-0.02661
8.672,-0.0049
8.676,0.02852
8.68,0.02225
8.684,-0.01349
8.688,-0.01086
8.692,0.00551
8.696,-0.01238
8.7,-0.01241
8.704,0.02345
8.708,-0.01467
8.712,0.02899
8.716,0.00374
8.72,0.00289
8.724,0.00251
8.728,-0.00471
8.732,0.00198
8.736,0.02755
8.74,0.01845
8.744,0.00313
8.748,0.02053
8.752,0.00035
8.756,-0.00859
8.76,-0.02259
8.764,-0.01123
8.768,-0.0203
8.772,0.02184
8.776,-0.00126
8.78,-0.00264
8.784,0.01861
8.788,0.01542
8.792,0.02581
8.796,0.02866
8.8,0.04282
8.804,0.07941
8.808,0.04536
8.812,0.05395
8.816,0.06245
8.82,0.11499
8.824,0.07132
8.828,0.10328
8.832,0.11335
8.836,0.10632
8.84,0.08179
8.844,0.09465
8.848,0.08435
8.852,0.06096
8.856,0.06567
8.86,0.07183
8.864,0.0522
8.868,0.0435
8.872,0.03726
8.876,0.02537
8.88,0.02165
8.884,0.00079
8.888,0.04254
8.892,0.01426
8.896,0.01771
8.9,0.01142
8.904,0.03983
8.908,-0.02076
8.912,0.02201
8.916,0.01043
8.92,-0.00773
8.924,0.02905
8.928,0.00529
8.932,-0.0167
8.936,0.00468
8.94,-0.00248
8.944,0.00862
8.948,0.0026
8.952,-0.03968
8.956,-0.09083
8.96,-0.09127
8.964,-0.09028
8.968,0.01245
8.972,0.17424
8.976,0.37061
8.98,0.60277
8.984,0.81567
8.988,0.95502
8.992,1.03469
8.996,0.94622
9.0,0.829
9.004,0.6038
9.008,0.38817
9.012,0.15336
9.016,0.02753
9.02,-0.1159
9.024,-0.13326
9.028,-0.13183
9.032,-0.09924
9.036,-0.05985
9.04,-0.03654
9.044,-0.01468
9.048,0.00532
9.052,-0.01284
9.056,0.00534
9.06,0.02788
9.064,0.02319
9.068,0.02946
9.072,0.00154
9.076,0.0173
9.08,0.02463
9.084,0.0111
9.088,0.04225
9.092,-0.01684
9.096,0.01268
9.1,0.00767
9.104,0.02241
9.108,0.02387
9.112,0.00144
9.116,0.02428
9.12,0.01214
9.124,0.03394
9.128,0.02685
9.132,0.01845
9.136,0.02078
9.14,0.04672
9.144,0.04657
9.148,0.01533
9.152,0.00937
9.156,0.01379
9.16,0.04113
9.164,0.00555
9.168,0.0429
9.172,0.05804
9.176,0.043
9.18,0.01775
9.184,0.06082
9.188,0.03909
9.192,0.06112
9.196,0.06413
9.2,0.08559
9.204,0.08154
9.208,0.08371
9.212,0.12422
9.216,0.12783
9.22,0.11472
9.224,0.12599
9.228,0.14957
9.232,0.17197
9.236,0.16842
9.24,0.16304
9.244,0.18219
9.248,0.19999
9.252,0.20212
9.256,0.206
9.26,0.21501
9.264,0.21851
9.268,0.22025
9.272,0.23087
9.276,0.21403
9.28,0.25017
9.284,0.21107
9.288,0.21549
9.292,0.23871
9.296,0.20917
9.3,0.2168
9.304,0.20599
9.308,0.19639
9.312,0.15511
9.316,0.17933
9.32,0.14014
9.324,0.15161
9.328,0.1669
9.332,0.10483
9.336,0.1237
9.34,0.09118
9.344,0.08299
9.348,0.10494
9.352,0.06649
9.356,0.05875
9.36,0.04834
9.364,0.0716
9.368,0.02234
9.372,0.05484
9.376,0.04007
9.38,0.04247
9.384,0.04908
9.388,0.05038
9.392,0.04499
9.396,0.04026
9.4,0.02347
9.404,0.0175
9.408,0.00809
9.412,0.00054
9.416,0.01041
9.42,0.0341
9.424,0.00109
9.428,0.0395
9.432,0.04272
9.436,0.04024
9.44,0.0268
9.444,0.01983
9.448,0.01172
9.452,0.004
9.456,0.03663
9.46,0.0083
9.464,0.0034
9.468,0.03912
9.472,0.03237
9.476,0.02178
9.48,0.04207
9.484,0.03782
9.488,0.02979
9.492,0.03393
9.496,0.0503
9.5,0.07776
9.504,0.06072
9.508,0.08735
9.512,0.0569
9.516,0.07866
9.52,0.09758
9.524,0.12128
9.528,0.1101
9.532,0.11871
9.536,0.11638
9.54,0.139
9.544,0.15513
9.548,0.08677
9.552,0.11831
9.556,0.10677
9.56,0.07295
9.564,0.0821
9.568,0.05908
9.572,0.04405
9.576,0.05199
9.58,0.02315
9.584,0.05112
9.588,0.03548
9.592,0.04668
9.596,0.03355
9.6,0.05446
9.604,0.04783
9.608,0.01757
9.612,0.03587
9.616,0.01763
9.62,0.03034
9.624,0.02514
9.628,0.02379
9.632,0.01848
9.636,0.0484
9.64,0.01007
9.644,0.03613
9.648,0.04032
9.652,0.00626
9.656,-0.0032
9.66,-0.057
9.664,-0.07108
9.668,-0.08954
9.672,-0.00837
9.676,0.1246
9.68,0.35118
9.684,0.51124
9.688,0.71982
9.692,0.91171
9.696,1.02812
9.7,0.99974
9.704,0.91243
9.708,0.69584
9.712,0.4409
9.716,0.2243
9.72,0.04199
9.724,-0.0504
9.728,-0.13032
9.732,-0.12601
9.736,-0.11721
9.74,-0.07856
9.744,-0.05547
9.748,-0.00303
9.752,0.0144
9.756,0.00365
9.76,0.03041
9.764,0.03542
9.768,0.00348
9.772,0.03508
9.776,0.04475
9.78,0.02214
9.784,0.02754
9.788,0.02135
9.792,0.02242
9.796,0.02046
9.8,0.03217
9.804,0.04953
9.808,0.03658
9.812,0.02756
9.816,0.03679
9.82,0.03715
9.824,0.02992
9.828,0.01953
9.832,0.01807
9.836,0.02943
9.84,0.04176
9.844,0.04305
9.848,0.01253
9.852,0.04855
9.856,0.02954
9.86,0.03991
9.864,0.04138
9.868,0.03161
9.872,0.03517
9.876,0.01775
9.88,0.04991
9.884,0.07653
9.888,0.07095
9.892,0.07167
9.896,0.07632
9.9,0.05268
9.904,0.0952
9.908,0.09052
9.912,0.12554
9.916,0.12824
9.92,0.11754
9.924,0.13957
9.928,0.13717
9.932,0.17904
9.936,0.18608
9.94,0.1841
9.944,0.21108
9.948,0.21331
9.952,0.19723
9.956,0.25245
9.96,0.23869
9.964,0.22515
9.968,0.26734
9.972,0.23792
9.976,0.23605
9.98,0.25237
9.984,0.26003
9.988,0.23979
9.992,0.22673
9.996,0.23178
