t_seg,ecg_mV
0.0,-0.03775
0.004,-0.01719
0.008,-0.05274
0.012,-0.04206
0.016,-0.01874
0.02,-0.04324
0.024,-0.0625
0.028,-0.03055
0.032,-0.01541
0.036,-0.03114
0.04,-0.01334
0.044,-0.0381
0.048,-0.05406
0.052,-0.03898
0.056,-0.02967
0.06,-0.03452
0.064,-0.03349
0.068,-0.02748
0.072,-0.0173
0.076,-0.04341
0.08,-0.03038
0.084,-0.03664
0.088,-0.02939
0.092,-0.0268
0.096,-0.02043
0.1,-0.042
0.104,-0.04362
0.108,-0.03756
0.112,-0.02786
0.116,-0.0351
0.12,-0.03722
0.124,-0.00399
0.128,-0.05034
0.132,-0.00989
0.136,-0.03019
0.14,-0.03375
0.144,-0.02871
0.148,0.00332
0.152,-0.05035
0.156,-0.03288
0.16,-0.03458
0.164,-0.02439
0.168,-0.06541
0.172,-0.01447
0.176,-0.04544
0.18,-0.00237
0.184,-0.03572
0.188,-0.03409
0.192,-0.04506
0.196,-0.03318
0.2,-0.01012
0.204,-0.02153
0.208,-0.02907
0.212,-0.04611
0.216,-0.05605
0.22,-0.01609
0.224,0.00964
0.228,-0.02361
0.232,-0.00791
0.236,-0.03266
0.24,-0.02107
0.244,-0.04558
0.248,-0.0161
0.252,-0.05745
0.256,-0.03567
0.26,-0.01962
0.264,-0.02392
0.268,-0.03151
0.272,-0.0037
0.276,-0.04191
0.28,-0.01918
0.284,-0.01603
0.288,-0.00796
0.292,0.00852
0.296,-0.01529
0.3,-0.02753
0.304,-0.03514
0.308,-0.035
0.312,-0.01685
0.316,-0.03501
0.32,-0.02709
0.324,-0.02668
0.328,-0.01115
0.332,-0.02931
0.336,-0.0445
0.34,-0.02083
0.344,-0.05224
0.348,-0.0311
0.352,-0.02818
0.356,-0.00805
0.36,-0.01977
0.364,-0.04457
0.368,-0.01931
0.372,-0.04324
0.376,-0.01724
0.38,-0.02904
0.384,-0.02908
0.388,-0.00665
0.392,-0.03456
0.396,-0.02091
0.4,-0.04276
0.404,-0.05024
0.408,-0.01392
0.412,-0.02587
0.416,-0.01626
0.42,-0.04387
0.424,-0.04968
0.428,0.0122
0.432,-0.01608
0.436,-0.01339
0.44,0.00828
0.444,0.00723
0.448,-0.00903
0.452,0.018
0.456,0.03628
0.46,0.06034
0.464,0.07464
0.468,0.06123
0.472,0.06304
0.476,0.05325
0.48,0.06156
0.484,0.03051
0.488,0.03968
0.492,0.04134
0.496,0.00439
0.5,0.02023
0.504,-0.01358
0.508,0.00393
0.512,0.00074
0.516,-0.02573
0.52,-0.01481
0.524,-0.01793
0.528,-0.02286
0.532,-0.03488
0.536,-0.03533
0.54,-0.04746
0.544,-0.02622
0.548,-0.02975
0.552,-0.02299
0.556,0.01041
0.56,-0.053
0.564,-0.02936
0.568,-0.0259
0.572,-0.04837
0.576,-0.01963
0.58,-0.0319
0.584,0.00912
0.588,-0.05665
0.592,-0.09872
0.596,-0.13474
0.6,-0.15845
0.604,-0.13556
0.608,-0.02692
0.612,0.12911
0.616,0.31814
0.62,0.5256
0.624,0.74317
0.628,0.8869
0.632,0.96124
0.636,0.94858
0.64,0.79901
0.644,0.59074
0.648,0.35587
0.652,0.15625
0.656,-0.0461
0.66,-0.13145
0.664,-0.21619
0.668,-0.18199
0.672,-0.15337
0.676,-0.11011
0.68,-0.08851
0.684,-0.05593
0.688,-0.03185
0.692,-0.01651
0.696,-0.03419
0.7,-0.03151
0.704,-0.02234
0.708,-0.02409
0.712,-0.04514
0.716,-0.03495
0.72,-0.01342
0.724,-0.01465
0.728,-0.06323
0.732,-0.0163
0.736,-0.00835
0.74,-0.01486
0.744,-0.02975
0.748,-0.03031
0.752,-0.01079
0.756,-0.02088
0.76,-0.00022
0.764,-0.04124
0.768,-0.00669
0.772,-0.02816
0.776,-0.02284
0.78,-0.04019
0.784,-0.02742
0.788,-0.00686
0.792,-0.03153
0.796,-0.02009
0.8,-0.00403
0.804,-0.01219
0.808,-0.01981
0.812,-0.02838
0.816,-0.01098
0.82,-0.00573
0.824,0.00363
0.828,0.02588
0.832,0.0167
0.836,0.01345
0.84,0.04031
0.844,0.03827
0.848,0.06318
0.852,0.06222
0.856,0.0666
0.86,0.09831
0.864,0.09257
0.868,0.08268
0.872,0.10352
0.876,0.12726
0.88,0.12334
0.884,0.16737
0.888,0.17474
0.892,0.18915
0.896,0.16901
0.9,0.1847
0.904,0.21397
0.908,0.18852
0.912,0.19906
0.916,0.20692
0.92,0.18817
0.924,0.17977
0.928,0.19419
0.932,0.17742
0.936,0.17613
0.94,0.1715
0.944,0.12254
0.948,0.13605
0.952,0.12289
0.956,0.12277
0.96,0.09499
0.964,0.08508
0.968,0.05513
0.972,0.08359
0.976,0.05192
0.98,0.04685
0.984,0.03205
0.988,0.02783
0.992,0.02207
0.996,0.0313
1.0,-0.01543
1.004,0.02432
1.008,-0.02301
1.012,-0.00011
1.016,-0.00983
1.02,-0.02732
1.024,-0.00409
1.028,-0.03065
1.032,0.01241
1.036,-0.00828
1.04,-0.01459
1.044,-0.03962
1.048,-0.0313
1.052,-0.02001
1.056,-0.02167
1.06,-0.02024
1.064,-0.00288
1.068,-0.01726
1.072,-0.03324
1.076,-0.01099
1.08,-0.00476
1.084,-0.03528
1.088,-0.03977
1.092,-0.00474
1.096,-0.02292
1.1,0.01965
1.104,-0.02941
1.108,-0.01869
1.112,-0.01895
1.116,-0.0006
1.12,0.01703
1.124,-0.03462
1.128,-0.01286
1.132,-0.01557
1.136,-0.02343
1.14,-0.01818
1.144,0.00363
1.148,-0.01565
1.152,-0.036
1.156,-0.01718
1.16,-0.02021
1.164,-0.02675
1.168,-0.0222
1.172,-0.04179
1.176,-0.01368
1.18,-0.01197
1.184,-0.03096
1.188,-0.03532
1.192,-0.03302
1.196,0.0126
1.2,-0.01421
1.204,-0.01399
1.208,0.01396
1.212,-0.02472
1.216,-0.02601
1.22,-0.02135
1.224,-0.01496
1.228,-0.00794
1.232,-0.03454
1.236,-0.02177
1.24,-0.02654
1.244,-0.00789
1.248,-0.00714
1.252,-0.0174
1.256,-0.03042
1.26,-0.00591
1.264,-0.00304
1.268,-0.03941
1.272,-0.02812
1.276,-0.00681
1.28,-0.04028
1.284,-0.00158
1.288,-0.03772
1.292,-0.00899
1.296,-0.0373
1.3,-0.02679
1.304,-0.01564
1.308,-0.03173
1.312,-0.01226
1.316,-0.03993
1.32,-0.03448
1.324,-0.03237
1.328,-0.02482
1.332,-0.0128
1.336,-0.00791
1.34,-0.00518
1.344,-0.01273
1.348,0.01767
1.352,-0.0263
1.356,0.00466
1.36,0.00233
1.364,0.01509
1.368,-0.0123
1.372,-0.00025
1.376,0.03604
1.38,0.03518
1.384,0.01786
1.388,0.04108
1.392,0.0785
1.396,0.05371
1.4,0.07991
1.404,0.07628
1.408,0.07454
1.412,0.06224
1.416,0.07383
1.42,0.05744
1.424,0.0561
1.428,0.02887
1.432,0.02737
1.436,-0.00189
1.44,-0.02005
1.444,-0.01017
1.448,0.01297
1.452,-0.01062
1.456,-0.0076
1.46,0.00012
1.464,-0.02754
1.468,-0.01713
1.472,-0.00981
1.476,-0.0201
1.48,-0.00466
1.484,-0.01818
1.488,-0.03049
1.492,-0.01623
1.496,-0.01377
1.5,0.01898
1.504,-0.0445
1.508,-0.0128
1.512,0.00262
1.516,-0.04072
1.52,-0.04332
1.524,-0.07681
1.528,-0.09208
1.532,-0.11473
1.536,-0.09276
1.54,0.02122
1.544,0.19024
1.548,0.37322
1.552,0.62044
1.556,0.81443
1.56,0.9159
1.564,0.98765
1.568,0.89593
1.572,0.76211
1.576,0.51326
1.58,0.28414
1.584,0.1088
1.588,-0.06152
1.592,-0.13093
1.596,-0.15852
1.6,-0.17718
1.604,-0.14335
1.608,-0.0938
1.612,-0.06625
1.616,-0.03655
1.62,-0.00561
1.624,-0.01617
1.628,-0.01395
1.632,-0.00939
1.636,-0.00567
1.64,-0.00918
1.644,-0.00587
1.648,0.00939
1.652,0.01634
1.656,-0.00732
1.66,-0.01371
1.664,-0.04217
1.668,-0.00702
1.672,0.01452
1.676,-0.006
1.68,0.00263
1.684,-0.00073
1.688,-0.01586
1.692,-0.00938
1.696,-0.04111
1.7,0.03033
1.704,0.01054
1.708,0.01344
1.712,-0.00559
1.716,0.00123
1.72,0.0016
1.724,-0.00982
1.728,0.01427
1.732,-0.00388
1.736,0.04199
1.74,0.00477
1.744,0.02972
1.748,0.00712
1.752,-0.00246
1.756,0.00267
1.76,0.04215
1.764,0.03604
1.768,0.09164
1.772,0.04649
1.776,0.06893
1.78,0.1022
1.784,0.07829
1.788,0.10233
1.792,0.1012
1.796,0.12208
1.8,0.13538
1.804,0.12496
1.808,0.14367
1.812,0.17938
1.816,0.16991
1.82,0.16399
1.824,0.18077
1.828,0.19218
1.832,0.20836
1.836,0.21215
1.84,0.24161
1.844,0.2192
1.848,0.212
1.852,0.22583
1.856,0.19013
1.86,0.19755
1.864,0.21259
1.868,0.19537
1.872,0.18481
1.876,0.15608
1.88,0.15488
1.884,0.15309
1.888,0.13195
1.892,0.09185
1.896,0.10951
1.9,0.09846
1.904,0.10327
1.908,0.09426
1.912,0.07958
1.916,0.0452
1.92,0.05073
1.924,0.03781
1.928,0.0409
1.932,0.01642
1.936,-0.00755
1.94,0.04159
1.944,-0.00415
1.948,0.01809
1.952,0.01148
1.956,0.01804
1.96,-0.01296
1.964,0.02341
1.968,-0.01093
1.972,0.01989
1.976,-5e-05
1.98,-0.01378
1.984,-0.00407
1.988,0.03873
1.992,-0.01153
1.996,-0.012
2.0,-0.02606
2.004,-0.00514
2.008,-0.02027
2.012,-0.00688
2.016,0.01525
2.02,-0.01024
2.024,-0.00846
2.028,-0.00646
2.032,-0.00073
2.036,-0.02705
2.04,-0.04081
2.044,0.03326
2.048,-0.01529
2.052,-0.0159
2.056,-0.00844
2.06,0.00181
2.064,0.02742
2.068,0.00135
2.072,-0.03714
2.076,0.00996
2.08,-0.03946
2.084,-0.02347
2.088,0.00276
2.092,0.03509
2.096,0.00641
2.1,0.00118
2.104,0.00531
2.108,0.03486
2.112,0.01417
2.116,0.02241
2.12,0.00767
2.124,-0.0145
2.128,0.00463
2.132,0.01869
2.136,0.04218
2.14,0.0076
2.144,-0.00775
2.148,-0.02497
2.152,0.0182
2.156,0.02267
2.16,0.00442
2.164,-0.01407
2.168,-0.02588
2.172,0.00674
2.176,0.00657
2.18,0.00315
2.184,0.01633
2.188,-0.00557
2.192,0.01906
2.196,0.01393
2.2,0.01042
2.204,0.00232
2.208,0.00651
2.212,0.00057
2.216,0.01398
2.22,-0.00482
2.224,0.00081
2.228,-0.01904
2.232,0.00637
2.236,-0.01366
2.24,0.01575
2.244,0.00231
2.248,0.02542
2.252,0.02611
2.256,-0.00426
2.26,0.00781
2.264,-0.01534
2.268,-0.01066
2.272,0.00467
2.276,0.02686
2.28,-0.00281
2.284,0.03028
2.288,0.03974
2.292,0.00379
2.296,0.02096
2.3,0.01926
2.304,0.00612
2.308,-0.00198
2.312,-0.00177
2.316,-0.01125
2.32,-0.00561
2.324,0.0142
2.328,-0.00526
2.332,0.04639
2.336,0.00025
2.34,0.00855
2.344,0.00205
2.348,0.00957
2.352,0.02338
2.356,-0.00903
2.36,0.02912
2.364,0.00202
2.368,0.0188
2.372,0.01107
2.376,0.01035
2.38,0.02677
2.384,0.01804
2.388,0.01446
2.392,0.00607
2.396,0.03522
2.4,0.06732
2.404,0.04817
2.408,0.06004
2.412,0.08002
2.416,0.07934
2.42,0.11228
2.424,0.09155
2.428,0.12803
2.432,0.12249
2.436,0.15
2.44,0.11362
2.444,0.09004
2.448,0.09174
2.452,0.06089
2.456,0.06332
2.46,0.05035
2.464,0.02186
2.468,0.05851
2.472,0.06086
2.476,0.02727
2.48,0.01734
2.484,0.01733
2.488,0.01789
2.492,0.01215
2.496,0.031
2.5,0.03267
2.504,0.03439
2.508,0.02842
2.512,0.03123
2.516,-0.00796
2.52,0.00471
2.524,0.0206
2.528,0.01134
2.532,0.03656
2.536,-0.01885
2.54,0.00585
2.544,0.01214
2.548,-0.01534
2.552,-0.01941
2.556,-0.07863
2.56,-0.11019
2.564,-0.08433
2.568,-0.03745
2.572,0.11455
2.576,0.27598
2.58,0.44846
2.584,0.6842
2.588,0.86478
2.592,1.00328
2.596,1.00197
2.6,0.92324
2.604,0.71142
2.608,0.47044
2.612,0.25436
2.616,0.09582
2.62,-0.0389
2.624,-0.12604
2.628,-0.14081
2.632,-0.12782
2.636,-0.08489
2.64,-0.05142
2.644,0.00813
2.648,0.0004
2.652,0.01867
2.656,0.00335
2.66,0.01
2.664,0.01892
2.668,0.00785
2.672,0.01143
2.676,-0.01061
2.68,0.02383
2.684,0.02561
2.688,0.01474
2.692,0.00388
2.696,0.03039
2.7,0.01922
2.704,0.03132
2.708,0.00946
2.712,0.00716
2.716,0.03508
2.72,-0.00641
2.724,0.02521
2.728,0.00747
2.732,0.06016
2.736,0.04949
2.74,0.02265
2.744,0.04149
2.748,0.02246
2.752,0.02356
2.756,0.01619
2.76,0.01264
2.764,-0.00094
2.768,0.01563
2.772,0.02789
2.776,0.06103
2.78,0.04727
2.784,0.04062
2.788,0.03713
2.792,0.05072
2.796,0.10286
2.8,0.06023
2.804,0.10332
2.808,0.07154
2.812,0.0878
2.816,0.09382
2.82,0.11203
2.824,0.16127
2.828,0.15373
2.832,0.18266
2.836,0.15659
2.84,0.18377
2.844,0.18865
2.848,0.21381
2.852,0.21133
2.856,0.2051
2.86,0.23169
2.864,0.2323
2.868,0.26454
2.872,0.26187
2.876,0.23345
2.88,0.23862
2.884,0.26339
2.888,0.24587
2.892,0.21653
2.896,0.23645
2.9,0.19309
2.904,0.17379
2.908,0.1929
2.912,0.15603
2.916,0.14684
2.92,0.16777
2.924,0.11832
2.928,0.12274
2.932,0.12895
2.936,0.14384
2.94,0.10713
2.944,0.08107
2.948,0.06861
2.952,0.07195
2.956,0.07538
2.96,0.06728
2.964,0.0632
2.968,0.07401
2.972,0.05674
2.976,0.02879
2.98,0.05748
2.984,0.03654
2.988,0.04979
2.992,0.03374
2.996,0.04154
3.0,0.00505
3.004,0.03402
3.008,0.02981
3.012,0.03301
3.016,0.02765
3.02,0.03962
3.024,0.01813
3.028,0.01252
3.032,0.04054
3.036,0.04665
3.04,0.02234
3.044,0.01534
3.048,0.04524
3.052,0.03602
3.056,0.00917
3.06,0.006
3.064,0.02498
3.068,0.00989
3.072,0.00838
3.076,0.01033
3.08,0.02842
3.084,-0.00789
3.088,0.03544
3.092,0.03355
3.096,-0.00148
3.1,0.04728
3.104,0.03802
3.108,0.05104
3.112,0.00763
3.116,0.0132
3.12,0.01562
3.124,0.03322
3.128,0.02094
3.132,0.01562
3.136,0.02744
3.14,0.02279
3.144,0.0475
3.148,0.0167
3.152,0.03673
3.156,0.02556
3.16,0.02771
3.164,0.03303
3.168,0.05215
3.172,0.03758
3.176,0.03157
3.18,0.02281
3.184,0.0097
3.188,0.0323
3.192,0.00306
3.196,0.01963
3.2,0.00999
3.204,0.03008
3.208,0.03021
3.212,0.03743
3.216,0.038
3.22,0.00837
3.224,0.00708
3.228,0.04345
3.232,0.00089
3.236,0.02459
3.24,0.01802
3.244,0.04485
3.248,0.02423
3.252,0.04672
3.256,0.04126
3.26,0.0314
3.264,0.03376
3.268,0.038
3.272,0.05392
3.276,0.06728
3.28,0.07285
3.284,0.07506
3.288,0.1099
3.292,0.1147
3.296,0.13968
3.3,0.13659
3.304,0.10217
3.308,0.11719
3.312,0.13047
3.316,0.12844
3.32,0.11872
3.324,0.10736
3.328,0.07656
3.332,0.06785
3.336,0.08158
3.34,0.06328
3.344,0.03187
3.348,0.03152
3.352,0.04519
3.356,-0.01357
3.36,0.05769
3.364,0.04204
3.368,0.04177
3.372,0.03411
3.376,0.0293
3.38,0.01403
3.384,0.00917
3.388,0.03726
3.392,0.03847
3.396,0.03806
3.4,0.0336
3.404,0.0544
3.408,0.02944
3.412,0.02378
3.416,0.04943
3.42,-0.01748
3.424,-0.05017
3.428,-0.08695
3.432,-0.08514
3.436,-0.09777
3.44,0.00232
3.444,0.14608
3.448,0.30001
3.452,0.56202
3.456,0.74764
3.46,0.93491
3.464,1.00758
3.468,0.99054
3.472,0.87467
3.476,0.67016
3.48,0.42577
3.484,0.23366
3.488,0.05762
3.492,-0.08015
3.496,-0.16616
3.5,-0.13258
3.504,-0.09829
3.508,-0.0658
3.512,-0.02474
3.516,0.02239
3.52,0.03115
3.524,0.01849
3.528,0.02925
3.532,0.02333
3.536,0.044
3.54,0.00921
3.544,0.05222
3.548,0.02
3.552,0.03968
3.556,0.01402
3.56,0.05602
3.564,0.01244
3.568,0.05052
3.572,0.02267
3.576,0.01105
3.58,0.03021
3.584,0.0306
3.588,0.01617
3.592,0.01268
3.596,0.05278
3.6,0.03585
3.604,0.02401
3.608,0.02726
3.612,0.01777
3.616,0.01222
3.62,0.01034
3.624,0.03532
3.628,0.05995
3.632,0.03979
3.636,0.02592
3.64,0.05222
3.644,0.0518
3.648,0.05237
3.652,0.05305
3.656,0.07512
3.66,0.05925
3.664,0.06267
3.668,0.07857
3.672,0.09053
3.676,0.09472
3.68,0.08346
3.684,0.11989
3.688,0.13921
3.692,0.12854
3.696,0.14113
3.7,0.16575
3.704,0.17458
3.708,0.19572
3.712,0.20604
3.716,0.20837
3.72,0.23472
3.724,0.20415
3.728,0.2574
3.732,0.24096
3.736,0.23158
3.74,0.25695
3.744,0.25828
3.748,0.24257
3.752,0.25377
3.756,0.2614
3.76,0.23281
3.764,0.23756
3.768,0.22375
3.772,0.20454
3.776,0.22193
3.78,0.20642
3.784,0.17734
3.788,0.15209
3.792,0.14524
3.796,0.16185
3.8,0.13895
3.804,0.1219
3.808,0.12582
3.812,0.11027
3.816,0.0731
3.82,0.05678
3.824,0.06026
3.828,0.05916
3.832,0.08007
3.836,0.02981
3.84,0.07622
3.844,0.05424
3.848,0.02218
3.852,0.05101
3.856,0.02927
3.86,0.03719
3.864,0.05208
3.868,0.03143
3.872,0.04957
3.876,0.0443
3.88,0.00397
3.884,0.01368
3.888,0.01757
3.892,0.00551
3.896,0.04231
3.9,0.0351
3.904,0.02256
3.908,0.04081
3.912,0.03392
3.916,0.0534
3.92,0.04032
3.924,0.00584
3.928,0.02981
3.932,0.03781
3.936,0.06186
3.94,0.0066
3.944,0.02561
3.948,0.00343
3.952,0.04957
3.956,0.0238
3.96,0.04173
3.964,0.02793
3.968,0.0309
3.972,0.0166
3.976,0.02183
3.98,0.02782
3.984,0.05337
3.988,0.04431
3.992,0.03196
3.996,-0.01749
4.0,0.00011
4.004,0.02318
4.008,0.02169
4.012,0.02013
4.016,0.00204
4.02,0.03182
4.024,0.03183
4.028,0.022
4.032,0.00686
4.036,0.01661
4.04,0.04457
4.044,0.00793
4.048,0.01611
4.052,0.03996
4.056,0.01372
4.06,0.04601
4.064,0.03653
4.068,0.03678
4.072,0.04022
4.076,0.04817
4.08,0.02348
4.084,0.03602
4.088,0.02888
4.092,0.05307
4.096,0.03284
4.1,0.04058
4.104,0.00314
4.108,-0.00629
4.112,0.04989
4.116,-0.00707
4.12,0.04326
4.124,0.07331
4.128,0.01699
4.132,0.01889
4.136,0.03436
4.14,0.01922
4.144,0.03323
4.148,0.05437
4.152,0.05248
4.156,0.00344
4.16,0.00898
4.164,0.02593
4.168,0.0226
4.172,0.04843
4.176,0.01324
4.18,0.00819
4.184,0.04181
4.188,0.02963
4.192,0.02648
4.196,0.01781
4.2,0.00863
4.204,0.02314
4.208,0.02953
4.212,-0.00499
4.216,0.03075
4.22,0.03539
4.224,0.04478
4.228,0.05663
4.232,0.03749
4.236,0.01766
4.24,0.02634
4.244,0.05604
4.248,0.03087
4.252,-0.00795
4.256,0.03657
4.26,0.03213
4.264,0.03911
4.268,0.01976
4.272,0.0254
4.276,0.03968
4.28,0.02758
4.284,0.01981
4.288,0.03095
4.292,0.00836
4.296,-0.00066
4.3,0.05551
4.304,0.02811
4.308,-0.0105
4.312,0.01251
4.316,0.04545
4.32,0.01126
4.324,0.01806
4.328,0.0188
4.332,0.00908
4.336,0.03169
4.34,0.00833
4.344,0.05597
4.348,-0.00223
4.352,0.00943
4.356,0.02697
4.36,0.03482
4.364,0.02338
4.368,0.04105
4.372,0.00926
4.376,0.02964
4.38,0.00853
4.384,-0.00373
4.388,0.01277
4.392,0.03286
4.396,0.00735
4.4,0.03368
4.404,0.03001
4.408,0.02874
4.412,0.02264
4.416,-0.00737
4.42,0.02965
4.424,0.02257
4.428,0.03443
4.432,0.03478
4.436,0.04607
4.44,0.02754
4.444,0.05463
4.448,0.06048
4.452,0.06576
4.456,0.08181
4.46,0.05391
4.464,0.07575
4.468,0.11389
4.472,0.1394
4.476,0.10616
4.48,0.12198
4.484,0.11493
4.488,0.10049
4.492,0.12727
4.496,0.1128
4.5,0.09046
4.504,0.07195
4.508,0.04021
4.512,0.04836
4.516,0.07974
4.52,0.03426
4.524,0.03563
4.528,0.00325
4.532,0.00308
4.536,0.04002
4.54,-0.00725
4.544,0.01122
4.548,0.02475
4.552,0.01083
4.556,0.02072
4.56,0.00641
4.564,0.03598
4.568,0.01166
4.572,0.01562
4.576,0.02363
4.58,0.01775
4.584,0.01107
4.588,0.00581
4.592,0.01539
4.596,-0.04382
4.6,-0.0276
4.604,-0.08176
4.608,-0.11214
4.612,-0.09256
4.616,-0.02379
4.62,0.13023
4.624,0.28812
4.628,0.50525
4.632,0.73188
4.636,0.91228
4.64,1.00128
4.644,0.95581
4.648,0.85347
4.652,0.68358
4.656,0.46999
4.66,0.19309
4.664,0.04265
4.668,-0.05575
4.672,-0.13963
4.676,-0.17074
4.68,-0.10742
4.684,-0.08132
4.688,-0.03616
4.692,-0.00963
4.696,0.00937
4.7,0.00689
4.704,0.01172
4.708,0.01611
4.712,-0.00724
4.716,0.01349
4.72,-0.01176
4.724,0.02446
4.728,0.00898
4.732,0.03347
4.736,-0.01487
4.74,0.02788
4.744,0.03906
4.748,0.01232
4.752,0.01279
4.756,0.02501
4.76,0.03248
4.764,-0.00195
4.768,0.02222
4.772,0.03429
4.776,0.00452
4.78,-0.00097
4.784,-0.00913
4.788,0.00363
4.792,0.03655
4.796,-0.02399
4.8,0.02986
4.804,0.01781
4.808,0.02296
4.812,0.03758
4.816,0.04071
4.82,0.03194
4.824,0.05567
4.828,0.04072
4.832,0.01955
4.836,0.0358
4.84,0.04649
4.844,0.05004
4.848,0.0784
4.852,0.08517
4.856,0.07163
4.86,0.09527
4.864,0.10827
4.868,0.09894
4.872,0.16828
4.876,0.16994
4.88,0.16551
4.884,0.16148
4.888,0.18294
4.892,0.20455
4.896,0.1941
4.9,0.2161
4.904,0.20508
4.908,0.21226
4.912,0.21267
4.916,0.22616
4.92,0.25061
4.924,0.20839
4.928,0.22685
4.932,0.24411
4.936,0.22325
4.94,0.22113
4.944,0.21089
4.948,0.19533
4.952,0.18189
4.956,0.15862
4.96,0.17834
4.964,0.13654
4.968,0.14945
4.972,0.1201
4.976,0.11763
4.98,0.09304
4.984,0.09589
4.988,0.06706
4.992,0.076
4.996,0.06241
5.0,0.04986
5.004,0.05898
5.008,0.0143
5.012,0.034
5.016,0.04031
5.02,0.05403
5.024,0.0171
5.028,0.00828
5.032,0.0325
5.036,0.02024
5.04,0.01306
5.044,0.01733
5.048,0.03882
5.052,-0.00483
5.056,0.00187
5.06,0.00798
5.064,0.01968
5.068,0.0172
5.072,0.01684
5.076,-0.01408
5.08,0.01708
5.084,0.01674
5.088,-0.01003
5.092,0.00799
5.096,0.02901
5.1,0.01341
5.104,0.026
5.108,-0.00771
5.112,-0.01308
5.116,-0.01439
5.12,0.00604
5.124,0.00057
5.128,-0.00054
5.132,-0.00469
5.136,0.01228
5.14,-0.00841
5.144,-0.00585
5.148,0.00554
5.152,0.0215
5.156,0.00521
5.16,0.02309
5.164,-0.02149
5.168,0.02275
5.172,-0.0017
5.176,-0.01086
5.18,-0.00847
5.184,0.01193
5.188,-0.00301
5.192,-0.01619
5.196,0.02828
5.2,0.01257
5.204,0.0018
5.208,-0.00709
5.212,0.01554
5.216,0.01131
5.22,0.01304
5.224,0.00245
5.228,-0.0263
5.232,-0.01746
5.236,0.01353
5.24,-0.00829
5.244,0.00048
5.248,0.02511
5.252,0.00735
5.256,-0.02256
5.26,-0.02419
5.264,-0.01315
5.268,-0.00464
5.272,-0.00732
5.276,0.01155
5.28,0.00581
5.284,-0.00749
5.288,-0.01101
5.292,-0.01109
5.296,-0.01157
5.3,0.00104
5.304,-0.02354
5.308,0.00431
5.312,-0.00953
5.316,0.0134
5.32,-0.01476
5.324,-0.03921
5.328,-0.00198
5.332,0.02054
5.336,0.01042
5.34,-0.01008
5.344,0.01623
5.348,0.00397
5.352,0.00358
5.356,0.02041
5.36,-0.00947
5.364,-0.02468
5.368,0.03353
5.372,0.00395
5.376,-0.00469
5.38,-0.02976
5.384,0.03212
5.388,0.01366
5.392,-0.00325
5.396,0.00932
5.4,0.00585
5.404,-0.00547
5.408,-0.02869
5.412,0.02522
5.416,-0.00479
5.42,-0.01744
5.424,-0.01207
5.428,0.00609
5.432,-0.00169
5.436,0.00903
5.44,0.00273
5.444,0.02484
5.448,-0.02423
5.452,0.01391
5.456,0.01392
5.46,-0.01304
5.464,0.02363
5.468,0.01661
5.472,0.00984
5.476,-0.02485
5.48,-0.01963
5.484,0.00667
5.488,-0.02267
5.492,-0.00999
5.496,0.03765
5.5,0.01358
5.504,0.00174
5.508,0.00015
5.512,0.01744
5.516,0.01214
5.52,0.02737
5.524,0.04388
5.528,0.03432
5.532,0.04533
5.536,0.05492
5.54,0.04159
5.544,0.10184
5.548,0.06831
5.552,0.0675
5.556,0.09779
5.56,0.06613
5.564,0.07374
5.568,0.0811
5.572,0.05568
5.576,0.03847
5.58,0.06421
5.584,0.02269
5.588,0.03641
5.592,-0.00478
5.596,-0.00918
5.6,-0.01656
5.604,0.00851
5.608,-0.0135
5.612,-0.01478
5.616,-0.01001
5.62,-0.01412
5.624,-0.01688
5.628,0.00689
5.632,0.01934
5.636,-0.0083
5.64,-0.00949
5.644,-0.02037
5.648,-0.0071
5.652,-0.02218
5.656,-0.01824
5.66,-0.00106
5.664,-8e-05
5.668,-0.0502
5.672,-0.03649
5.676,-0.11132
5.68,-0.13701
5.684,-0.10553
5.688,-0.0294
5.692,0.12285
5.696,0.32498
5.7,0.56975
5.704,0.76415
5.708,0.95448
5.712,0.97781
5.716,0.9603
5.72,0.82029
5.724,0.6046
5.728,0.38608
5.732,0.13202
5.736,-0.02208
5.74,-0.15239
5.744,-0.17085
5.748,-0.16718
5.752,-0.151
5.756,-0.09741
5.76,-0.07686
5.764,-0.02198
5.768,-0.02893
5.772,-0.0142
5.776,-0.0266
5.78,-0.03416
5.784,0.00599
5.788,-0.01224
5.792,0.00875
5.796,-0.0278
5.8,-0.05167
5.804,-0.00891
5.808,-0.01514
5.812,-0.03204
5.816,-0.02316
5.82,-0.01838
5.824,-0.01406
5.828,-0.02625
5.832,-0.01749
5.836,-0.02103
5.84,-0.03061
5.844,-0.03321
5.848,-0.03244
5.852,-0.01111
5.856,-0.02232
5.86,-0.01142
5.864,-0.03092
5.868,-0.02743
5.872,-0.00813
5.876,0.00519
5.88,-0.00243
5.884,-0.01548
5.888,-0.01495
5.892,0.01607
5.896,-0.00576
5.9,0.00857
5.904,0.01947
5.908,0.0166
5.912,0.03135
5.916,0.05086
5.92,0.04011
5.924,0.06949
5.928,0.08514
5.932,0.0708
5.936,0.08514
5.94,0.09217
5.944,0.10663
5.948,0.11475
5.952,0.15058
5.956,0.1496
5.96,0.11849
5.964,0.18973
5.968,0.17189
5.972,0.17704
5.976,0.20088
5.98,0.18431
5.984,0.20046
5.988,0.20464
5.992,0.22667
5.996,0.19334
6.0,0.20817
6.004,0.18702
6.008,0.19232
6.012,0.19588
6.016,0.1474
6.02,0.18581
6.024,0.12758
6.028,0.15115
6.032,0.10656
6.036,0.09172
6.04,0.11532
6.044,0.09211
6.048,0.09226
6.052,0.05866
6.056,0.0644
6.06,0.06162
6.064,0.04835
6.068,0.02243
6.072,0.04817
6.076,0.02523
6.08,0.03817
6.084,-0.0086
6.088,0.0064
6.092,0.00663
6.096,-0.02059
6.1,-0.00778
6.104,-0.02554
6.108,0.00399
6.112,-0.02626
6.116,0.00479
6.12,-0.02286
6.124,-0.00415
6.128,-0.02028
6.132,-0.0272
6.136,-0.00952
6.14,-0.02616
6.144,-0.03114
6.148,-0.02061
6.152,0.00866
6.156,-0.0231
6.16,-0.01846
6.164,-0.03523
6.168,-0.02475
6.172,-0.02744
6.176,-0.02253
6.18,-0.02107
6.184,-0.04682
6.188,-0.02536
6.192,-0.00762
6.196,-0.05557
6.2,-0.01081
6.204,-0.01708
6.208,-0.0126
6.212,-0.02908
6.216,-0.02888
6.22,-0.04055
6.224,-0.0519
6.228,-0.04524
6.232,-0.02159
6.236,0.00928
6.24,-0.02433
6.244,-0.00618
6.248,-0.02238
6.252,-0.04514
6.256,-0.03861
6.26,-0.04737
6.264,-0.03109
6.268,-0.00929
6.272,0.00171
6.276,-0.06129
6.28,0.00299
6.284,-0.02211
6.288,-0.03702
6.292,-0.02393
6.296,-0.02154
6.3,-0.02072
6.304,-0.05449
6.308,-0.0154
6.312,-0.02524
6.316,-0.01527
6.32,-0.01549
6.324,-0.02303
6.328,-0.01664
6.332,-0.04127
6.336,0.00756
6.34,-0.03769
6.344,-0.04783
6.348,0.00137
6.352,-0.00689
6.356,-0.03946
6.36,-0.00693
6.364,-0.0088
6.368,-0.04309
6.372,-0.02343
6.376,-0.00584
6.38,-0.02601
6.384,-0.05097
6.388,-0.04314
6.392,-0.00864
6.396,-0.04905
6.4,-0.02519
6.404,-0.00997
6.408,-0.04304
6.412,-0.01524
6.416,-0.01077
6.42,-0.03548
6.424,-0.04446
6.428,-0.01819
6.432,-0.03152
6.436,-0.02118
6.44,-0.0407
6.444,-0.0372
6.448,-0.05446
6.452,-0.04233
6.456,-0.02911
6.46,0.00701
6.464,-0.03952
6.468,-0.05645
6.472,-0.04606
6.476,-0.04271
6.48,0.00233
6.484,-0.01024
6.488,-0.02626
6.492,-0.02713
6.496,-0.05029
6.5,-0.00505
6.504,-0.01567
6.508,-0.02073
6.512,-0.02859
6.516,-0.02938
6.52,-0.02728
6.524,-0.02002
6.528,0.00321
6.532,-0.00256
6.536,-0.03311
6.54,-0.03148
6.544,-0.03491
6.548,-0.02003
6.552,-0.04304
6.556,-0.01632
6.56,-0.00175
6.564,-0.0245
6.568,-0.04906
6.572,-0.03635
6.576,-0.0256
6.58,-0.03326
6.584,-0.04793
6.588,0.00221
6.592,-0.02665
6.596,-0.01492
6.6,-0.01557
6.604,-0.01188
6.608,-0.021
6.612,-0.02399
6.616,-0.03851
6.62,-0.02433
6.624,-0.02025
6.628,-0.01227
6.632,-0.01915
6.636,-0.01384
6.64,0.03452
6.644,0.03532
6.648,0.02827
6.652,0.03174
6.656,0.06391
6.66,0.06494
6.664,0.06156
6.668,0.07893
6.672,0.08785
6.676,0.04772
6.68,0.07514
6.684,0.02647
6.688,0.03861
6.692,0.02121
6.696,-0.00466
6.7,-0.01078
6.704,0.01943
6.708,0.00626
6.712,-0.0156
6.716,-0.02643
6.72,-0.04965
6.724,-0.01186
6.728,-0.00789
6.732,-0.01279
6.736,-0.03943
6.74,-0.02135
6.744,-0.05602
6.748,-0.048
6.752,-0.02639
6.756,-0.0375
6.76,-0.01146
6.764,-0.03463
6.768,-0.01991
6.772,-0.04714
6.776,-0.02183
6.78,-0.04859
6.784,-0.05444
6.788,-0.08597
6.792,-0.10562
6.796,-0.13458
6.8,-0.12903
6.804,-0.0409
6.808,0.10264
6.812,0.3016
6.816,0.52166
6.82,0.7201
6.824,0.88896
6.828,0.97105
6.832,0.9311
6.836,0.7938
6.84,0.5695
6.844,0.35824
6.848,0.15144
6.852,-0.03274
6.856,-0.13117
6.86,-0.20458
6.864,-0.18253
6.868,-0.15983
6.872,-0.13641
6.876,-0.05987
6.88,-0.03075
6.884,-0.05296
6.888,-0.02362
6.892,-0.043
6.896,-0.04278
6.9,-0.01684
6.904,-0.01518
6.908,-0.02247
6.912,-0.00793
6.916,-0.03605
6.92,-0.04639
6.924,-0.04343
6.928,-0.0365
6.932,-0.03096
6.936,-0.03398
6.94,-0.03823
6.944,-0.04223
6.948,-0.03546
6.952,-0.05301
6.956,-0.04132
6.96,0.00243
6.964,-0.02562
6.968,-0.02008
6.972,-0.00957
6.976,-0.01615
6.98,-0.03145
6.984,-0.03208
6.988,-0.01051
6.992,-0.01545
6.996,-0.03618
7.0,-0.01666
7.004,-0.04782
7.008,0.02178
7.012,0.01178
7.016,-0.02188
7.02,-0.02036
7.024,0.02278
7.028,0.00347
7.032,0.01227
7.036,0.02979
7.04,0.01483
7.044,0.0434
7.048,0.04492
7.052,0.06496
7.056,0.05422
7.06,0.10486
7.064,0.12406
7.068,0.10592
7.072,0.12716
7.076,0.13338
7.08,0.13296
7.084,0.16583
7.088,0.16098
7.092,0.1806
7.096,0.20157
7.1,0.16018
7.104,0.19215
7.108,0.17623
7.112,0.15438
7.116,0.19045
7.12,0.16716
7.124,0.18332
7.128,0.1373
7.132,0.16264
7.136,0.15198
7.14,0.13942
7.144,0.14539
7.148,0.12766
7.152,0.11586
7.156,0.07428
7.16,0.05109
7.164,0.08071
7.168,0.06534
7.172,0.03627
7.176,0.03698
7.18,0.02598
7.184,0.02239
7.188,0.03388
7.192,0.01567
7.196,0.00989
7.2,-0.0022
7.204,0.00527
7.208,-0.01091
7.212,-0.02385
7.216,-0.00147
7.22,-0.0118
7.224,-0.00606
7.228,-0.01898
7.232,-0.03354
7.236,-0.02235
7.24,0.0004
7.244,-0.04799
7.248,-0.04048
7.252,-0.00034
7.256,-0.01178
7.26,-0.02489
7.264,-0.02536
7.268,-0.03946
7.272,-0.026
7.276,-0.0307
7.28,-0.03262
7.284,-0.02528
7.288,-0.04679
7.292,-0.04904
7.296,-0.03064
7.3,-0.01875
7.304,-0.0252
7.308,-0.04129
7.312,-0.02345
7.316,-0.0444
7.32,-0.02033
7.324,-0.02027
7.328,-0.04302
7.332,-0.01878
7.336,-0.03003
7.34,-0.04106
7.344,0.00153
7.348,-0.00955
7.352,-0.03782
7.356,-0.05608
7.36,-0.00766
7.364,-0.0296
7.368,-0.04951
7.372,-0.04568
7.376,-0.04768
7.38,-0.01927
7.384,-0.03384
7.388,-0.04237
7.392,-0.0301
7.396,-0.03197
7.4,-0.01845
7.404,-0.02622
7.408,0.0165
7.412,-0.042
7.416,-0.02544
7.42,-0.03522
7.424,-0.04023
7.428,-0.01675
7.432,-0.01182
7.436,-0.03064
7.44,-0.04774
7.444,0.0156
7.448,-0.02496
7.452,-0.02566
7.456,-0.05834
7.46,-0.03078
7.464,-0.01705
7.468,-0.05126
7.472,-0.0441
7.476,-0.01591
7.48,-0.03714
7.484,-0.03028
7.488,-0.02316
7.492,0.00028
7.496,-0.04671
7.5,-0.02433
7.504,-0.05005
7.508,-0.03442
7.512,-0.02057
7.516,-0.04889
7.52,-0.0259
7.524,-0.03192
7.528,-0.03112
7.532,-0.00752
7.536,-0.02826
7.54,-0.02991
7.544,-0.04204
7.548,-0.04168
7.552,-0.02146
7.556,-0.00585
7.56,-0.03044
7.564,-0.01914
7.568,-0.01416
7.572,-0.04945
7.576,-0.01465
7.58,-0.03622
7.584,-0.03894
7.588,0.00281
7.592,0.00239
7.596,-0.01477
7.6,-0.02643
7.604,-0.00304
7.608,0.01382
7.612,0.03671
7.616,0.02752
7.62,0.0517
7.624,0.0581
7.628,0.05028
7.632,0.07239
7.636,0.05862
7.64,0.08875
7.644,0.06882
7.648,0.05803
7.652,0.04741
7.656,0.0459
7.66,0.02446
7.664,0.01905
7.668,0.02825
7.672,0.01386
7.676,0.00857
7.68,-0.00559
7.684,0.00596
7.688,-0.02483
7.692,-0.03042
7.696,-0.02751
7.7,-0.01576
7.704,-0.01426
7.708,-0.0405
7.712,-0.04085
7.716,-0.02693
7.72,-0.02365
7.724,-0.02364
7.728,-0.02295
7.732,-0.03023
7.736,-0.03147
7.74,-0.02573
7.744,-0.03052
7.748,-0.02161
7.752,-0.03616
7.756,-0.08026
7.76,-0.10629
7.764,-0.15469
7.768,-0.16192
7.772,-0.05846
7.776,0.06626
7.78,0.22967
7.784,0.48347
7.788,0.67086
7.792,0.83926
7.796,0.95864
7.8,0.96543
7.804,0.88404
7.808,0.66889
7.812,0.4314
7.816,0.22409
7.82,0.00219
7.824,-0.12483
7.828,-0.19258
7.832,-0.20336
7.836,-0.14165
7.84,-0.08288
7.844,-0.06471
7.848,-0.04459
7.852,-0.05005
7.856,-0.00847
7.86,-0.00612
7.864,-0.03624
7.868,0.00449
7.872,-0.00728
7.876,-0.05744
7.88,-0.0212
7.884,-0.02963
7.888,-0.01431
7.892,-0.02584
7.896,-0.03234
7.9,-0.04053
7.904,-0.01832
7.908,0.00312
7.912,-0.01199
7.916,-0.02299
7.92,-0.00404
7.924,-0.02497
7.928,-0.03049
7.932,-0.0382
7.936,-0.0277
7.94,-0.0093
7.944,-0.02873
7.948,-0.00856
7.952,-0.01286
7.956,-0.02123
7.96,-0.00598
7.964,-0.00341
7.968,-0.01801
7.972,0.00723
7.976,0.02395
7.98,0.01492
7.984,0.01239
7.988,-0.01605
7.992,0.00941
7.996,0.02897
8.0,0.04802
8.004,0.04715
8.008,0.0631
8.012,0.07721
8.016,0.07858
8.02,0.07404
8.024,0.10222
8.028,0.07897
8.032,0.12018
8.036,0.09379
8.04,0.15052
8.044,0.15157
8.048,0.17485
8.052,0.17939
8.056,0.19624
8.06,0.20928
8.064,0.18878
8.068,0.20478
8.072,0.19209
8.076,0.18298
8.08,0.17529
8.084,0.18999
8.088,0.22466
8.092,0.20843
8.096,0.17729
8.1,0.18328
8.104,0.15777
8.108,0.15505
8.112,0.16315
8.116,0.17985
8.12,0.10445
8.124,0.11371
8.128,0.10119
8.132,0.06598
8.136,0.08561
8.14,0.05073
8.144,0.06829
8.148,0.02706
8.152,0.06487
8.156,0.00647
8.16,0.01079
8.164,0.01179
8.168,0.02109
8.172,0.01877
8.176,0.00611
8.18,-0.01874
8.184,-0.00555
8.188,-0.01427
8.192,0.00784
8.196,-0.01725
8.2,0.0221
8.204,0.00552
8.208,-0.00872
8.212,-0.00256
8.216,-0.0213
8.22,0.01835
8.224,-0.02227
8.228,-0.0065
8.232,-0.01264
8.236,-0.02235
8.24,0.01177
8.244,0.005
8.248,-0.03555
8.252,0.03061
8.256,-0.01969
8.26,-0.00036
8.264,-0.01454
8.268,-0.01224
8.272,-0.04162
8.276,-0.00383
8.28,0.00201
8.284,-0.01835
8.288,0.03398
8.292,0.00639
8.296,-0.02463
8.3,-0.02122
8.304,-0.00769
8.308,-0.01859
8.312,-0.03648
8.316,-0.01704
8.32,-0.00033
8.324,0.02648
8.328,-0.00805
8.332,0.00136
8.336,-0.00671
8.34,-0.01131
8.344,-0.01908
8.348,-0.03242
8.352,0.00884
8.356,-0.02665
8.36,0.00585
8.364,-0.02448
8.368,0.02026
8.372,-0.01701
8.376,-0.00105
8.38,-0.01238
8.384,-0.03405
8.388,0.00303
8.392,0.00331
8.396,-0.01791
8.4,0.01081
8.404,0.0039
8.408,0.00419
8.412,0.00659
8.416,-0.00584
8.42,0.01284
8.424,0.00648
8.428,0.00956
8.432,-0.00399
8.436,0.00348
8.44,-0.01291
8.444,-0.02083
8.448,0.00528
8.452,-0.02159
8.456,0.01243
8.46,-0.02036
8.464,0.01379
8.468,-0.01527
8.472,-0.00804
8.476,0.02106
8.48,-0.01441
8.484,-0.02278
8.488,-0.00674
8.492,-0.01079
8.496,0.02122
8.5,0.00646
8.504,-0.01288
8.508,0.01157
8.512,0.00099
8.516,-0.00829
8.52,0.02537
8.524,0.00773
8.528,-0.00557
8.532,-0.00671
8.536,0.01358
8.54,0.00996
8.544,-0.00281
8.548,-0.01148
8.552,0.00525
8.556,-0.03606
8.56,-0.01155
8.564,-0.00962
8.568,-0.00829
8.572,0.01794
8.576,0.00611
8.58,-0.01301
8.584,0.00963
8.588,0.00137
8.592,-0.00091
8.596,0.00886
8.6,0.00372
8.604,-0.01184
8.608,-0.00752
8.612,0.00584
8.616,-0.01658
8.62,0.01477
8.624,0.01583
8.628,0.02718
8.632,0.00585
8.636,-0.01795
8.64,0.00228
8.644,-0.03021
8.648,0.00302
8.652,0.01008
8.656,-0.00802
8.66,0.01702
8.664,0.00447
8.668,0.00351
8.672,0.00813
8.676,0.00692
8.68,0.01579
8.684,0.00984
8.688,0.01733
8.692,-0.00517
8.696,0.00593
8.7,0.00964
8.704,-0.01417
8.708,-0.00979
8.712,0.02008
8.716,-0.00586
8.72,-0.00163
8.724,0.00923
8.728,-0.00301
8.732,-0.01504
8.736,-0.00029
8.74,0.00278
8.744,-0.01454
8.748,-0.01246
8.752,0.01479
8.756,0.00849
8.76,-0.00582
8.764,-0.00097
8.768,0.03313
8.772,-0.0177
8.776,0.01384
8.78,0.00135
8.784,-0.00164
8.788,0.00617
8.792,-0.00821
8.796,-0.00828
8.8,0.00537
8.804,-0.00503
8.808,0.00204
8.812,0.00607
8.816,0.00248
8.82,-0.015
8.824,0.0297
8.828,0.0215
8.832,0.01123
8.836,0.00765
8.84,-0.01017
8.844,-0.01531
8.848,0.00262
8.852,-0.01314
8.856,-0.00872
8.86,0.02592
8.864,0.00515
8.868,0.02412
8.872,0.00402
8.876,0.01206
8.88,0.02604
8.884,0.04618
8.888,0.0294
8.892,0.05703
8.896,0.04794
8.9,0.0394
8.904,0.08354
8.908,0.0722
8.912,0.08851
8.916,0.11448
8.92,0.11093
8.924,0.10749
8.928,0.09969
8.932,0.12011
8.936,0.05575
8.94,0.07547
8.944,0.06542
8.948,0.03825
8.952,0.02073
8.956,0.02453
8.96,0.01879
8.964,0.0482
8.968,0.03854
8.972,0.01731
8.976,0.02637
8.98,-0.01349
8.984,0.01207
8.988,0.02709
8.992,0.00996
8.996,-0.00268
9.0,0.00109
9.004,0.00583
9.008,0.02084
9.012,0.0288
9.016,0.01534
9.02,0.03306
9.024,0.0078
9.028,0.00184
9.032,0.00597
9.036,0.00821
9.04,-0.03026
9.044,-0.04368
9.048,-0.10018
9.052,-0.09344
9.056,-0.02335
9.06,0.06129
9.064,0.24554
9.068,0.49071
9.072,0.7008
9.076,0.88162
9.08,0.99323
9.084,0.99866
9.088,0.90716
9.092,0.71727
9.096,0.48998
9.1,0.25526
9.104,0.08145
9.108,-0.05526
9.112,-0.12996
9.116,-0.15111
9.12,-0.13261
9.124,-0.10309
9.128,-0.02375
9.132,-0.03473
9.136,0.01567
9.14,0.00667
9.144,0.0014
9.148,0.01745
9.152,-0.00462
9.156,-0.00676
9.16,0.02882
9.164,0.00104
9.168,0.0122
9.172,0.01919
9.176,0.02775
9.18,0.03806
9.184,-0.0214
9.188,0.03361
9.192,0.01298
9.196,0.00844
9.2,0.01448
9.204,-0.00461
9.208,0.04636
9.212,0.01597
9.216,0.04497
9.22,0.02283
9.224,-0.00564
9.228,0.00649
9.232,0.01123
9.236,0.02902
9.24,0.00997
9.244,0.03669
9.248,0.02751
9.252,0.04825
9.256,0.03187
9.26,0.07922
9.264,0.03595
9.268,0.03013
9.272,0.04565
9.276,0.05936
9.28,0.06537
9.284,0.05983
9.288,0.0707
9.292,0.07366
9.296,0.08327
9.3,0.09802
9.304,0.11562
9.308,0.12647
9.312,0.14706
9.316,0.13113
9.32,0.14857
9.324,0.1594
9.328,0.15348
9.332,0.19904
9.336,0.19956
9.34,0.21574
9.344,0.24149
9.348,0.2196
9.352,0.2549
9.356,0.23209
9.36,0.22542
9.364,0.24474
9.368,0.21947
9.372,0.23921
9.376,0.20559
9.38,0.22239
9.384,0.20123
9.388,0.1986
9.392,0.1766
9.396,0.18272
9.4,0.17727
9.404,0.15955
9.408,0.1754
9.412,0.12033
9.416,0.10885
9.42,0.08826
9.424,0.11878
9.428,0.06666
9.432,0.07875
9.436,0.06302
9.44,0.08263
9.444,0.07769
9.448,0.03987
9.452,0.07126
9.456,0.05428
9.46,0.05291
9.464,0.05865
9.468,0.04425
9.472,0.04887
9.476,0.03861
9.48,0.03708
9.484,0.00976
9.488,0.03633
9.492,0.0004
9.496,0.0349
9.5,0.0356
9.504,0.04425
9.508,0.04669
9.512,0.01637
9.516,0.01532
9.52,0.03705
9.524,0.03345
9.528,0.02794
9.532,0.04191
9.536,0.00721
9.54,0.01399
9.544,0.01472
9.548,0.01755
9.552,0.01904
9.556,0.01221
9.56,-0.01024
9.564,0.00374
9.568,0.02559
9.572,0.03406
9.576,0.0229
9.58,0.02107
9.584,0.0415
9.588,0.04235
9.592,0.02834
9.596,0.01561
9.6,-0.00577
9.604,0.01422
9.608,0.01798
9.612,0.01797
9.616,0.02047
9.62,-0.00127
9.624,0.02085
9.628,0.06811
9.632,0.05128
9.636,0.02617
9.64,0.03455
9.644,0.01833
9.648,-0.00386
9.652,0.01524
9.656,0.00573
9.66,0.02732
9.664,0.04919
9.668,0.01191
9.672,0.01149
9.676,0.02659
9.68,0.03124
9.684,0.04071
9.688,0.04831
9.692,0.0165
9.696,0.02898
9.7,0.03326
9.704,0.01156
9.708,0.01938
9.712,0.03421
9.716,0.03524
9.72,0.03372
9.724,0.03045
9.728,0.00786
9.732,0.03401
9.736,0.05516
9.74,0.04891
9.744,0.03806
9.748,0.02511
9.752,0.00998
9.756,0.03101
9.76,0.0367
9.764,0.01956
9.768,0.04119
9.772,0.04365
9.776,0.04174
9.78,0.0526
9.784,0.03102
9.788,0.01816
9.792,0.01244
9.796,0.01451
9.8,0.02796
9.804,0.04924
9.808,0.03821
9.812,0.03267
9.816,0.01855
9.82,0.00973
9.824,0.01751
9.828,0.0404
9.832,0.00887
9.836,0.04036
9.84,0.03242
9.844,0.04157
9.848,0.01457
9.852,0.04258
9.856,0.04312
9.86,0.01086
9.864,0.01849
9.868,0.05823
9.872,0.04306
9.876,0.00644
9.88,0.03596
9.884,0.03359
9.888,0.05097
9.892,0.02842
9.896,0.02825
9.9,0.01719
9.904,0.00775
9.908,0.03863
9.912,0.00265
9.916,0.04096
9.92,0.01715
9.924,0.02753
9.928,0.04961
9.932,0.02519
9.936,0.04051
9.94,0.00318
9.944,0.03095
9.948,0.04482
9.952,0.02393
9.956,0.02585
9.96,0.05513
9.964,0.05303
9.968,0.00077
9.972,0.06067
9.976,0.04347
9.98,0.04378
9.984,0.03827
9.988,0.04907
9.992,0.04151
9.996,0.05246
