t_seg,ecg_mV
0.0,-0.0071
0.004,0.00298
0.008,-0.0225
0.012,-0.05674
0.016,-0.0249
0.02,-0.0235
0.024,-0.00305
0.028,-0.02589
0.032,-0.0155
0.036,0.00527
0.04,-0.00623
0.044,-0.02321
0.048,-0.01529
0.052,0.0079
0.056,-0.01587
0.06,-0.02107
0.064,-0.05077
0.068,-0.03107
0.072,-0.00057
0.076,-0.03006
0.08,-0.02677
0.084,-0.00182
0.088,-0.03457
0.092,0.00455
0.096,-0.01521
0.1,-0.00523
0.104,-0.00684
0.108,0.01848
0.112,0.00288
0.116,0.03552
0.12,0.01798
0.124,0.05369
0.128,0.07562
0.132,0.06597
0.136,0.06427
0.14,0.05788
0.144,0.06019
0.148,0.06854
0.152,0.06943
0.156,0.04965
0.16,0.02488
0.164,0.03669
0.168,0.0208
0.172,0.01755
0.176,-0.00803
0.18,0.03448
0.184,-0.01559
0.188,-0.00969
0.192,-0.02769
0.196,-0.02574
0.2,-0.01289
0.204,-0.03844
0.208,-0.03716
0.212,-0.04134
0.216,-0.01434
0.22,-0.01193
0.224,-0.0275
0.228,-0.02132
0.232,0.00922
0.236,-0.01964
0.24,-0.03575
0.244,-0.04325
0.248,-0.03294
0.252,-0.02252
0.256,0.00039
0.26,-0.0918
0.264,-0.10016
0.268,-0.13171
0.272,-0.12744
0.276,-0.04575
0.28,0.06251
0.284,0.30448
0.288,0.48949
0.292,0.71117
0.296,0.8734
0.3,0.96288
0.304,0.96555
0.308,0.80802
0.312,0.60636
0.316,0.41377
0.32,0.20101
0.324,0.00618
0.328,-0.11955
0.332,-0.19707
0.336,-0.18912
0.34,-0.16575
0.344,-0.1113
0.348,-0.07973
0.352,-0.05781
0.356,-0.0456
0.36,-0.02461
0.364,-0.0098
0.368,-0.02237
0.372,-0.00528
0.376,-0.00544
0.38,0.02004
0.384,-0.00283
0.388,-0.03419
0.392,-0.01567
0.396,-0.01688
0.4,0.00045
0.404,-0.04904
0.408,-0.01458
0.412,-0.01917
0.416,-0.05618
0.42,-0.03244
0.424,0.00447
0.428,-0.00633
0.432,-0.00667
0.436,-0.01804
0.44,-0.03071
0.444,-0.03377
0.448,-0.02533
0.452,-0.03151
0.456,-0.03163
0.46,-0.00387
0.464,-0.01532
0.468,-0.01605
0.472,-0.01694
0.476,-0.01032
0.48,-0.03353
0.484,0.00383
0.488,0.01841
0.492,-0.00199
0.496,-0.00768
0.5,-0.00925
0.504,0.02494
0.508,0.03303
0.512,0.01622
0.516,0.07995
0.52,0.05542
0.524,0.04844
0.528,0.08536
0.532,0.09541
0.536,0.10513
0.54,0.11959
0.544,0.12813
0.548,0.144
0.552,0.15502
0.556,0.17708
0.56,0.17771
0.564,0.16342
0.568,0.18683
0.572,0.20572
0.576,0.16577
0.58,0.21227
0.584,0.21145
0.588,0.17513
0.592,0.19528
0.596,0.18554
0.6,0.17867
0.604,0.18814
0.608,0.16698
0.612,0.13312
0.616,0.12096
0.62,0.10662
0.624,0.11924
0.628,0.09461
0.632,0.09712
0.636,0.08627
0.64,0.05456
0.644,0.06828
0.648,0.06028
0.652,0.04923
0.656,0.02027
0.66,0.01221
0.664,0.00022
0.668,-0.01853
0.672,0.0073
0.676,0.00072
0.68,-0.0279
0.684,-0.00587
0.688,-0.01222
0.692,-0.01659
0.696,-0.02403
0.7,-0.01135
0.704,-0.03533
0.708,-0.0077
0.712,0.00155
0.716,0.01572
0.72,-0.014
0.724,0.01629
0.728,-0.01477
0.732,0.01973
0.736,0.019
0.74,-0.00342
0.744,0.02076
0.748,0.03957
0.752,0.06555
0.756,0.07354
0.76,0.05015
0.764,0.06697
0.768,0.03951
0.772,0.0534
0.776,0.05833
0.78,0.05318
0.784,0.02707
0.788,0.01287
0.792,-0.00285
0.796,0.02271
0.8,-0.0019
0.804,-0.01631
0.808,-0.00646
0.812,-0.0288
0.816,-0.0325
0.82,-0.0229
0.824,-0.0177
0.828,-0.04173
0.832,-0.02289
0.836,-0.04338
0.84,-0.05559
0.844,-0.02342
0.848,-0.01255
0.852,-0.03584
0.856,-0.03945
0.86,-0.04891
0.864,-0.02741
0.868,-0.02288
0.872,-0.0213
0.876,-0.02055
0.88,-0.06884
0.884,-0.10793
0.888,-0.15841
0.892,-0.1586
0.896,-0.10251
0.9,-0.01808
0.904,0.13124
0.908,0.32963
0.912,0.58287
0.916,0.78963
0.92,0.91896
0.924,0.97741
0.928,0.89825
0.932,0.76758
0.936,0.57759
0.94,0.30307
0.944,0.07544
0.948,-0.06301
0.952,-0.14591
0.956,-0.18767
0.96,-0.17344
0.964,-0.13629
0.968,-0.10546
0.972,-0.04499
0.976,-0.03978
0.98,-0.05609
0.984,-0.04226
0.988,-0.03641
0.992,-0.0454
0.996,-0.05174
1.0,-0.02678
1.004,-0.02057
1.008,-0.02841
1.012,-0.00039
1.016,-0.05
1.02,-0.0343
1.024,-0.0362
1.028,-0.03313
1.032,-0.0384
1.036,-0.02228
1.04,-0.06109
1.044,-0.04801
1.048,-0.03588
1.052,-0.01493
1.056,-0.0421
1.06,-0.01306
1.064,-0.05065
1.068,-0.04538
1.072,-0.04101
1.076,-0.03578
1.08,-0.0316
1.084,-0.03182
1.088,-0.03893
1.092,-0.05169
1.096,-0.00021
1.1,-0.03147
1.104,-0.01108
1.108,-0.01863
1.112,-0.00809
1.116,0.01109
1.12,-0.00573
1.124,0.03181
1.128,0.01569
1.132,0.02888
1.136,0.01678
1.14,0.05773
1.144,0.06161
1.148,0.0545
1.152,0.0806
1.156,0.09339
1.16,0.09193
1.164,0.1399
1.168,0.12661
1.172,0.1332
1.176,0.13472
1.18,0.16469
1.184,0.17213
1.188,0.16821
1.192,0.17487
1.196,0.18696
1.2,0.19018
1.204,0.19954
1.208,0.18014
1.212,0.18539
1.216,0.20083
1.22,0.1749
1.224,0.16237
1.228,0.16108
1.232,0.12983
1.236,0.13288
1.24,0.12196
1.244,0.12662
1.248,0.11026
1.252,0.09861
1.256,0.1038
1.26,0.05246
1.264,0.09324
1.268,0.04824
1.272,0.0438
1.276,0.03861
1.28,0.02101
1.284,0.03219
1.288,0.01989
1.292,-0.01904
1.296,-0.01641
1.3,-0.00375
1.304,-0.01799
1.308,-0.01239
1.312,-0.01972
1.316,-0.01517
1.32,-0.03678
1.324,-0.02207
1.328,-0.01431
1.332,-0.01388
1.336,-0.04057
1.34,-0.03186
1.344,-0.03188
1.348,-0.01113
1.352,-0.03051
1.356,-0.01322
1.36,-0.03406
1.364,-0.00559
1.368,-0.03667
1.372,-0.01133
1.376,-0.04452
1.38,-0.00747
1.384,-0.0236
1.388,-0.03926
1.392,-0.02964
1.396,-0.02716
1.4,-0.04548
1.404,-0.02662
1.408,-0.00717
1.412,-0.02016
1.416,-0.03312
1.42,-0.03173
1.424,-0.0161
1.428,-0.01605
1.432,-0.02539
1.436,-0.00235
1.44,-0.04501
1.444,-0.05541
1.448,-0.03096
1.452,-0.01977
1.456,-0.05134
1.46,-0.0367
1.464,-0.02194
1.468,-0.03963
1.472,-0.02557
1.476,-0.00711
1.48,-0.02676
1.484,0.01256
1.488,0.02235
1.492,0.02863
1.496,0.03579
1.5,0.04407
1.504,0.03383
1.508,0.06071
1.512,0.06218
1.516,0.08923
1.52,0.1044
1.524,0.05622
1.528,0.03302
1.532,0.04095
1.536,0.04067
1.54,0.02305
1.544,0.02728
1.548,0.0197
1.552,-0.0141
1.556,-0.01713
1.56,-0.01747
1.564,-0.03502
1.568,-0.01305
1.572,-0.03419
1.576,-0.03155
1.58,-0.0363
1.584,-0.02981
1.588,-0.00498
1.592,-0.02792
1.596,-0.04053
1.6,-0.01622
1.604,-0.02003
1.608,-0.03162
1.612,-0.0108
1.616,-0.02232
1.62,-0.00433
1.624,-0.01155
1.628,-0.0469
1.632,-0.02243
1.636,-0.06588
1.64,-0.12871
1.644,-0.12262
1.648,-0.10108
1.652,-0.03147
1.656,0.09611
1.66,0.30677
1.664,0.5206
1.668,0.70766
1.672,0.90219
1.676,1.01162
1.68,0.93165
1.684,0.80049
1.688,0.59827
1.692,0.3792
1.696,0.13141
1.7,-0.01599
1.704,-0.13413
1.708,-0.19306
1.712,-0.19011
1.716,-0.15587
1.72,-0.10581
1.724,-0.06071
1.728,-0.07106
1.732,-0.04496
1.736,-0.01156
1.74,-0.02726
1.744,-0.05715
1.748,-0.01184
1.752,-0.02877
1.756,-0.04473
1.76,-0.03104
1.764,-0.03196
1.768,-0.02812
1.772,-0.0469
1.776,-0.02147
1.78,-0.01025
1.784,0.01256
1.788,-0.0052
1.792,-0.03053
1.796,-0.01965
1.8,-0.05871
1.804,-0.01442
1.808,-0.00654
1.812,-0.02515
1.816,-0.00776
1.82,-0.04251
1.824,-0.00887
1.828,-0.01728
1.832,-0.02094
1.836,-0.01053
1.84,0.01593
1.844,-0.03471
1.848,-0.01004
1.852,0.0113
1.856,-0.01246
1.86,-0.00042
1.864,0.00506
1.868,0.01075
1.872,0.00229
1.876,0.0157
1.88,0.01575
1.884,0.02392
1.888,0.07155
1.892,0.06569
1.896,0.0597
1.9,0.08549
1.904,0.07481
1.908,0.10339
1.912,0.1197
1.916,0.1353
1.92,0.14904
1.924,0.16729
1.928,0.14358
1.932,0.18002
1.936,0.16743
1.94,0.19564
1.944,0.21393
1.948,0.2118
1.952,0.21097
1.956,0.20922
1.96,0.18209
1.964,0.1978
1.968,0.22166
1.972,0.20635
1.976,0.20857
1.98,0.16858
1.984,0.12451
1.988,0.14869
1.992,0.14924
1.996,0.12985
2.0,0.10527
2.004,0.10829
2.008,0.08804
2.012,0.09058
2.016,0.07691
2.02,0.07912
2.024,0.0531
2.028,0.03322
2.032,0.05159
2.036,0.01304
2.04,0.03067
2.044,0.04546
2.048,0.03734
2.052,-0.01558
2.056,0.02528
2.06,0.01985
2.064,0.0071
2.068,-0.00867
2.072,-0.00441
2.076,-0.00074
2.08,-0.01637
2.084,-0.01147
2.088,-0.01125
2.092,0.02137
2.096,0.00064
2.1,-0.0049
2.104,-0.01213
2.108,-0.0151
2.112,-0.03889
2.116,-0.01541
2.12,0.00144
2.124,-0.02118
2.128,0.00019
2.132,-0.02128
2.136,-0.01097
2.14,-0.01994
2.144,-0.04182
2.148,-0.00241
2.152,-0.01269
2.156,-0.01896
2.16,-0.02849
2.164,-0.02466
2.168,-0.00011
2.172,0.01481
2.176,-0.00556
2.18,-0.00791
2.184,-0.01396
2.188,-0.01327
2.192,-0.00349
2.196,-0.00372
2.2,-0.00602
2.204,-0.02533
2.208,-0.03543
2.212,-0.00536
2.216,-0.0253
2.22,-0.00849
2.224,-0.00704
2.228,-0.02822
2.232,-0.00626
2.236,0.00316
2.24,-0.01887
2.244,-0.00597
2.248,0.02742
2.252,0.03032
2.256,0.00012
2.26,0.06255
2.264,0.08071
2.268,0.05584
2.272,0.08745
2.276,0.10164
2.28,0.08108
2.284,0.04712
2.288,0.06935
2.292,0.05184
2.296,0.07779
2.3,0.04792
2.304,0.02169
2.308,0.03693
2.312,0.02868
2.316,0.0139
2.32,0.01389
2.324,-0.00156
2.328,-0.014
2.332,-0.02833
2.336,-0.00737
2.34,-0.00562
2.344,0.01735
2.348,-0.0037
2.352,0.0151
2.356,-0.01831
2.36,-0.02782
2.364,0.00248
2.368,-0.0187
2.372,-0.01311
2.376,-0.00239
2.38,-0.00873
2.384,-0.01411
2.388,-0.03117
2.392,-0.01804
2.396,-0.05115
2.4,-0.08614
2.404,-0.10802
2.408,-0.12126
2.412,-0.04106
2.416,0.08596
2.42,0.2464
2.424,0.4981
2.428,0.70405
2.432,0.87653
2.436,0.99712
2.44,0.98238
2.444,0.86855
2.448,0.68844
2.452,0.42297
2.456,0.19793
2.46,0.03611
2.464,-0.08002
2.468,-0.14274
2.472,-0.16896
2.476,-0.12376
2.48,-0.12716
2.484,-0.10452
2.488,-0.0259
2.492,-0.01959
2.496,0.00422
2.5,0.01177
2.504,0.01867
2.508,-0.00784
2.512,-0.01233
2.516,-0.0373
2.52,0.01533
2.524,-0.00488
2.528,0.02619
2.532,0.00469
2.536,0.00802
2.54,0.00355
2.544,-0.00646
2.548,-0.03067
2.552,0.02961
2.556,-0.01375
2.56,0.02802
2.564,-0.01179
2.568,-0.00236
2.572,0.014
2.576,0.00902
2.58,-0.01085
2.584,0.02402
2.588,0.01476
2.592,-0.01639
2.596,0.0043
2.6,-0.00409
2.604,0.0064
2.608,0.00132
2.612,-0.00362
2.616,0.02322
2.62,0.00736
2.624,0.03399
2.628,0.03978
2.632,0.03728
2.636,0.02288
2.64,0.04643
2.644,0.06423
2.648,0.08238
2.652,0.08272
2.656,0.127
2.66,0.09056
2.664,0.12137
2.668,0.09273
2.672,0.1236
2.676,0.15499
2.68,0.1553
2.684,0.18635
2.688,0.16417
2.692,0.18746
2.696,0.19465
2.7,0.2202
2.704,0.22918
2.708,0.24822
2.712,0.21465
2.716,0.22879
2.72,0.2229
2.724,0.20216
2.728,0.19587
2.732,0.22546
2.736,0.21528
2.74,0.20187
2.744,0.18546
2.748,0.17194
2.752,0.15807
2.756,0.16614
2.76,0.15628
2.764,0.13663
2.768,0.1125
2.772,0.10849
2.776,0.0948
2.78,0.10627
2.784,0.09751
2.788,0.06441
2.792,0.07287
2.796,0.04378
2.8,0.01899
2.804,0.04558
2.808,0.02415
2.812,0.02604
2.816,0.02574
2.82,0.02295
2.824,0.03122
2.828,0.00553
2.832,0.01518
2.836,0.01563
2.84,0.00076
2.844,0.0225
2.848,-0.00576
2.852,-0.0069
2.856,-8e-05
2.86,-0.00574
2.864,0.00266
2.868,0.02857
2.872,-0.01128
2.876,0.02533
2.88,0.0006
2.884,-0.007
2.888,0.00107
2.892,0.01446
2.896,-0.00824
2.9,0.03221
2.904,-0.01104
2.908,0.01683
2.912,-0.00202
2.916,0.03413
2.92,0.00198
2.924,0.03445
2.928,0.00065
2.932,0.01802
2.936,-0.00707
2.94,0.01866
2.944,0.02328
2.948,0.0055
2.952,0.0251
2.956,-0.01331
2.96,-0.00844
2.964,0.01763
2.968,0.05029
2.972,-0.00027
2.976,0.04384
2.98,0.00712
2.984,0.00486
2.988,-0.01342
2.992,0.00708
2.996,0.03688
3.0,-0.0071
3.004,0.01878
3.008,-0.00532
3.012,0.02457
3.016,-0.00722
3.02,0.02199
3.024,0.04109
3.028,0.00386
3.032,0.00135
3.036,0.00358
3.04,-0.02154
3.044,0.0082
3.048,0.03821
3.052,0.00168
3.056,0.03296
3.06,0.02954
3.064,-0.01093
3.068,0.02295
3.072,0.02031
3.076,0.02825
3.08,0.02702
3.084,0.04466
3.088,0.05504
3.092,0.02514
3.096,0.05022
3.1,0.07265
3.104,0.10102
3.108,0.0694
3.112,0.1279
3.116,0.11865
3.12,0.11754
3.124,0.1036
3.128,0.101
3.132,0.10658
3.136,0.07922
3.14,0.0746
3.144,0.03879
3.148,0.0538
3.152,0.05977
3.156,0.04322
3.16,0.01215
3.164,0.04188
3.168,0.0128
3.172,0.01507
3.176,-0.01008
3.18,0.0364
3.184,0.00222
3.188,-0.00137
3.192,0.05616
3.196,0.02258
3.2,0.00492
3.204,0.01449
3.208,0.03021
3.212,0.01529
3.216,0.04686
3.22,0.02213
3.224,0.04326
3.228,0.01108
3.232,0.00227
3.236,-0.01838
3.24,-0.06379
3.244,-0.1073
3.248,-0.12244
3.252,-0.02275
3.256,0.09502
3.26,0.26413
3.264,0.46439
3.268,0.67399
3.272,0.88632
3.276,0.99331
3.28,1.01379
3.284,0.91707
3.288,0.73441
3.292,0.51402
3.296,0.27401
3.3,0.08499
3.304,-0.04519
3.308,-0.15868
3.312,-0.13211
3.316,-0.13813
3.32,-0.08848
3.324,-0.03677
3.328,-0.03323
3.332,0.00984
3.336,0.00419
3.34,-0.00642
3.344,0.0219
3.348,0.02146
3.352,0.02064
3.356,0.03142
3.36,0.01865
3.364,-0.00657
3.368,0.00295
3.372,0.01806
3.376,-0.002
3.38,0.00955
3.384,0.00627
3.388,0.05286
3.392,0.03855
3.396,0.0212
3.4,0.02309
3.404,0.02921
3.408,0.01516
3.412,0.02826
3.416,0.02004
3.42,-0.00057
3.424,0.02611
3.428,0.02788
3.432,0.03435
3.436,0.04253
3.44,0.04003
3.444,0.03587
3.448,0.02537
3.452,0.04934
3.456,0.06261
3.46,0.05406
3.464,0.05104
3.468,0.06617
3.472,0.05324
3.476,0.05742
3.48,0.08425
3.484,0.06269
3.488,0.09701
3.492,0.08201
3.496,0.10397
3.5,0.12505
3.504,0.14539
3.508,0.13151
3.512,0.15369
3.516,0.1657
3.52,0.18557
3.524,0.15961
3.528,0.19944
3.532,0.19801
3.536,0.22847
3.54,0.22441
3.544,0.21944
3.548,0.21412
3.552,0.266
3.556,0.22246
3.56,0.21305
3.564,0.24186
3.568,0.21836
3.572,0.23681
3.576,0.20847
3.58,0.19507
3.584,0.19465
3.588,0.2209
3.592,0.2107
3.596,0.19199
3.6,0.14697
3.604,0.16514
3.608,0.1534
3.612,0.12396
3.616,0.13309
3.62,0.11863
3.624,0.10449
3.628,0.09483
3.632,0.09937
3.636,0.09404
3.64,0.08402
3.644,0.05217
3.648,0.03999
3.652,0.05531
3.656,0.02645
3.66,0.06477
3.664,0.05431
3.668,0.0408
3.672,0.02653
3.676,0.02171
3.68,0.04567
3.684,0.03763
3.688,0.02693
3.692,0.05662
3.696,0.05143
3.7,0.01497
3.704,0.02208
3.708,0.02506
3.712,0.02806
3.716,0.00291
3.72,0.02812
3.724,0.01733
3.728,0.03351
3.732,0.01847
3.736,0.05548
3.74,0.03591
3.744,0.03067
3.748,0.01794
3.752,0.02773
3.756,0.02769
3.76,0.02705
3.764,0.06275
3.768,0.02581
3.772,0.04571
3.776,0.01911
3.78,0.01166
3.784,0.04758
3.788,0.01584
3.792,0.02053
3.796,0.02452
3.8,0.03647
3.804,0.0147
3.808,0.01795
3.812,0.02619
3.816,0.03272
3.82,0.02519
3.824,0.04604
3.828,0.05906
3.832,0.02356
3.836,0.05253
3.84,0.0995
3.844,0.0648
3.848,0.09655
3.852,0.10025
3.856,0.10437
3.86,0.13283
3.864,0.14267
3.868,0.12544
3.872,0.12131
3.876,0.1216
3.88,0.11798
3.884,0.08293
3.888,0.08556
3.892,0.08325
3.896,0.06078
3.9,0.04571
3.904,0.05363
3.908,0.0436
3.912,0.02424
3.916,0.05364
3.92,0.02906
3.924,0.01207
3.928,0.02109
3.932,0.01756
3.936,0.02656
3.94,0.04672
3.944,0.0216
3.948,0.01683
3.952,0.03087
3.956,0.04672
3.96,0.06084
3.964,0.02746
3.968,0.04247
3.972,0.03763
3.976,0.02227
3.98,0.04202
3.984,-0.02432
3.988,-0.04429
3.992,-0.06218
3.996,-0.09084
4.0,-0.05852
4.004,0.08404
4.008,0.26102
4.012,0.45574
4.016,0.67676
4.02,0.87188
4.024,0.99769
4.028,1.02556
4.032,0.91112
4.036,0.76093
4.04,0.52985
4.044,0.32579
4.048,0.11231
4.052,-0.02029
4.056,-0.11237
4.06,-0.10685
4.064,-0.12554
4.068,-0.0767
4.072,-0.04379
4.076,0.00711
4.08,0.03405
4.084,0.03735
4.088,0.02799
4.092,0.0077
4.096,0.03992
4.1,0.04192
4.104,0.04802
4.108,0.03274
4.112,0.02306
4.116,0.03566
4.12,0.0315
4.124,0.02523
4.128,0.03897
4.132,0.03646
4.136,0.03158
4.14,0.04234
4.144,0.02575
4.148,0.05183
4.152,0.02202
4.156,0.03354
4.16,0.06499
4.164,0.04694
4.168,0.0219
4.172,0.01623
4.176,0.0137
4.18,0.02167
4.184,0.03548
4.188,0.02609
4.192,0.03153
4.196,0.06608
4.2,0.06518
4.204,0.05398
4.208,0.05358
4.212,0.05265
4.216,0.03509
4.22,0.06252
4.224,0.06702
4.228,0.07886
4.232,0.05879
4.236,0.1009
4.24,0.10169
4.244,0.14719
4.248,0.11454
4.252,0.13504
4.256,0.16921
4.26,0.15709
4.264,0.1898
4.268,0.17571
4.272,0.2123
4.276,0.19622
4.28,0.213
4.284,0.24114
4.288,0.23147
4.292,0.21664
4.296,0.26813
4.3,0.22372
4.304,0.27092
4.308,0.26946
4.312,0.24699
4.316,0.24919
4.32,0.23942
4.324,0.24028
4.328,0.23654
4.332,0.19013
4.336,0.20004
4.34,0.19036
4.344,0.18528
4.348,0.1786
4.352,0.16585
4.356,0.15323
4.36,0.1669
4.364,0.14391
4.368,0.11302
4.372,0.12477
4.376,0.10086
4.38,0.10063
4.384,0.0912
4.388,0.07651
4.392,0.05023
4.396,0.07378
4.4,0.0569
4.404,0.05407
4.408,0.05169
4.412,0.03721
4.416,0.04593
4.42,0.02219
4.424,0.03144
4.428,0.04415
4.432,0.02947
4.436,0.02392
4.44,0.03794
4.444,0.02786
4.448,0.00305
4.452,0.05594
4.456,0.05817
4.46,0.0267
4.464,0.05193
4.468,0.00776
4.472,0.0438
4.476,0.0119
4.48,0.00988
4.484,0.02706
4.488,0.04189
4.492,0.01048
4.496,0.00849
4.5,0.04868
4.504,0.01231
4.508,0.03117
4.512,0.05682
4.516,0.03289
4.52,0.06349
4.524,0.0355
4.528,0.01193
4.532,0.03033
4.536,0.03893
4.54,0.0085
4.544,0.0394
4.548,0.03948
4.552,0.0307
4.556,0.03792
4.56,0.05677
4.564,0.02348
4.568,0.03703
4.572,0.01654
4.576,0.029
4.58,0.02437
4.584,0.02189
4.588,0.02599
4.592,0.05035
4.596,0.05565
4.6,0.03882
4.604,0.07736
4.608,0.08683
4.612,0.07633
4.616,0.1028
4.62,0.11668
4.624,0.11542
4.628,0.11215
4.632,0.12817
4.636,0.10859
4.64,0.1277
4.644,0.09891
4.648,0.07947
4.652,0.0989
4.656,0.06379
4.66,0.07929
4.664,0.02962
4.668,0.07064
4.672,0.03679
4.676,0.02731
4.68,-0.00208
4.684,0.0433
4.688,0.02934
4.692,0.04059
4.696,0.02466
4.7,0.02812
4.704,0.0394
4.708,-0.00455
4.712,0.03376
4.716,0.05264
4.72,0.01898
4.724,0.02936
4.728,0.04333
4.732,0.03036
4.736,0.03681
4.74,0.04918
4.744,-0.00579
4.748,-0.04847
4.752,-0.07871
4.756,-0.10212
4.76,-0.06063
4.764,0.04318
4.768,0.20572
4.772,0.38977
4.776,0.61653
4.78,0.82289
4.784,0.95986
4.788,1.02335
4.792,0.97052
4.796,0.82769
4.8,0.59117
4.804,0.36503
4.808,0.20533
4.812,0.00353
4.816,-0.09004
4.82,-0.10765
4.824,-0.13019
4.828,-0.09785
4.832,-0.05228
4.836,0.00232
4.84,-0.00419
4.844,0.00358
4.848,0.00813
4.852,0.02323
4.856,0.03203
4.86,0.01545
4.864,0.02653
4.868,0.01994
4.872,0.04125
4.876,0.03072
4.88,0.02235
4.884,0.00973
4.888,0.00426
4.892,0.03266
4.896,0.02476
4.9,0.05446
4.904,0.01477
4.908,0.02519
4.912,0.02775
4.916,0.02812
4.92,0.00669
4.924,0.00627
4.928,0.04682
4.932,0.01018
4.936,0.04975
4.94,0.04716
4.944,0.0409
4.948,0.01248
4.952,0.03908
4.956,0.00877
4.96,0.05007
4.964,0.05674
4.968,0.03381
4.972,0.03196
4.976,0.04367
4.98,0.03244
4.984,0.08264
4.988,0.07472
4.992,0.03397
4.996,0.06504
5.0,0.10218
5.004,0.10269
5.008,0.12959
5.012,0.10363
5.016,0.13868
5.02,0.16326
5.024,0.17355
5.028,0.15794
5.032,0.187
5.036,0.20396
5.04,0.23203
5.044,0.20699
5.048,0.23751
5.052,0.25892
5.056,0.24197
5.06,0.23093
5.064,0.24052
5.068,0.23909
5.072,0.23786
5.076,0.2633
5.08,0.21958
5.084,0.23995
5.088,0.23161
5.092,0.19831
5.096,0.19224
5.1,0.19143
5.104,0.16766
5.108,0.19382
5.112,0.16262
5.116,0.12816
5.12,0.15187
5.124,0.1129
5.128,0.11777
5.132,0.09282
5.136,0.11483
5.14,0.09482
5.144,0.08347
5.148,0.04012
5.152,0.04083
5.156,0.04975
5.16,0.03677
5.164,0.04554
5.168,0.02903
5.172,0.043
5.176,0.02667
5.18,0.03101
5.184,0.00274
5.188,0.01469
5.192,0.01955
5.196,0.01983
5.2,0.01697
5.204,0.03775
5.208,0.00937
5.212,0.02392
5.216,0.04587
5.22,0.02153
5.224,-0.00315
5.228,0.04405
5.232,0.05318
5.236,0.02366
5.24,0.0231
5.244,-0.0058
5.248,0.00316
5.252,0.02
5.256,0.01459
5.26,0.01488
5.264,0.01466
5.268,-0.00702
5.272,0.02907
5.276,0.01033
5.28,0.01461
5.284,0.01761
5.288,0.01265
5.292,0.00327
5.296,0.03651
5.3,0.05315
5.304,0.03766
5.308,0.0379
5.312,0.05002
5.316,0.02305
5.32,0.10241
5.324,0.05952
5.328,0.12275
5.332,0.09038
5.336,0.10908
5.34,0.1307
5.344,0.125
5.348,0.0933
5.352,0.09079
5.356,0.09399
5.36,0.08866
5.364,0.06129
5.368,0.04029
5.372,0.02748
5.376,0.04766
5.38,0.02717
5.384,0.00052
5.388,0.00483
5.392,0.02007
5.396,0.02998
5.4,0.01999
5.404,0.02981
5.408,0.02501
5.412,0.03944
5.416,0.01969
5.42,0.01488
5.424,0.02671
5.428,-0.01178
5.432,0.03346
5.436,0.00143
5.44,0.04184
5.444,-0.01408
5.448,0.01197
5.452,0.00616
5.456,-0.02267
5.46,-0.03437
5.464,-0.05422
5.468,-0.11267
5.472,-0.08533
5.476,-0.01686
5.48,0.11984
5.484,0.2733
5.488,0.50226
5.492,0.6981
5.496,0.89744
5.5,1.01072
5.504,0.98853
5.508,0.90425
5.512,0.67794
5.516,0.43747
5.52,0.23258
5.524,0.04556
5.528,-0.06278
5.532,-0.12916
5.536,-0.14979
5.54,-0.15337
5.544,-0.08532
5.548,-0.02161
5.552,-0.00695
5.556,0.02349
5.56,-0.00933
5.564,0.00318
5.568,-0.00245
5.572,0.02407
5.576,0.01433
5.58,0.01195
5.584,-0.01094
5.588,0.02402
5.592,-0.00591
5.596,-0.01988
5.6,0.02532
5.604,0.00783
5.608,-0.01871
5.612,0.02965
5.616,0.01603
5.62,0.01409
5.624,0.01328
5.628,0.04858
5.632,-0.00275
5.636,-0.00705
5.64,0.01406
5.644,-0.00385
5.648,0.00662
5.652,0.01979
5.656,0.00945
5.66,0.04211
5.664,0.02178
5.668,-0.00284
5.672,0.02345
5.676,0.00681
5.68,0.04007
5.684,0.02286
5.688,0.02109
5.692,0.0106
5.696,0.05454
5.7,0.05758
5.704,0.06326
5.708,0.04773
5.712,0.07602
5.716,0.09081
5.72,0.06674
5.724,0.09704
5.728,0.10073
5.732,0.12283
5.736,0.14802
5.74,0.14919
5.744,0.19126
5.748,0.16627
5.752,0.18128
5.756,0.20066
5.76,0.20135
5.764,0.20858
5.768,0.23763
5.772,0.25432
5.776,0.24338
5.78,0.23227
5.784,0.25024
5.788,0.22486
5.792,0.18571
5.796,0.21685
5.8,0.22633
5.804,0.20843
5.808,0.18975
5.812,0.17597
5.816,0.17871
5.82,0.16549
5.824,0.12801
5.828,0.14061
5.832,0.13929
5.836,0.08615
5.84,0.09478
5.844,0.07554
5.848,0.0688
5.852,0.05223
5.856,0.05945
5.86,0.05492
5.864,0.06717
5.868,0.05073
5.872,0.03017
5.876,0.02515
5.88,0.02919
5.884,0.02456
5.888,0.02155
5.892,-0.00895
5.896,-0.00586
5.9,0.00644
5.904,0.02724
5.908,-0.04768
5.912,-0.02258
5.916,0.00639
5.92,-0.00518
5.924,-0.02105
5.928,-0.00863
5.932,0.00803
5.936,0.00521
5.94,0.00246
5.944,0.02456
5.948,-0.02044
5.952,-0.02199
5.956,0.01475
5.96,-0.01781
5.964,-0.01441
5.968,0.01723
5.972,0.00424
5.976,0.03179
5.98,0.00973
5.984,-0.0082
5.988,0.02981
5.992,0.01846
5.996,-0.01572
6.0,0.0031
6.004,0.00537
6.008,0.02994
6.012,0.02074
6.016,0.00449
6.02,0.02239
6.024,0.03497
6.028,0.04457
6.032,0.05757
6.036,0.06856
6.04,0.06326
6.044,0.09482
6.048,0.10573
6.052,0.0845
6.056,0.11028
6.06,0.07516
6.064,0.10127
6.068,0.05749
6.072,0.0605
6.076,0.05385
6.08,0.05156
6.084,0.03016
6.088,0.0073
6.092,0.03059
6.096,0.01507
6.1,0.02299
6.104,-0.01264
6.108,0.01371
6.112,-0.01733
6.116,0.00064
6.12,-0.0002
6.124,0.01839
6.128,-0.0121
6.132,-0.00893
6.136,0.002
6.14,-0.00753
6.144,-0.00199
6.148,-0.01058
6.152,0.01917
6.156,0.00391
6.16,0.00801
6.164,-0.01844
6.168,-0.01551
6.172,-0.06449
6.176,-0.1052
6.18,-0.11308
6.184,-0.10297
6.188,-0.05866
6.192,0.08231
6.196,0.26358
6.2,0.50728
6.204,0.69949
6.208,0.87597
6.212,0.97754
6.216,0.94673
6.22,0.85781
6.224,0.67099
6.228,0.45605
6.232,0.20652
6.236,0.04042
6.24,-0.11323
6.244,-0.15737
6.248,-0.17756
6.252,-0.1307
6.256,-0.10616
6.26,-0.03925
6.264,-0.03796
6.268,-0.02052
6.272,-0.02257
6.276,-7e-05
6.28,0.01701
6.284,-0.0311
6.288,0.02445
6.292,-0.01889
6.296,0.01477
6.3,-0.00455
6.304,-0.04741
6.308,-0.02027
6.312,-0.00121
6.316,-0.02051
6.32,-0.0114
6.324,-0.0078
6.328,-0.00718
6.332,-0.0152
6.336,-0.02662
6.34,-0.00226
6.344,-0.03341
6.348,-0.03309
6.352,-0.00826
6.356,-0.0175
6.36,-0.0088
6.364,0.01031
6.368,-0.00335
6.372,0.00846
6.376,-0.01977
6.38,0.00355
6.384,0.00779
6.388,0.03501
6.392,-0.00469
6.396,0.03203
6.4,0.02977
6.404,0.03156
6.408,0.04123
6.412,-0.00077
6.416,0.03606
6.42,0.04722
6.424,0.05064
6.428,0.06461
6.432,0.07937
6.436,0.1194
6.44,0.11165
6.444,0.09251
6.448,0.12122
6.452,0.11208
6.456,0.13304
6.46,0.16385
6.464,0.16664
6.468,0.18911
6.472,0.14771
6.476,0.19221
6.48,0.20164
6.484,0.20393
6.488,0.18982
6.492,0.19027
6.496,0.20671
6.5,0.18684
6.504,0.20598
6.508,0.19704
6.512,0.1682
6.516,0.19625
6.52,0.18956
6.524,0.16318
6.528,0.1342
6.532,0.12868
6.536,0.13263
6.54,0.14096
6.544,0.11693
6.548,0.08973
6.552,0.07683
6.556,0.07958
6.56,0.05549
6.564,0.06758
6.568,0.04576
6.572,0.02538
6.576,0.03429
6.58,0.04618
6.584,0.03239
6.588,0.02312
6.592,-0.00175
6.596,-0.02537
6.6,0.00053
6.604,-0.01607
6.608,-0.01618
6.612,-0.02258
6.616,-0.02146
6.62,-0.03071
6.624,-0.01882
6.628,-0.02079
6.632,-0.01188
6.636,-0.01131
6.64,-0.01698
6.644,0.00025
6.648,-0.00993
6.652,-0.01839
6.656,-0.00932
6.66,-0.01697
6.664,-0.00835
6.668,-0.04445
6.672,-0.02786
6.676,-0.0111
6.68,0.01102
6.684,-0.01015
6.688,-0.03643
6.692,-0.02842
6.696,-0.0177
6.7,-0.00606
6.704,0.01224
6.708,-0.01084
6.712,-0.02664
6.716,-0.02302
6.72,0.00358
6.724,-0.01862
6.728,-0.0021
6.732,-0.00827
6.736,0.00078
6.74,-0.01675
6.744,-0.03202
6.748,-0.00869
6.752,-0.06128
6.756,-0.01421
6.76,-0.03516
6.764,-0.03755
6.768,-0.02247
6.772,-0.00912
6.776,-0.02353
6.78,-0.0004
6.784,-0.03433
6.788,-0.03511
6.792,-0.00731
6.796,-0.00595
6.8,-0.00274
6.804,-0.01509
6.808,-0.01684
6.812,-0.01125
6.816,-0.01611
6.82,-0.01052
6.824,-0.01895
6.828,0.00306
6.832,-0.01312
6.836,-0.04015
6.84,-0.01404
6.844,0.00207
6.848,-0.01482
6.852,-0.0227
6.856,-0.0017
6.86,0.0129
6.864,0.00285
6.868,0.02421
6.872,0.06001
6.876,0.04034
6.88,0.07012
6.884,0.0524
6.888,0.095
6.892,0.08744
6.896,0.06772
6.9,0.0533
6.904,0.07114
6.908,0.0524
6.912,0.03587
6.916,0.04738
6.92,0.01769
6.924,0.00652
6.928,-0.00826
6.932,-0.0053
6.936,0.00957
6.94,-0.00816
6.944,-0.00126
6.948,-0.02821
6.952,-0.05423
6.956,-0.03235
6.96,-0.00481
6.964,-0.02539
6.968,-0.03972
6.972,-0.02481
6.976,-0.04558
6.98,-0.01204
6.984,-0.02915
6.988,-0.04072
6.992,-0.02541
6.996,-0.03934
7.0,0.00536
7.004,-0.04416
7.008,-0.06119
7.012,-0.06823
7.016,-0.11333
7.02,-0.11726
7.024,-0.12828
7.028,-0.04997
7.032,0.08665
7.036,0.24351
7.04,0.43727
7.044,0.66834
7.048,0.85731
7.052,0.94719
7.056,0.96488
7.06,0.84503
7.064,0.64075
7.068,0.43098
7.072,0.21113
7.076,0.01729
7.08,-0.07284
7.084,-0.14236
7.088,-0.19761
7.092,-0.17031
7.096,-0.12762
7.1,-0.07094
7.104,-0.05259
7.108,-0.03199
7.112,-0.02636
7.116,-0.00458
7.12,-0.03225
7.124,-0.04919
7.128,-0.02982
7.132,-0.01006
7.136,0.00203
7.14,-0.02976
7.144,-0.03633
7.148,-0.01951
7.152,-0.04818
7.156,-0.02371
7.16,-0.03347
7.164,-0.02718
7.168,-0.0047
7.172,-0.0457
7.176,-0.02939
7.18,-0.00414
7.184,-0.03017
7.188,-0.01562
7.192,-0.0111
7.196,-0.038
7.2,-0.00831
7.204,-0.02507
7.208,-0.03547
7.212,-0.01515
7.216,-0.02917
7.22,-0.02453
7.224,0.00077
7.228,-0.00097
7.232,0.01224
7.236,-0.00906
7.24,-0.02936
7.244,0.00575
7.248,0.02765
7.252,-0.01677
7.256,0.01399
7.26,0.03464
7.264,0.00979
7.268,0.06465
7.272,0.07626
7.276,0.05376
7.28,0.07302
7.284,0.10104
7.288,0.09705
7.292,0.0884
7.296,0.13417
7.3,0.14858
7.304,0.13137
7.308,0.16162
7.312,0.17065
7.316,0.17064
7.32,0.17928
7.324,0.17575
7.328,0.21387
7.332,0.19062
7.336,0.19641
7.34,0.18434
7.344,0.18616
7.348,0.1947
7.352,0.16097
7.356,0.17364
7.36,0.16502
7.364,0.13486
7.368,0.16803
7.372,0.12352
7.376,0.11069
7.38,0.12612
7.384,0.06883
7.388,0.09617
7.392,0.05733
7.396,0.05345
7.4,0.05925
7.404,0.0423
7.408,0.04298
7.412,0.04934
7.416,-0.00818
7.42,0.03218
7.424,0.02306
7.428,0.00675
7.432,-0.02755
7.436,-0.0157
7.44,-0.00574
7.444,-0.01471
7.448,-0.03074
7.452,-0.02725
7.456,-0.01453
7.46,-0.02724
7.464,-0.0403
7.468,-0.03697
7.472,-0.01481
7.476,-0.04946
7.48,0.00392
7.484,-0.02753
7.488,-0.03342
7.492,-0.01312
7.496,-0.01429
7.5,-0.03511
7.504,-0.02601
7.508,-0.02596
7.512,-0.04208
7.516,-0.02984
7.52,-0.03623
7.524,-0.06438
7.528,-0.0231
7.532,-0.02692
7.536,-0.06867
7.54,-0.01652
7.544,-0.04007
7.548,-0.00813
7.552,-0.01807
7.556,-0.0134
7.56,-0.05094
7.564,-0.01475
7.568,-0.02187
7.572,-0.01613
7.576,-0.0532
7.58,-0.01551
7.584,-0.00622
7.588,-0.04788
7.592,-0.03555
7.596,-0.02441
7.6,-0.01503
7.604,-0.02043
7.608,-0.01474
7.612,-0.01734
7.616,-0.03342
7.62,-0.01485
7.624,-0.02903
7.628,-0.02237
7.632,-0.0526
7.636,-0.02999
7.64,-0.02223
7.644,-0.0558
7.648,-0.03926
7.652,-0.06456
7.656,-0.03199
7.66,-0.0419
7.664,-0.03826
7.668,-0.03189
7.672,-0.01263
7.676,-0.02182
7.68,-0.02937
7.684,-0.02697
7.688,-0.04812
7.692,-0.0074
7.696,-0.04109
7.7,-0.00113
7.704,-0.01284
7.708,-0.03651
7.712,-0.05388
7.716,-0.03955
7.72,0.00385
7.724,0.01627
7.728,-0.00221
7.732,0.01279
7.736,0.05092
7.74,0.02249
7.744,0.06312
7.748,0.04282
7.752,0.07274
7.756,0.06243
7.76,0.06695
7.764,0.04559
7.768,0.06813
7.772,0.02393
7.776,0.04059
7.78,0.02236
7.784,0.01457
7.788,-0.0028
7.792,-0.00912
7.796,-0.01028
7.8,-0.01559
7.804,0.00131
7.808,-0.01122
7.812,-0.00649
7.816,-0.01471
7.82,-0.04773
7.824,-0.02355
7.828,-0.02985
7.832,-0.01085
7.836,-0.01919
7.84,-0.02155
7.844,-0.03388
7.848,-0.018
7.852,-0.04282
7.856,-0.03312
7.86,-0.03642
7.864,-0.03471
7.868,-0.03363
7.872,-0.05053
7.876,-0.06898
7.88,-0.09916
7.884,-0.14704
7.888,-0.13595
7.892,-0.1056
7.896,-7e-05
7.9,0.14056
7.904,0.35969
7.908,0.58826
7.912,0.78848
7.916,0.93205
7.92,0.93916
7.924,0.91463
7.928,0.75387
7.932,0.51886
7.936,0.29528
7.94,0.07846
7.944,-0.04475
7.948,-0.18994
7.952,-0.19145
7.956,-0.21256
7.96,-0.14625
7.964,-0.09131
7.968,-0.04698
7.972,-0.05216
7.976,-0.03179
7.98,-0.04559
7.984,-0.03813
7.988,-0.01964
7.992,-0.00508
7.996,-0.03425
8.0,-0.03019
8.004,-0.04998
8.008,-0.03785
8.012,-0.02619
8.016,-0.03392
8.02,-0.03558
8.024,-0.04843
8.028,-0.04173
8.032,-0.00989
8.036,-0.04845
8.04,0.00258
8.044,-0.01452
8.048,-0.02957
8.052,-0.02055
8.056,-0.01133
8.06,-0.04327
8.064,-0.03939
8.068,-0.02532
8.072,0.00436
8.076,-0.03692
8.08,-0.02627
8.084,-0.01691
8.088,-0.04143
8.092,-0.0141
8.096,-0.00304
8.1,0.01486
8.104,0.00515
8.108,0.00597
8.112,0.01173
8.116,0.02793
8.12,0.024
8.124,0.02412
8.128,0.02631
8.132,0.03539
8.136,0.06179
8.14,0.05523
8.144,0.05287
8.148,0.07528
8.152,0.07194
8.156,0.14521
8.16,0.13285
8.164,0.16102
8.168,0.14448
8.172,0.14789
8.176,0.1397
8.18,0.1767
8.184,0.1486
8.188,0.1801
8.192,0.17096
8.196,0.2107
8.2,0.19929
8.204,0.21227
8.208,0.18362
8.212,0.19541
8.216,0.17838
8.22,0.16458
8.224,0.14234
8.228,0.15872
8.232,0.1589
8.236,0.11893
8.24,0.12509
8.244,0.12479
8.248,0.09014
8.252,0.09008
8.256,0.09605
8.26,0.0711
8.264,0.06151
8.268,0.06122
8.272,0.02591
8.276,-0.01434
8.28,-0.0044
8.284,0.00574
8.288,0.00118
8.292,-0.00212
8.296,0.00898
8.3,0.02091
8.304,0.01557
8.308,-0.02926
8.312,-0.02235
8.316,-0.03018
8.32,-0.02605
8.324,-0.01611
8.328,-0.01897
8.332,-0.02924
8.336,-0.00923
8.34,0.02756
8.344,-0.03216
8.348,-0.00689
8.352,-0.02076
8.356,-0.04416
8.36,-0.01138
8.364,0.00286
8.368,-0.01393
8.372,-0.00944
8.376,-0.00923
8.38,0.03426
8.384,-0.01835
8.388,-0.02216
8.392,-0.03815
8.396,-0.01111
8.4,-0.03553
8.404,-0.02511
8.408,-0.05446
8.412,-0.04099
8.416,-0.00423
8.42,-0.02272
8.424,-0.03085
8.428,-0.04317
8.432,-0.01464
8.436,-0.00012
8.44,-0.00694
8.444,-0.00474
8.448,-0.062
8.452,-0.0162
8.456,0.01493
8.46,-0.00955
8.464,-0.06555
8.468,-0.04604
8.472,-0.02827
8.476,-0.01984
8.48,-0.01655
8.484,-0.04818
8.488,-0.02863
8.492,0.00704
8.496,-0.01132
8.5,0.02616
8.504,-0.02911
8.508,-0.02425
8.512,-0.01347
8.516,-0.03006
8.52,0.0073
8.524,-0.01621
8.528,-0.03479
8.532,-0.01959
8.536,-0.0083
8.54,-0.01745
8.544,-0.03818
8.548,-0.04662
8.552,-0.03431
8.556,-0.02722
8.56,-0.04558
8.564,-0.02485
8.568,-0.03092
8.572,-0.00401
8.576,-0.00654
8.58,0.00614
8.584,-0.04229
8.588,-0.03925
8.592,-0.01938
8.596,-0.04276
8.6,-0.0013
8.604,-0.04769
8.608,-0.01488
8.612,-0.0163
8.616,-0.03392
8.62,-0.01072
8.624,-0.03258
8.628,-0.03492
8.632,-0.01172
8.636,-0.00504
8.64,-0.01307
8.644,-0.03604
8.648,-0.00139
8.652,-0.01639
8.656,0.00206
8.66,-0.03495
8.664,-0.04276
8.668,0.00694
8.672,-0.01226
8.676,-0.00285
8.68,-0.00281
8.684,-0.01283
8.688,0.0128
8.692,0.0203
8.696,-0.00615
8.7,0.05727
8.704,0.05256
8.708,0.07656
8.712,0.08961
8.716,0.07974
8.72,0.09639
8.724,0.08305
8.728,0.08083
8.732,0.05961
8.736,0.03014
8.74,0.04571
8.744,0.03333
8.748,0.03581
8.752,-0.00524
8.756,0.00262
8.76,0.01591
8.764,0.02885
8.768,0.00222
8.772,-0.03919
8.776,-0.02928
8.78,0.00479
8.784,-0.01656
8.788,-0.03592
8.792,-0.01693
8.796,-0.02405
8.8,0.00424
8.804,-0.00101
8.808,-0.03702
8.812,-0.00419
8.816,-0.02207
8.82,-0.01063
8.824,-0.01666
8.828,-0.00314
8.832,-0.04607
8.836,-0.06115
8.84,-0.1019
8.844,-0.11096
8.848,-0.12702
8.852,-0.06158
8.856,0.0213
8.86,0.18255
8.864,0.401
8.868,0.6081
8.872,0.78392
8.876,0.94792
8.88,0.97451
8.884,0.91221
8.888,0.71054
8.892,0.51778
8.896,0.30734
8.9,0.08099
8.904,-0.04622
8.908,-0.1439
8.912,-0.16913
8.916,-0.12528
8.92,-0.1387
8.924,-0.05024
8.928,-0.04727
8.932,-0.03706
8.936,-0.0005
8.94,-0.0026
8.944,-0.01763
8.948,-0.01906
8.952,-0.02294
8.956,0.00372
8.96,-0.02164
8.964,0.00532
8.968,0.01257
8.972,0.00169
8.976,-0.02778
8.98,-0.00931
8.984,-0.0257
8.988,-0.0176
8.992,-0.04259
8.996,-0.00416
9.0,0.01834
9.004,-0.01564
9.008,-0.0161
9.012,-0.0217
9.016,-0.01304
9.02,0.00707
9.024,-0.0103
9.028,-0.00795
9.032,-6e-05
9.036,-0.02133
9.04,0.00967
9.044,-0.01658
9.048,-0.00387
9.052,-0.00849
9.056,-0.01104
9.06,0.03409
9.064,0.00542
9.068,0.00504
9.072,0.02492
9.076,0.03422
9.08,0.02636
9.084,0.05379
9.088,0.05299
9.092,0.08682
9.096,0.07328
9.1,0.0762
9.104,0.11406
9.108,0.13579
9.112,0.12313
9.116,0.13415
9.12,0.14562
9.124,0.16617
9.128,0.15862
9.132,0.16854
9.136,0.19056
9.14,0.20216
9.144,0.20304
9.148,0.17308
9.152,0.19854
9.156,0.21476
9.16,0.2329
9.164,0.19574
9.168,0.21505
9.172,0.21813
9.176,0.21077
9.18,0.19164
9.184,0.17178
9.188,0.17262
9.192,0.18788
9.196,0.13073
9.2,0.14348
9.204,0.14908
9.208,0.12614
9.212,0.12243
9.216,0.09678
9.22,0.08756
9.224,0.06375
9.228,0.05027
9.232,0.07297
9.236,0.03749
9.24,0.03872
9.244,0.05268
9.248,0.03146
9.252,0.01368
9.256,0.00727
9.26,0.02081
9.264,0.00222
9.268,-0.01213
9.272,0.03656
9.276,-0.03245
9.28,0.00964
9.284,-0.01868
9.288,0.00651
9.292,0.02962
9.296,-0.02126
9.3,0.01216
9.304,0.01871
9.308,0.01377
9.312,0.00218
9.316,-0.00971
9.32,-0.00991
9.324,-0.00235
9.328,0.02989
9.332,-0.00268
9.336,-0.00737
9.34,-0.01392
9.344,-0.00274
9.348,-0.01055
9.352,-0.00907
9.356,0.00721
9.36,0.02304
9.364,-0.00826
9.368,0.01786
9.372,-0.02271
9.376,0.01263
9.38,0.00208
9.384,0.02306
9.388,-0.00524
9.392,0.00594
9.396,0.01185
9.4,-0.00186
9.404,-0.00278
9.408,-0.01924
9.412,-0.02107
9.416,-0.00232
9.42,-0.05074
9.424,-0.00604
9.428,-0.01663
9.432,-0.0075
9.436,-0.02904
9.44,-0.00973
9.444,0.00583
9.448,-0.00496
9.452,0.00941
9.456,0.03633
9.46,0.01623
9.464,0.01084
9.468,0.02155
9.472,0.02221
9.476,0.00706
9.48,0.00943
9.484,0.04796
9.488,-0.0096
9.492,0.01246
9.496,-0.00204
9.5,0.01826
9.504,0.02867
9.508,0.04177
9.512,0.05059
9.516,0.06175
9.52,0.07378
9.524,0.07557
9.528,0.11701
9.532,0.12857
9.536,0.11037
9.54,0.12476
9.544,0.11541
9.548,0.10586
9.552,0.07523
9.556,0.06173
9.56,0.0384
9.564,0.03696
9.568,0.04384
9.572,-0.01346
9.576,0.0218
9.58,0.03371
9.584,0.01693
9.588,0.00613
9.592,0.01119
9.596,0.02554
9.6,0.02284
9.604,0.01139
9.608,-0.01917
9.612,-0.0181
9.616,0.01929
9.62,0.02333
9.624,-0.00182
9.628,0.03647
9.632,-0.01663
9.636,-0.00483
9.64,0.00865
9.644,0.00702
9.648,-0.00924
9.652,-0.02836
9.656,-0.06557
9.66,-0.07379
9.664,-0.11304
9.668,-0.062
9.672,0.0931
9.676,0.25465
9.68,0.46822
9.684,0.673
9.688,0.89555
9.692,0.99746
9.696,1.00393
9.7,0.89579
9.704,0.70357
9.708,0.51836
9.712,0.26006
9.716,0.07147
9.72,-0.06677
9.724,-0.12103
9.728,-0.16618
9.732,-0.13711
9.736,-0.09904
9.74,-0.06495
9.744,-0.03077
9.748,-0.00703
9.752,0.02243
9.756,0.01574
9.76,0.00165
9.764,0.01434
9.768,0.0037
9.772,0.04092
9.776,0.05132
9.78,-0.00739
9.784,0.0278
9.788,0.02696
9.792,0.02636
9.796,0.01583
9.8,0.0262
9.804,0.00257
9.808,0.03416
9.812,-0.00768
9.816,-0.00446
9.82,0.03435
9.824,0.00128
9.828,0.03208
9.832,0.02908
9.836,0.02084
9.84,-0.00566
9.844,0.03152
9.848,0.01987
9.852,0.01968
9.856,-0.01177
9.86,0.01949
9.864,0.04069
9.868,0.05399
9.872,0.05447
9.876,0.01212
9.88,0.05312
9.884,0.04828
9.888,0.06733
9.892,0.05762
9.896,0.07156
9.9,0.06605
9.904,0.10263
9.908,0.09011
9.912,0.08848
9.916,0.1075
9.92,0.12156
9.924,0.13864
9.928,0.14437
9.932,0.16351
9.936,0.16262
9.94,0.16896
9.944,0.18339
9.948,0.21404
9.952,0.18114
9.956,0.21155
9.96,0.2461
9.964,0.22295
9.968,0.2406
9.972,0.21612
9.976,0.23775
9.98,0.23512
9.984,0.24029
9.988,0.23263
9.992,0.24302
9.996,0.20687
