t_seg,ecg_mV
0.0,0.97932
0.004,1.00171
0.008,1.0162
0.012,0.80472
0.016,0.64067
0.02,0.39688
0.024,0.13918
0.028,-0.09049
0.032,-0.06014
0.036,-0.24333
0.04,-0.08684
0.044,-0.20149
0.048,-0.07871
0.052,0.02166
0.056,0.02996
0.06,-0.04144
0.064,-0.02164
0.068,0.00097
0.072,-0.00033
0.076,0.05928
0.08,-0.02628
0.084,0.07089
0.088,0.00617
0.092,0.07628
0.096,0.03807
0.1,0.02668
0.104,-0.00066
0.108,0.06045
0.112,0.05869
0.116,0.06449
0.12,0.039
0.124,0.04537
0.128,0.02183
0.132,0.0457
0.136,-0.01167
0.14,0.05759
0.144,0.00155
0.148,0.04739
0.152,-0.05341
0.156,0.00669
0.16,-0.00384
0.164,0.08169
0.168,0.10731
0.172,-0.02254
0.176,0.02728
0.18,0.07022
0.184,0.03837
0.188,0.10746
0.192,0.04125
0.196,0.09025
0.2,0.10952
0.204,0.04756
0.208,0.05264
0.212,0.08329
0.216,0.05712
0.22,0.09967
0.224,0.08446
0.228,0.1134
0.232,0.15055
0.236,0.1256
0.24,0.09191
0.244,0.10299
0.248,0.17047
0.252,0.13588
0.256,0.23218
0.26,0.13801
0.264,0.2261
0.268,0.27549
0.272,0.19922
0.276,0.23021
0.28,0.21962
0.284,0.23902
0.288,0.28499
0.292,0.21959
0.296,0.24853
0.3,0.24897
0.304,0.2054
0.308,0.21272
0.312,0.17759
0.316,0.18416
0.32,0.16616
0.324,0.12996
0.328,0.17606
0.332,0.15927
0.336,0.08546
0.34,0.17634
0.344,0.10347
0.348,0.09412
0.352,0.08096
0.356,0.10826
0.36,0.05357
0.364,0.02145
0.368,0.00065
0.372,0.02083
0.376,0.05243
0.38,0.02495
0.384,0.03171
0.388,0.01275
0.392,0.06246
0.396,0.01453
0.4,0.01142
0.404,0.03485
0.408,0.0296
0.412,0.04433
0.416,0.04815
0.42,0.00817
0.424,0.05596
0.428,-0.02309
0.432,0.02477
0.436,0.00856
0.44,-0.01724
0.444,0.00072
0.448,-0.00685
0.452,0.06793
0.456,0.0871
0.46,-0.01475
0.464,0.09259
0.468,0.07825
0.472,0.04399
0.476,0.02222
0.48,0.0862
0.484,0.0671
0.488,0.1182
0.492,0.11254
0.496,0.12973
0.5,0.08289
0.504,0.12296
0.508,0.1556
0.512,0.00919
0.516,-0.01346
0.52,0.1001
0.524,0.03625
0.528,0.09361
0.532,0.02802
0.536,-0.0372
0.54,-0.05023
0.544,-0.01286
0.548,0.05594
0.552,0.01097
0.556,-0.00656
0.56,0.10331
0.564,0.02808
0.568,0.03631
0.572,0.01183
0.576,0.08161
0.58,0.01593
0.584,0.0224
0.588,0.01147
0.592,-0.0076
0.596,0.03863
0.6,-0.02136
0.604,0.01933
0.608,-0.03028
0.612,-0.08212
0.616,-0.09542
0.62,-0.13784
0.624,-0.08709
0.628,-0.18398
0.632,-0.01621
0.636,0.22231
0.64,0.42853
0.644,0.62299
0.648,0.84598
0.652,0.93015
0.656,0.97883
0.66,0.92207
0.664,0.78563
0.668,0.50957
0.672,0.34582
0.676,0.19057
0.68,-0.06784
0.684,-0.09277
0.688,-0.1161
0.692,-0.1983
0.696,-0.07512
0.7,-0.04668
0.704,-0.04346
0.708,0.00943
0.712,-0.00273
0.716,0.01352
0.72,0.03919
0.724,-0.01957
0.728,0.02613
0.732,0.01834
0.736,0.05251
0.74,-0.04094
0.744,-0.03446
0.748,-0.02672
0.752,0.01045
0.756,0.03235
0.76,-0.03545
0.764,-0.00435
0.768,0.05126
0.772,0.02982
0.776,-0.01222
0.78,-0.05418
0.784,-0.00804
0.788,-0.0164
0.792,0.01174
0.796,0.05487
0.8,-0.01369
0.804,-0.03421
0.808,0.03604
0.812,0.03271
0.816,0.06981
0.82,0.00129
0.824,0.03252
0.828,-0.0349
0.832,0.11242
0.836,-0.0296
0.84,0.01049
0.844,-0.02578
0.848,-0.02129
0.852,-0.01085
0.856,0.0576
0.86,0.0272
0.864,0.07276
0.868,0.05409
0.872,0.07574
0.876,0.05483
0.88,0.04733
0.884,0.10829
0.888,0.16022
0.892,0.06099
0.896,0.08054
0.9,0.19776
0.904,0.20154
0.908,0.19427
0.912,0.14382
0.916,0.18474
0.92,0.20509
0.924,0.23932
0.928,0.23459
0.932,0.15321
0.936,0.16079
0.94,0.20238
0.944,0.19613
0.948,0.23926
0.952,0.24544
0.956,0.21196
0.96,0.12136
0.964,0.15148
0.968,0.16006
0.972,0.11391
0.976,0.14588
0.98,0.09455
0.984,0.12367
0.988,0.13275
0.992,0.06201
0.996,0.11026
1.0,0.0001
1.004,0.01767
1.008,0.10049
1.012,0.03103
1.016,0.01188
1.02,-3e-05
1.024,0.03165
1.028,0.03679
1.032,-0.03275
1.036,0.02963
1.04,0.04371
1.044,0.00278
1.048,0.03816
1.052,-0.02602
1.056,-0.03785
1.06,-0.0431
1.064,0.04073
1.068,-0.04394
1.072,0.02462
1.076,0.0115
1.08,-0.03618
1.084,-0.00331
1.088,0.09209
1.092,-0.06852
1.096,0.07213
1.1,-0.05382
1.104,-0.05811
1.108,0.01777
1.112,0.03207
1.116,0.05708
1.12,0.00402
1.124,0.01141
1.128,0.02083
1.132,-0.02477
1.136,0.05311
1.14,-0.01161
1.144,-0.0177
1.148,0.01146
1.152,-0.02423
1.156,0.00822
1.16,0.01884
1.164,0.00419
1.168,-0.05075
1.172,0.02386
1.176,-0.04379
1.18,0.03077
1.184,0.04178
1.188,0.01021
1.192,0.00174
1.196,-0.00466
1.2,-0.04319
1.204,-0.0354
1.208,0.0076
1.212,-0.00638
1.216,-0.01755
1.22,-0.02304
1.224,-0.10071
1.228,-0.03334
1.232,-0.05949
1.236,-0.01307
1.24,0.0033
1.244,0.05239
1.248,0.00531
1.252,-0.01662
1.256,0.01621
1.26,-0.0394
1.264,0.0194
1.268,-0.03573
1.272,0.03579
1.276,0.01305
1.28,-0.01253
1.284,-0.04843
1.288,-0.09484
1.292,-0.02946
1.296,-0.00827
1.3,-0.06761
1.304,-0.00896
1.308,0.01635
1.312,0.05446
1.316,-0.06599
1.32,-0.02367
1.324,0.00133
1.328,0.0615
1.332,0.02248
1.336,0.03483
1.34,0.02608
1.344,-0.05943
1.348,-0.00315
1.352,-0.00803
1.356,-0.0457
1.36,0.00424
1.364,-0.00231
1.368,0.08074
1.372,-0.01053
1.376,-0.04205
1.38,-0.02906
1.384,0.03745
1.388,0.05491
1.392,0.02463
1.396,-0.00333
1.4,-0.04202
1.404,-0.04382
1.408,-1e-05
1.412,-0.0283
1.416,0.04875
1.42,-0.05001
1.424,-0.02419
1.428,0.01435
1.432,-0.02731
1.436,-0.06922
1.44,-0.01236
1.444,0.01204
1.448,-0.03362
1.452,-0.05395
1.456,-0.02778
1.46,-0.04908
1.464,0.02535
1.468,-0.01553
1.472,-0.00694
1.476,0.00489
1.48,-0.02477
1.484,-0.02536
1.488,-0.06473
1.492,-0.12026
1.496,-0.05147
1.5,-0.04118
1.504,-0.05736
1.508,-0.03147
1.512,-0.0726
1.516,-0.02295
1.52,0.03013
1.524,-0.05108
1.528,0.0519
1.532,-0.00294
1.536,0.0137
1.54,0.00512
1.544,0.06846
1.548,0.00335
1.552,0.02129
1.556,0.07428
1.56,0.03731
1.564,0.01169
1.568,-0.00188
1.572,0.10221
1.576,0.03917
1.58,0.1415
1.584,0.01628
1.588,0.00261
1.592,-0.02125
1.596,-0.00101
1.6,-0.00962
1.604,-0.0144
1.608,-0.03426
1.612,-0.07307
1.616,-0.01755
1.62,-0.01621
1.624,0.00281
1.628,-0.01788
1.632,-0.09264
1.636,0.01046
1.64,-0.04829
1.644,-0.03132
1.648,-0.0097
1.652,-0.0322
1.656,-0.00237
1.66,-0.11149
1.664,0.00369
1.668,-0.00726
1.672,-0.03297
1.676,-0.05292
1.68,-0.04668
1.684,-0.15037
1.688,-0.07198
1.692,-0.11589
1.696,-0.13514
1.7,-0.04057
1.704,0.08016
1.708,0.27851
1.712,0.48398
1.716,0.69859
1.72,0.86904
1.724,0.97566
1.728,0.95317
1.732,0.86172
1.736,0.62059
1.74,0.44062
1.744,0.16223
1.748,0.01095
1.752,-0.12208
1.756,-0.18163
1.76,-0.21553
1.764,-0.13323
1.768,-0.07181
1.772,-0.08627
1.776,-0.03156
1.78,-0.03134
1.784,-0.00241
1.788,-0.03774
1.792,-0.04439
1.796,0.00418
1.8,-0.00928
1.804,-0.01368
1.808,-0.07385
1.812,-0.07205
1.816,0.00116
1.82,-0.00234
1.824,-0.08538
1.828,-0.04153
1.832,-0.03421
1.836,-0.05941
1.84,-0.02972
1.844,-0.03893
1.848,-0.06819
1.852,-0.00073
1.856,-0.07144
1.86,0.03234
1.864,-0.06154
1.868,-0.06437
1.872,-0.07192
1.876,-0.01563
1.88,-0.04559
1.884,-0.0183
1.888,-0.05936
1.892,-0.03064
1.896,-0.00727
1.9,0.00112
1.904,0.00032
1.908,0.03673
1.912,0.0298
1.916,-0.03555
1.92,-0.03407
1.924,0.03371
1.928,-0.00827
1.932,0.01332
1.936,-0.00319
1.94,0.06345
1.944,0.09462
1.948,0.10611
1.952,0.07561
1.956,0.16064
1.96,0.15458
1.964,0.07209
1.968,0.20922
1.972,0.13856
1.976,0.15653
1.98,0.18067
1.984,0.17895
1.988,0.2357
1.992,0.16696
1.996,0.21977
2.0,0.18594
2.004,0.1823
2.008,0.20489
2.012,0.15007
2.016,0.13547
2.02,0.16835
2.024,0.14335
2.028,0.14701
2.032,0.15836
2.036,0.08836
2.04,0.10321
2.044,0.14626
2.048,0.13966
2.052,0.09927
2.056,0.03227
2.06,0.05213
2.064,0.08496
2.068,0.06108
2.072,0.07666
2.076,0.07654
2.08,0.00432
2.084,-0.01092
2.088,0.05058
2.092,-0.00074
2.096,0.0464
2.1,-0.01948
2.104,0.03411
2.108,-0.04588
2.112,-0.01739
2.116,0.00845
2.12,0.01594
2.124,-0.06056
2.128,-0.01656
2.132,0.03456
2.136,-0.06448
2.14,-0.01587
2.144,-0.04041
2.148,-0.02817
2.152,-0.02608
2.156,-0.01881
2.16,-0.05394
2.164,-0.05344
2.168,-0.03032
2.172,-0.023
2.176,0.00214
2.18,-0.04674
2.184,0.0147
2.188,-0.01081
2.192,-0.12066
2.196,-0.05852
2.2,-0.00077
2.204,-0.07927
2.208,-0.01068
2.212,0.00909
2.216,-0.04348
2.22,-0.00807
2.224,0.00462
2.228,-0.01284
2.232,-0.06149
2.236,0.00201
2.24,-0.00627
2.244,-0.02413
2.248,0.04159
2.252,-0.01052
2.256,-0.0032
2.26,-0.05946
2.264,-0.00078
2.268,-0.0454
2.272,-0.10473
2.276,-0.05027
2.28,-0.02616
2.284,-0.02869
2.288,-0.03639
2.292,-0.0687
2.296,-0.08878
2.3,-0.06828
2.304,-0.01825
2.308,-0.04
2.312,-0.04952
2.316,-0.0416
2.32,-0.0218
2.324,0.05643
2.328,0.0192
2.332,0.00318
2.336,0.01514
2.34,-0.00609
2.344,0.07295
2.348,0.01117
2.352,0.07707
2.356,0.08345
2.36,0.06924
2.364,0.09867
2.368,0.06791
2.372,0.08422
2.376,-0.00995
2.38,0.02669
2.384,0.03465
2.388,0.00673
2.392,0.00529
2.396,-0.00535
2.4,0.0064
2.404,-0.07371
2.408,-0.01776
2.412,-0.08091
2.416,0.00201
2.42,-0.02429
2.424,-0.00028
2.428,-0.0202
2.432,-0.04182
2.436,-0.08502
2.44,-0.01316
2.444,-0.02077
2.448,-0.07951
2.452,-0.01771
2.456,-0.01355
2.46,-0.03993
2.464,-0.01312
2.468,-0.06363
2.472,-0.0706
2.476,0.01529
2.48,-0.06569
2.484,-0.11597
2.488,-0.19332
2.492,-0.15252
2.496,-0.07687
2.5,0.06282
2.504,0.1244
2.508,0.3695
2.512,0.56664
2.516,0.80148
2.52,0.9807
2.524,0.97295
2.528,0.9287
2.532,0.71865
2.536,0.43103
2.54,0.29755
2.544,0.07134
2.548,-0.05757
2.552,-0.14023
2.556,-0.18149
2.56,-0.14312
2.564,-0.12399
2.568,-0.04971
2.572,-0.07657
2.576,-0.03283
2.58,-0.09187
2.584,-0.06692
2.588,-0.0468
2.592,-0.04232
2.596,0.00943
2.6,-0.04373
2.604,0.02492
2.608,0.00731
2.612,0.00234
2.616,-0.03777
2.62,-0.05008
2.624,0.04946
2.628,-0.03522
2.632,-0.0064
2.636,-0.03941
2.64,-0.05472
2.644,-0.0615
2.648,-0.01978
2.652,-0.03381
2.656,-0.01411
2.66,-0.04813
2.664,-0.04404
2.668,-0.04635
2.672,0.00677
2.676,0.03941
2.68,-0.0373
2.684,-0.01511
2.688,-0.02801
2.692,0.01945
2.696,-0.02774
2.7,0.05209
2.704,-0.04008
2.708,0.07427
2.712,0.09432
2.716,0.01811
2.72,0.08708
2.724,0.08058
2.728,0.05404
2.732,0.18206
2.736,0.08831
2.74,0.11289
2.744,0.15285
2.748,0.17627
2.752,0.17873
2.756,0.13697
2.76,0.11451
2.764,0.16906
2.768,0.12364
2.772,0.23875
2.776,0.18586
2.78,0.18708
2.784,0.22988
2.788,0.23957
2.792,0.13161
2.796,0.26545
2.8,0.23844
2.804,0.24389
2.808,0.20816
2.812,0.22888
2.816,0.20785
2.82,0.16984
2.824,0.11838
2.828,0.19502
2.832,0.18455
2.836,0.09954
2.84,0.13711
2.844,0.16056
2.848,0.03985
2.852,0.0055
2.856,0.03506
2.86,-0.0154
2.864,-0.07087
2.868,-0.03774
2.872,0.0279
2.876,0.1386
2.88,0.26516
2.884,0.46834
2.888,0.68129
2.892,0.96701
2.896,0.98469
2.9,1.01009
2.904,0.85382
2.908,0.68102
2.912,0.45514
2.916,0.23968
2.92,-0.02171
2.924,-0.07946
2.928,-0.22848
2.932,-0.16079
2.936,-0.10547
2.94,-0.02548
2.944,-0.05582
2.948,-0.09333
2.952,-0.02322
2.956,-0.04422
2.96,0.00728
2.964,0.02675
2.968,-0.04392
2.972,-0.09422
2.976,-0.01296
2.98,-0.02311
2.984,-0.04314
2.988,-0.00662
2.992,0.03926
2.996,-0.0087
3.0,-0.02607
3.004,0.01967
3.008,0.02589
3.012,-0.01333
3.016,-0.00332
3.02,0.00365
3.024,0.00949
3.028,-0.05848
3.032,-0.07697
3.036,-0.07291
3.04,-0.03437
3.044,0.01823
3.048,-0.02653
3.052,0.00889
3.056,-0.03526
3.06,-0.02612
3.064,0.0608
3.068,0.03549
3.072,-0.00096
3.076,0.01994
3.08,0.01665
3.084,0.01414
3.088,0.0258
3.092,0.01657
3.096,0.01408
3.1,0.03507
3.104,0.05264
3.108,0.03781
3.112,0.02009
3.116,0.03018
3.12,0.04499
3.124,0.06693
3.128,0.07088
3.132,0.10039
3.136,0.11035
3.14,0.17248
3.144,0.15855
3.148,0.14664
3.152,0.15348
3.156,0.17643
3.16,0.18721
3.164,0.25526
3.168,0.12224
3.172,0.25788
3.176,0.16737
3.18,0.22212
3.184,0.20329
3.188,0.18607
3.192,0.17706
3.196,0.24289
3.2,0.1813
3.204,0.15508
3.208,0.13911
3.212,0.0818
3.216,0.0976
3.22,0.13279
3.224,0.10099
3.228,0.07956
3.232,0.06367
3.236,0.13661
3.24,0.07206
3.244,0.0745
3.248,0.11562
3.252,0.03472
3.256,0.0304
3.26,0.02028
3.264,-0.01614
3.268,0.09617
3.272,-0.00956
3.276,-0.02247
3.28,0.02823
3.284,0.03082
3.288,-0.01212
3.292,0.0238
3.296,-0.01836
3.3,-0.00138
3.304,-0.01119
3.308,-0.05204
3.312,0.00197
3.316,-0.02194
3.32,0.00948
3.324,-0.01712
3.328,-0.00975
3.332,0.02412
3.336,-0.02025
3.34,-0.0756
3.344,-0.05082
3.348,0.03396
3.352,-0.08172
3.356,-0.06726
3.36,0.05893
3.364,-0.01952
3.368,-0.0122
3.372,0.01402
3.376,-0.01277
3.38,-0.07231
3.384,-0.06636
3.388,-0.02973
3.392,-0.05491
3.396,-0.01922
3.4,-0.06118
3.404,-0.04495
3.408,-0.00404
3.412,-0.03758
3.416,0.00671
3.42,-0.03528
3.424,0.05499
3.428,-0.08119
3.432,-0.04992
3.436,-0.0251
3.44,-0.0457
3.444,-0.02198
3.448,0.07045
3.452,-0.04097
3.456,0.03252
3.46,0.07645
3.464,0.08036
3.468,0.09184
3.472,0.08649
3.476,0.05104
3.48,0.04188
3.484,0.0495
3.488,0.05538
3.492,0.02739
3.496,0.06558
3.5,0.03307
3.504,-0.02529
3.508,0.04747
3.512,0.0243
3.516,0.03106
3.52,-0.01902
3.524,-0.00688
3.528,0.03882
3.532,0.00163
3.536,-0.00105
3.54,-0.01885
3.544,-0.08651
3.548,-0.00407
3.552,-0.0245
3.556,-0.03754
3.56,0.00181
3.564,-0.04505
3.568,0.01805
3.572,-0.05159
3.576,-0.01858
3.58,-0.03605
3.584,-0.00754
3.588,-0.10532
3.592,-0.03233
3.596,-0.09892
3.6,-0.13475
3.604,-0.14705
3.608,-0.09147
3.612,-0.04864
3.616,0.03506
3.62,0.32236
3.624,0.51929
3.628,0.67854
3.632,0.89953
3.636,0.91341
3.64,0.9984
3.644,0.86006
3.648,0.66233
3.652,0.44596
3.656,0.23237
3.66,0.02031
3.664,-0.07297
3.668,-0.17402
3.672,-0.29729
3.676,-0.19097
3.68,-0.05869
3.684,-0.02166
3.688,-0.08244
3.692,-0.0294
3.696,0.02313
3.7,-0.06943
3.704,-0.0627
3.708,-0.03021
3.712,-0.08704
3.716,-0.06966
3.72,-0.04533
3.724,-0.00731
3.728,-0.03188
3.732,-0.00539
3.736,0.01578
3.74,0.0045
3.744,0.04266
3.748,-0.01441
3.752,0.00754
3.756,0.01552
3.76,-0.06079
3.764,-0.02984
3.768,-0.02141
3.772,-0.02284
3.776,-0.01664
3.78,0.05655
3.784,0.00259
3.788,-0.03226
3.792,-0.03019
3.796,0.007
3.8,0.01175
3.804,-0.0195
3.808,0.04515
3.812,-0.01355
3.816,0.04233
3.82,0.03621
3.824,0.01305
3.828,0.04112
3.832,0.03687
3.836,0.05112
3.84,0.04858
3.844,0.04386
3.848,0.08504
3.852,0.00296
3.856,0.07176
3.86,0.01274
3.864,0.10666
3.868,0.11792
3.872,0.09577
3.876,0.17714
3.88,0.18429
3.884,0.07804
3.888,0.16165
3.892,0.19388
3.896,0.19424
3.9,0.24268
3.904,0.21242
3.908,0.13975
3.912,0.23626
3.916,0.2232
3.92,0.21443
3.924,0.21247
3.928,0.18895
3.932,0.2287
3.936,0.18037
3.94,0.10074
3.944,0.20004
3.948,0.20405
3.952,0.16047
3.956,0.16753
3.96,0.18222
3.964,0.20741
3.968,0.09013
3.972,0.16591
3.976,0.1012
3.98,0.04536
3.984,0.05156
3.988,0.06405
3.992,0.07393
3.996,0.02853
4.0,0.04665
4.004,0.00725
4.008,0.05747
4.012,0.04808
4.016,0.0053
4.02,-0.01147
4.024,-0.05325
4.028,-0.03874
4.032,0.05142
4.036,-0.05705
4.04,0.069
4.044,-0.00896
4.048,-0.00053
4.052,0.02683
4.056,0.01491
4.06,0.02251
4.064,-0.01594
4.068,0.06054
4.072,-0.03545
4.076,0.01177
4.08,0.06444
4.084,-0.06087
4.088,0.00284
4.092,0.02414
4.096,-0.01691
4.1,-0.03349
4.104,0.06666
4.108,-0.04541
4.112,0.0113
4.116,0.00749
4.12,-0.05853
4.124,-0.03179
4.128,-0.02242
4.132,0.01634
4.136,0.04547
4.14,0.06082
4.144,-0.04227
4.148,-0.03849
4.152,-0.01485
4.156,0.08322
4.16,0.04641
4.164,-0.01611
4.168,-0.00778
4.172,-0.00514
4.176,-0.01216
4.18,0.00139
4.184,0.00436
4.188,-0.01533
4.192,0.00514
4.196,-0.05359
4.2,-0.08171
4.204,-0.0004
4.208,0.01698
4.212,0.02098
4.216,0.01627
4.22,0.00625
4.224,0.01111
4.228,0.03045
4.232,-0.00666
4.236,-0.01091
4.24,0.03231
4.244,0.02546
4.248,0.07605
4.252,0.02918
4.256,0.01656
4.26,-0.02949
4.264,-0.08214
4.268,0.02923
4.272,0.06538
4.276,0.00602
4.28,0.01445
4.284,0.10847
4.288,0.0406
4.292,0.07708
4.296,0.10614
4.3,0.13654
4.304,0.09957
4.308,0.11968
4.312,0.13466
4.316,0.05409
4.32,0.09971
4.324,0.06672
4.328,0.09458
4.332,0.01215
4.336,0.09825
4.34,0.03845
4.344,0.01419
4.348,-0.01947
4.352,0.0384
4.356,0.01377
4.36,0.0051
4.364,0.00156
4.368,-0.00964
4.372,0.00725
4.376,0.03641
4.38,0.00637
4.384,-0.00927
4.388,0.07523
4.392,0.04422
4.396,0.03724
4.4,-0.00982
4.404,-0.02409
4.408,-0.02711
4.412,0.01002
4.416,-0.03467
4.42,0.04619
4.424,0.00804
4.428,-0.00942
4.432,-0.0681
4.436,-0.10176
4.44,-0.06095
4.444,-0.03202
4.448,0.12169
4.452,0.26803
4.456,0.60224
4.46,0.75839
4.464,0.8902
4.468,1.03876
4.472,0.96197
4.476,0.84381
4.48,0.66737
4.484,0.45776
4.488,0.20484
4.492,-0.00071
4.496,-0.07418
4.5,-0.13839
4.504,-0.20934
4.508,-0.06028
4.512,-0.13381
4.516,-0.05482
4.52,0.03901
4.524,-0.0161
4.528,0.02832
4.532,0.02737
4.536,-0.01039
4.54,0.02884
4.544,0.00967
4.548,0.08551
4.552,-0.01148
4.556,0.07449
4.56,-0.03307
4.564,-0.00298
4.568,0.0037
4.572,0.00892
4.576,0.00492
4.58,0.02069
4.584,-0.03272
4.588,-0.0071
4.592,0.00114
4.596,0.00427
4.6,0.01757
4.604,0.01096
4.608,0.06657
4.612,0.0785
4.616,-0.01013
4.62,0.00546
4.624,0.02876
4.628,0.01773
4.632,0.03609
4.636,0.01676
4.64,0.04473
4.644,0.05021
4.648,0.00846
4.652,0.09425
4.656,0.04585
4.66,0.0401
4.664,0.06246
4.668,0.10758
4.672,0.11035
4.676,0.10893
4.68,0.05052
4.684,0.04309
4.688,0.10087
4.692,0.11326
4.696,0.07666
4.7,0.17076
4.704,0.094
4.708,0.11544
4.712,0.15348
4.716,0.14762
4.72,0.21124
4.724,0.13845
4.728,0.28128
4.732,0.19876
4.736,0.16089
4.74,0.2426
4.744,0.25472
4.748,0.18067
4.752,0.20622
4.756,0.22715
4.76,0.23539
4.764,0.22316
4.768,0.20562
4.772,0.22873
4.776,0.19123
4.78,0.21754
4.784,0.17844
4.788,0.15223
4.792,0.14624
4.796,0.10711
4.8,0.14311
4.804,0.12943
4.808,0.18662
4.812,0.10051
4.816,0.04828
4.82,0.06551
4.824,0.09912
4.828,0.05728
4.832,0.18965
4.836,0.13388
4.84,0.11952
4.844,0.16668
4.848,0.15731
4.852,0.18388
4.856,0.09184
4.86,0.11855
4.864,0.05224
4.868,0.06368
4.872,0.11903
4.876,0.00883
4.88,0.05392
4.884,0.0572
4.888,0.03673
4.892,0.01228
4.896,0.0665
4.9,0.03863
4.904,-0.00163
4.908,-0.0066
4.912,0.0485
4.916,0.00889
4.92,0.05036
4.924,0.00804
4.928,-0.07242
4.932,0.02262
4.936,0.04228
4.94,0.02828
4.944,0.03619
4.948,-0.00249
4.952,0.06803
4.956,0.10639
4.96,-0.00497
4.964,-0.04199
4.968,-0.10498
4.972,-0.13698
4.976,-0.07731
4.98,-0.01678
4.984,0.17781
4.988,0.26742
4.992,0.60151
4.996,0.82444
5.0,0.97727
5.004,1.05049
5.008,0.96595
5.012,0.84279
5.016,0.67796
5.02,0.44765
5.024,0.27034
5.028,0.07483
5.032,-0.12088
5.036,-0.15156
5.04,-0.13353
5.044,-0.09253
5.048,-0.01474
5.052,-0.08207
5.056,-0.0192
5.06,0.02457
5.064,0.03682
5.068,0.00565
5.072,0.06481
5.076,0.03542
5.08,-0.04454
5.084,-0.00471
5.088,0.05068
5.092,0.01469
5.096,-0.00634
5.1,-0.00554
5.104,0.03065
5.108,0.01941
5.112,-0.00522
5.116,0.02454
5.12,-0.02759
5.124,0.01009
5.128,0.01907
5.132,-0.00796
5.136,-0.07041
5.14,0.00134
5.144,0.03037
5.148,0.01663
5.152,0.07155
5.156,0.00232
5.16,0.08882
5.164,-0.01157
5.168,0.04415
5.172,0.0467
5.176,0.01956
5.18,0.00592
5.184,0.10868
5.188,0.05297
5.192,0.08055
5.196,-0.00879
5.2,0.01876
5.204,0.05184
5.208,0.03983
5.212,0.11575
5.216,0.08556
5.22,0.15576
5.224,0.11227
5.228,0.14716
5.232,0.1215
5.236,0.16661
5.24,0.15239
5.244,0.20998
5.248,0.1865
5.252,0.22267
5.256,0.23896
5.26,0.19616
5.264,0.11997
5.268,0.21887
5.272,0.25716
5.276,0.21887
5.28,0.26516
5.284,0.34755
5.288,0.31085
5.292,0.27762
5.296,0.24008
5.3,0.21825
5.304,0.20545
5.308,0.18005
5.312,0.2824
5.316,0.23118
5.32,0.16998
5.324,0.14633
5.328,0.1642
5.332,0.14883
5.336,0.19866
5.34,0.17791
5.344,0.11092
5.348,0.11623
5.352,0.09459
5.356,0.08364
5.36,0.10022
5.364,0.07705
5.368,0.1251
5.372,0.07818
5.376,0.0457
5.38,0.0938
5.384,0.06218
5.388,-0.00321
5.392,0.06918
5.396,-0.04079
5.4,-0.03026
5.404,0.05888
5.408,0.0098
5.412,0.07985
5.416,0.1279
5.42,0.08708
5.424,0.03566
5.428,0.07417
5.432,0.08964
5.436,0.0681
5.44,0.09417
5.444,0.02795
5.448,0.11709
5.452,-0.00395
5.456,0.05119
5.46,0.11388
5.464,0.14644
5.468,0.18921
5.472,0.1301
5.476,0.16531
5.48,0.15767
5.484,0.06619
5.488,0.12839
5.492,0.09188
5.496,0.03651
5.5,0.04424
5.504,0.08462
5.508,0.06503
5.512,0.08253
5.516,0.0401
5.52,0.04038
5.524,-0.01006
5.528,0.01693
5.532,0.05246
5.536,0.02189
5.54,0.02401
5.544,-0.06304
5.548,0.08824
5.552,0.0269
5.556,-0.01694
5.56,-0.01362
5.564,0.01438
5.568,0.02749
5.572,0.01769
5.576,-0.00894
5.58,-0.02253
5.584,-0.02953
5.588,-0.00838
5.592,-0.08303
5.596,-0.10299
5.6,-0.01106
5.604,-0.07146
5.608,-0.03562
5.612,-0.05828
5.616,0.19167
5.62,0.42952
5.624,0.56329
5.628,0.82097
5.632,0.94943
5.636,1.00468
5.64,1.02052
5.644,0.8467
5.648,0.553
5.652,0.34209
5.656,0.15451
5.66,0.06487
5.664,-0.07519
5.668,-0.10404
5.672,-0.12923
5.676,-0.07366
5.68,-0.04926
5.684,-0.0215
5.688,-0.01356
5.692,-0.03728
5.696,-0.00977
5.7,0.02427
5.704,0.05035
5.708,0.0321
5.712,0.05229
5.716,-0.02718
5.72,-0.01447
5.724,0.03228
5.728,0.02008
5.732,0.05247
5.736,0.03524
5.74,0.02286
5.744,-0.00543
5.748,0.02271
5.752,0.05022
5.756,0.08275
5.76,0.0159
5.764,0.06018
5.768,0.01387
5.772,0.05028
5.776,-0.04817
5.78,0.01574
5.784,0.0437
5.788,-0.01399
5.792,0.04158
5.796,0.02805
5.8,0.02881
5.804,0.00041
5.808,0.0519
5.812,0.02647
5.816,0.01945
5.82,0.02162
5.824,0.04495
5.828,0.09442
5.832,0.0899
5.836,0.07136
5.84,0.1082
5.844,0.11389
5.848,0.10408
5.852,0.05691
5.856,0.13744
5.86,0.15389
5.864,0.09799
5.868,0.16898
5.872,0.06034
5.876,0.17572
5.88,0.19619
5.884,0.23093
5.888,0.18344
5.892,0.257
5.896,0.20509
5.9,0.25147
5.904,0.28037
5.908,0.22414
5.912,0.28412
5.916,0.27146
5.92,0.24115
5.924,0.17807
5.928,0.19685
5.932,0.29996
5.936,0.25783
5.94,0.1879
5.944,0.26732
5.948,0.22188
5.952,0.14169
5.956,0.17661
5.96,0.18362
5.964,0.12086
5.968,0.16426
5.972,0.18236
5.976,0.10721
5.98,0.15088
5.984,0.0824
5.988,0.14122
5.992,0.06182
5.996,0.06566
6.0,0.06488
6.004,0.07897
6.008,0.10975
6.012,0.02658
6.016,0.05911
6.02,0.00801
6.024,0.04001
6.028,0.04755
6.032,0.04545
6.036,0.02662
6.04,0.03759
6.044,-0.00295
6.048,-0.00329
6.052,0.04542
6.056,0.03141
6.06,0.05465
6.064,0.05478
6.068,0.05641
6.072,0.00631
6.076,0.0815
6.08,0.02196
6.084,-0.02602
6.088,0.01358
6.092,-0.00937
6.096,0.03192
6.1,0.01168
6.104,0.04194
6.108,0.00229
6.112,0.06922
6.116,-0.04328
6.12,0.0748
6.124,0.01809
6.128,-0.05122
6.132,0.06027
6.136,0.11404
6.14,0.00546
6.144,0.05759
6.148,0.04378
6.152,-0.00909
6.156,0.06596
6.16,0.07454
6.164,0.10964
6.168,0.08339
6.172,0.15553
6.176,0.14201
6.18,0.16096
6.184,0.14081
6.188,0.11177
6.192,0.11669
6.196,0.10306
6.2,0.0928
6.204,0.1233
6.208,0.07754
6.212,-0.00801
6.216,0.03216
6.22,0.09015
6.224,0.06592
6.228,0.02872
6.232,0.00358
6.236,0.05496
6.24,-0.02464
6.244,0.02713
6.248,0.04151
6.252,0.03403
6.256,0.04118
6.26,-0.04166
6.264,0.04401
6.268,-0.01747
6.272,0.00476
6.276,-0.0031
6.28,0.03737
6.284,0.00355
6.288,0.06416
6.292,-0.02189
6.296,-0.00608
6.3,0.01722
6.304,-0.00718
6.308,-0.05135
6.312,-0.07912
6.316,-0.07311
6.32,-0.00267
6.324,0.10017
6.328,0.29505
6.332,0.47855
6.336,0.71783
6.34,0.85629
6.344,0.94445
6.348,0.97638
6.352,0.95656
6.356,0.71117
6.36,0.50597
6.364,0.37026
6.368,0.10449
6.372,-0.07161
6.376,-0.09238
6.38,-0.11984
6.384,-0.1627
6.388,-0.02541
6.392,-0.06409
6.396,-0.01098
6.4,0.01473
6.404,-0.03583
6.408,0.08553
6.412,-0.00816
6.416,-0.02247
6.42,-0.02366
6.424,0.00054
6.428,0.05831
6.432,0.10381
6.436,0.03209
6.44,0.05865
6.444,0.04919
6.448,0.0498
6.452,-0.02834
6.456,0.04806
6.46,0.04313
6.464,0.04741
6.468,0.04491
6.472,-0.04535
6.476,-0.01566
6.48,0.03855
6.484,0.02318
6.488,0.01515
6.492,-0.01359
6.496,0.00025
6.5,0.03898
6.504,0.02066
6.508,0.08821
6.512,0.1375
6.516,0.09394
6.52,0.16018
6.524,0.17508
6.528,0.15843
6.532,0.1095
6.536,0.14795
6.54,0.1142
6.544,0.17447
6.548,0.20077
6.552,0.17276
6.556,0.13412
6.56,0.08822
6.564,0.14847
6.568,0.17395
6.572,0.19446
6.576,0.20307
6.58,0.18078
6.584,0.1887
6.588,0.13409
6.592,0.20723
6.596,0.14265
6.6,0.18825
6.604,0.26391
6.608,0.24282
6.612,0.21671
6.616,0.21343
6.62,0.23343
6.624,0.25105
6.628,0.2747
6.632,0.27256
6.636,0.24352
6.64,0.18958
6.644,0.20796
6.648,0.16444
6.652,0.16354
6.656,0.03207
6.66,0.07837
6.664,0.10666
6.668,0.18023
6.672,0.37301
6.676,0.61113
6.68,0.72401
6.684,0.92647
6.688,1.10149
6.692,1.08431
6.696,0.97383
6.7,0.80081
6.704,0.63885
6.708,0.31417
6.712,0.11773
6.716,-0.01587
6.72,-0.09041
6.724,-0.09108
6.728,-0.07439
6.732,-0.09821
6.736,0.00074
6.74,0.0604
6.744,0.00963
6.748,0.03977
6.752,0.08787
6.756,0.1276
6.76,0.11016
6.764,0.13507
6.768,0.09363
6.772,0.0883
6.776,0.10636
6.78,0.14578
6.784,0.08535
6.788,0.10751
6.792,0.07748
6.796,0.1503
6.8,0.08376
6.804,-0.00498
6.808,0.00468
6.812,0.04912
6.816,0.09924
6.82,-0.03011
6.824,0.00942
6.828,0.02895
6.832,0.05368
6.836,0.0302
6.84,0.02436
6.844,-0.00817
6.848,0.06185
6.852,0.04939
6.856,0.05278
6.86,0.06565
6.864,0.00097
6.868,-0.04212
6.872,0.0494
6.876,0.05797
6.88,0.00767
6.884,0.03909
6.888,0.04755
6.892,0.0247
6.896,0.04024
6.9,0.05615
6.904,-0.04635
6.908,-0.0689
6.912,-0.00186
6.916,0.15663
6.92,0.27542
6.924,0.47125
6.928,0.67839
6.932,0.94329
6.936,1.1098
6.94,1.14304
6.944,1.15354
6.948,1.07002
6.952,0.83794
6.956,0.68875
6.96,0.40414
6.964,0.28188
6.968,0.09735
6.972,-0.04177
6.976,0.08567
6.98,0.05918
6.984,0.18566
6.988,0.14832
6.992,0.18352
6.996,0.163
7.0,0.14862
7.004,0.12704
7.008,0.1657
7.012,0.20126
7.016,0.09462
7.02,0.15705
7.024,0.10312
7.028,0.12094
7.032,0.09989
7.036,0.07818
7.04,0.08082
7.044,0.03932
7.048,0.0754
7.052,0.067
7.056,0.02313
7.06,0.02307
7.064,0.0375
7.068,0.01024
7.072,-0.02594
7.076,0.01663
7.08,-0.01913
7.084,0.03511
7.088,-0.05185
7.092,-0.00111
7.096,-0.0363
7.1,0.05815
7.104,-0.06356
7.108,0.08943
7.112,0.03195
7.116,0.03971
7.12,0.00932
7.124,-0.00632
7.128,0.0798
7.132,0.03567
7.136,0.01846
7.14,0.10461
7.144,0.04875
7.148,0.02943
7.152,0.10645
7.156,0.14701
7.16,0.10458
7.164,0.09571
7.168,0.20381
7.172,0.15838
7.176,0.13096
7.18,0.1352
7.184,0.19101
7.188,0.20525
7.192,0.18504
7.196,0.15367
7.2,0.21068
7.204,0.15164
7.208,0.17866
7.212,0.29906
7.216,0.2395
7.22,0.15555
7.224,0.2689
7.228,0.24749
7.232,0.20111
7.236,0.23562
7.24,0.22112
7.244,0.18571
7.248,0.23168
7.252,0.16993
7.256,0.2256
7.26,0.19384
7.264,0.18483
7.268,0.12658
7.272,0.12859
7.276,0.11296
7.28,0.09276
7.284,0.06048
7.288,0.08457
7.292,0.05364
7.296,0.00885
7.3,0.0756
7.304,0.0902
7.308,0.06404
7.312,0.07033
7.316,0.00217
7.32,0.00975
7.324,-0.01556
7.328,0.03306
7.332,0.08044
7.336,-0.00374
7.34,-0.02072
7.344,0.02331
7.348,0.01489
7.352,-0.01105
7.356,0.00493
7.36,-0.04416
7.364,0.09006
7.368,-0.00862
7.372,-0.03386
7.376,-0.05965
7.38,0.0124
7.384,0.02069
7.388,0.03121
7.392,-0.00824
7.396,-0.02793
7.4,0.00437
7.404,0.054
7.408,0.04618
7.412,-7e-05
7.416,-0.06669
7.42,0.01837
7.424,-0.05482
7.428,0.03204
7.432,-0.00069
7.436,-0.05702
7.44,0.04449
7.444,0.02618
7.448,0.02536
7.452,-0.01804
7.456,0.0291
7.46,0.02774
7.464,-0.01124
7.468,0.0009
7.472,-0.01982
7.476,0.02706
7.48,0.00059
7.484,0.02535
7.488,-0.00402
7.492,0.08099
7.496,0.05053
7.5,0.01201
7.504,0.00702
7.508,0.04517
7.512,0.0732
7.516,0.06769
7.52,0.02383
7.524,0.1316
7.528,0.10428
7.532,0.05029
7.536,0.07682
7.54,0.12988
7.544,0.06817
7.548,0.08342
7.552,0.11127
7.556,0.10226
7.56,0.06088
7.564,0.02966
7.568,0.02054
7.572,0.02947
7.576,0.00894
7.58,0.01614
7.584,0.06849
7.588,0.00513
7.592,0.02984
7.596,0.05309
7.6,0.0089
7.604,-0.0733
7.608,-0.04524
7.612,0.00044
7.616,0.03356
7.62,0.01304
7.624,-0.00153
7.628,0.05148
7.632,-0.02763
7.636,-0.03656
7.64,-0.0175
7.644,0.02947
7.648,0.01182
7.652,-0.09805
7.656,-0.11474
7.66,-0.10601
7.664,-0.1257
7.668,-0.12084
7.672,-0.02486
7.676,0.0405
7.68,0.20833
7.684,0.32984
7.688,0.48049
7.692,0.58178
7.696,0.581
7.7,0.52191
7.704,0.45959
7.708,0.29352
7.712,0.17244
7.716,0.10271
7.72,-0.07188
7.724,-0.17913
7.728,-0.11871
7.732,-0.13829
7.736,-0.11448
7.74,-0.06313
7.744,-0.05099
7.748,-0.05295
7.752,0.01059
7.756,-0.01961
7.76,-0.00264
7.764,-0.00616
7.768,0.04384
7.772,3e-05
7.776,-0.02071
7.78,0.00467
7.784,-0.06328
7.788,-0.05626
7.792,0.03591
7.796,-0.00816
7.8,-0.0271
7.804,-0.03087
7.808,-0.01181
7.812,-0.03808
7.816,0.00807
7.82,-0.02453
7.824,0.00512
7.828,0.0493
7.832,0.00437
7.836,-0.05724
7.84,-0.05176
7.844,0.00499
7.848,-0.05147
7.852,-0.00185
7.856,0.01223
7.86,-0.02013
7.864,-0.01812
7.868,0.04073
7.872,-0.03468
7.876,-0.03303
7.88,0.01141
7.884,-0.01806
7.888,0.02125
7.892,0.01018
7.896,-0.05746
7.9,0.05801
7.904,0.06924
7.908,0.10248
7.912,0.19401
7.916,0.10285
7.92,0.1056
7.924,0.09322
7.928,0.08651
7.932,0.13435
7.936,0.14238
7.94,0.11742
7.944,0.15061
7.948,0.15633
7.952,0.16364
7.956,0.19751
7.96,0.17887
7.964,0.19329
7.968,0.16538
7.972,0.22205
7.976,0.254
7.98,0.23661
7.984,0.20217
7.988,0.1708
7.992,0.23578
7.996,0.18522
8.0,0.24277
8.004,0.13502
8.008,0.23375
8.012,0.16865
8.016,0.17954
8.02,0.15835
8.024,0.18614
8.028,0.2186
8.032,0.17328
8.036,0.21855
8.04,0.16021
8.044,0.0687
8.048,0.10493
8.052,0.18104
8.056,0.14164
8.06,0.08541
8.064,0.08361
8.068,0.15454
8.072,-0.0296
8.076,0.07421
8.08,0.02588
8.084,0.06054
8.088,0.03289
8.092,-0.05616
8.096,0.00209
8.1,0.012
8.104,-0.03146
8.108,-0.00527
8.112,-0.00956
8.116,-0.04122
8.12,-0.04435
8.124,-0.0449
8.128,-0.05519
8.132,-0.05014
8.136,-0.04469
8.14,-0.05337
8.144,0.01613
8.148,0.00546
8.152,-0.006
8.156,-0.03478
8.16,-0.04574
8.164,0.00754
8.168,-0.10612
8.172,-0.08476
8.176,-0.13593
8.18,-0.07433
8.184,0.04818
8.188,0.19472
8.192,0.42047
8.196,0.59341
8.2,0.87594
8.204,0.94206
8.208,0.91216
8.212,0.88279
8.216,0.76659
8.22,0.51519
8.224,0.29153
8.228,0.03797
8.232,-0.11625
8.236,-0.14801
8.24,-0.19595
8.244,-0.10416
8.248,-0.15886
8.252,-0.06729
8.256,-0.08667
8.26,-0.02545
8.264,-0.01276
8.268,0.03936
8.272,-0.09205
8.276,-0.02173
8.28,-0.00577
8.284,-0.05507
8.288,0.01577
8.292,-0.03256
8.296,0.0016
8.3,0.00198
8.304,-0.1033
8.308,-0.07685
8.312,-0.0485
8.316,-0.02079
8.32,0.01492
8.324,-0.01742
8.328,-0.03813
8.332,-0.05968
8.336,0.03899
8.34,-0.03465
8.344,-0.08868
8.348,-0.01587
8.352,-0.05795
8.356,0.00817
8.36,-0.02216
8.364,0.00317
8.368,-0.02211
8.372,0.02589
8.376,0.00309
8.38,-0.0073
8.384,-0.01379
8.388,-0.02658
8.392,0.0303
8.396,0.03076
8.4,-0.05967
8.404,0.07212
8.408,0.01175
8.412,0.02337
8.416,0.06012
8.42,-0.00233
8.424,0.1364
8.428,0.07236
8.432,0.06313
8.436,0.07481
8.44,0.12002
8.444,0.06667
8.448,0.11187
8.452,0.14026
8.456,0.22284
8.46,0.21309
8.464,0.17314
8.468,0.17842
8.472,0.2361
8.476,0.22056
8.48,0.27417
8.484,0.20696
8.488,0.17612
8.492,0.16257
8.496,0.17659
8.5,0.15534
8.504,0.21472
8.508,0.16829
8.512,0.14093
8.516,0.16373
8.52,0.17687
8.524,0.11531
8.528,0.14745
8.532,0.04774
8.536,0.07119
8.54,0.09589
8.544,0.05794
8.548,0.113
8.552,0.06571
8.556,0.04663
8.56,0.00396
8.564,-0.01373
8.568,0.03281
8.572,0.0693
8.576,0.11068
8.58,0.01184
8.584,0.08789
8.588,0.08403
8.592,0.06596
8.596,-0.02974
8.6,0.11182
8.604,0.05786
8.608,0.09672
8.612,0.09874
8.616,0.03147
8.62,0.04835
8.624,0.07739
8.628,-0.02469
8.632,0.01886
8.636,-0.00976
8.64,0.00791
8.644,0.00922
8.648,0.00581
8.652,-0.02482
8.656,0.02516
8.66,-0.01332
8.664,-0.05222
8.668,-0.0464
8.672,-0.05212
8.676,0.03381
8.68,0.01801
8.684,-0.02028
8.688,0.01938
8.692,-0.08073
8.696,-0.00619
8.7,0.01806
8.704,0.02077
8.708,-0.05845
8.712,-0.0368
8.716,-0.02419
8.72,-0.08191
8.724,-0.08952
8.728,-0.15685
8.732,-0.11649
8.736,-0.07867
8.74,0.01346
8.744,0.20847
8.748,0.31399
8.752,0.59845
8.756,0.76238
8.76,0.86483
8.764,0.94946
8.768,0.85146
8.772,0.73626
8.776,0.5623
8.78,0.30061
8.784,0.12087
8.788,0.00379
8.792,-0.14085
8.796,-0.21393
8.8,-0.17368
8.804,-0.14599
8.808,-0.15341
8.812,-0.09599
8.816,-0.023
8.82,-0.04529
8.824,0.05502
8.828,-0.03792
8.832,-0.08095
8.836,-0.04346
8.84,-0.01245
8.844,0.01467
8.848,0.00374
8.852,-0.04177
8.856,-0.07284
8.86,-0.00916
8.864,-0.03962
8.868,-0.04739
8.872,0.0024
8.876,-0.04465
8.88,-0.02401
8.884,0.01562
8.888,0.00193
8.892,0.00793
8.896,0.01039
8.9,0.02785
8.904,0.03238
8.908,0.01199
8.912,-0.01437
8.916,0.00414
8.92,0.06714
8.924,0.07007
8.928,0.04936
8.932,0.03458
8.936,0.0602
8.94,0.05184
8.944,0.10014
8.948,0.11388
8.952,0.02052
8.956,0.13632
8.96,0.07766
8.964,0.06104
8.968,0.07154
8.972,0.07764
8.976,0.06389
8.98,0.03888
8.984,0.12318
8.988,0.08515
8.992,0.07171
8.996,0.05318
9.0,0.05541
9.004,0.09777
9.008,0.14029
9.012,0.17025
9.016,0.08075
9.02,0.14319
9.024,0.23894
9.028,0.20439
9.032,0.22096
9.036,0.21346
9.04,0.17937
9.044,0.14276
9.048,0.18412
9.052,0.17266
9.056,0.15417
9.06,0.11728
9.064,0.07508
9.068,0.06731
9.072,0.02408
9.076,0.02069
9.08,0.09937
9.084,0.26089
9.088,0.52177
9.092,0.64542
9.096,0.87833
9.1,1.09131
9.104,1.05933
9.108,0.97744
9.112,0.90716
9.116,0.64556
9.12,0.37938
9.124,0.11056
9.128,-0.03227
9.132,-0.15112
9.136,-0.17664
9.14,-0.19767
9.144,-0.16532
9.148,-0.09524
9.152,-0.04816
9.156,-0.04068
9.16,-0.04577
9.164,-0.03226
9.168,-0.0176
9.172,-0.0726
9.176,-0.03779
9.18,-0.04842
9.184,-0.06841
9.188,-0.04293
9.192,-0.03239
9.196,-0.01406
9.2,-0.0752
9.204,-0.00101
9.208,-0.03559
9.212,-0.04733
9.216,-0.01506
9.22,-0.04735
9.224,-0.06082
9.228,-0.0018
9.232,0.00294
9.236,-0.00292
9.24,-0.11157
9.244,-0.0343
9.248,-0.06183
9.252,0.02129
9.256,-0.00653
9.26,-0.0148
9.264,0.04451
9.268,0.02472
9.272,0.03561
9.276,0.01103
9.28,0.00975
9.284,0.09296
9.288,0.04885
9.292,0.07743
9.296,0.05126
9.3,0.10881
9.304,0.07903
9.308,0.08621
9.312,0.1102
9.316,0.11283
9.32,0.05366
9.324,0.11344
9.328,0.06134
9.332,0.1162
9.336,0.1489
9.34,0.11708
9.344,0.07447
9.348,0.14252
9.352,0.1194
9.356,0.16337
9.36,0.16685
9.364,0.21425
9.368,0.21611
9.372,0.22744
9.376,0.23208
9.38,0.19595
9.384,0.17047
9.388,0.18702
9.392,0.17615
9.396,0.13394
9.4,0.19052
9.404,0.19044
9.408,0.16911
9.412,0.08078
9.416,0.02951
9.42,0.03612
9.424,0.02481
9.428,0.11057
9.432,0.30335
9.436,0.43682
9.44,0.69364
9.444,0.88214
9.448,1.00177
9.452,1.0086
9.456,0.97916
9.46,0.83382
9.464,0.62104
9.468,0.38861
9.472,0.24728
9.476,-0.09262
9.48,-0.14639
9.484,-0.12121
9.488,-0.16195
9.492,-0.09376
9.496,-0.10556
9.5,-0.0084
9.504,-0.0029
9.508,-0.04236
9.512,-0.03626
9.516,-0.03017
9.52,-0.03338
9.524,0.03207
9.528,-0.0235
9.532,-0.00741
9.536,-0.019
9.54,-0.05732
9.544,-0.05135
9.548,-0.0123
9.552,0.03233
9.556,-0.01343
9.56,-0.00306
9.564,-0.07295
9.568,-0.0459
9.572,-0.06284
9.576,-0.03715
9.58,-0.03792
9.584,-0.04892
9.588,-0.00755
9.592,-0.06599
9.596,-0.02329
9.6,-0.08043
9.604,-0.02236
9.608,-0.0349
9.612,0.0275
9.616,0.04048
9.62,-0.04789
9.624,-0.00781
9.628,-0.04844
9.632,0.01995
9.636,-0.03485
9.64,-0.05804
9.644,-0.00822
9.648,-0.03354
9.652,0.01318
9.656,0.04589
9.66,0.02974
9.664,0.04229
9.668,0.08323
9.672,0.08469
9.676,0.11141
9.68,0.15566
9.684,0.18324
9.688,0.17992
9.692,0.18373
9.696,0.23468
9.7,0.29738
9.704,0.25507
9.708,0.35312
9.712,0.15442
9.716,0.26031
9.72,0.28647
9.724,0.2383
9.728,0.28164
9.732,0.18411
9.736,0.17525
9.74,0.16654
9.744,0.25161
9.748,0.18425
9.752,0.19277
9.756,0.11089
9.76,0.15635
9.764,0.19228
9.768,0.15515
9.772,0.10875
9.776,0.15653
9.78,0.1155
9.784,0.09012
9.788,0.09802
9.792,0.12211
9.796,0.03479
9.8,0.05522
9.804,0.06313
9.808,0.00983
9.812,-0.03811
9.816,-0.01672
9.82,-0.11037
9.824,-0.1485
9.828,-0.04423
9.832,-0.0528
9.836,0.07698
9.84,0.22946
9.844,0.31235
9.848,0.59346
9.852,0.86455
9.856,0.95403
9.86,0.96347
9.864,0.88645
9.868,0.75191
9.872,0.54668
9.876,0.25424
9.88,0.08234
9.884,-0.08693
9.888,-0.18935
9.892,-0.2016
9.896,-0.14042
9.9,-0.14804
9.904,-0.08379
9.908,-0.01922
9.912,-0.06153
9.916,-0.02085
9.92,-0.06462
9.924,-0.03942
9.928,0.0132
9.932,-0.01044
9.936,-0.00778
9.94,-0.03138
9.944,-0.07908
9.948,0.0359
9.952,0.01614
9.956,0.02999
9.96,-0.01751
9.964,-0.00958
9.968,-0.00272
9.972,-0.07605
9.976,0.03011
9.98,-0.07052
9.984,-0.00183
9.988,-0.00588
9.992,-0.04405
9.996,0.02227
