t_seg,ecg_mV
0.0,-0.01264
0.004,0.00303
0.008,-0.00694
0.012,-0.02842
0.016,-0.05928
0.02,-0.06061
0.024,-0.10394
0.028,-0.12277
0.032,-0.06281
0.036,0.04835
0.04,0.17756
0.044,0.40146
0.048,0.5897
0.052,0.81796
0.056,0.94108
0.06,1.00238
0.064,0.93475
0.068,0.7508
0.072,0.53887
0.076,0.31503
0.08,0.11306
0.084,-0.04491
0.088,-0.15702
0.092,-0.19656
0.096,-0.15408
0.1,-0.102
0.104,-0.06778
0.108,-0.01877
0.112,-0.02068
0.116,-0.00524
0.12,-0.02528
0.124,0.01085
0.128,-0.02114
0.132,-0.00399
0.136,0.01825
0.14,-0.00388
0.144,0.0423
0.148,0.00195
0.152,-0.00044
0.156,-0.02434
0.16,-0.0008
0.164,-0.00611
0.168,0.00221
0.172,0.00271
0.176,-0.01741
0.18,0.02665
0.184,-0.00978
0.188,0.02841
0.192,-0.0081
0.196,0.00083
0.2,0.00765
0.204,0.0055
0.208,0.00135
0.212,-0.01271
0.216,0.00839
0.22,0.02646
0.224,0.04295
0.228,-0.00238
0.232,0.03212
0.236,-0.00187
0.24,0.00902
0.244,0.00877
0.248,0.03178
0.252,0.02674
0.256,0.01702
0.26,0.02904
0.264,0.05599
0.268,0.06012
0.272,0.08362
0.276,0.07843
0.28,0.10039
0.284,0.13756
0.288,0.10229
0.292,0.118
0.296,0.12791
0.3,0.17358
0.304,0.16098
0.308,0.17375
0.312,0.17088
0.316,0.18727
0.32,0.21585
0.324,0.1883
0.328,0.18842
0.332,0.2209
0.336,0.25152
0.34,0.21539
0.344,0.22906
0.348,0.2323
0.352,0.22359
0.356,0.23769
0.36,0.18684
0.364,0.19762
0.368,0.16831
0.372,0.15272
0.376,0.15681
0.38,0.15289
0.384,0.13395
0.388,0.1287
0.392,0.12584
0.396,0.09271
0.4,0.11588
0.404,0.08911
0.408,0.07927
0.412,0.06355
0.416,0.04833
0.42,0.06527
0.424,0.03174
0.428,0.05686
0.432,0.0491
0.436,0.01575
0.44,0.01099
0.444,0.00992
0.448,0.02711
0.452,0.00992
0.456,0.01931
0.46,0.01101
0.464,0.01517
0.468,-0.00058
0.472,0.01286
0.476,-0.00044
0.48,0.00279
0.484,-0.00573
0.488,-0.00417
0.492,0.02677
0.496,-0.00811
0.5,0.0061
0.504,-0.02118
0.508,0.00742
0.512,-0.01743
0.516,0.02937
0.52,0.01152
0.524,0.01611
0.528,0.0032
0.532,0.02115
0.536,-0.00412
0.54,0.01529
0.544,0.00756
0.548,-0.01289
0.552,0.01043
0.556,-0.00553
0.56,0.00019
0.564,0.01003
0.568,0.00647
0.572,-0.00263
0.576,0.00485
0.58,-0.0392
0.584,0.00918
0.588,0.0205
0.592,0.00243
0.596,0.01699
0.6,0.01101
0.604,0.03003
0.608,0.01979
0.612,0.0417
0.616,0.05104
0.62,0.07066
0.624,0.0803
0.628,0.09908
0.632,0.0902
0.636,0.10137
0.64,0.10701
0.644,0.10769
0.648,0.07294
0.652,0.10557
0.656,0.09102
0.66,0.08513
0.664,0.06568
0.668,0.0524
0.672,0.04726
0.676,0.01678
0.68,-0.00169
0.684,0.04251
0.688,-0.00515
0.692,-0.00203
0.696,-0.02474
0.7,0.02626
0.704,0.0416
0.708,0.02264
0.712,0.01909
0.716,0.01248
0.72,-0.00361
0.724,0.01206
0.728,-0.01366
0.732,0.03223
0.736,-0.00388
0.74,-0.00981
0.744,0.01707
0.748,0.01656
0.752,-0.00713
0.756,-0.01195
0.76,-0.03091
0.764,-0.05797
0.768,-0.08025
0.772,-0.12463
0.776,-0.07401
0.78,0.01247
0.784,0.14999
0.788,0.33329
0.792,0.51401
0.796,0.76017
0.8,0.92423
0.804,1.01444
0.808,0.98104
0.812,0.84117
0.816,0.64632
0.82,0.42042
0.824,0.15862
0.828,0.05518
0.832,-0.08079
0.836,-0.15925
0.84,-0.15667
0.844,-0.11
0.848,-0.06753
0.852,-0.00257
0.856,-0.01288
0.86,0.00704
0.864,0.01142
0.868,0.0209
0.872,0.02957
0.876,0.02011
0.88,0.00726
0.884,0.02129
0.888,0.00618
0.892,0.01475
0.896,0.00315
0.9,0.00545
0.904,0.02855
0.908,0.0189
0.912,-0.01592
0.916,0.00304
0.92,0.03907
0.924,0.01886
0.928,0.01866
0.932,-0.00286
0.936,0.03974
0.94,0.03116
0.944,0.01847
0.948,0.02498
0.952,0.02975
0.956,0.03591
0.96,0.03291
0.964,0.0143
0.968,0.03691
0.972,0.01589
0.976,0.05154
0.98,0.02802
0.984,0.04639
0.988,0.02962
0.992,0.04045
0.996,0.03724
1.0,0.06074
1.004,0.05475
1.008,0.08309
1.012,0.08037
1.016,0.07695
1.02,0.10002
1.024,0.10703
1.028,0.10709
1.032,0.12459
1.036,0.15206
1.04,0.14302
1.044,0.16389
1.048,0.17163
1.052,0.20125
1.056,0.18764
1.06,0.22093
1.064,0.22482
1.068,0.19607
1.072,0.24468
1.076,0.25388
1.08,0.21621
1.084,0.25224
1.088,0.24834
1.092,0.23857
1.096,0.24457
1.1,0.2502
1.104,0.22989
1.108,0.21833
1.112,0.20209
1.116,0.18804
1.12,0.17985
1.124,0.17283
1.128,0.13431
1.132,0.15681
1.136,0.14809
1.14,0.13729
1.144,0.10924
1.148,0.13898
1.152,0.09483
1.156,0.07053
1.16,0.07395
1.164,0.09561
1.168,0.06285
1.172,0.06726
1.176,0.02455
1.18,0.06872
1.184,0.04605
1.188,0.033
1.192,0.02681
1.196,0.06031
1.2,0.01341
1.204,0.03137
1.208,0.01114
1.212,0.0277
1.216,0.04571
1.22,0.02729
1.224,0.02995
1.228,0.02952
1.232,0.03841
1.236,0.02579
1.24,0.03546
1.244,0.02056
1.248,0.0268
1.252,0.04304
1.256,0.04361
1.26,-0.01157
1.264,0.03009
1.268,0.03849
1.272,0.03204
1.276,0.03487
1.28,0.00838
1.284,0.03761
1.288,0.04236
1.292,0.01083
1.296,0.02168
1.3,0.02173
1.304,-0.00648
1.308,0.02714
1.312,0.03954
1.316,0.04867
1.32,0.04111
1.324,0.01097
1.328,0.03099
1.332,0.03957
1.336,0.00253
1.34,0.03061
1.344,0.04606
1.348,0.03637
1.352,0.04294
1.356,0.0028
1.36,0.03341
1.364,0.02755
1.368,0.03168
1.372,0.03905
1.376,0.01887
1.38,0.02894
1.384,0.01225
1.388,0.01766
1.392,0.02742
1.396,0.02948
1.4,0.02741
1.404,0.00674
1.408,0.0549
1.412,0.02006
1.416,0.02604
1.42,-0.0034
1.424,0.03929
1.428,0.02534
1.432,0.01019
1.436,-0.00579
1.44,0.02887
1.444,0.04305
1.448,0.01348
1.452,0.02856
1.456,0.01861
1.46,0.04927
1.464,0.0459
1.468,0.02478
1.472,0.00196
1.476,0.0177
1.48,0.01682
1.484,0.04523
1.488,0.01853
1.492,0.02178
1.496,0.00356
1.5,0.00705
1.504,0.06223
1.508,0.05954
1.512,0.04257
1.516,0.02185
1.52,0.0366
1.524,0.03047
1.528,0.02778
1.532,0.02563
1.536,0.03028
1.54,0.0312
1.544,0.01602
1.548,0.02024
1.552,0.03271
1.556,0.0014
1.56,0.05309
1.564,0.01648
1.568,0.02557
1.572,0.03344
1.576,0.03683
1.58,0.01486
1.584,0.04168
1.588,0.0385
1.592,0.0116
1.596,0.00227
1.6,0.0359
1.604,0.0366
1.608,0.07268
1.612,0.03942
1.616,0.06448
1.62,0.0371
1.624,0.0577
1.628,0.11346
1.632,0.09391
1.636,0.09409
1.64,0.12574
1.644,0.10837
1.648,0.14859
1.652,0.14853
1.656,0.1351
1.66,0.1248
1.664,0.13988
1.668,0.08346
1.672,0.06357
1.676,0.08507
1.68,0.07382
1.684,0.06029
1.688,0.05792
1.692,0.05347
1.696,0.03553
1.7,0.00924
1.704,0.01937
1.708,0.02589
1.712,0.03031
1.716,0.02311
1.72,0.03165
1.724,-0.00271
1.728,0.04228
1.732,0.0541
1.736,0.0226
1.74,0.04201
1.744,0.00646
1.748,0.02154
1.752,0.01275
1.756,0.02544
1.76,0.03193
1.764,0.0338
1.768,0.01637
1.772,-0.01945
1.776,-0.0686
1.78,-0.08775
1.784,-0.05773
1.788,0.05238
1.792,0.17117
1.796,0.35777
1.8,0.56161
1.804,0.79987
1.808,0.95031
1.812,1.02714
1.816,0.99492
1.82,0.87465
1.824,0.64623
1.828,0.4432
1.832,0.21075
1.836,0.02416
1.84,-0.04133
1.844,-0.13541
1.848,-0.1489
1.852,-0.08376
1.856,-0.06101
1.86,-0.01358
1.864,0.00322
1.868,0.01698
1.872,0.03932
1.876,0.03076
1.88,0.02974
1.884,0.02101
1.888,0.03903
1.892,0.03246
1.896,0.0597
1.9,0.02246
1.904,0.01416
1.908,0.00729
1.912,0.02826
1.916,0.02174
1.92,0.04934
1.924,0.04679
1.928,0.03609
1.932,0.01188
1.936,0.03662
1.94,0.00556
1.944,0.02246
1.948,0.04083
1.952,0.02886
1.956,0.01887
1.96,0.05739
1.964,0.03587
1.968,0.02484
1.972,0.00567
1.976,0.02717
1.98,0.06224
1.984,0.04495
1.988,0.03928
1.992,0.03239
1.996,0.0477
2.0,0.04856
2.004,0.06775
2.008,0.08074
2.012,0.05954
2.016,0.04879
2.02,0.12251
2.024,0.09804
2.028,0.12153
2.032,0.11281
2.036,0.11663
2.04,0.13284
2.044,0.15629
2.048,0.15526
2.052,0.16099
2.056,0.18103
2.06,0.19519
2.064,0.20143
2.068,0.21331
2.072,0.24588
2.076,0.24194
2.08,0.23727
2.084,0.214
2.088,0.25606
2.092,0.25198
2.096,0.23841
2.1,0.26027
2.104,0.21739
2.108,0.23065
2.112,0.23163
2.116,0.24155
2.12,0.2165
2.124,0.21379
2.128,0.17477
2.132,0.18969
2.136,0.15448
2.14,0.16837
2.144,0.15049
2.148,0.13953
2.152,0.12564
2.156,0.09488
2.16,0.09954
2.164,0.13375
2.168,0.0801
2.172,0.09928
2.176,0.08365
2.18,0.08455
2.184,0.03947
2.188,0.06996
2.192,0.02294
2.196,0.03493
2.2,0.03389
2.204,0.05607
2.208,0.02116
2.212,0.05626
2.216,0.05271
2.22,0.03827
2.224,0.06131
2.228,0.04279
2.232,0.04421
2.236,0.04792
2.24,0.02523
2.244,0.06842
2.248,0.01577
2.252,0.02366
2.256,0.02131
2.26,0.03615
2.264,0.04534
2.268,0.03542
2.272,0.04909
2.276,0.03956
2.28,0.02555
2.284,0.04146
2.288,0.05476
2.292,0.02567
2.296,0.03957
2.3,0.01965
2.304,0.01425
2.308,0.05072
2.312,0.01658
2.316,0.01875
2.32,0.03003
2.324,0.03309
2.328,0.04731
2.332,0.04236
2.336,0.01949
2.34,0.03647
2.344,0.03369
2.348,0.03385
2.352,0.01992
2.356,0.0262
2.36,0.04122
2.364,0.01404
2.368,0.04203
2.372,0.02965
2.376,0.02658
2.38,0.01844
2.384,0.03176
2.388,0.02872
2.392,0.04679
2.396,0.02221
2.4,0.02935
2.404,0.02354
2.408,0.01007
2.412,0.0132
2.416,0.01647
2.42,0.03573
2.424,0.00743
2.428,0.02718
2.432,0.04248
2.436,0.02182
2.44,0.01335
2.444,0.02387
2.448,0.04987
2.452,0.01389
2.456,-0.00337
2.46,0.01208
2.464,0.00472
2.468,0.01587
2.472,0.03736
2.476,0.02937
2.48,0.04601
2.484,0.03003
2.488,0.0183
2.492,0.04792
2.496,0.02736
2.5,0.01732
2.504,0.02369
2.508,0.02658
2.512,0.03015
2.516,0.03287
2.52,0.0441
2.524,0.07149
2.528,0.06804
2.532,0.05869
2.536,0.12234
2.54,0.10866
2.544,0.11721
2.548,0.08339
2.552,0.14601
2.556,0.12749
2.56,0.12275
2.564,0.0901
2.568,0.10441
2.572,0.08658
2.576,0.07986
2.58,0.05086
2.584,0.04451
2.588,0.03956
2.592,0.04788
2.596,0.0465
2.6,0.03022
2.604,0.00301
2.608,0.02394
2.612,0.03253
2.616,0.01746
2.62,0.02002
2.624,0.00371
2.628,0.04907
2.632,0.02523
2.636,0.0113
2.64,0.02454
2.644,0.03296
2.648,0.03793
2.652,0.03483
2.656,0.01366
2.66,0.02341
2.664,-0.00107
2.668,0.00343
2.672,-0.01649
2.676,-0.05071
2.68,-0.0976
2.684,-0.09244
2.688,-0.00159
2.692,0.17299
2.696,0.34525
2.7,0.54713
2.704,0.78172
2.708,0.95426
2.712,1.01405
2.716,0.97844
2.72,0.85779
2.724,0.60679
2.728,0.45573
2.732,0.18235
2.736,0.03177
2.74,-0.07751
2.744,-0.13889
2.748,-0.14475
2.752,-0.10495
2.756,-0.05834
2.76,-0.02485
2.764,0.03417
2.768,0.02408
2.772,0.01193
2.776,0.00371
2.78,0.02919
2.784,0.01336
2.788,0.03826
2.792,0.03687
2.796,0.0262
2.8,0.02976
2.804,0.00711
2.808,0.01212
2.812,0.03502
2.816,0.02188
2.82,0.02322
2.824,0.01764
2.828,0.02431
2.832,0.0172
2.836,0.00613
2.84,0.03591
2.844,0.04103
2.848,-0.01103
2.852,0.023
2.856,0.02414
2.86,0.00724
2.864,0.0229
2.868,0.01483
2.872,0.02133
2.876,0.04751
2.88,0.04629
2.884,0.01542
2.888,0.04138
2.892,0.04273
2.896,0.04601
2.9,0.02985
2.904,0.04068
2.908,0.08905
2.912,0.04833
2.916,0.06831
2.92,0.07678
2.924,0.09433
2.928,0.07851
2.932,0.10916
2.936,0.11263
2.94,0.1296
2.944,0.1736
2.948,0.16508
2.952,0.18298
2.956,0.18624
2.96,0.17881
2.964,0.20088
2.968,0.18236
2.972,0.22927
2.976,0.21951
2.98,0.24051
2.984,0.23769
2.988,0.23635
2.992,0.21622
2.996,0.24177
3.0,0.22254
3.004,0.22093
3.008,0.22972
3.012,0.21653
3.016,0.2236
3.02,0.20121
3.024,0.17805
3.028,0.18502
3.032,0.17946
3.036,0.1543
3.04,0.16018
3.044,0.1151
3.048,0.1615
3.052,0.11369
3.056,0.07402
3.06,0.09785
3.064,0.09871
3.068,0.07169
3.072,0.06284
3.076,0.03248
3.08,0.04354
3.084,0.05866
3.088,0.03744
3.092,0.0083
3.096,0.03018
3.1,0.0262
3.104,0.01279
3.108,-0.00017
3.112,0.02698
3.116,0.02698
3.12,0.043
3.124,0.01776
3.128,0.03605
3.132,0.01397
3.136,0.00472
3.14,0.0092
3.144,0.02208
3.148,-0.00067
3.152,0.02681
3.156,0.02506
3.16,0.00066
3.164,0.01754
3.168,0.00698
3.172,0.02718
3.176,-0.00746
3.18,0.01275
3.184,-0.01218
3.188,-0.0118
3.192,0.05376
3.196,-0.00714
3.2,0.01309
3.204,0.02396
3.208,0.02914
3.212,0.02452
3.216,0.00362
3.22,0.00606
3.224,-0.00357
3.228,0.03347
3.232,-0.01609
3.236,-0.00313
3.24,0.00488
3.244,0.02736
3.248,0.0129
3.252,-0.00427
3.256,-0.00054
3.26,-0.00337
3.264,0.00187
3.268,0.02043
3.272,0.02949
3.276,0.00757
3.28,0.02723
3.284,0.07402
3.288,0.06046
3.292,0.06876
3.296,0.07795
3.3,0.07326
3.304,0.09022
3.308,0.10082
3.312,0.14681
3.316,0.11538
3.32,0.09591
3.324,0.09962
3.328,0.07121
3.332,0.05636
3.336,0.03617
3.34,0.05303
3.344,0.04762
3.348,0.03163
3.352,0.00736
3.356,0.02098
3.36,-0.01544
3.364,-0.0058
3.368,0.0174
3.372,0.01169
3.376,0.0161
3.38,-0.00203
3.384,0.00383
3.388,0.02397
3.392,0.00596
3.396,-0.00789
3.4,0.02469
3.404,0.00403
3.408,-0.01029
3.412,0.0086
3.416,0.0006
3.42,-0.00536
3.424,-0.01193
3.428,-0.03616
3.432,-0.05058
3.436,-0.07467
3.44,-0.12854
3.444,-0.07661
3.448,0.04713
3.452,0.21682
3.456,0.38167
3.46,0.60318
3.464,0.84368
3.468,0.95493
3.472,0.9894
3.476,0.97196
3.48,0.76767
3.484,0.53147
3.488,0.32557
3.492,0.11346
3.496,-0.03808
3.5,-0.14928
3.504,-0.15008
3.508,-0.15636
3.512,-0.10317
3.516,-0.07299
3.52,-0.04734
3.524,-0.03178
3.528,0.00393
3.532,0.01083
3.536,0.01743
3.54,-0.01217
3.544,0.00016
3.548,-0.01343
3.552,-0.04007
3.556,-0.04615
3.56,-0.01806
3.564,0.02824
3.568,-0.01013
3.572,-0.02324
3.576,-0.0023
3.58,0.00168
3.584,-0.00894
3.588,-0.00734
3.592,-0.00157
3.596,-0.00515
3.6,-0.00955
3.604,-0.00243
3.608,0.00187
3.612,-0.01083
3.616,0.00289
3.62,0.00593
3.624,-0.00865
3.628,0.01807
3.632,-0.00114
3.636,0.01269
3.64,0.02367
3.644,0.01927
3.648,0.0254
3.652,0.00435
3.656,0.03535
3.66,0.02578
3.664,0.01654
3.668,0.05685
3.672,0.03601
3.676,0.04964
3.68,0.06082
3.684,0.11131
3.688,0.06798
3.692,0.07322
3.696,0.10539
3.7,0.10736
3.704,0.12664
3.708,0.14903
3.712,0.1548
3.716,0.15813
3.72,0.15374
3.724,0.16618
3.728,0.19179
3.732,0.1912
3.736,0.18653
3.74,0.20819
3.744,0.23566
3.748,0.22431
3.752,0.19009
3.756,0.22438
3.76,0.20508
3.764,0.2138
3.768,0.2173
3.772,0.17341
3.776,0.17678
3.78,0.17982
3.784,0.16017
3.788,0.11846
3.792,0.15359
3.796,0.11743
3.8,0.13102
3.804,0.10705
3.808,0.09426
3.812,0.08329
3.816,0.0652
3.82,0.08316
3.824,0.04586
3.828,0.031
3.832,0.03854
3.836,0.01833
3.84,0.01125
3.844,0.01395
3.848,-0.001
3.852,0.00746
3.856,0.01511
3.86,0.01692
3.864,0.01503
3.868,0.0179
3.872,-0.00206
3.876,0.00383
3.88,0.01107
3.884,-0.01618
3.888,-0.02506
3.892,0.04174
3.896,-0.02791
3.9,-0.00942
3.904,-0.01381
3.908,0.00266
3.912,-0.01284
3.916,0.00935
3.92,-0.03382
3.924,0.00412
3.928,0.00699
3.932,-0.02189
3.936,-0.01548
3.94,-0.0072
3.944,-0.03453
3.948,0.0041
3.952,0.00342
3.956,-0.01053
3.96,-0.0283
3.964,0.00647
3.968,-0.01279
3.972,-0.00717
3.976,0.01117
3.98,-0.00868
3.984,-0.01236
3.988,-0.01681
3.992,-0.01936
3.996,-0.00695
4.0,-0.00387
4.004,-0.02388
4.008,0.00202
4.012,-0.02433
4.016,-0.04323
4.02,-0.01142
4.024,0.00714
4.028,-0.01589
4.032,-0.02284
4.036,-0.03498
4.04,-0.01305
4.044,-0.00381
4.048,-0.02986
4.052,0.00336
4.056,-0.00314
4.06,0.00081
4.064,-0.04213
4.068,-0.0238
4.072,-0.01124
4.076,-0.03989
4.08,0.01364
4.084,0.00133
4.088,-0.0248
4.092,-0.00334
4.096,-0.03051
4.1,-0.00213
4.104,-0.02366
4.108,-0.02781
4.112,-0.02004
4.116,-0.00362
4.12,-0.03097
4.124,-0.04183
4.128,-0.00929
4.132,-0.01184
4.136,-0.01567
4.14,-0.01091
4.144,-0.03615
4.148,-0.04696
4.152,-0.01146
4.156,-0.00042
4.16,-0.0437
4.164,-0.02561
4.168,-0.03607
4.172,-0.00963
4.176,-0.03122
4.18,-0.02618
4.184,0.01635
4.188,-0.03471
4.192,-0.00544
4.196,-0.00414
4.2,-0.02817
4.204,0.0056
4.208,-0.00528
4.212,-0.0254
4.216,0.01898
4.22,-0.034
4.224,-0.00974
4.228,-0.02841
4.232,-0.01504
4.236,-0.05043
4.24,-0.02824
4.244,-0.0208
4.248,-0.04041
4.252,-0.01785
4.256,-0.038
4.26,-0.03834
4.264,-0.04916
4.268,-0.00427
4.272,-0.02859
4.276,-0.0386
4.28,-0.01393
4.284,-0.01888
4.288,-0.05178
4.292,-0.0197
4.296,-0.02017
4.3,-0.03548
4.304,-0.01553
4.308,-0.03862
4.312,-0.02763
4.316,-0.00631
4.32,-0.00613
4.324,-0.03964
4.328,-0.01418
4.332,-0.02571
4.336,-0.01886
4.34,-0.04131
4.344,-0.0199
4.348,-0.0129
4.352,0.00331
4.356,-0.00641
4.36,-0.022
4.364,-0.01184
4.368,-0.00542
4.372,0.00325
4.376,-0.00889
4.38,-0.01352
4.384,-0.03537
4.388,-0.02424
4.392,-0.00818
4.396,-0.00516
4.4,0.00308
4.404,-0.01171
4.408,-0.01046
4.412,0.00413
4.416,0.00227
4.42,0.0124
4.424,0.01326
4.428,0.03446
4.432,0.03203
4.436,0.04154
4.44,0.0918
4.444,0.06844
4.448,0.05706
4.452,0.05534
4.456,0.07763
4.46,0.07952
4.464,0.04222
4.468,0.06866
4.472,0.06019
4.476,0.00781
4.48,-0.00738
4.484,0.01344
4.488,0.0024
4.492,-0.01169
4.496,0.00606
4.5,-0.01365
4.504,-0.00565
4.508,-0.0213
4.512,0.01607
4.516,-0.02053
4.52,0.00875
4.524,-0.01019
4.528,-0.02422
4.532,-0.03719
4.536,-0.02874
4.54,-0.01374
4.544,-0.00158
4.548,-0.00983
4.552,-0.00775
4.556,-0.03823
4.56,-0.04209
4.564,-0.03195
4.568,-0.09456
4.572,-0.10399
4.576,-0.15188
4.58,-0.1716
4.584,-0.10563
4.588,0.03661
4.592,0.17428
4.596,0.3726
4.6,0.57898
4.604,0.79351
4.608,0.92999
4.612,0.96115
4.616,0.87707
4.62,0.76242
4.624,0.49821
4.628,0.28683
4.632,0.08675
4.636,-0.05814
4.64,-0.1875
4.644,-0.17565
4.648,-0.18046
4.652,-0.13639
4.656,-0.08355
4.66,-0.07701
4.664,-0.03247
4.668,-0.04003
4.672,-0.02262
4.676,-0.01418
4.68,-0.01394
4.684,-0.02806
4.688,-0.00935
4.692,-0.02722
4.696,0.01157
4.7,-0.05352
4.704,-0.00872
4.708,-0.03967
4.712,-0.0447
4.716,-0.05634
4.72,-0.03281
4.724,-0.01396
4.728,-0.01447
4.732,-0.01228
4.736,-0.01079
4.74,-0.01379
4.744,-0.0216
4.748,-0.01044
4.752,-0.02794
4.756,-0.03175
4.76,-0.01584
4.764,-0.03122
4.768,-0.0163
4.772,-0.02822
4.776,-0.00353
4.78,-0.02904
4.784,-0.0246
4.788,-0.01774
4.792,-0.0128
4.796,-0.00787
4.8,-0.01015
4.804,0.03208
4.808,0.01928
4.812,0.04362
4.816,0.01967
4.82,0.04242
4.824,0.03952
4.828,0.05942
4.832,0.07224
4.836,0.09848
4.84,0.07498
4.844,0.11434
4.848,0.10508
4.852,0.12552
4.856,0.12092
4.86,0.14145
4.864,0.13917
4.868,0.16751
4.872,0.18826
4.876,0.18568
4.88,0.19199
4.884,0.17296
4.888,0.18555
4.892,0.1903
4.896,0.21841
4.9,0.18648
4.904,0.17572
4.908,0.14736
4.912,0.17281
4.916,0.15917
4.92,0.137
4.924,0.13605
4.928,0.13342
4.932,0.10966
4.936,0.06882
4.94,0.11203
4.944,0.09201
4.948,0.08235
4.952,0.0447
4.956,0.05535
4.96,0.04466
4.964,0.03553
4.968,0.00859
4.972,0.02766
4.976,0.02263
4.98,-0.00485
4.984,-0.00806
4.988,-0.01042
4.992,-0.02409
4.996,0.00188
5.0,-0.01138
5.004,-0.02505
5.008,-0.01557
5.012,-0.02852
5.016,-0.03913
5.02,-0.04998
5.024,-0.02387
5.028,-0.0278
5.032,-0.0363
5.036,-0.04955
5.04,-0.04153
5.044,-0.03455
5.048,-0.02324
5.052,-0.02556
5.056,-0.04573
5.06,-0.0183
5.064,-0.03375
5.068,-0.03486
5.072,-0.02864
5.076,-0.03798
5.08,-0.02575
5.084,-0.02903
5.088,-0.04706
5.092,-0.04453
5.096,-0.03256
5.1,-0.06575
5.104,-0.01936
5.108,-0.03949
5.112,-0.02972
5.116,-0.03088
5.12,-0.02564
5.124,-0.03337
5.128,-0.01274
5.132,-0.04681
5.136,-0.02623
5.14,-0.00368
5.144,-0.01738
5.148,-0.03418
5.152,-0.01848
5.156,-0.02857
5.16,-0.05391
5.164,-0.00607
5.168,-0.02906
5.172,-0.01354
5.176,-0.01914
5.18,-0.00645
5.184,-0.03081
5.188,-0.03789
5.192,-0.04256
5.196,-0.02309
5.2,-0.02621
5.204,-0.04125
5.208,-0.02562
5.212,-0.03436
5.216,-0.00773
5.22,-0.01176
5.224,-0.02642
5.228,-0.02904
5.232,-0.05053
5.236,-0.02452
5.24,-0.04991
5.244,-0.04063
5.248,-0.01078
5.252,-0.05154
5.256,-0.0611
5.26,-0.03862
5.264,-0.02978
5.268,-0.03846
5.272,-0.01945
5.276,-0.02179
5.28,-0.0517
5.284,-0.00143
5.288,-0.00315
5.292,-0.00348
5.296,-0.02808
5.3,-0.01627
5.304,-0.0048
5.308,-0.0186
5.312,-0.05183
5.316,-0.02655
5.32,-0.0279
5.324,-0.03834
5.328,-0.01582
5.332,-0.02109
5.336,-0.01688
5.34,-0.03514
5.344,-0.0243
5.348,-0.03263
5.352,-0.01939
5.356,-0.03189
5.36,0.01912
5.364,-0.04691
5.368,-0.04434
5.372,-0.02898
5.376,-0.03709
5.38,-0.03894
5.384,-0.03716
5.388,-0.02235
5.392,-0.0224
5.396,-0.04682
5.4,-0.03487
5.404,-0.0128
5.408,-0.02302
5.412,-0.04095
5.416,-0.04755
5.42,-0.04073
5.424,-0.02554
5.428,-0.02872
5.432,-0.02551
5.436,-0.00416
5.44,-0.02497
5.444,-0.01435
5.448,-0.04171
5.452,-0.03522
5.456,-0.04398
5.46,-0.04779
5.464,-0.01937
5.468,-0.02688
5.472,-0.00024
5.476,-0.00838
5.48,-0.01522
5.484,-0.03388
5.488,-0.02807
5.492,0.0004
5.496,0.00222
5.5,0.00715
5.504,0.02046
5.508,0.02933
5.512,0.01069
5.516,0.02074
5.52,0.0422
5.524,0.04953
5.528,0.02585
5.532,0.06205
5.536,0.08159
5.54,0.08653
5.544,0.05295
5.548,0.06766
5.552,0.05958
5.556,0.01959
5.56,0.03738
5.564,-0.00719
5.568,-0.00991
5.572,-0.01162
5.576,-0.00692
5.58,-0.02611
5.584,-0.03868
5.588,-0.01316
5.592,-0.01741
5.596,-0.03469
5.6,-0.03185
5.604,-0.04311
5.608,-0.02503
5.612,-0.02678
5.616,-0.02512
5.62,-0.02584
5.624,-0.02458
5.628,-0.02329
5.632,-0.02054
5.636,-0.03658
5.64,-0.00591
5.644,-0.02561
5.648,-0.03989
5.652,-0.05172
5.656,-0.07818
5.66,-0.12273
5.664,-0.15633
5.668,-0.11337
5.672,-0.00188
5.676,0.15374
5.68,0.33914
5.684,0.57279
5.688,0.78257
5.692,0.91285
5.696,0.98812
5.7,0.92695
5.704,0.75895
5.708,0.56104
5.712,0.33009
5.716,0.08959
5.72,-0.04979
5.724,-0.16606
5.728,-0.18915
5.732,-0.18232
5.736,-0.13989
5.74,-0.10029
5.744,-0.08445
5.748,-0.04766
5.752,-0.02484
5.756,-0.01872
5.76,-0.03655
5.764,-0.02384
5.768,-0.01954
5.772,-0.01849
5.776,-0.03644
5.78,-0.02178
5.784,-0.01702
5.788,-0.04765
5.792,-0.03088
5.796,-0.0249
5.8,-0.01105
5.804,-0.0172
5.808,-0.02692
5.812,-0.02202
5.816,-0.03728
5.82,0.00976
5.824,-0.01105
5.828,-0.02274
5.832,-0.01575
5.836,-0.01578
5.84,-0.02808
5.844,-0.01867
5.848,-0.03177
5.852,-0.01476
5.856,0.00248
5.86,-0.04242
5.864,-0.00169
5.868,-0.00935
5.872,-0.02222
5.876,-0.01957
5.88,0.00476
5.884,-0.0104
5.888,-0.0135
5.892,0.0199
5.896,-0.0195
5.9,0.04137
5.904,0.05034
5.908,0.04806
5.912,0.04825
5.916,0.06527
5.92,0.0998
5.924,0.07206
5.928,0.11312
5.932,0.12375
5.936,0.13913
5.94,0.13862
5.944,0.12641
5.948,0.1738
5.952,0.16911
5.956,0.18458
5.96,0.16513
5.964,0.1974
5.968,0.17507
5.972,0.19491
5.976,0.1853
5.98,0.18019
5.984,0.20607
5.988,0.18787
5.992,0.20364
5.996,0.16905
6.0,0.16426
6.004,0.16384
6.008,0.15398
6.012,0.12855
6.016,0.09247
6.02,0.09946
6.024,0.10551
6.028,0.08834
6.032,0.0668
6.036,0.07335
6.04,0.05035
6.044,0.02506
6.048,0.02095
6.052,0.02394
6.056,0.00017
6.06,0.01594
6.064,0.00882
6.068,-0.02888
6.072,0.00675
6.076,0.002
6.08,-0.04134
6.084,-0.01093
6.088,-0.00929
6.092,-0.02559
6.096,-0.01211
6.1,-0.04444
6.104,-0.00438
6.108,-0.00972
6.112,-0.03047
6.116,-0.02198
6.12,-0.02413
6.124,-0.00846
6.128,-0.03571
6.132,-0.04399
6.136,-0.02688
6.14,-0.00642
6.144,-0.00154
6.148,-0.01655
6.152,-0.02279
6.156,-0.00133
6.16,-0.0025
6.164,-0.02514
6.168,-0.00551
6.172,-0.02515
6.176,-0.0202
6.18,-0.0179
6.184,-0.01107
6.188,-0.02732
6.192,-0.01871
6.196,-0.00419
6.2,0.00232
6.204,-0.01083
6.208,-0.03629
6.212,-0.03462
6.216,-0.01241
6.22,-0.02978
6.224,-4e-05
6.228,-0.02491
6.232,-0.03401
6.236,-0.00344
6.24,-0.03104
6.244,-0.01337
6.248,-0.00378
6.252,-0.00604
6.256,-0.03672
6.26,-0.00046
6.264,-0.04463
6.268,-0.01237
6.272,-0.01787
6.276,-0.00797
6.28,-0.00074
6.284,-0.02509
6.288,-0.02394
6.292,-0.02999
6.296,-0.02437
6.3,0.00458
6.304,0.0098
6.308,0.005
6.312,0.01368
6.316,-0.0082
6.32,0.02207
6.324,0.02602
6.328,0.05358
6.332,0.0652
6.336,0.04182
6.34,0.07976
6.344,0.0708
6.348,0.04716
6.352,0.10574
6.356,0.08591
6.36,0.03762
6.364,0.05966
6.368,0.0355
6.372,0.02899
6.376,0.03252
6.38,-0.01173
6.384,0.03353
6.388,-0.00823
6.392,0.00459
6.396,-0.00909
6.4,-0.03573
6.404,-0.00323
6.408,-0.02511
6.412,-0.00025
6.416,-0.0264
6.42,-0.01172
6.424,0.01444
6.428,0.00876
6.432,-0.00705
6.436,0.00763
6.44,-0.00754
6.444,0.00315
6.448,-0.01333
6.452,-0.00567
6.456,-0.03301
6.46,-0.01742
6.464,-0.06661
6.468,-0.1083
6.472,-0.1445
6.476,-0.10988
6.48,-0.04578
6.484,0.08849
6.488,0.28112
6.492,0.47845
6.496,0.72328
6.5,0.88555
6.504,0.98765
6.508,0.95945
6.512,0.83883
6.516,0.62232
6.52,0.42505
6.524,0.20126
6.528,0.01567
6.532,-0.13224
6.536,-0.16852
6.54,-0.16528
6.544,-0.1426
6.548,-0.12691
6.552,-0.07951
6.556,-0.02919
6.56,-0.02975
6.564,-0.03591
6.568,-0.00041
6.572,-0.01546
6.576,-0.00868
6.58,-0.03488
6.584,-0.00698
6.588,0.01024
6.592,-0.01831
6.596,-0.00471
6.6,-0.01174
6.604,-0.02474
6.608,0.00587
6.612,0.00053
6.616,-0.00587
6.62,0.01301
6.624,0.00703
6.628,-0.01014
6.632,-0.01807
6.636,-0.00866
6.64,0.00335
6.644,-0.05163
6.648,0.02207
6.652,-0.00766
6.656,-0.00962
6.66,0.00995
6.664,-0.00751
6.668,-0.00598
6.672,-0.03184
6.676,-0.01894
6.68,0.01572
6.684,0.00975
6.688,0.00392
6.692,0.02263
6.696,0.04063
6.7,0.02989
6.704,0.05905
6.708,0.06233
6.712,0.06583
6.716,0.03123
6.72,0.07027
6.724,0.06481
6.728,0.09992
6.732,0.11038
6.736,0.11336
6.74,0.12343
6.744,0.11473
6.748,0.15291
6.752,0.1519
6.756,0.20392
6.76,0.18715
6.764,0.20447
6.768,0.21168
6.772,0.19489
6.776,0.19439
6.78,0.21231
6.784,0.21385
6.788,0.20011
6.792,0.2115
6.796,0.21347
6.8,0.20906
6.804,0.20208
6.808,0.19594
6.812,0.2028
6.816,0.16728
6.82,0.1722
6.824,0.15588
6.828,0.14628
6.832,0.13593
6.836,0.1134
6.84,0.10786
6.844,0.06121
6.848,0.10764
6.852,0.05892
6.856,0.03665
6.86,0.06005
6.864,0.038
6.868,0.02145
6.872,0.03873
6.876,0.0497
6.88,-0.00215
6.884,0.02926
6.888,0.01742
6.892,0.00669
6.896,0.00599
6.9,0.01736
6.904,0.0125
6.908,0.01509
6.912,-0.00325
6.916,0.00936
6.92,0.01692
6.924,0.01727
6.928,0.00264
6.932,0.01851
6.936,-0.01602
6.94,3e-05
6.944,0.00459
6.948,-0.00699
6.952,0.02192
6.956,-0.00679
6.96,-0.00448
6.964,-0.01099
6.968,0.00327
6.972,-0.02861
6.976,-0.03303
6.98,0.0306
6.984,0.0021
6.988,0.01372
6.992,-0.0141
6.996,-0.00781
7.0,0.01071
7.004,-0.00733
7.008,0.00102
7.012,0.00736
7.016,0.04454
7.02,-0.00236
7.024,-0.00876
7.028,-0.02014
7.032,0.01059
7.036,0.0017
7.04,-0.02994
7.044,-0.00517
7.048,0.00623
7.052,-0.02793
7.056,-0.00616
7.06,0.01142
7.064,-0.00512
7.068,-0.00859
7.072,-0.00092
7.076,-0.01736
7.08,0.01195
7.084,0.00981
7.088,-0.00991
7.092,0.02181
7.096,0.01865
7.1,0.00268
7.104,0.01043
7.108,-0.00585
7.112,0.03635
7.116,-0.00012
7.12,-0.00223
7.124,0.02219
7.128,-0.0393
7.132,0.01325
7.136,-0.01132
7.14,0.02078
7.144,0.02177
7.148,0.02003
7.152,-0.01569
7.156,-0.00107
7.16,0.00628
7.164,-0.0049
7.168,0.00818
7.172,0.01035
7.176,0.01449
7.18,0.00757
7.184,0.00062
7.188,0.02688
7.192,0.0126
7.196,0.01415
7.2,-0.00145
7.204,0.0093
7.208,-0.0267
7.212,-0.00368
7.216,0.01764
7.22,-0.00085
7.224,0.03326
7.228,0.01823
7.232,0.00425
7.236,0.01813
7.24,0.04565
7.244,0.04784
7.248,0.0391
7.252,0.06591
7.256,0.08615
7.26,0.09743
7.264,0.13169
7.268,0.1182
7.272,0.12402
7.276,0.07433
7.28,0.08219
7.284,0.07379
7.288,0.0859
7.292,0.08331
7.296,0.07156
7.3,0.04097
7.304,0.02021
7.308,0.03696
7.312,0.02582
7.316,0.01693
7.32,0.03912
7.324,0.01674
7.328,-0.00165
7.332,0.02649
7.336,0.01223
7.34,0.02047
7.344,0.03036
7.348,0.01277
7.352,0.00125
7.356,0.00809
7.36,0.0228
7.364,0.03945
7.368,0.0171
7.372,-0.00742
7.376,-0.00054
7.38,0.00886
7.384,-0.00019
7.388,-0.02835
7.392,-0.06848
7.396,-0.09895
7.4,-0.09881
7.404,-0.04885
7.408,0.06854
7.412,0.23864
7.416,0.44148
7.42,0.67456
7.424,0.86647
7.428,0.99192
7.432,1.00669
7.436,0.92258
7.44,0.72022
7.444,0.5359
7.448,0.30851
7.452,0.09739
7.456,-0.03581
7.46,-0.1256
7.464,-0.15787
7.468,-0.14724
7.472,-0.07596
7.476,-0.03429
7.48,-0.00204
7.484,-0.00166
7.488,-0.00678
7.492,0.02464
7.496,0.00797
7.5,0.02327
7.504,-0.00232
7.508,0.00217
7.512,-0.0062
7.516,0.03842
7.52,0.04622
7.524,0.01412
7.528,0.01568
7.532,0.02702
7.536,0.01499
7.54,0.02917
7.544,0.02094
7.548,0.02839
7.552,0.0179
7.556,0.01041
7.56,0.03313
7.564,0.01198
7.568,0.01682
7.572,0.0237
7.576,0.01998
7.58,0.04495
7.584,0.03519
7.588,0.03989
7.592,0.03613
7.596,0.01079
7.6,0.03142
7.604,0.02313
7.608,0.05493
7.612,0.02032
7.616,0.06013
7.62,0.06397
7.624,0.05576
7.628,0.05196
7.632,0.04931
7.636,0.06862
7.64,0.08489
7.644,0.07753
7.648,0.09359
7.652,0.12548
7.656,0.11669
7.66,0.13837
7.664,0.15376
7.668,0.15373
7.672,0.17058
7.676,0.20544
7.68,0.20094
7.684,0.2041
7.688,0.24039
7.692,0.20983
7.696,0.25362
7.7,0.22908
7.704,0.24778
7.708,0.22152
7.712,0.24695
7.716,0.21522
7.72,0.22613
7.724,0.23241
7.728,0.22407
7.732,0.20816
7.736,0.22326
7.74,0.20463
7.744,0.17045
7.748,0.17515
7.752,0.17981
7.756,0.16254
7.76,0.15086
7.764,0.12624
7.768,0.11193
7.772,0.0755
7.776,0.07351
7.78,0.08661
7.784,0.07158
7.788,0.07172
7.792,0.0813
7.796,0.05236
7.8,0.08041
7.804,0.057
7.808,0.05262
7.812,0.06258
7.816,0.05108
7.82,-0.00143
7.824,0.01587
7.828,0.00372
7.832,0.04397
7.836,0.00831
7.84,0.03612
7.844,0.02228
7.848,0.03275
7.852,0.04652
7.856,0.00678
7.86,0.03932
7.864,0.04928
7.868,0.02468
7.872,0.01089
7.876,0.00871
7.88,0.03507
7.884,0.0356
7.888,0.01193
7.892,0.03251
7.896,0.03661
7.9,0.01059
7.904,0.02759
7.908,0.05756
7.912,0.01083
7.916,0.02353
7.92,0.00671
7.924,0.01711
7.928,0.04151
7.932,0.02694
7.936,0.01911
7.94,-0.00098
7.944,0.01764
7.948,0.04514
7.952,0.04454
7.956,0.01338
7.96,0.02296
7.964,0.05457
7.968,0.02485
7.972,0.00627
7.976,0.0399
7.98,0.03817
7.984,0.03247
7.988,0.02263
7.992,0.02827
7.996,0.01017
8.0,0.02751
8.004,0.01073
8.008,0.01721
8.012,0.03603
8.016,0.0166
8.02,0.02804
8.024,0.02955
8.028,0.04429
8.032,0.03467
8.036,0.01087
8.04,0.02787
8.044,0.05471
8.048,0.02927
8.052,0.02253
8.056,0.0169
8.06,0.03341
8.064,0.06189
8.068,0.02036
8.072,0.02927
8.076,0.0494
8.08,0.03331
8.084,0.02085
8.088,0.02853
8.092,0.03325
8.096,0.04118
8.1,0.05103
8.104,0.03733
8.108,0.02421
8.112,0.07449
8.116,0.03821
8.12,0.05557
8.124,0.07321
8.128,0.10042
8.132,0.11068
8.136,0.11894
8.14,0.09639
8.144,0.14822
8.148,0.11765
8.152,0.1442
8.156,0.11877
8.16,0.08409
8.164,0.10176
8.168,0.06128
8.172,0.07204
8.176,0.05752
8.18,0.0568
8.184,0.03955
8.188,0.05028
8.192,0.0568
8.196,0.04651
8.2,0.02653
8.204,0.02895
8.208,0.03462
8.212,0.03539
8.216,0.04413
8.22,0.01674
8.224,0.02735
8.228,0.0049
8.232,0.0325
8.236,0.03043
8.24,0.02532
8.244,0.02775
8.248,0.02584
8.252,0.02772
8.256,0.01639
8.26,0.02134
8.264,-0.00413
8.268,-0.06318
8.272,-0.07347
8.276,-0.09444
8.28,-0.01046
8.284,0.11214
8.288,0.25788
8.292,0.50117
8.296,0.72748
8.3,0.91108
8.304,1.03068
8.308,0.98506
8.312,0.90574
8.316,0.72246
8.32,0.4865
8.324,0.2644
8.328,0.06991
8.332,-0.06731
8.336,-0.14639
8.34,-0.13152
8.344,-0.12321
8.348,-0.06362
8.352,-0.02259
8.356,-0.01584
8.36,-0.00309
8.364,0.00235
8.368,0.01642
8.372,0.0309
8.376,0.00758
8.38,0.03651
8.384,0.03429
8.388,0.02915
8.392,0.01627
8.396,0.02194
8.4,0.01258
8.404,0.00532
8.408,0.04291
8.412,0.02941
8.416,0.00834
8.42,0.02404
8.424,0.01897
8.428,0.02062
8.432,0.02122
8.436,0.03428
8.44,0.01825
8.444,0.05337
8.448,0.01725
8.452,0.04866
8.456,0.05019
8.46,0.06035
8.464,0.05136
8.468,0.04428
8.472,0.04921
8.476,0.0225
8.48,0.03978
8.484,0.03417
8.488,0.0586
8.492,0.04098
8.496,0.04139
8.5,0.0747
8.504,0.08047
8.508,0.10186
8.512,0.06266
8.516,0.07229
8.52,0.09847
8.524,0.10172
8.528,0.11251
8.532,0.10915
8.536,0.14931
8.54,0.1496
8.544,0.18446
8.548,0.1834
8.552,0.17171
8.556,0.19517
8.56,0.2121
8.564,0.22426
8.568,0.23953
8.572,0.2554
8.576,0.26719
8.58,0.24736
8.584,0.2723
8.588,0.25391
8.592,0.25221
8.596,0.24808
8.6,0.2387
8.604,0.23297
8.608,0.2349
8.612,0.20147
8.616,0.21407
8.62,0.18437
8.624,0.20984
8.628,0.16244
8.632,0.16083
8.636,0.16675
8.64,0.14994
8.644,0.13687
8.648,0.07361
8.652,0.10069
8.656,0.10056
8.66,0.09377
8.664,0.07808
8.668,0.07051
8.672,0.0672
8.676,0.03396
8.68,0.08106
8.684,0.06875
8.688,0.05033
8.692,0.02814
8.696,0.03008
8.7,0.0243
8.704,0.02321
8.708,0.01312
8.712,0.04423
8.716,0.0327
8.72,0.02583
8.724,0.03109
8.728,0.0692
8.732,0.01319
8.736,0.03137
8.74,0.04768
8.744,0.04082
8.748,0.0216
8.752,0.04233
8.756,0.0434
8.76,0.02062
8.764,0.03675
8.768,0.02053
8.772,0.02103
8.776,0.04373
8.78,0.02588
8.784,0.03137
8.788,0.02059
8.792,0.02624
8.796,0.05394
8.8,-0.00241
8.804,0.033
8.808,0.02904
8.812,0.02171
8.816,0.03803
8.82,0.02498
8.824,0.04086
8.828,0.02764
8.832,0.01673
8.836,0.01263
8.84,0.0098
8.844,0.04463
8.848,0.02946
8.852,0.03454
8.856,0.04415
8.86,0.03614
8.864,0.03031
8.868,0.03963
8.872,0.02299
8.876,0.01054
8.88,0.04362
8.884,0.0197
8.888,0.01453
8.892,-0.00036
8.896,0.04647
8.9,0.0379
8.904,0.02669
8.908,0.03943
8.912,0.02358
8.916,0.01644
8.92,-0.01125
8.924,0.02159
8.928,0.03377
8.932,0.04202
8.936,0.01509
8.94,0.03135
8.944,0.00595
8.948,0.04166
8.952,0.05044
8.956,0.03898
8.96,0.03851
8.964,0.02626
8.968,0.03926
8.972,0.02873
8.976,0.03648
8.98,0.0201
8.984,0.05069
8.988,0.04064
8.992,0.02075
8.996,0.03336
9.0,0.04125
9.004,0.02909
9.008,0.01003
9.012,0.03237
9.016,0.02796
9.02,0.03512
9.024,0.03636
9.028,0.03643
9.032,0.0313
9.036,0.02651
9.04,0.01334
9.044,0.04288
9.048,0.02029
9.052,0.02319
9.056,0.05255
9.06,0.03363
9.064,0.03359
9.068,0.01513
9.072,0.04475
9.076,0.05207
9.08,0.03464
9.084,0.03428
9.088,0.01244
9.092,0.02285
9.096,0.01607
9.1,0.03697
9.104,0.02311
9.108,0.01903
9.112,0.0484
9.116,0.02312
9.12,0.02528
9.124,0.0726
9.128,0.06223
9.132,0.08525
9.136,0.10588
9.14,0.1328
9.144,0.08767
9.148,0.1133
9.152,0.1433
9.156,0.15109
9.16,0.13148
9.164,0.09411
9.168,0.0845
9.172,0.09518
9.176,0.08191
9.18,0.07583
9.184,0.09126
9.188,0.03969
9.192,0.03029
9.196,0.03235
9.2,0.03684
9.204,0.02491
9.208,0.01735
9.212,0.01539
9.216,0.06182
9.22,0.04894
9.224,0.02241
9.228,0.01927
9.232,0.04894
9.236,0.02269
9.24,0.05498
9.244,0.01761
9.248,0.02815
9.252,0.01429
9.256,0.01943
9.26,0.05104
9.264,0.03812
9.268,0.0127
9.272,0.00031
9.276,-0.04594
9.28,-0.04676
9.284,-0.0853
9.288,-0.04949
9.292,0.01287
9.296,0.1804
9.3,0.37272
9.304,0.56619
9.308,0.80988
9.312,0.95639
9.316,1.00342
9.32,0.97071
9.324,0.82779
9.328,0.60775
9.332,0.40506
9.336,0.17428
9.34,0.00245
9.344,-0.07132
9.348,-0.15058
9.352,-0.12687
9.356,-0.10834
9.36,-0.06249
9.364,-0.02851
9.368,0.00817
9.372,0.01692
9.376,0.03655
9.38,0.01982
9.384,0.03671
9.388,0.02302
9.392,0.02538
9.396,-0.0089
9.4,0.03236
9.404,0.01935
9.408,0.04253
9.412,0.01941
9.416,0.04862
9.42,0.05388
9.424,0.00265
9.428,0.04934
9.432,0.02717
9.436,0.02021
9.44,0.04235
9.444,0.04332
9.448,0.02328
9.452,0.03767
9.456,0.01019
9.46,0.02508
9.464,0.02457
9.468,0.02729
9.472,0.03576
9.476,0.03075
9.48,0.0303
9.484,0.03006
9.488,0.02034
9.492,0.00521
9.496,0.0512
9.5,0.05901
9.504,0.03551
9.508,0.05602
9.512,0.03502
9.516,0.09098
9.52,0.08589
9.524,0.09436
9.528,0.07645
9.532,0.10627
9.536,0.08868
9.54,0.09852
9.544,0.10859
9.548,0.1446
9.552,0.17095
9.556,0.13588
9.56,0.17175
9.564,0.21227
9.568,0.19494
9.572,0.22282
9.576,0.22997
9.58,0.22941
9.584,0.22855
9.588,0.23047
9.592,0.23689
9.596,0.22819
9.6,0.22076
9.604,0.22832
9.608,0.23759
9.612,0.23932
9.616,0.21061
9.62,0.21973
9.624,0.18527
9.628,0.15064
9.632,0.17864
9.636,0.17606
9.64,0.14705
9.644,0.15205
9.648,0.10996
9.652,0.10627
9.656,0.0971
9.66,0.09622
9.664,0.1017
9.668,0.07576
9.672,0.05376
9.676,0.07731
9.68,0.02975
9.684,0.07006
9.688,0.07137
9.692,0.0584
9.696,0.05654
9.7,0.01968
9.704,0.02194
9.708,0.0223
9.712,0.01166
9.716,0.02616
9.72,0.02674
9.724,0.03969
9.728,0.02077
9.732,0.01073
9.736,-0.00701
9.74,0.04642
9.744,0.01376
9.748,0.02875
9.752,0.00412
9.756,0.0102
9.76,0.02246
9.764,0.03465
9.768,-0.00624
9.772,0.04185
9.776,0.00204
9.78,0.01146
9.784,0.02225
9.788,0.0028
9.792,0.0019
9.796,0.0143
9.8,0.00913
9.804,0.01688
9.808,0.01249
9.812,0.01342
9.816,0.01648
9.82,0.00195
9.824,0.01662
9.828,0.01271
9.832,0.01704
9.836,0.01635
9.84,0.00999
9.844,0.0205
9.848,-0.0018
9.852,-0.0037
9.856,-0.00348
9.86,0.01301
9.864,-0.00105
9.868,0.0157
9.872,-0.00549
9.876,-0.00095
9.88,0.02764
9.884,0.0167
9.888,-0.00041
9.892,0.01018
9.896,0.02923
9.9,-0.00152
9.904,-0.00474
9.908,0.0065
9.912,0.01777
9.916,0.01117
9.92,0.02841
9.924,0.01456
9.928,0.01611
9.932,0.02773
9.936,-0.00737
9.94,0.02259
9.944,0.02414
9.948,-0.01044
9.952,0.00898
9.956,0.02747
9.96,0.01499
9.964,0.02464
9.968,0.00821
9.972,0.01427
9.976,0.0289
9.98,0.02143
9.984,0.00433
9.988,-0.0123
9.992,0.00405
9.996,-0.0044
