t_seg,ecg_mV
0.0,0.10724
0.004,0.0275
0.008,0.07712
0.012,0.06832
0.016,-0.02591
0.02,0.00842
0.024,0.01275
0.028,-0.03221
0.032,0.04242
0.036,0.02317
0.04,-0.01275
0.044,0.02963
0.048,0.01928
0.052,0.0387
0.056,0.00971
0.06,0.01259
0.064,0.02372
0.068,0.03772
0.072,0.01917
0.076,0.0745
0.08,0.03561
0.084,0.01839
0.088,-0.00104
0.092,-0.06487
0.096,-0.01387
0.1,0.02682
0.104,0.03037
0.108,0.05233
0.112,0.00538
0.116,0.07467
0.12,-0.07037
0.124,0.03847
0.128,-0.03431
0.132,0.06909
0.136,0.04819
0.14,-0.0199
0.144,-0.01066
0.148,0.05621
0.152,0.02656
0.156,0.01526
0.16,-0.0108
0.164,0.03597
0.168,0.00167
0.172,0.00163
0.176,-0.01718
0.18,0.02502
0.184,0.01086
0.188,-0.00969
0.192,-0.01474
0.196,0.00659
0.2,-0.02099
0.204,0.06425
0.208,0.03813
0.212,-0.00379
0.216,0.08094
0.22,-0.03334
0.224,0.04109
0.228,0.02656
0.232,-0.00215
0.236,0.0618
0.24,0.04057
0.244,0.02787
0.248,0.09457
0.252,0.03843
0.256,0.03882
0.26,0.01269
0.264,-0.00945
0.268,0.04392
0.272,-0.02141
0.276,-0.02052
0.28,0.01499
0.284,-0.06242
0.288,0.02239
0.292,0.01956
0.296,0.03229
0.3,-0.03141
0.304,-0.01383
0.308,-0.04009
0.312,-0.03704
0.316,0.04933
0.32,0.01806
0.324,-0.02405
0.328,-0.035
0.332,-0.00353
0.336,-0.0141
0.34,-0.00051
0.344,0.02004
0.348,0.05389
0.352,0.03045
0.356,0.06034
0.36,0.06325
0.364,0.02636
0.368,-0.04415
0.372,-0.05782
0.376,0.0142
0.38,0.07662
0.384,0.05836
0.388,0.05028
0.392,0.01262
0.396,-0.00556
0.4,0.015
0.404,-0.03288
0.408,0.02061
0.412,0.03364
0.416,-0.02292
0.42,0.07306
0.424,-0.01183
0.428,0.04183
0.432,0.11693
0.436,0.01029
0.44,0.01801
0.444,0.04048
0.448,-0.02982
0.452,0.05109
0.456,0.02554
0.46,0.0049
0.464,0.01226
0.468,-0.00223
0.472,-0.00059
0.476,0.03002
0.48,0.00247
0.484,0.02273
0.488,0.02785
0.492,-0.0171
0.496,0.04458
0.5,-0.00083
0.504,0.05327
0.508,-0.00536
0.512,0.00033
0.516,0.01153
0.52,0.02479
0.524,0.01964
0.528,0.03261
0.532,0.0204
0.536,0.00558
0.54,-0.01285
0.544,0.01699
0.548,-0.0271
0.552,0.03414
0.556,-0.0291
0.56,-0.01213
0.564,0.04505
0.568,-0.02742
0.572,-0.00446
0.576,-0.02492
0.58,0.01766
0.584,-0.00724
0.588,0.03083
0.592,0.01882
0.596,0.01135
0.6,0.00148
0.604,0.00199
0.608,0.01687
0.612,-0.01725
0.616,0.02303
0.62,0.01954
0.624,0.00128
0.628,0.00109
0.632,0.01716
0.636,0.00695
0.64,-0.01323
0.644,0.05009
0.648,0.03558
0.652,-0.00427
0.656,0.05724
0.66,0.01785
0.664,0.02047
0.668,0.04553
0.672,-0.00544
0.676,0.02044
0.68,0.02647
0.684,0.00361
0.688,0.02313
0.692,-0.04033
0.696,-0.00028
0.7,-0.02392
0.704,0.0346
0.708,0.02479
0.712,-0.07757
0.716,-0.004
0.72,0.06096
0.724,-0.06702
0.728,0.04273
0.732,0.01307
0.736,-0.01049
0.74,0.02344
0.744,-0.01374
0.748,-0.00337
0.752,-0.07485
0.756,0.01796
0.76,-0.01287
0.764,0.00063
0.768,-0.00201
0.772,0.08112
0.776,-0.00112
0.78,0.04044
0.784,-0.00885
0.788,0.07349
0.792,0.07233
0.796,0.07913
0.8,0.03698
0.804,0.05468
0.808,0.05726
0.812,0.12683
0.816,0.1075
0.82,0.0732
0.824,0.07332
0.828,0.10717
0.832,0.09048
0.836,0.0488
0.84,0.02109
0.844,0.02979
0.848,-0.02576
0.852,0.00168
0.856,0.01517
0.86,-0.01269
0.864,0.05455
0.868,-0.00549
0.872,-0.03437
0.876,0.01634
0.88,-0.02116
0.884,0.02922
0.888,-0.01083
0.892,0.0003
0.896,0.02145
0.9,0.04919
0.904,-0.0101
0.908,-0.00923
0.912,0.01715
0.916,0.05277
0.92,-0.00946
0.924,-0.02653
0.928,-0.0572
0.932,-0.08388
0.936,-0.1638
0.94,-0.05869
0.944,-0.06885
0.948,0.04192
0.952,0.26722
0.956,0.39621
0.96,0.63215
0.964,0.78081
0.968,0.95117
0.972,0.96785
0.976,0.98113
0.98,0.70964
0.984,0.54645
0.988,0.31619
0.992,0.12332
0.996,-0.04118
1.0,-0.12953
1.004,-0.12662
1.008,-0.15281
1.012,-0.03766
1.016,-0.03509
1.02,-0.08962
1.024,-0.03474
1.028,-0.02234
1.032,-0.04901
1.036,0.00054
1.04,0.00316
1.044,-0.12177
1.048,-0.06615
1.052,0.02511
1.056,-0.03447
1.06,-0.03157
1.064,-0.00296
1.068,0.0294
1.072,0.03256
1.076,-0.04647
1.08,0.02497
1.084,0.08917
1.088,-0.03136
1.092,-0.02035
1.096,-0.05109
1.1,-0.02684
1.104,-0.02518
1.108,0.00205
1.112,-0.00153
1.116,0.0443
1.12,0.02421
1.124,-0.03703
1.128,0.02218
1.132,0.02617
1.136,-0.04224
1.14,0.03789
1.144,-0.01783
1.148,0.03599
1.152,0.03555
1.156,-0.03938
1.16,0.00397
1.164,0.04628
1.168,0.03112
1.172,0.00791
1.176,0.0694
1.18,0.03025
1.184,0.10262
1.188,0.10376
1.192,0.13931
1.196,0.06132
1.2,0.12443
1.204,0.12376
1.208,0.10458
1.212,0.11057
1.216,0.18557
1.22,0.16295
1.224,0.1542
1.228,0.19823
1.232,0.19789
1.236,0.18847
1.24,0.15325
1.244,0.25468
1.248,0.21467
1.252,0.23974
1.256,0.21794
1.26,0.28303
1.264,0.14657
1.268,0.16729
1.272,0.24485
1.276,0.22607
1.28,0.10701
1.284,0.17258
1.288,0.11336
1.292,0.08559
1.296,0.13981
1.3,0.11756
1.304,0.12944
1.308,0.08408
1.312,0.05158
1.316,-0.01671
1.32,0.11117
1.324,0.0515
1.328,0.08551
1.332,-0.02403
1.336,0.04771
1.34,0.05358
1.344,0.06651
1.348,-0.02637
1.352,-0.01597
1.356,0.04365
1.36,-0.0057
1.364,-0.01511
1.368,-0.05551
1.372,-0.0794
1.376,-0.07773
1.38,-0.00163
1.384,-0.04279
1.388,-0.02732
1.392,-0.03986
1.396,-0.03127
1.4,-0.02347
1.404,-0.0112
1.408,-0.01845
1.412,-0.01367
1.416,0.05781
1.42,-0.04563
1.424,0.03416
1.428,-0.06596
1.432,-0.0236
1.436,-0.04523
1.44,0.03167
1.444,0.05264
1.448,0.00584
1.452,-0.00607
1.456,0.0608
1.46,-0.01547
1.464,0.01331
1.468,-0.01556
1.472,0.02223
1.476,-0.03336
1.48,0.00832
1.484,0.06259
1.488,-0.0014
1.492,-0.03817
1.496,-0.01601
1.5,0.01756
1.504,-0.00558
1.508,-0.02243
1.512,-0.04166
1.516,-0.0435
1.52,-0.02203
1.524,-0.00499
1.528,0.02279
1.532,-0.01234
1.536,-0.03567
1.54,0.00442
1.544,-0.03253
1.548,0.05766
1.552,-0.02568
1.556,-0.02553
1.56,0.01452
1.564,-0.07847
1.568,-0.0639
1.572,-0.04222
1.576,-0.0914
1.58,-0.0964
1.584,0.02737
1.588,-0.07416
1.592,0.03526
1.596,-0.05111
1.6,0.01072
1.604,0.00607
1.608,-0.05473
1.612,0.01861
1.616,0.00591
1.62,-0.07417
1.624,-0.05349
1.628,-0.03774
1.632,0.00879
1.636,0.0391
1.64,-0.04221
1.644,-0.01297
1.648,-0.03453
1.652,0.00043
1.656,0.01889
1.66,-0.04618
1.664,0.01533
1.668,0.01164
1.672,-0.04221
1.676,-0.04846
1.68,0.01195
1.684,-0.04667
1.688,-0.03103
1.692,0.00455
1.696,0.01814
1.7,0.02022
1.704,-0.0355
1.708,-0.00404
1.712,-0.01172
1.716,0.00356
1.72,-0.0129
1.724,-0.02997
1.728,0.02412
1.732,0.0197
1.736,0.03454
1.74,0.01311
1.744,-0.0034
1.748,-0.06043
1.752,0.04194
1.756,0.01015
1.76,-0.04519
1.764,-0.02836
1.768,0.02635
1.772,0.00468
1.776,-0.05607
1.78,-0.05752
1.784,-0.01145
1.788,0.03806
1.792,-0.01891
1.796,0.02845
1.8,0.03794
1.804,0.01404
1.808,-0.0211
1.812,0.02282
1.816,0.02207
1.82,0.04992
1.824,0.03704
1.828,0.02654
1.832,0.0924
1.836,0.04542
1.84,0.11209
1.844,0.07511
1.848,0.10537
1.852,0.03852
1.856,0.06144
1.86,0.04338
1.864,0.04443
1.868,0.03361
1.872,0.05781
1.876,-0.01982
1.88,0.03506
1.884,-0.01664
1.888,-0.04321
1.892,-0.03901
1.896,-0.03538
1.9,-0.02469
1.904,-0.00081
1.908,-0.03399
1.912,-0.07006
1.916,-0.04458
1.92,-0.00508
1.924,-0.01477
1.928,-0.06182
1.932,0.0142
1.936,-0.06428
1.94,-0.02857
1.944,-0.08884
1.948,0.00684
1.952,-0.0358
1.956,-0.09462
1.96,-0.10207
1.964,-0.16222
1.968,-0.05344
1.972,-0.04899
1.976,0.03763
1.98,0.22227
1.984,0.42913
1.988,0.7241
1.992,0.87389
1.996,0.92726
2.0,0.96325
2.004,0.86991
2.008,0.60441
2.012,0.38035
2.016,0.20178
2.02,0.02969
2.024,-0.12409
2.028,-0.1747
2.032,-0.16755
2.036,-0.17431
2.04,-0.11851
2.044,-0.10234
2.048,-0.04293
2.052,0.01507
2.056,0.02865
2.06,-0.05904
2.064,-0.03792
2.068,-0.04958
2.072,-0.00788
2.076,0.01273
2.08,-0.01082
2.084,-0.07997
2.088,-0.06124
2.092,0.00483
2.096,-0.03938
2.1,-0.07788
2.104,-0.0235
2.108,-0.01787
2.112,-0.03423
2.116,-0.00455
2.12,-0.01232
2.124,-0.02648
2.128,-0.04851
2.132,0.00736
2.136,-0.02482
2.14,-0.03335
2.144,-0.07993
2.148,-0.02719
2.152,-0.05381
2.156,-0.0554
2.16,-0.01282
2.164,0.03538
2.168,-0.03382
2.172,0.02195
2.176,0.03203
2.18,-0.0404
2.184,0.02029
2.188,0.00277
2.192,0.02019
2.196,0.03435
2.2,0.04771
2.204,0.02329
2.208,0.06565
2.212,0.02189
2.216,0.0361
2.22,0.10185
2.224,0.08658
2.228,0.14264
2.232,0.18657
2.236,0.07637
2.24,0.12733
2.244,0.13122
2.248,0.16206
2.252,0.17185
2.256,0.11562
2.26,0.14772
2.264,0.14677
2.268,0.17864
2.272,0.17116
2.276,0.16931
2.28,0.09974
2.284,0.18601
2.288,0.18136
2.292,0.16493
2.296,0.21357
2.3,0.22556
2.304,0.16438
2.308,0.14985
2.312,0.10436
2.316,0.04602
2.32,0.11372
2.324,0.1427
2.328,0.08098
2.332,0.1407
2.336,0.00887
2.34,-0.02976
2.344,0.05114
2.348,0.02985
2.352,0.05595
2.356,0.05947
2.36,-0.02205
2.364,-0.04532
2.368,-0.00961
2.372,0.01259
2.376,-0.03581
2.38,-0.04744
2.384,-0.02793
2.388,-0.06059
2.392,-0.05937
2.396,0.0033
2.4,-0.02289
2.404,-0.10667
2.408,-0.08962
2.412,0.01074
2.416,-0.08958
2.42,-0.0559
2.424,-0.02284
2.428,0.03925
2.432,0.04837
2.436,-0.08986
2.44,-0.05312
2.444,-0.02173
2.448,-0.03181
2.452,-0.00188
2.456,0.00201
2.46,-0.02964
2.464,0.0226
2.468,0.0181
2.472,0.00644
2.476,-0.04264
2.48,-0.00413
2.484,0.03455
2.488,0.03965
2.492,0.06472
2.496,0.02951
2.5,0.09571
2.504,0.08969
2.508,0.07264
2.512,0.05635
2.516,0.0597
2.52,0.08518
2.524,0.0642
2.528,-0.01669
2.532,-0.01099
2.536,-0.05065
2.54,-0.00649
2.544,-0.00941
2.548,-0.02331
2.552,-0.04079
2.556,0.02247
2.56,-0.07567
2.564,-0.02361
2.568,-0.06426
2.572,-0.08871
2.576,-0.01341
2.58,-0.08175
2.584,-0.01937
2.588,-0.02268
2.592,0.04358
2.596,0.02318
2.6,-0.05613
2.604,-0.02341
2.608,-0.01798
2.612,0.01774
2.616,-0.0343
2.62,-0.05622
2.624,-0.16712
2.628,-0.09771
2.632,-0.18798
2.636,-0.08221
2.64,0.00013
2.644,0.19038
2.648,0.34819
2.652,0.56072
2.656,0.76604
2.66,0.8775
2.664,0.98776
2.668,0.92534
2.672,0.80197
2.676,0.47414
2.68,0.36993
2.684,0.07393
2.688,-0.04746
2.692,-0.24784
2.696,-0.19263
2.7,-0.19299
2.704,-0.11807
2.708,-0.08543
2.712,-0.07768
2.716,-0.10943
2.72,0.01874
2.724,-0.0261
2.728,-0.00412
2.732,-0.03953
2.736,-0.02284
2.74,-0.06091
2.744,-0.05322
2.748,-0.0673
2.752,-0.07937
2.756,0.009
2.76,-0.01354
2.764,-0.03985
2.768,0.00643
2.772,-0.01843
2.776,-0.0708
2.78,-0.03282
2.784,0.02221
2.788,-0.01854
2.792,-0.11911
2.796,-0.04494
2.8,0.00782
2.804,0.03524
2.808,-0.09536
2.812,-0.02547
2.816,-0.06786
2.82,-0.02436
2.824,-0.00574
2.828,0.01362
2.832,-0.04186
2.836,-0.02026
2.84,-0.04689
2.844,-0.0066
2.848,0.02187
2.852,0.07055
2.856,-0.05965
2.86,0.01472
2.864,0.00909
2.868,0.01938
2.872,-0.01619
2.876,-0.04166
2.88,0.01674
2.884,0.05956
2.888,0.08916
2.892,0.07084
2.896,0.12091
2.9,0.08885
2.904,0.1181
2.908,0.10206
2.912,0.15925
2.916,0.11258
2.92,0.11419
2.924,0.17412
2.928,0.16946
2.932,0.20444
2.936,0.18971
2.94,0.26299
2.944,0.19952
2.948,0.22739
2.952,0.18308
2.956,0.19481
2.96,0.1123
2.964,0.14842
2.968,0.17659
2.972,0.18736
2.976,0.16059
2.98,0.13198
2.984,0.10888
2.988,0.0523
2.992,0.10679
2.996,0.11598
3.0,0.05813
3.004,0.11943
3.008,0.11277
3.012,0.0307
3.016,0.00967
3.02,0.04271
3.024,-0.03308
3.028,0.01849
3.032,0.0388
3.036,0.01578
3.04,0.04251
3.044,-0.02622
3.048,-0.01997
3.052,0.00763
3.056,-0.03169
3.06,-0.0192
3.064,-0.01233
3.068,0.03609
3.072,-0.02896
3.076,-0.0155
3.08,-0.0847
3.084,0.01846
3.088,0.01726
3.092,-0.00213
3.096,-0.0597
3.1,-0.05523
3.104,0.11034
3.108,0.011
3.112,0.00903
3.116,-0.00984
3.12,0.08405
3.124,0.07924
3.128,0.03215
3.132,0.09048
3.136,-0.03781
3.14,0.08692
3.144,0.02495
3.148,0.07043
3.152,0.06346
3.156,-0.02689
3.16,0.01243
3.164,0.04874
3.168,0.00063
3.172,-0.00392
3.176,0.01785
3.18,-0.04378
3.184,0.00255
3.188,-0.06716
3.192,-0.01536
3.196,-0.03378
3.2,-0.01771
3.204,-0.06663
3.208,-0.03253
3.212,-0.00248
3.216,-0.02872
3.22,0.00969
3.224,-0.02994
3.228,-0.03844
3.232,-0.02693
3.236,-0.06794
3.24,-0.01922
3.244,0.00951
3.248,-0.00753
3.252,-0.03994
3.256,-0.10668
3.26,-0.14002
3.264,-0.15033
3.268,-0.04828
3.272,0.12957
3.276,0.29075
3.28,0.54337
3.284,0.70434
3.288,0.81542
3.292,0.97282
3.296,0.91776
3.3,0.81192
3.304,0.59716
3.308,0.31066
3.312,0.18171
3.316,0.01136
3.32,-0.1393
3.324,-0.20439
3.328,-0.20313
3.332,-0.15165
3.336,-0.12707
3.34,-0.10271
3.344,-0.02583
3.348,-0.02709
3.352,-1e-05
3.356,-0.06097
3.36,0.01605
3.364,-0.05285
3.368,-0.01499
3.372,-0.03189
3.376,-0.02814
3.38,-0.01049
3.384,-0.02355
3.388,0.04636
3.392,-0.06202
3.396,0.01398
3.4,0.05089
3.404,-0.05272
3.408,-0.03729
3.412,0.00046
3.416,-0.02311
3.42,0.03352
3.424,0.01142
3.428,-0.03889
3.432,-0.01234
3.436,-0.02537
3.44,0.00799
3.444,0.0077
3.448,0.00532
3.452,-0.08614
3.456,-0.03844
3.46,-0.02693
3.464,0.04264
3.468,0.02197
3.472,0.00242
3.476,-0.0482
3.48,-0.0277
3.484,-0.01462
3.488,-0.00594
3.492,0.06508
3.496,0.0542
3.5,0.02013
3.504,0.0322
3.508,0.07478
3.512,0.0119
3.516,0.0696
3.52,0.12378
3.524,0.09119
3.528,0.09038
3.532,0.10216
3.536,0.11547
3.54,0.15166
3.544,0.17382
3.548,0.10629
3.552,0.20296
3.556,0.23524
3.56,0.16795
3.564,0.21447
3.568,0.25312
3.572,0.22057
3.576,0.16593
3.58,0.21809
3.584,0.21407
3.588,0.22516
3.592,0.21931
3.596,0.1936
3.6,0.2021
3.604,0.09703
3.608,0.1526
3.612,0.05632
3.616,0.10118
3.62,0.14356
3.624,0.04512
3.628,0.08471
3.632,0.10996
3.636,-0.00573
3.64,0.0297
3.644,0.08291
3.648,0.10567
3.652,0.03099
3.656,0.06643
3.66,0.00145
3.664,0.09604
3.668,-8e-05
3.672,0.01658
3.676,-0.03184
3.68,0.00537
3.684,-0.00289
3.688,-0.00697
3.692,0.01118
3.696,-0.01687
3.7,-0.11168
3.704,-0.09311
3.708,-0.01597
3.712,0.05118
3.716,-0.01493
3.72,-0.02047
3.724,0.05325
3.728,-0.04683
3.732,-0.00376
3.736,-0.03158
3.74,0.00935
3.744,0.00792
3.748,0.01381
3.752,0.01154
3.756,-0.06029
3.76,0.01538
3.764,-0.02645
3.768,0.01225
3.772,0.02633
3.776,0.02369
3.78,-0.0724
3.784,-0.02949
3.788,-0.05184
3.792,-0.001
3.796,-0.05455
3.8,-0.02697
3.804,0.01237
3.808,-0.02826
3.812,0.00139
3.816,0.04718
3.82,0.02114
3.824,0.01777
3.828,0.02118
3.832,-0.02296
3.836,-0.03523
3.84,-0.05495
3.844,0.02766
3.848,-0.00127
3.852,0.00959
3.856,-0.08921
3.86,0.00805
3.864,0.06263
3.868,-0.01541
3.872,-0.04442
3.876,0.01982
3.88,-0.06896
3.884,-0.02336
3.888,-0.03389
3.892,0.01935
3.896,0.02159
3.9,0.018
3.904,-0.0444
3.908,0.00736
3.912,0.02095
3.916,-0.03594
3.92,0.00714
3.924,0.00309
3.928,0.00653
3.932,0.00898
3.936,-0.01358
3.94,0.01023
3.944,-0.04608
3.948,0.04971
3.952,-0.00465
3.956,0.00582
3.96,-0.00896
3.964,-0.00403
3.968,0.0209
3.972,0.00785
3.976,-0.04157
3.98,0.00192
3.984,-0.02215
3.988,0.03543
3.992,-0.06417
3.996,0.03687
4.0,-0.01686
4.004,-0.02239
4.008,-0.01123
4.012,0.0156
4.016,-0.06608
4.02,0.02774
4.024,-0.01629
4.028,-0.0357
4.032,0.04841
4.036,0.02132
4.04,0.02896
4.044,-0.01837
4.048,0.0355
4.052,0.0257
4.056,0.04139
4.06,0.00153
4.064,-0.02376
4.068,-0.02398
4.072,0.00569
4.076,-0.01689
4.08,-0.00912
4.084,-0.01802
4.088,0.02965
4.092,0.03112
4.096,0.04238
4.1,0.01849
4.104,-0.04734
4.108,0.00762
4.112,0.01733
4.116,-0.02581
4.12,-0.05186
4.124,0.06641
4.128,-0.03654
4.132,-0.00567
4.136,0.03109
4.14,0.00955
4.144,-0.00918
4.148,0.03619
4.152,-0.00593
4.156,0.02329
4.16,-0.02844
4.164,-0.0094
4.168,0.00209
4.172,-0.10792
4.176,-0.01054
4.18,0.07244
4.184,0.05556
4.188,-0.05638
4.192,0.05191
4.196,-0.02136
4.2,0.03581
4.204,0.07912
4.208,-0.00405
4.212,-0.03034
4.216,-0.01055
4.22,0.02079
4.224,-0.05208
4.228,0.02031
4.232,0.03057
4.236,-0.02243
4.24,0.06118
4.244,0.01563
4.248,-0.04219
4.252,-0.09057
4.256,0.0093
4.26,0.00204
4.264,0.03207
4.268,-0.01769
4.272,-0.04812
4.276,-0.01508
4.28,0.07567
4.284,0.00442
4.288,-0.00982
4.292,0.03513
4.296,0.03635
4.3,0.03432
4.304,-0.00105
4.308,-0.03332
4.312,0.035
4.316,-0.03876
4.32,-0.03626
4.324,-0.01184
4.328,0.02599
4.332,0.02519
4.336,0.01131
4.34,-0.00779
4.344,0.10952
4.348,-0.00889
4.352,-0.00111
4.356,-0.01939
4.36,0.01996
4.364,-0.0519
4.368,-0.04122
4.372,0.00074
4.376,0.05688
4.38,0.01704
4.384,0.00436
4.388,-0.04643
4.392,0.01399
4.396,-0.02954
4.4,-0.01631
4.404,-0.00999
4.408,-0.03714
4.412,-0.02851
4.416,0.02715
4.42,-0.03143
4.424,-0.00296
4.428,-0.06729
4.432,-0.01335
4.436,-0.06527
4.44,-0.00318
4.444,0.0429
4.448,-0.03944
4.452,0.04708
4.456,-0.01556
4.46,0.00704
4.464,-0.04532
4.468,0.04148
4.472,0.02921
4.476,0.04494
4.48,-0.00987
4.484,0.0241
4.488,-0.01547
4.492,0.00795
4.496,0.07457
4.5,-0.02143
4.504,0.03241
4.508,0.03727
4.512,0.01374
4.516,0.00848
4.52,-0.0504
4.524,0.01859
4.528,0.02299
4.532,0.05136
4.536,0.0769
4.54,0.03957
4.544,0.1148
4.548,0.07744
4.552,0.10542
4.556,0.09873
4.56,0.08713
4.564,0.07994
4.568,0.12858
4.572,0.10413
4.576,0.04287
4.58,0.15265
4.584,0.11028
4.588,-0.00914
4.592,0.0083
4.596,0.02305
4.6,-0.00434
4.604,0.06025
4.608,0.01329
4.612,0.01465
4.616,0.08534
4.62,-0.01497
4.624,0.01508
4.628,0.01977
4.632,0.01367
4.636,0.08567
4.64,-0.02857
4.644,-0.00747
4.648,0.0016
4.652,-0.03827
4.656,0.03926
4.66,0.01882
4.664,-0.00942
4.668,0.05025
4.672,0.02769
4.676,-0.01754
4.68,0.00913
4.684,-0.02402
4.688,-0.19198
4.692,-0.05963
4.696,-0.08628
4.7,0.0743
4.704,0.1735
4.708,0.37152
4.712,0.55152
4.716,0.74467
4.72,0.93561
4.724,1.03056
4.728,0.97438
4.732,0.78056
4.736,0.59531
4.74,0.42635
4.744,0.10124
4.748,0.02189
4.752,-0.1066
4.756,-0.17327
4.76,-0.15583
4.764,-0.13618
4.768,-0.07204
4.772,-0.08074
4.776,-0.00411
4.78,-0.01413
4.784,0.02289
4.788,-0.02467
4.792,0.00162
4.796,0.05377
4.8,0.01937
4.804,-0.03884
4.808,0.01844
4.812,0.01495
4.816,0.01346
4.82,0.03424
4.824,0.01367
4.828,0.04378
4.832,0.04046
4.836,0.02409
4.84,0.04489
4.844,0.0436
4.848,0.052
4.852,-0.05206
4.856,0.05717
4.86,0.07227
4.864,0.04756
4.868,-0.0183
4.872,0.0353
4.876,0.0174
4.88,-0.04389
4.884,0.0278
4.888,0.07128
4.892,-0.01292
4.896,-0.00574
4.9,0.06301
4.904,0.0459
4.908,0.05691
4.912,0.09483
4.916,0.04311
4.92,0.02581
4.924,0.04023
4.928,0.02367
4.932,0.09547
4.936,0.073
4.94,0.04516
4.944,0.0878
4.948,0.15122
4.952,0.13391
4.956,0.14579
4.96,0.16978
4.964,0.18771
4.968,0.18602
4.972,0.18021
4.976,0.28431
4.98,0.15373
4.984,0.21262
4.988,0.21509
4.992,0.12286
4.996,0.2481
5.0,0.25937
5.004,0.28569
5.008,0.24968
5.012,0.26956
5.016,0.2346
5.02,0.2508
5.024,0.18522
5.028,0.20679
5.032,0.21171
5.036,0.20566
5.04,0.12558
5.044,0.19762
5.048,0.16934
5.052,0.09573
5.056,0.13512
5.06,0.14519
5.064,0.10035
5.068,0.06668
5.072,0.0931
5.076,0.03788
5.08,0.08959
5.084,0.0248
5.088,0.04234
5.092,0.0855
5.096,0.11506
5.1,0.08345
5.104,0.01385
5.108,-0.00406
5.112,0.03544
5.116,0.1246
5.12,-0.01394
5.124,-0.00029
5.128,0.06463
5.132,0.01975
5.136,0.08099
5.14,0.06607
5.144,0.05354
5.148,-0.03067
5.152,-0.0423
5.156,0.04309
5.16,0.00349
5.164,0.04536
5.168,0.02713
5.172,0.0084
5.176,0.07748
5.18,-0.01827
5.184,-0.01864
5.188,0.00138
5.192,0.00724
5.196,0.05059
5.2,-0.01548
5.204,0.00662
5.208,0.10313
5.212,0.0296
5.216,0.05687
5.22,0.09614
5.224,0.04344
5.228,-0.00556
5.232,0.02922
5.236,0.02542
5.24,0.03132
5.244,-0.01357
5.248,0.02666
5.252,-0.00593
5.256,0.05834
5.26,0.0867
5.264,0.02236
5.268,0.0337
5.272,0.05949
5.276,0.01083
5.28,0.02171
5.284,0.02757
5.288,0.08233
5.292,0.0304
5.296,-0.00409
5.3,0.04509
5.304,0.0287
5.308,0.00679
5.312,0.01981
5.316,0.01341
5.32,0.03432
5.324,0.00503
5.328,-0.00945
5.332,-0.00917
5.336,0.07061
5.34,0.00553
5.344,0.03516
5.348,0.01927
5.352,0.02025
5.356,0.01326
5.36,0.02071
5.364,-0.02061
5.368,-0.00247
5.372,0.06142
5.376,0.09394
5.38,-0.02267
5.384,0.01709
5.388,0.03458
5.392,-0.02452
5.396,0.03595
5.4,0.05259
5.404,0.0062
5.408,0.03519
5.412,0.02389
5.416,-0.01851
5.42,0.01561
5.424,0.07354
5.428,-0.004
5.432,-0.0085
5.436,0.07097
5.44,0.06342
5.444,-0.02262
5.448,0.05597
5.452,0.04841
5.456,0.06002
5.46,0.02305
5.464,0.00264
5.468,0.02026
5.472,0.0168
5.476,0.01696
5.48,0.02898
5.484,0.01926
5.488,0.02155
5.492,-0.01243
5.496,0.0645
5.5,0.03024
5.504,0.0302
5.508,-0.01157
5.512,0.06876
5.516,0.04581
5.52,0.07965
5.524,-0.01306
5.528,0.03481
5.532,-0.00284
5.536,0.01411
5.54,0.03802
5.544,0.03438
5.548,0.06123
5.552,0.02122
5.556,0.03291
5.56,-0.00927
5.564,0.0361
5.568,0.04067
5.572,0.0922
5.576,0.08738
5.58,0.00302
5.584,-0.01833
5.588,0.03582
5.592,0.0238
5.596,0.00314
5.6,0.03728
5.604,0.04467
5.608,0.0375
5.612,0.00869
5.616,0.04861
5.62,0.04056
5.624,0.05423
5.628,0.03747
5.632,0.04355
5.636,-0.01106
5.64,0.04822
5.644,0.02202
5.648,0.105
5.652,0.00315
5.656,0.07521
5.66,0.03597
5.664,0.0061
5.668,0.08307
5.672,0.06216
5.676,0.01254
5.68,0.01855
5.684,0.02532
5.688,0.02525
5.692,0.00186
5.696,0.0037
5.7,-0.00731
5.704,0.00911
5.708,-0.01547
5.712,0.02631
5.716,-0.00511
5.72,0.01056
5.724,0.0062
5.728,0.01407
5.732,-0.00211
5.736,0.00602
5.74,0.07143
5.744,0.00474
5.748,0.07931
5.752,-0.01805
5.756,0.01518
5.76,0.00165
5.764,0.06807
5.768,0.03764
5.772,0.08357
5.776,0.10015
5.78,0.08355
5.784,0.10493
5.788,0.18756
5.792,0.12791
5.796,0.11252
5.8,0.12248
5.804,0.0788
5.808,0.12788
5.812,0.04141
5.816,0.11517
5.82,0.09555
5.824,0.06367
5.828,0.04175
5.832,0.06937
5.836,0.09431
5.84,0.03611
5.844,0.06139
5.848,-0.02928
5.852,0.04367
5.856,0.06084
5.86,0.0703
5.864,0.08651
5.868,0.04964
5.872,-0.00457
5.876,-0.0161
5.88,0.01482
5.884,0.04074
5.888,0.03333
5.892,0.0534
5.896,0.0268
5.9,0.04927
5.904,0.05085
5.908,0.04352
5.912,-0.01199
5.916,0.03922
5.92,-0.10049
5.924,-0.06788
5.928,-0.06049
5.932,-0.04112
5.936,0.12756
5.94,0.3327
5.944,0.50134
5.948,0.74127
5.952,0.95056
5.956,1.01561
5.96,0.9972
5.964,0.77976
5.968,0.60399
5.972,0.40866
5.976,0.18461
5.98,0.02749
5.984,-0.0792
5.988,-0.138
5.992,-0.11822
5.996,-0.16386
6.0,-0.06238
6.004,-0.04443
6.008,-0.00012
6.012,0.00588
6.016,-0.00121
6.02,0.04769
6.024,0.03778
6.028,0.04002
6.032,-0.01157
6.036,0.02389
6.04,0.05569
6.044,-0.0105
6.048,0.0243
6.052,0.05243
6.056,0.07986
6.06,0.04183
6.064,0.0046
6.068,-0.04459
6.072,-0.01489
6.076,-0.02122
6.08,0.04374
6.084,0.03716
6.088,0.06641
6.092,0.03847
6.096,0.07388
6.1,0.02797
6.104,-0.04777
6.108,0.0501
6.112,0.04995
6.116,-0.00289
6.12,0.0579
6.124,0.0685
6.128,-0.02878
6.132,0.01756
6.136,-0.01288
6.14,0.02973
6.144,0.0562
6.148,0.07041
6.152,0.02811
6.156,0.13156
6.16,0.07615
6.164,0.11934
6.168,0.11458
6.172,0.09855
6.176,0.071
6.18,0.08366
6.184,0.0982
6.188,0.18955
6.192,0.10991
6.196,0.24026
6.2,0.11283
6.204,0.24205
6.208,0.23691
6.212,0.20928
6.216,0.21751
6.22,0.24407
6.224,0.2394
6.228,0.24719
6.232,0.21191
6.236,0.22351
6.24,0.28461
6.244,0.28624
6.248,0.18384
6.252,0.18355
6.256,0.25856
6.26,0.20676
6.264,0.1731
6.268,0.16993
6.272,0.20533
6.276,0.08024
6.28,0.16321
6.284,0.19118
6.288,0.155
6.292,0.14942
6.296,0.14849
6.3,0.07786
6.304,0.10329
6.308,0.0719
6.312,0.13249
6.316,0.03316
6.32,0.03869
6.324,0.03287
6.328,0.09744
6.332,0.00363
6.336,0.04177
6.34,0.04446
6.344,0.01411
6.348,0.03134
6.352,0.09313
6.356,-0.01945
6.36,0.05289
6.364,0.06921
6.368,0.0122
6.372,0.0334
6.376,0.03414
6.38,-0.01094
6.384,0.0209
6.388,0.03123
6.392,0.05608
6.396,0.04837
6.4,0.0671
6.404,0.05607
6.408,0.03483
6.412,0.14086
6.416,0.03851
6.42,-0.01589
6.424,0.05885
6.428,0.02934
6.432,0.04994
6.436,-0.01643
6.44,0.05598
6.444,-0.02265
6.448,0.05037
6.452,0.005
6.456,0.05432
6.46,0.08063
6.464,0.04518
6.468,-0.01056
6.472,0.05783
6.476,0.08736
6.48,0.10959
6.484,0.10608
6.488,0.11822
6.492,0.13084
6.496,0.14455
6.5,0.10945
6.504,0.16075
6.508,0.1121
6.512,0.09196
6.516,0.06957
6.52,0.07349
6.524,0.08978
6.528,0.02011
6.532,0.08076
6.536,0.02462
6.54,0.03684
6.544,-0.00568
6.548,0.05155
6.552,0.0883
6.556,0.02763
6.56,0.00118
6.564,0.0314
6.568,0.03503
6.572,0.02173
6.576,0.06848
6.58,-0.03077
6.584,-0.03677
6.588,0.05718
6.592,-0.04099
6.596,0.02254
6.6,0.0215
6.604,0.11951
6.608,-0.0274
6.612,0.05652
6.616,0.00587
6.62,-0.09309
6.624,-0.08591
6.628,-0.10287
6.632,-0.03769
6.636,-0.02261
6.64,0.08997
6.644,0.32603
6.648,0.53442
6.652,0.72516
6.656,0.90105
6.66,1.04209
6.664,0.9837
6.668,0.88171
6.672,0.69492
6.676,0.45819
6.68,0.19452
6.684,0.03014
6.688,-0.09459
6.692,-0.10445
6.696,-0.15759
6.7,-0.10699
6.704,-0.04041
6.708,0.07874
6.712,-0.02557
6.716,0.05168
6.72,-0.0736
6.724,-0.00013
6.728,0.09728
6.732,0.016
6.736,0.02484
6.74,0.03918
6.744,-0.00606
6.748,0.08337
6.752,0.06636
6.756,0.07145
6.76,0.08306
6.764,0.03029
6.768,-0.01462
6.772,0.03529
6.776,-0.00423
6.78,0.00868
6.784,-0.00812
6.788,0.01781
6.792,-0.00794
6.796,0.03346
6.8,-0.01081
6.804,-0.00693
6.808,0.03996
6.812,-0.00112
6.816,0.00159
6.82,0.066
6.824,0.01313
6.828,-0.01876
6.832,0.02792
6.836,0.0055
6.84,0.04699
6.844,0.03552
6.848,0.02973
6.852,0.04468
6.856,0.07701
6.86,0.05775
6.864,0.12545
6.868,0.08765
6.872,0.07919
6.876,0.06092
6.88,0.1103
6.884,0.17026
6.888,0.10785
6.892,0.1602
6.896,0.15619
6.9,0.14615
6.904,0.21229
6.908,0.2758
6.912,0.18743
6.916,0.25502
6.92,0.24211
6.924,0.31171
6.928,0.33966
6.932,0.33022
6.936,0.38134
6.94,0.33192
6.944,0.37188
6.948,0.27495
6.952,0.36599
6.956,0.22834
6.96,0.32682
6.964,0.27525
6.968,0.15805
6.972,0.24959
6.976,0.20449
6.98,0.16849
6.984,0.17403
6.988,0.08997
6.992,0.10857
6.996,0.11926
7.0,0.09638
7.004,0.09218
7.008,0.14071
7.012,0.05562
7.016,0.08771
7.02,0.07351
7.024,0.03971
7.028,0.05167
7.032,0.06812
7.036,-0.02435
7.04,0.06781
7.044,0.00667
7.048,0.0899
7.052,-0.01823
7.056,-0.08345
7.06,-0.15362
7.064,-0.0533
7.068,0.09331
7.072,0.27878
7.076,0.50021
7.08,0.62225
7.084,0.90101
7.088,0.98611
7.092,1.04489
7.096,0.8674
7.1,0.73104
7.104,0.47244
7.108,0.26335
7.112,0.0983
7.116,-0.1064
7.12,-0.13854
7.124,-0.14274
7.128,-0.08679
7.132,-0.12962
7.136,-0.10758
7.14,-0.02241
7.144,0.01916
7.148,0.00164
7.152,0.06232
7.156,0.05114
7.16,-0.02165
7.164,0.04616
7.168,0.06378
7.172,-0.00552
7.176,0.04997
7.18,0.04393
7.184,-0.05241
7.188,0.00539
7.192,0.05843
7.196,0.03063
7.2,0.0243
7.204,-0.00046
7.208,-0.004
7.212,0.06267
7.216,0.00908
7.22,0.02985
7.224,0.07722
7.228,0.02723
7.232,-0.02098
7.236,0.0848
7.24,0.05396
7.244,-0.00148
7.248,0.03187
7.252,0.04643
7.256,0.01515
7.26,0.0261
7.264,0.06246
7.268,0.02485
7.272,-0.00292
7.276,0.02746
7.28,0.04915
7.284,0.01527
7.288,0.02798
7.292,0.02775
7.296,0.05752
7.3,-0.01642
7.304,0.1019
7.308,0.09507
7.312,0.1318
7.316,0.08817
7.32,0.10775
7.324,0.17047
7.328,0.1547
7.332,0.14101
7.336,0.13683
7.34,0.11415
7.344,0.16384
7.348,0.17461
7.352,0.15483
7.356,0.21791
7.36,0.1844
7.364,0.26826
7.368,0.22889
7.372,0.30749
7.376,0.18995
7.38,0.193
7.384,0.18272
7.388,0.1567
7.392,0.23416
7.396,0.21719
7.4,0.16333
7.404,0.18005
7.408,0.17613
7.412,0.17122
7.416,0.15519
7.42,0.15423
7.424,0.05433
7.428,0.16771
7.432,0.09031
7.436,0.0345
7.44,0.10964
7.444,0.11519
7.448,0.10261
7.452,0.06553
7.456,0.11174
7.46,0.0489
7.464,-0.04101
7.468,0.05709
7.472,0.06386
7.476,0.04016
7.48,0.04964
7.484,-0.02467
7.488,-0.01748
7.492,0.00646
7.496,0.04863
7.5,-0.00714
7.504,-0.00026
7.508,-0.01517
7.512,0.02673
7.516,0.02155
7.52,0.03086
7.524,0.00014
7.528,-0.05995
7.532,-0.05207
7.536,0.02726
7.54,-0.01864
7.544,-0.02315
7.548,0.03775
7.552,0.00187
7.556,0.04158
7.56,-0.0188
7.564,0.04958
7.568,-0.02816
7.572,-0.05582
7.576,0.03289
7.58,0.01941
7.584,-0.05641
7.588,-0.04629
7.592,0.02423
7.596,-0.03634
7.6,0.01131
7.604,-0.0214
7.608,-0.01832
7.612,-0.07466
7.616,-0.01415
7.62,0.00165
7.624,-0.01513
7.628,0.02438
7.632,0.01694
7.636,0.01938
7.64,0.03205
7.644,0.00663
7.648,0.02305
7.652,0.00385
7.656,0.02865
7.66,-0.07732
7.664,0.03921
7.668,0.02566
7.672,-0.00327
7.676,-0.01531
7.68,-0.04251
7.684,-0.02527
7.688,0.01422
7.692,-0.00549
7.696,0.02854
7.7,-0.0074
7.704,-0.05084
7.708,-0.03639
7.712,-0.08081
7.716,0.02282
7.72,0.00185
7.724,-0.03607
7.728,0.01721
7.732,-0.04937
7.736,0.0499
7.74,-0.04491
7.744,-0.05875
7.748,0.02129
7.752,-0.0211
7.756,0.02702
7.76,0.00111
7.764,0.06188
7.768,-0.01046
7.772,-0.05105
7.776,-0.02131
7.78,-0.04593
7.784,-0.04597
7.788,-0.04086
7.792,0.03358
7.796,0.04039
7.8,-0.06359
7.804,-0.00459
7.808,0.00402
7.812,-0.06673
7.816,0.01415
7.82,0.01245
7.824,-0.02909
7.828,-0.00945
7.832,-0.02346
7.836,-0.00267
7.84,0.00794
7.844,-0.01128
7.848,0.01488
7.852,0.0593
7.856,-0.04828
7.86,-0.0283
7.864,-0.07516
7.868,-0.02899
7.872,-0.01214
7.876,-0.00389
7.88,-0.00622
7.884,0.00293
7.888,-0.04466
7.892,-0.01769
7.896,0.01711
7.9,-0.03555
7.904,-0.07883
7.908,-0.06395
7.912,-0.04981
7.916,0.0095
7.92,0.06407
7.924,0.03728
7.928,0.0272
7.932,0.00478
7.936,0.02085
7.94,0.0312
7.944,-0.02781
7.948,0.01404
7.952,-0.0292
7.956,-0.01971
7.96,-0.03401
7.964,0.0012
7.968,0.00697
7.972,0.0085
7.976,-0.0001
7.98,-0.01226
7.984,0.00484
7.988,0.01378
7.992,-0.06338
7.996,-0.03826
8.0,-0.03736
8.004,-0.0234
8.008,-0.04453
8.012,-0.00497
8.016,0.00159
8.02,0.01931
8.024,0.01704
8.028,-0.01526
8.032,-0.01726
8.036,0.00076
8.04,-0.0209
8.044,-0.02098
8.048,-0.02367
8.052,0.00038
8.056,-0.05914
8.06,-0.06835
8.064,0.01165
8.068,-0.03619
8.072,0.02399
8.076,-0.03274
8.08,-0.00029
8.084,-0.00123
8.088,-0.04334
8.092,-0.01906
8.096,-0.08844
8.1,0.00786
8.104,-0.01532
8.108,0.02093
8.112,0.02338
8.116,-0.02446
8.12,-0.04692
8.124,-0.01367
8.128,-0.00404
8.132,-0.02861
8.136,-0.0347
8.14,0.02001
8.144,0.01918
8.148,-0.02335
8.152,-0.0486
8.156,-0.0622
8.16,-0.02456
8.164,-0.06956
8.168,-0.06977
8.172,-0.04604
8.176,-0.02192
8.18,-0.04373
8.184,-0.05897
8.188,0.01443
8.192,-0.02965
8.196,-0.02683
8.2,-0.06343
8.204,-0.05072
8.208,0.01127
8.212,-0.01131
8.216,0.00356
8.22,-0.02055
8.224,0.02581
8.228,-0.02954
8.232,0.01333
8.236,-0.00962
8.24,0.01903
8.244,0.07863
8.248,0.06377
8.252,0.14024
8.256,0.08826
8.26,0.05657
8.264,0.16074
8.268,0.02011
8.272,0.02114
8.276,0.05986
8.28,0.04692
8.284,0.04231
8.288,0.0197
8.292,0.02434
8.296,-0.06242
8.3,0.02318
8.304,-0.00443
8.308,-0.02589
8.312,-0.05489
8.316,-0.00465
8.32,-0.02673
8.324,-0.04526
8.328,-0.00645
8.332,-0.0096
8.336,-0.04501
8.34,-0.0859
8.344,0.03081
8.348,-0.04657
8.352,-0.05502
8.356,-0.03304
8.36,-0.04565
8.364,-0.03447
8.368,0.02556
8.372,0.03792
8.376,-0.11067
8.38,-0.10708
8.384,-0.15584
8.388,-0.09533
8.392,-0.07253
8.396,0.1506
8.4,0.32451
8.404,0.6458
8.408,0.80154
8.412,0.92487
8.416,0.97153
8.42,0.90884
8.424,0.74561
8.428,0.55923
8.432,0.30079
8.436,0.08867
8.44,-0.07009
8.444,-0.18799
8.448,-0.20502
8.452,-0.11544
8.456,-0.08524
8.46,-0.08912
8.464,-0.0605
8.468,-0.05302
8.472,-0.05296
8.476,-0.00496
8.48,-0.02341
8.484,-0.04191
8.488,0.02507
8.492,0.01286
8.496,0.03936
8.5,0.00882
8.504,-0.04274
8.508,-0.0219
8.512,-0.08974
8.516,-0.02679
8.52,-0.0706
8.524,-0.06931
8.528,-0.11366
8.532,0.01847
8.536,-0.01312
8.54,-0.01191
8.544,-0.07764
8.548,-0.06307
8.552,0.02318
8.556,-0.03993
8.56,-0.02811
8.564,-0.03937
8.568,-0.04471
8.572,-0.0497
8.576,-0.03312
8.58,-0.10334
8.584,-0.00151
8.588,0.03881
8.592,-0.02291
8.596,-0.03463
8.6,-0.002
8.604,-0.0455
8.608,-0.02166
8.612,-0.03822
8.616,0.04389
8.62,0.03747
8.624,0.05743
8.628,0.0409
8.632,0.09574
8.636,0.04166
8.64,0.08677
8.644,0.09967
8.648,0.05368
8.652,0.10499
8.656,0.0742
8.66,0.12858
8.664,0.18012
8.668,0.13049
8.672,0.12637
8.676,0.12616
8.68,0.19112
8.684,0.24333
8.688,0.18967
8.692,0.15196
8.696,0.19604
8.7,0.19401
8.704,0.16057
8.708,0.23179
8.712,0.25926
8.716,0.15882
8.72,0.17434
8.724,0.15581
8.728,0.09896
8.732,0.15318
8.736,0.14873
8.74,0.07566
8.744,0.12218
8.748,0.03876
8.752,0.09153
8.756,0.05009
8.76,0.01277
8.764,0.11118
8.768,0.03666
8.772,-0.02264
8.776,0.08639
8.78,0.00496
8.784,0.06333
8.788,0.0114
8.792,-0.0347
8.796,-0.08404
8.8,-0.0156
8.804,-0.06465
8.808,-0.01636
8.812,0.03066
8.816,-0.01676
8.82,0.00076
8.824,-0.04022
8.828,0.00063
8.832,0.01623
8.836,-0.09034
8.84,-0.04539
8.844,-0.02631
8.848,-0.02136
8.852,-0.04229
8.856,-0.11482
8.86,-0.00323
8.864,-0.04802
8.868,0.00782
8.872,-0.02827
8.876,-0.04132
8.88,-0.03365
8.884,0.07302
8.888,-0.0233
8.892,0.00465
8.896,-0.08477
8.9,-0.08616
8.904,-0.08541
8.908,0.00283
8.912,-0.03566
8.916,-0.0662
8.92,-0.00418
8.924,-0.07223
8.928,-0.0012
8.932,-0.08975
8.936,-0.07841
8.94,-0.00604
8.944,0.02407
8.948,-0.03178
8.952,-0.01966
8.956,0.00624
8.96,-0.06712
8.964,0.0014
8.968,-0.06584
8.972,0.0012
8.976,-0.00108
8.98,-0.03017
8.984,0.05202
8.988,0.00079
8.992,-0.01935
8.996,0.05255
9.0,-0.01424
9.004,0.03233
9.008,-0.08903
9.012,-0.02016
9.016,-0.0378
9.02,-0.02921
9.024,0.00073
9.028,-0.01845
9.032,0.03166
9.036,-0.0756
9.04,0.03663
9.044,-0.06055
9.048,0.06032
9.052,-0.06729
9.056,0.03304
9.06,-0.04226
9.064,-0.03974
9.068,0.0186
9.072,0.00813
9.076,-0.03834
9.08,-0.08958
9.084,-0.03232
9.088,0.01934
9.092,-0.04148
9.096,-0.06028
9.1,0.00735
9.104,-0.00692
9.108,0.00215
9.112,-0.04377
9.116,-0.05014
9.12,0.05284
9.124,-0.03154
9.128,0.01045
9.132,-0.04248
9.136,-0.01313
9.14,-0.02641
9.144,-0.01935
9.148,-0.06402
9.152,-0.00253
9.156,-0.02485
9.16,0.04915
9.164,-0.01205
9.168,-0.0274
9.172,-0.0376
9.176,-0.02526
9.18,-0.02394
9.184,-0.07987
9.188,-0.04751
9.192,-0.04276
9.196,-0.04319
9.2,-0.04162
9.204,0.04991
9.208,-0.02052
9.212,-0.07823
9.216,-0.01479
9.22,-0.10384
9.224,-0.01158
9.228,-0.02749
9.232,-0.02236
9.236,-0.08621
9.24,0.01747
9.244,0.02486
9.248,-0.00632
9.252,-0.03866
9.256,-0.04168
9.26,-0.04604
9.264,-0.02095
9.268,-0.00783
9.272,-0.01382
9.276,-0.07966
9.28,-0.03658
9.284,-0.03874
9.288,0.01003
9.292,0.06251
9.296,-0.00241
9.3,-0.0398
9.304,-0.05711
9.308,-0.00517
9.312,-0.02863
9.316,-0.06016
9.32,-0.02352
9.324,-0.08318
9.328,0.04341
9.332,-0.07111
9.336,-0.05861
9.34,-0.04178
9.344,-0.08194
9.348,-0.02506
9.352,-0.01845
9.356,-0.01462
9.36,-0.08831
9.364,-0.02984
9.368,-0.0273
9.372,0.00481
9.376,-0.01235
9.38,0.01137
9.384,-0.01692
9.388,0.03895
9.392,0.03744
9.396,-0.03375
9.4,-0.01094
9.404,-0.01901
9.408,0.03175
9.412,-0.0326
9.416,-0.0421
9.42,-0.00577
9.424,-0.01355
9.428,-0.02274
9.432,-0.03137
9.436,0.00781
9.44,-0.03331
9.444,-0.00605
9.448,-0.04273
9.452,-0.0113
9.456,-0.02737
9.46,-0.10558
9.464,-0.03681
9.468,-0.03645
9.472,0.0168
9.476,-0.03022
9.48,-0.02526
9.484,-0.06766
9.488,-0.02158
9.492,-0.02919
9.496,-0.01511
9.5,-0.112
9.504,-0.06232
9.508,-0.06376
9.512,-0.05746
9.516,-0.07424
9.52,0.01228
9.524,0.00784
9.528,0.00171
9.532,0.02042
9.536,-0.07817
9.54,0.00555
9.544,-0.05864
9.548,0.04553
9.552,-0.04012
9.556,0.02225
9.56,0.02421
9.564,0.044
9.568,0.00813
9.572,0.09249
9.576,0.05902
9.58,0.061
9.584,-0.00241
9.588,0.10429
9.592,0.11038
9.596,0.07872
9.6,0.08229
9.604,0.02912
9.608,0.06492
9.612,0.01142
9.616,0.06336
9.62,0.0264
9.624,-0.0576
9.628,-0.0227
9.632,0.00305
9.636,-0.03963
9.64,-0.01917
9.644,0.01125
9.648,-0.03844
9.652,-0.03238
9.656,0.05253
9.66,-0.01941
9.664,-0.02775
9.668,-0.01226
9.672,-0.05237
9.676,-0.02094
9.68,-0.08247
9.684,0.04425
9.688,-0.07438
9.692,-0.04855
9.696,-0.07812
9.7,0.00217
9.704,-0.04195
9.708,-0.04427
9.712,-0.1681
9.716,-0.16416
9.72,-0.12059
9.724,-0.07185
9.728,0.09262
9.732,0.3484
9.736,0.50205
9.74,0.74491
9.744,0.86311
9.748,1.05703
9.752,0.96815
9.756,0.79557
9.76,0.61903
9.764,0.33011
9.768,0.10953
9.772,-0.0518
9.776,-0.11676
9.78,-0.0946
9.784,-0.17257
9.788,-0.16983
9.792,-0.12287
9.796,-0.08087
9.8,-0.07133
9.804,-0.00401
9.808,0.00108
9.812,-0.03134
9.816,0.00666
9.82,-0.05714
9.824,-0.03073
9.828,-0.02484
9.832,0.00111
9.836,-0.04769
9.84,-0.09651
9.844,-0.0667
9.848,-0.05789
9.852,0.02166
9.856,-0.05618
9.86,0.01687
9.864,-0.05925
9.868,-0.02286
9.872,0.0243
9.876,-0.06227
9.88,0.03592
9.884,-0.03994
9.888,-0.06146
9.892,-0.08539
9.896,-0.04937
9.9,-0.05106
9.904,-0.05402
9.908,-0.04232
9.912,0.02086
9.916,-0.03417
9.92,0.03103
9.924,-0.05668
9.928,0.00136
9.932,-0.04168
9.936,0.04032
9.94,0.02508
9.944,-0.01819
9.948,0.04223
9.952,0.02398
9.956,0.02101
9.96,0.04614
9.964,0.07106
9.968,0.04572
9.972,0.06576
9.976,0.04008
9.98,0.11623
9.984,0.0881
9.988,0.16519
9.992,0.13076
9.996,0.12482
