t_seg,ecg_mV
0.0,0.04443
0.004,-0.00906
0.008,0.01735
0.012,0.03241
0.016,0.00271
0.02,0.02034
0.024,0.02544
0.028,0.02323
0.032,0.01431
0.036,0.04566
0.04,0.02106
0.044,0.04172
0.048,0.02439
0.052,0.03228
0.056,0.02318
0.06,0.04523
0.064,0.03471
0.068,0.01575
0.072,0.0408
0.076,0.06987
0.08,0.00388
0.084,0.02879
0.088,0.03033
0.092,0.02703
0.096,0.0437
0.1,0.02712
0.104,0.0426
0.108,0.03952
0.112,0.01505
0.116,0.0134
0.12,0.0568
0.124,0.02713
0.128,0.03149
0.132,0.05328
0.136,0.03993
0.14,0.0205
0.144,0.02498
0.148,0.0461
0.152,0.0505
0.156,0.02485
0.16,0.04994
0.164,0.02428
0.168,0.03279
0.172,0.01052
0.176,0.02653
0.18,0.03737
0.184,0.0355
0.188,0.04099
0.192,0.01903
0.196,0.0268
0.2,0.02823
0.204,0.05535
0.208,0.01152
0.212,0.0254
0.216,0.02795
0.22,0.07642
0.224,0.03886
0.228,0.02887
0.232,0.03046
0.236,0.00616
0.24,0.03124
0.244,0.04905
0.248,0.02675
0.252,0.02239
0.256,0.02481
0.26,0.04193
0.264,0.03867
0.268,0.04648
0.272,0.0326
0.276,0.0407
0.28,0.01614
0.284,0.03156
0.288,0.01268
0.292,0.01995
0.296,0.01614
0.3,0.02757
0.304,0.04558
0.308,0.03558
0.312,0.01248
0.316,0.03842
0.32,0.06209
0.324,0.04934
0.328,0.03995
0.332,0.04728
0.336,0.04767
0.34,0.03426
0.344,0.024
0.348,0.06041
0.352,0.03458
0.356,0.0484
0.36,0.02916
0.364,0.0614
0.368,-0.01608
0.372,0.02497
0.376,-0.01559
0.38,0.05403
0.384,0.02015
0.388,0.04778
0.392,0.02165
0.396,0.01911
0.4,0.02286
0.404,0.02491
0.408,0.04746
0.412,0.0183
0.416,0.00083
0.42,0.02377
0.424,0.05763
0.428,0.06185
0.432,0.02997
0.436,0.00956
0.44,0.00514
0.444,0.03
0.448,0.03175
0.452,0.01478
0.456,0.02619
0.46,0.04365
0.464,0.02667
0.468,0.02473
0.472,0.03947
0.476,0.0147
0.48,0.03689
0.484,0.04339
0.488,0.04359
0.492,0.04584
0.496,0.05849
0.5,0.08562
0.504,0.04455
0.508,0.10727
0.512,0.10355
0.516,0.10622
0.52,0.12535
0.524,0.13595
0.528,0.14124
0.532,0.11782
0.536,0.10475
0.54,0.1081
0.544,0.08015
0.548,0.10875
0.552,0.12727
0.556,0.04767
0.56,0.07716
0.564,0.05517
0.568,0.03802
0.572,0.04872
0.576,0.04635
0.58,0.03523
0.584,0.01935
0.588,0.03023
0.592,0.0104
0.596,0.03705
0.6,0.02262
0.604,0.04243
0.608,0.02822
0.612,0.02456
0.616,0.01373
0.62,0.0349
0.624,0.0299
0.628,0.02167
0.632,0.02457
0.636,0.03535
0.64,0.00626
0.644,-0.03008
0.648,-0.04313
0.652,-0.08275
0.656,-0.10466
0.66,0.01836
0.664,0.09171
0.668,0.27359
0.672,0.45912
0.676,0.69525
0.68,0.87458
0.684,0.99377
0.688,0.99722
0.692,0.91105
0.696,0.72584
0.7,0.49792
0.704,0.27187
0.708,0.06924
0.712,-0.07883
0.716,-0.13516
0.72,-0.11571
0.724,-0.11127
0.728,-0.08391
0.732,-0.05369
0.736,-0.00788
0.74,0.01225
0.744,0.01779
0.748,0.03843
0.752,0.02011
0.756,0.00224
0.76,0.03272
0.764,0.00209
0.768,0.02326
0.772,-0.01419
0.776,0.03518
0.78,0.0085
0.784,0.01228
0.788,0.01666
0.792,0.00549
0.796,0.03077
0.8,0.02242
0.804,-0.01485
0.808,0.04277
0.812,0.03793
0.816,0.02404
0.82,0.04638
0.824,0.03288
0.828,0.01403
0.832,0.03232
0.836,0.01442
0.84,0.01292
0.844,0.01931
0.848,0.01354
0.852,0.04535
0.856,0.02565
0.86,0.03067
0.864,0.03728
0.868,0.02921
0.872,0.05165
0.876,0.03979
0.88,0.06231
0.884,0.06192
0.888,0.06
0.892,0.07729
0.896,0.07124
0.9,0.10699
0.904,0.11228
0.908,0.10105
0.912,0.13691
0.916,0.14046
0.92,0.149
0.924,0.19533
0.928,0.19592
0.932,0.19509
0.936,0.20124
0.94,0.19879
0.944,0.21292
0.948,0.22848
0.952,0.24832
0.956,0.24318
0.96,0.22405
0.964,0.22177
0.968,0.2329
0.972,0.24272
0.976,0.26215
0.98,0.20711
0.984,0.20965
0.988,0.20915
0.992,0.21263
0.996,0.18886
1.0,0.19882
1.004,0.1829
1.008,0.16614
1.012,0.14191
1.016,0.14687
1.02,0.15095
1.024,0.13417
1.028,0.09249
1.032,0.08268
1.036,0.10962
1.04,0.08364
1.044,0.0625
1.048,0.06102
1.052,0.06264
1.056,0.06894
1.06,0.04388
1.064,0.04961
1.068,0.03801
1.072,0.0281
1.076,0.01443
1.08,0.0204
1.084,0.04228
1.088,0.05128
1.092,0.00392
1.096,0.02255
1.1,0.04303
1.104,0.01826
1.108,0.02416
1.112,0.01718
1.116,0.05317
1.12,0.00561
1.124,0.01232
1.128,0.04639
1.132,0.02687
1.136,0.0092
1.14,0.03962
1.144,0.02085
1.148,0.03508
1.152,0.03559
1.156,0.01802
1.16,0.01059
1.164,0.009
1.168,-0.01629
1.172,0.02775
1.176,0.00745
1.18,0.03065
1.184,0.01259
1.188,-0.01035
1.192,0.00626
1.196,0.00297
1.2,0.03098
1.204,0.03136
1.208,0.0375
1.212,0.01597
1.216,0.03783
1.22,0.0493
1.224,0.02553
1.228,0.06462
1.232,0.07122
1.236,0.04561
1.24,0.09775
1.244,0.10785
1.248,0.11553
1.252,0.14982
1.256,0.11164
1.26,0.09595
1.264,0.08035
1.268,0.08516
1.272,0.08609
1.276,0.07465
1.28,0.05931
1.284,0.08572
1.288,0.05344
1.292,0.02817
1.296,0.01165
1.3,0.02217
1.304,0.00971
1.308,-0.00114
1.312,-0.00146
1.316,0.02276
1.32,-0.01842
1.324,0.00279
1.328,0.0003
1.332,0.03208
1.336,0.01169
1.34,0.01323
1.344,0.00581
1.348,0.00421
1.352,0.01107
1.356,-0.00189
1.36,-0.02911
1.364,0.02329
1.368,-0.02392
1.372,-0.04711
1.376,-0.0474
1.38,-0.10571
1.384,-0.11035
1.388,-0.0654
1.392,0.01888
1.396,0.18648
1.4,0.34897
1.404,0.56516
1.408,0.79472
1.412,0.92538
1.416,1.0089
1.42,0.96163
1.424,0.82661
1.428,0.58967
1.432,0.37664
1.436,0.17468
1.44,-0.00578
1.444,-0.10686
1.448,-0.16118
1.452,-0.12673
1.456,-0.11474
1.46,-0.08089
1.464,-0.02026
1.468,-0.03016
1.472,0.00123
1.476,0.00654
1.48,0.00362
1.484,0.00142
1.488,0.00715
1.492,-0.02029
1.496,-0.01614
1.5,-0.00039
1.504,0.02149
1.508,0.02124
1.512,0.03251
1.516,-0.00043
1.52,0.005
1.524,-0.00804
1.528,0.00648
1.532,-0.01587
1.536,-0.00495
1.54,-0.00301
1.544,-0.00368
1.548,-0.01125
1.552,-0.01573
1.556,0.02715
1.56,0.01842
1.564,0.01862
1.568,0.03357
1.572,0.00929
1.576,0.02616
1.58,0.01724
1.584,0.04191
1.588,0.01451
1.592,0.0207
1.596,0.05289
1.6,0.0421
1.604,0.01021
1.608,0.03019
1.612,0.04922
1.616,0.0747
1.62,0.04392
1.624,0.08156
1.628,0.04719
1.632,0.05442
1.636,0.11028
1.64,0.09859
1.644,0.1064
1.648,0.13421
1.652,0.1289
1.656,0.16962
1.66,0.14608
1.664,0.16616
1.668,0.1805
1.672,0.19491
1.676,0.19465
1.68,0.22022
1.684,0.21284
1.688,0.1963
1.692,0.22972
1.696,0.22863
1.7,0.22692
1.704,0.22869
1.708,0.20577
1.712,0.21125
1.716,0.19627
1.72,0.22611
1.724,0.1944
1.728,0.17673
1.732,0.15858
1.736,0.17379
1.74,0.1265
1.744,0.12211
1.748,0.1047
1.752,0.07864
1.756,0.0768
1.76,0.05323
1.764,0.08345
1.768,0.07343
1.772,0.03643
1.776,0.05309
1.78,0.04765
1.784,0.03459
1.788,0.02061
1.792,0.01352
1.796,0.00967
1.8,0.02807
1.804,0.02622
1.808,0.03095
1.812,0.00483
1.816,0.00441
1.82,-0.00249
1.824,0.01318
1.828,0.01626
1.832,0.01188
1.836,-0.01027
1.84,-0.03134
1.844,0.0248
1.848,-0.01198
1.852,-0.00499
1.856,0.02085
1.86,0.01315
1.864,-2e-05
1.868,-0.00123
1.872,-0.00674
1.876,-0.01903
1.88,0.00497
1.884,-0.00114
1.888,-0.00224
1.892,-0.00685
1.896,0.01384
1.9,0.00801
1.904,0.01663
1.908,-0.05482
1.912,-0.02596
1.916,0.01659
1.92,0.01993
1.924,0.00455
1.928,-0.00856
1.932,-0.00283
1.936,-0.00318
1.94,-0.03293
1.944,0.00308
1.948,0.0206
1.952,0.02462
1.956,-0.00194
1.96,0.0246
1.964,0.039
1.968,0.02844
1.972,0.06309
1.976,0.04021
1.98,0.07051
1.984,0.0868
1.988,0.07308
1.992,0.07522
1.996,0.07884
2.0,0.08266
2.004,0.09767
2.008,0.06999
2.012,0.06145
2.016,0.03949
2.02,0.03845
2.024,0.05288
2.028,-0.00219
2.032,0.00877
2.036,0.01119
2.04,-0.0113
2.044,-0.00109
2.048,0.00095
2.052,-0.00609
2.056,-0.00173
2.06,-0.02569
2.064,-0.01084
2.068,-0.0183
2.072,-0.00777
2.076,0.00423
2.08,0.01597
2.084,-0.01203
2.088,-0.03314
2.092,-0.00825
2.096,-0.02312
2.1,-0.02018
2.104,-0.0348
2.108,-0.02125
2.112,-0.02892
2.116,-0.08693
2.12,-0.12527
2.124,-0.15778
2.128,-0.08756
2.132,0.02317
2.136,0.17768
2.14,0.36202
2.144,0.58261
2.148,0.79602
2.152,0.94226
2.156,0.98623
2.16,0.92376
2.164,0.77784
2.168,0.55179
2.172,0.35759
2.176,0.14112
2.18,-0.06353
2.184,-0.12038
2.188,-0.18391
2.192,-0.17976
2.196,-0.1451
2.2,-0.08667
2.204,-0.06246
2.208,-0.04771
2.212,-0.02204
2.216,-0.00764
2.22,-0.03558
2.224,-0.00767
2.228,-0.03766
2.232,-0.04889
2.236,-0.0028
2.24,-0.00479
2.244,-0.00202
2.248,-0.01926
2.252,-0.00805
2.256,0.00646
2.26,-0.03197
2.264,-0.00115
2.268,-0.01845
2.272,-0.03234
2.276,-0.04135
2.28,-0.04159
2.284,-0.01537
2.288,-0.01292
2.292,0.01068
2.296,0.00717
2.3,0.00686
2.304,-0.02274
2.308,-0.0453
2.312,-0.01649
2.316,-0.01741
2.32,0.01698
2.324,-0.01774
2.328,-0.00873
2.332,0.00051
2.336,0.00293
2.34,0.02327
2.344,-0.00225
2.348,0.04511
2.352,0.02607
2.356,0.03607
2.36,0.02751
2.364,0.05746
2.368,0.06948
2.372,0.07268
2.376,0.06021
2.38,0.0833
2.384,0.08058
2.388,0.09679
2.392,0.12651
2.396,0.10717
2.4,0.12026
2.404,0.1495
2.408,0.15263
2.412,0.19602
2.416,0.17204
2.42,0.19368
2.424,0.18784
2.428,0.1803
2.432,0.24478
2.436,0.20984
2.44,0.20829
2.444,0.20137
2.448,0.21238
2.452,0.21683
2.456,0.1607
2.46,0.16413
2.464,0.19429
2.468,0.14214
2.472,0.15478
2.476,0.10443
2.48,0.11484
2.484,0.10951
2.488,0.08809
2.492,0.06
2.496,0.10041
2.5,0.06409
2.504,0.06938
2.508,0.00445
2.512,0.02704
2.516,0.03595
2.52,-0.00999
2.524,-0.00102
2.528,-0.01035
2.532,-0.00366
2.536,-0.00744
2.54,-0.0005
2.544,-0.02713
2.548,-0.00529
2.552,0.00744
2.556,-0.05427
2.56,-0.02686
2.564,-0.01489
2.568,-0.01858
2.572,0.0018
2.576,-0.0347
2.58,0.00029
2.584,-0.02486
2.588,-0.00557
2.592,-0.05627
2.596,-0.01131
2.6,-0.02041
2.604,-0.01975
2.608,-0.01777
2.612,-0.01274
2.616,-0.02277
2.62,-0.00554
2.624,-0.02845
2.628,-0.01503
2.632,-0.0264
2.636,-0.00076
2.64,0.00103
2.644,-0.04092
2.648,-0.04977
2.652,-0.06155
2.656,-0.0238
2.66,-0.05278
2.664,-0.03628
2.668,-0.01171
2.672,-0.02651
2.676,-0.06055
2.68,-0.00082
2.684,-0.01684
2.688,-0.0203
2.692,-0.03324
2.696,-0.04687
2.7,-0.01818
2.704,-0.00523
2.708,-0.02442
2.712,-0.03968
2.716,-0.00338
2.72,-0.01887
2.724,0.00799
2.728,-0.01915
2.732,-0.01787
2.736,-0.0102
2.74,-0.02975
2.744,-0.00411
2.748,-0.01492
2.752,-0.02504
2.756,0.00363
2.76,0.01416
2.764,0.01291
2.768,0.01734
2.772,0.02114
2.776,0.01456
2.78,0.05871
2.784,0.04973
2.788,0.06472
2.792,0.0338
2.796,0.04578
2.8,0.08116
2.804,0.08837
2.808,0.06206
2.812,0.03592
2.816,0.06702
2.82,0.03525
2.824,0.02985
2.828,0.01688
2.832,-0.01345
2.836,-0.01587
2.84,0.00392
2.844,-0.03122
2.848,-0.00983
2.852,-0.03772
2.856,-0.02127
2.86,-0.03266
2.864,-0.00922
2.868,-0.01896
2.872,-0.0171
2.876,-0.04275
2.88,-0.01034
2.884,-0.03143
2.888,-0.04017
2.892,-0.02754
2.896,-0.01473
2.9,-0.01247
2.904,-0.04125
2.908,-0.04134
2.912,-0.05093
2.916,-0.08382
2.92,-0.11619
2.924,-0.10876
2.928,-0.12938
2.932,-0.03271
2.936,0.11041
2.94,0.30811
2.944,0.54017
2.948,0.7398
2.952,0.87728
2.956,0.98551
2.96,0.93142
2.964,0.81964
2.968,0.594
2.972,0.34311
2.976,0.11522
2.98,-0.0527
2.984,-0.1463
2.988,-0.19761
2.992,-0.15087
2.996,-0.16227
3.0,-0.09202
3.004,-0.06407
3.008,-0.05294
3.012,-0.02518
3.016,-0.04812
3.02,-0.02587
3.024,-0.03036
3.028,-0.05597
3.032,-0.02246
3.036,-0.01785
3.04,-0.04703
3.044,-0.02568
3.048,-0.01423
3.052,-0.02225
3.056,-0.01967
3.06,-0.01592
3.064,-0.03871
3.068,-0.02952
3.072,-0.03041
3.076,-0.07069
3.08,-0.00732
3.084,-0.03394
3.088,-0.02598
3.092,-0.06194
3.096,-0.0411
3.1,-0.01217
3.104,-0.01646
3.108,-0.03011
3.112,-0.02347
3.116,-0.01937
3.12,0.00759
3.124,-0.02807
3.128,0.01867
3.132,-0.03405
3.136,-0.01013
3.14,-0.00522
3.144,0.01734
3.148,0.01139
3.152,0.02214
3.156,0.05222
3.16,0.01326
3.164,0.02232
3.168,0.04197
3.172,0.02926
3.176,0.05846
3.18,0.04752
3.184,0.09775
3.188,0.08918
3.192,0.10432
3.196,0.11052
3.2,0.13673
3.204,0.12751
3.208,0.16913
3.212,0.15921
3.216,0.16508
3.22,0.16673
3.224,0.17391
3.228,0.18215
3.232,0.1996
3.236,0.19288
3.24,0.18399
3.244,0.19679
3.248,0.17826
3.252,0.17982
3.256,0.17838
3.26,0.15284
3.264,0.15414
3.268,0.15924
3.272,0.13215
3.276,0.11657
3.28,0.13868
3.284,0.09797
3.288,0.08292
3.292,0.07447
3.296,0.06623
3.3,0.05582
3.304,0.04131
3.308,0.0443
3.312,-0.01825
3.316,0.00206
3.32,0.0197
3.324,0.01119
3.328,0.01386
3.332,-0.01726
3.336,-0.02699
3.34,-0.02236
3.344,-0.01654
3.348,-0.02999
3.352,-0.03865
3.356,0.02659
3.36,-0.00118
3.364,0.00604
3.368,-0.04043
3.372,-0.04088
3.376,-0.04857
3.38,-0.02701
3.384,-0.03639
3.388,-0.04464
3.392,-0.03176
3.396,-0.03175
3.4,-0.04015
3.404,-0.04239
3.408,-0.01126
3.412,-0.03896
3.416,-0.01731
3.42,-0.02499
3.424,-0.00366
3.428,-0.01341
3.432,-0.05529
3.436,-0.04683
3.44,-0.03356
3.444,-0.04316
3.448,-0.01001
3.452,-0.02435
3.456,-0.02988
3.46,-0.01449
3.464,-0.01236
3.468,-0.03856
3.472,-0.02411
3.476,-0.03815
3.48,-0.04579
3.484,-0.05581
3.488,-0.04529
3.492,-0.03072
3.496,-0.0063
3.5,-0.01977
3.504,-0.02753
3.508,-0.01517
3.512,0.01377
3.516,-0.01493
3.52,0.04091
3.524,0.04569
3.528,0.05461
3.532,0.07253
3.536,0.06124
3.54,0.04727
3.544,0.08845
3.548,0.03488
3.552,0.05888
3.556,0.05782
3.56,0.04764
3.564,0.00567
3.568,0.01711
3.572,-0.00301
3.576,-0.02673
3.58,-0.00725
3.584,-0.01686
3.588,-0.01744
3.592,0.00184
3.596,-0.02729
3.6,-0.03126
3.604,-0.03936
3.608,-0.02281
3.612,-0.03071
3.616,-0.05069
3.62,-0.00514
3.624,-0.0218
3.628,-0.05601
3.632,-0.04791
3.636,-0.04013
3.64,-0.02925
3.644,-0.04594
3.648,-0.01312
3.652,-0.00272
3.656,-0.05025
3.66,-0.07583
3.664,-0.10136
3.668,-0.15136
3.672,-0.14089
3.676,-0.05807
3.68,0.05784
3.684,0.23124
3.688,0.46829
3.692,0.65283
3.696,0.85284
3.7,0.95496
3.704,0.93823
3.708,0.85059
3.712,0.61325
3.716,0.42314
3.72,0.19085
3.724,0.02619
3.728,-0.10739
3.732,-0.15538
3.736,-0.1884
3.74,-0.17446
3.744,-0.11813
3.748,-0.11777
3.752,-0.05377
3.756,-0.05826
3.76,-0.01718
3.764,-0.04241
3.768,-0.00917
3.772,-0.01433
3.776,-0.04396
3.78,-0.01697
3.784,-0.02572
3.788,-0.01673
3.792,-0.01823
3.796,-0.02816
3.8,-0.04008
3.804,-0.00762
3.808,-0.05611
3.812,-0.01546
3.816,-0.03098
3.82,-0.02906
3.824,-0.01267
3.828,-0.01455
3.832,0.00133
3.836,-0.00666
3.84,-0.03596
3.844,-0.02445
3.848,-0.02408
3.852,-0.03473
3.856,-0.03671
3.86,-0.00368
3.864,-0.00883
3.868,-0.01074
3.872,-0.02105
3.876,-0.00969
3.88,-0.02064
3.884,-0.00634
3.888,0.0074
3.892,-0.02288
3.896,-0.00614
3.9,0.00513
3.904,0.0236
3.908,0.02211
3.912,0.03895
3.916,0.06506
3.92,0.05834
3.924,0.04674
3.928,0.07066
3.932,0.09527
3.936,0.08678
3.94,0.1112
3.944,0.12803
3.948,0.13611
3.952,0.13049
3.956,0.15753
3.96,0.14487
3.964,0.20026
3.968,0.2012
3.972,0.19343
3.976,0.18864
3.98,0.19627
3.984,0.20643
3.988,0.16332
3.992,0.21958
3.996,0.21112
4.0,0.18817
4.004,0.15639
4.008,0.15387
4.012,0.14897
4.016,0.13228
4.02,0.13504
4.024,0.1425
4.028,0.09465
4.032,0.07746
4.036,0.0911
4.04,0.07054
4.044,0.05829
4.048,0.04879
4.052,0.01944
4.056,0.02227
4.06,0.01288
4.064,-0.00055
4.068,-0.0069
4.072,0.00119
4.076,-0.03396
4.08,-0.02088
4.084,-0.02672
4.088,-0.01618
4.092,-0.0086
4.096,-0.02524
4.1,-0.01581
4.104,-0.00479
4.108,-0.00101
4.112,-0.05755
4.116,-0.02868
4.12,-0.00662
4.124,-0.08344
4.128,-0.03978
4.132,-0.0295
4.136,-0.01241
4.14,-0.02334
4.144,-0.01255
4.148,-0.04265
4.152,-0.02958
4.156,-0.01773
4.16,0.01033
4.164,-0.01847
4.168,-0.0328
4.172,-0.03924
4.176,-0.01764
4.18,-0.01387
4.184,-0.00118
4.188,-0.03826
4.192,-0.01475
4.196,0.00364
4.2,-0.01563
4.204,0.00725
4.208,-0.02245
4.212,-0.01044
4.216,0.00057
4.22,0.02862
4.224,0.03042
4.228,0.05608
4.232,0.04905
4.236,0.06749
4.24,0.07719
4.244,0.06251
4.248,0.06927
4.252,0.09441
4.256,0.05747
4.26,0.05555
4.264,0.0374
4.268,0.01508
4.272,0.00461
4.276,0.01935
4.28,-0.01374
4.284,-0.011
4.288,-0.00911
4.292,0.00765
4.296,-0.04192
4.3,-0.02177
4.304,-0.01829
4.308,-0.01129
4.312,-0.04142
4.316,0.0001
4.32,-0.03513
4.324,0.004
4.328,-0.04494
4.332,-0.04191
4.336,-0.0374
4.34,-0.02793
4.344,-0.02653
4.348,-0.00891
4.352,-0.01505
4.356,-0.05213
4.36,-0.05404
4.364,-0.06475
4.368,-0.12649
4.372,-0.1297
4.376,-0.1335
4.38,-0.03631
4.384,0.11123
4.388,0.32902
4.392,0.50393
4.396,0.72438
4.4,0.89155
4.404,0.98263
4.408,0.97077
4.412,0.83336
4.416,0.6138
4.42,0.38873
4.424,0.18871
4.428,-0.00927
4.432,-0.1209
4.436,-0.17599
4.44,-0.1945
4.444,-0.14694
4.448,-0.11251
4.452,-0.0753
4.456,-0.04052
4.46,-0.04216
4.464,-0.02105
4.468,-0.02549
4.472,-0.00126
4.476,-0.02075
4.48,-0.01193
4.484,-0.02992
4.488,-0.03801
4.492,-0.02722
4.496,-0.00465
4.5,0.00051
4.504,-0.0006
4.508,-0.02702
4.512,-0.01143
4.516,0.00034
4.52,-0.02483
4.524,-0.01663
4.528,-0.02848
4.532,-0.01722
4.536,-0.00608
4.54,0.0078
4.544,-0.03425
4.548,-0.02557
4.552,-0.02118
4.556,-0.00882
4.56,-0.01396
4.564,0.01327
4.568,0.00725
4.572,0.02136
4.576,0.00458
4.58,-0.00955
4.584,0.02345
4.588,-0.0015
4.592,0.02131
4.596,0.01984
4.6,0.04275
4.604,0.04563
4.608,0.04259
4.612,0.01499
4.616,0.04597
4.62,0.05594
4.624,0.08791
4.628,0.06388
4.632,0.10243
4.636,0.10302
4.64,0.10204
4.644,0.13456
4.648,0.14233
4.652,0.15697
4.656,0.17416
4.66,0.17887
4.664,0.19825
4.668,0.19248
4.672,0.20395
4.676,0.23867
4.68,0.19747
4.684,0.21656
4.688,0.21225
4.692,0.20238
4.696,0.22036
4.7,0.19677
4.704,0.1738
4.708,0.20815
4.712,0.16072
4.716,0.16133
4.72,0.14541
4.724,0.14198
4.728,0.13446
4.732,0.10252
4.736,0.10284
4.74,0.11753
4.744,0.06801
4.748,0.08297
4.752,0.05909
4.756,0.06207
4.76,0.06428
4.764,0.05574
4.768,0.02083
4.772,0.02546
4.776,0.01548
4.78,0.02073
4.784,0.01088
4.788,0.01064
4.792,0.00284
4.796,-0.00953
4.8,-0.01044
4.804,-0.00665
4.808,-0.0187
4.812,0.02914
4.816,-0.01966
4.82,-0.00437
4.824,0.00577
4.828,-0.02386
4.832,-0.0031
4.836,0.01012
4.84,-0.00153
4.844,-0.02347
4.848,-0.01025
4.852,-0.02664
4.856,0.00729
4.86,-0.00359
4.864,-0.02894
4.868,-0.01371
4.872,0.01313
4.876,0.02337
4.88,-0.02562
4.884,-0.01805
4.888,-0.02099
4.892,-0.01949
4.896,0.01972
4.9,-0.02585
4.904,-0.0047
4.908,0.00351
4.912,-0.02562
4.916,-0.011
4.92,0.00649
4.924,-0.0151
4.928,0.01827
4.932,-0.01573
4.936,-0.03826
4.94,-0.02898
4.944,-0.01089
4.948,0.00396
4.952,-0.02087
4.956,-0.00795
4.96,-0.02381
4.964,-0.0047
4.968,0.03725
4.972,0.01392
4.976,0.00553
4.98,-0.01843
4.984,-0.00077
4.988,0.00614
4.992,0.00385
4.996,-0.01448
5.0,0.00868
5.004,-0.00267
5.008,-0.02507
5.012,0.00763
5.016,0.01808
5.02,0.01171
5.024,0.01395
5.028,0.02458
5.032,0.0481
5.036,0.02892
5.04,0.05581
5.044,0.03319
5.048,0.06175
5.052,0.0716
5.056,0.08337
5.06,0.11398
5.064,0.07692
5.068,0.09888
5.072,0.09342
5.076,0.09931
5.08,0.07764
5.084,0.07414
5.088,0.07183
5.092,0.01231
5.096,0.02094
5.1,0.04564
5.104,0.01709
5.108,0.01115
5.112,0.0297
5.116,0.00689
5.12,-0.00614
5.124,0.00874
5.128,0.00309
5.132,0.0126
5.136,0.00048
5.14,-0.00719
5.144,0.02056
5.148,9e-05
5.152,-0.00582
5.156,0.00871
5.16,-0.00712
5.164,-0.01298
5.168,-0.01348
5.172,0.00343
5.176,0.00109
5.18,-0.03282
5.184,-0.0543
5.188,-0.09862
5.192,-0.13009
5.196,-0.131
5.2,-0.05785
5.204,0.07406
5.208,0.26364
5.212,0.44896
5.216,0.67165
5.22,0.87178
5.224,0.99716
5.228,1.01115
5.232,0.90576
5.236,0.72003
5.24,0.51372
5.244,0.25655
5.248,0.06983
5.252,-0.06993
5.256,-0.13695
5.26,-0.13461
5.264,-0.16033
5.268,-0.09764
5.272,-0.04209
5.276,-0.03084
5.28,-0.03102
5.284,-0.00015
5.288,-0.02142
5.292,0.01614
5.296,0.00861
5.3,0.01467
5.304,0.0156
5.308,0.03154
5.312,0.03247
5.316,0.02747
5.32,-0.0094
5.324,0.03039
5.328,-0.00134
5.332,0.02052
5.336,0.01564
5.34,-0.00096
5.344,-0.00641
5.348,0.02692
5.352,0.02376
5.356,0.00555
5.36,0.00388
5.364,0.02076
5.368,0.00854
5.372,-0.00047
5.376,0.02993
5.38,0.0309
5.384,0.00288
5.388,0.03807
5.392,0.00321
5.396,-0.00377
5.4,0.03257
5.404,0.01101
5.408,0.04914
5.412,0.00197
5.416,0.03088
5.42,0.07245
5.424,0.04971
5.428,0.053
5.432,0.06134
5.436,0.06959
5.44,0.09506
5.444,0.11849
5.448,0.1127
5.452,0.11364
5.456,0.13089
5.46,0.1419
5.464,0.14797
5.468,0.12061
5.472,0.15971
5.476,0.18723
5.48,0.19782
5.484,0.19967
5.488,0.2194
5.492,0.2168
5.496,0.2139
5.5,0.25582
5.504,0.22861
5.508,0.23908
5.512,0.25175
5.516,0.21925
5.52,0.2374
5.524,0.21521
5.528,0.22758
5.532,0.19095
5.536,0.19076
5.54,0.18361
5.544,0.16806
5.548,0.12104
5.552,0.14945
5.556,0.1351
5.56,0.11318
5.564,0.10848
5.568,0.11141
5.572,0.08711
5.576,0.07898
5.58,0.09942
5.584,0.0801
5.588,0.03727
5.592,0.04278
5.596,0.05258
5.6,0.03188
5.604,0.02567
5.608,0.0215
5.612,0.00831
5.616,0.00955
5.62,0.03658
5.624,-0.01403
5.628,0.01209
5.632,0.04028
5.636,0.01101
5.64,0.02054
5.644,0.0174
5.648,0.0127
5.652,0.01005
5.656,0.00016
5.66,0.00352
5.664,-0.01537
5.668,0.02245
5.672,0.02333
5.676,-0.00115
5.68,0.02657
5.684,0.03493
5.688,0.00231
5.692,0.02908
5.696,0.0273
5.7,0.04895
5.704,0.03504
5.708,0.02
5.712,0.03407
5.716,-0.00207
5.72,-0.02065
5.724,0.01469
5.728,0.02937
5.732,0.02798
5.736,0.03446
5.74,0.00573
5.744,0.0111
5.748,0.03158
5.752,0.01314
5.756,0.01952
5.76,0.02971
5.764,0.05892
5.768,0.02156
5.772,0.05677
5.776,0.06033
5.78,0.08715
5.784,0.09716
5.788,0.10019
5.792,0.10098
5.796,0.11008
5.8,0.1029
5.804,0.11714
5.808,0.10632
5.812,0.1202
5.816,0.07454
5.82,0.1174
5.824,0.07692
5.828,0.06876
5.832,0.06357
5.836,0.02601
5.84,0.0613
5.844,0.03262
5.848,0.00693
5.852,0.02135
5.856,0.0425
5.86,0.00072
5.864,0.05122
5.868,0.01622
5.872,0.02794
5.876,0.03032
5.88,0.01065
5.884,0.0148
5.888,0.00624
5.892,0.02161
5.896,0.03151
5.9,0.01878
5.904,0.05689
5.908,0.03012
5.912,-0.00953
5.916,-0.02021
5.92,-0.03493
5.924,-0.09838
5.928,-0.08675
5.932,-0.06795
5.936,-0.00671
5.94,0.16504
5.944,0.34834
5.948,0.52583
5.952,0.73986
5.956,0.91284
5.96,1.03808
5.964,0.99838
5.968,0.89478
5.972,0.65628
5.976,0.42511
5.98,0.17614
5.984,0.04515
5.988,-0.0714
5.992,-0.13875
5.996,-0.135
6.0,-0.08326
6.004,-0.05146
6.008,-0.03402
6.012,-0.00078
6.016,0.03982
6.02,-0.00467
6.024,-0.00262
6.028,-0.00654
6.032,0.03528
6.036,0.01238
6.04,0.06508
6.044,0.04213
6.048,0.02282
6.052,0.01026
6.056,0.01288
6.06,0.01051
6.064,0.02962
6.068,0.04886
6.072,0.02356
6.076,0.02467
6.08,-0.00499
6.084,-0.00597
6.088,0.056
6.092,0.01019
6.096,0.04038
6.1,0.02911
6.104,0.02117
6.108,0.03828
6.112,0.05419
6.116,0.02579
6.12,0.0566
6.124,0.03375
6.128,0.02559
6.132,0.05788
6.136,0.04906
6.14,0.05978
6.144,0.03938
6.148,0.05988
6.152,0.03153
6.156,0.05195
6.16,0.08796
6.164,0.05883
6.168,0.0998
6.172,0.07842
6.176,0.10788
6.18,0.11558
6.184,0.12096
6.188,0.12441
6.192,0.14158
6.196,0.1856
6.2,0.17691
6.204,0.17299
6.208,0.20983
6.212,0.23156
6.216,0.19477
6.22,0.23327
6.224,0.22048
6.228,0.24344
6.232,0.22501
6.236,0.24715
6.24,0.22307
6.244,0.24948
6.248,0.25438
6.252,0.24324
6.256,0.21576
6.26,0.2448
6.264,0.22631
6.268,0.21139
6.272,0.20964
6.276,0.16929
6.28,0.21605
6.284,0.1749
6.288,0.1416
6.292,0.12761
6.296,0.12996
6.3,0.10609
6.304,0.11309
6.308,0.08691
6.312,0.11122
6.316,0.0718
6.32,0.10689
6.324,0.05429
6.328,0.04054
6.332,0.0431
6.336,0.05757
6.34,0.02479
6.344,0.0478
6.348,0.0218
6.352,0.06236
6.356,0.04906
6.36,0.05357
6.364,0.03848
6.368,0.04439
6.372,0.03279
6.376,0.06235
6.38,0.0749
6.384,0.06037
6.388,0.07761
6.392,0.06229
6.396,0.11995
6.4,0.10893
6.404,0.13995
6.408,0.11612
6.412,0.13669
6.416,0.12228
6.42,0.09959
6.424,0.1008
6.428,0.11055
6.432,0.08093
6.436,0.0552
6.44,0.05738
6.444,0.06084
6.448,0.04282
6.452,0.05836
6.456,0.02616
6.46,0.03119
6.464,0.05456
6.468,0.03823
6.472,0.04338
6.476,0.00803
6.48,0.0114
6.484,0.02614
6.488,0.03052
6.492,0.03195
6.496,0.00657
6.5,0.01727
6.504,0.04437
6.508,0.04705
6.512,0.03301
6.516,0.01551
6.52,0.02583
6.524,0.01762
6.528,-0.01732
6.532,-0.07347
6.536,-0.05697
6.54,-0.0824
6.544,-0.03952
6.548,0.04324
6.552,0.22424
6.556,0.43001
6.56,0.59967
6.564,0.84342
6.568,0.95902
6.572,1.01317
6.576,0.96428
6.58,0.78006
6.584,0.56476
6.588,0.35019
6.592,0.11839
6.596,-0.02338
6.6,-0.10128
6.604,-0.14785
6.608,-0.13257
6.612,-0.07467
6.616,-0.03055
6.62,-0.02127
6.624,0.02124
6.628,0.00736
6.632,0.01009
6.636,0.03199
6.64,0.04636
6.644,0.02862
6.648,0.01488
6.652,0.03282
6.656,0.01956
6.66,0.01688
6.664,0.05509
6.668,0.02151
6.672,0.02058
6.676,0.01649
6.68,0.03103
6.684,0.02642
6.688,0.03176
6.692,0.04612
6.696,0.04481
6.7,0.02866
6.704,0.01614
6.708,0.03157
6.712,0.0352
6.716,0.05641
6.72,0.0233
6.724,0.01278
6.728,0.04532
6.732,0.03203
6.736,0.06192
6.74,0.04349
6.744,0.04495
6.748,0.05007
6.752,0.06057
6.756,0.02783
6.76,0.06296
6.764,0.05653
6.768,0.11042
6.772,0.03622
6.776,0.05526
6.78,0.09731
6.784,0.10666
6.788,0.09408
6.792,0.13042
6.796,0.17473
6.8,0.14796
6.804,0.14752
6.808,0.16782
6.812,0.1662
6.816,0.1776
6.82,0.22831
6.824,0.2301
6.828,0.22469
6.832,0.2314
6.836,0.2723
6.84,0.25724
6.844,0.21602
6.848,0.24934
6.852,0.2488
6.856,0.2521
6.86,0.25047
6.864,0.19343
6.868,0.24579
6.872,0.22903
6.876,0.21737
6.88,0.19469
6.884,0.1767
6.888,0.17062
6.892,0.15583
6.896,0.17237
6.9,0.13863
6.904,0.12382
6.908,0.13355
6.912,0.12165
6.916,0.1165
6.92,0.10751
6.924,0.0933
6.928,0.09115
6.932,0.05765
6.936,0.07592
6.94,0.06492
6.944,0.0562
6.948,0.01777
6.952,0.04366
6.956,0.06325
6.96,0.06286
6.964,0.02964
6.968,0.07305
6.972,0.04104
6.976,0.05112
6.98,0.05379
6.984,0.00676
6.988,0.01956
6.992,0.00844
6.996,0.05218
7.0,0.02094
7.004,0.02841
7.008,0.04302
7.012,0.02831
7.016,0.03515
7.02,0.02329
7.024,0.01816
7.028,0.0406
7.032,0.01615
7.036,0.02294
7.04,0.00149
7.044,0.0313
7.048,0.02894
7.052,0.0234
7.056,0.04585
7.06,0.01672
7.064,0.03665
7.068,0.02019
7.072,0.04168
7.076,0.04257
7.08,0.03074
7.084,0.00964
7.088,0.02177
7.092,0.05608
7.096,0.02348
7.1,0.02173
7.104,0.01295
7.108,0.02206
7.112,0.05033
7.116,0.04192
7.12,0.0433
7.124,-0.00239
7.128,0.02508
7.132,0.03488
7.136,0.02747
7.14,0.03076
7.144,0.00587
7.148,0.01268
7.152,0.03749
7.156,0.01154
7.16,0.02353
7.164,0.05766
7.168,0.0117
7.172,0.01487
7.176,-0.01351
7.18,0.02515
7.184,0.0443
7.188,0.01963
7.192,-0.0096
7.196,0.01187
7.2,0.01011
7.204,0.02012
7.208,0.01617
7.212,0.04337
7.216,0.02396
7.22,0.05817
7.224,0.058
7.228,0.04653
7.232,0.03601
7.236,0.03659
7.24,0.03049
7.244,0.04112
7.248,0.01481
7.252,0.04372
7.256,0.04585
7.26,0.04677
7.264,0.0271
7.268,0.03424
7.272,0.01066
7.276,0.03784
7.28,0.0526
7.284,0.05281
7.288,0.03641
7.292,0.01933
7.296,-0.0022
7.3,0.02948
7.304,0.02329
7.308,0.04552
7.312,0.03418
7.316,0.01514
7.32,0.0219
7.324,0.03334
7.328,0.01086
7.332,0.04209
7.336,0.02181
7.34,0.03275
7.344,0.05624
7.348,0.04064
7.352,0.03622
7.356,0.04723
7.36,0.03347
7.364,0.02725
7.368,0.05719
7.372,0.05398
7.376,0.0585
7.38,0.08869
7.384,0.09381
7.388,0.10357
7.392,0.08856
7.396,0.13709
7.4,0.11905
7.404,0.11794
7.408,0.12353
7.412,0.12392
7.416,0.10464
7.42,0.10133
7.424,0.05933
7.428,0.07668
7.432,0.04163
7.436,0.05349
7.44,0.02624
7.444,0.04695
7.448,0.02254
7.452,0.03346
7.456,0.03867
7.46,0.02961
7.464,0.03419
7.468,0.03454
7.472,0.04286
7.476,0.03927
7.48,0.00152
7.484,0.04266
7.488,0.02598
7.492,0.03073
7.496,0.03916
7.5,0.04648
7.504,0.00694
7.508,-0.00904
7.512,0.01288
7.516,-0.00203
7.52,-0.03176
7.524,-0.08422
7.528,-0.10785
7.532,-0.03966
7.536,0.03394
7.54,0.22979
7.544,0.40932
7.548,0.62819
7.552,0.83157
7.556,0.94721
7.56,1.01527
7.564,0.95645
7.568,0.80451
7.572,0.55275
7.576,0.34249
7.58,0.13942
7.584,-0.02724
7.588,-0.10001
7.592,-0.13321
7.596,-0.14
7.6,-0.09138
7.604,-0.01488
7.608,0.02644
7.612,0.01621
7.616,0.00624
7.62,0.00596
7.624,0.00581
7.628,0.03774
7.632,0.02164
7.636,0.01708
7.64,0.00583
7.644,0.02801
7.648,0.00863
7.652,0.03146
7.656,0.01358
7.66,0.01222
7.664,0.01517
7.668,0.01384
7.672,-0.0073
7.676,0.00703
7.68,0.04888
7.684,0.03333
7.688,0.01156
7.692,0.01367
7.696,0.0217
7.7,-0.00274
7.704,0.0312
7.708,0.02642
7.712,0.02401
7.716,0.03877
7.72,0.00039
7.724,0.02332
7.728,0.01989
7.732,0.03051
7.736,0.00574
7.74,0.01997
7.744,0.01371
7.748,0.0539
7.752,0.03409
7.756,0.07122
7.76,0.0634
7.764,0.0747
7.768,0.06851
7.772,0.0998
7.776,0.07652
7.78,0.09077
7.784,0.13606
7.788,0.15216
7.792,0.14406
7.796,0.13917
7.8,0.18015
7.804,0.17311
7.808,0.1862
7.812,0.18074
7.816,0.20369
7.82,0.21631
7.824,0.19349
7.828,0.22701
7.832,0.26659
7.836,0.23051
7.84,0.22592
7.844,0.23529
7.848,0.24608
7.852,0.22185
7.856,0.20938
7.86,0.20992
7.864,0.21677
7.868,0.17539
7.872,0.1593
7.876,0.15968
7.88,0.16639
7.884,0.15374
7.888,0.12622
7.892,0.12426
7.896,0.1001
7.9,0.09687
7.904,0.10575
7.908,0.09059
7.912,0.06489
7.916,0.07051
7.92,0.04856
7.924,0.03947
7.928,0.0677
7.932,0.05622
7.936,0.04706
7.94,0.01713
7.944,0.01128
7.948,0.01725
7.952,0.00685
7.956,0.04361
7.96,0.01291
7.964,0.01959
7.968,0.01373
7.972,0.00401
7.976,-0.0187
7.98,-0.00186
7.984,-0.00611
7.988,0.00161
7.992,0.01526
7.996,0.00333
8.0,0.00245
8.004,-0.03088
8.008,0.02784
8.012,0.0094
8.016,-0.00851
8.02,0.01946
8.024,0.04342
8.028,-0.0055
8.032,0.01903
8.036,-0.00593
8.04,0.00458
8.044,-0.00017
8.048,-0.00339
8.052,0.01085
8.056,0.02401
8.06,-0.01092
8.064,0.00598
8.068,-0.02619
8.072,-0.0008
8.076,-0.00293
8.08,0.01304
8.084,0.01598
8.088,0.02512
8.092,0.00615
8.096,0.01153
8.1,-0.00577
8.104,0.01698
8.108,-0.00242
8.112,0.02664
8.116,0.00826
8.12,0.01066
8.124,0.03127
8.128,-0.00359
8.132,-0.00709
8.136,0.02196
8.14,0.02034
8.144,0.01365
8.148,0.0296
8.152,0.01479
8.156,-0.00549
8.16,0.00321
8.164,0.00433
8.168,-0.01232
8.172,0.02764
8.176,-0.00923
8.18,0.01276
8.184,-0.0151
8.188,0.0018
8.192,0.00825
8.196,0.02116
8.2,-0.01232
8.204,-0.00679
8.208,0.01194
8.212,-0.03996
8.216,0.01014
8.22,-0.00039
8.224,0.02302
8.228,0.00877
8.232,0.02129
8.236,-0.00129
8.24,0.01601
8.244,-0.00494
8.248,0.01982
8.252,0.01994
8.256,-0.01026
8.26,0.00517
8.264,0.00216
8.268,-0.00171
8.272,-0.00754
8.276,-0.00057
8.28,-0.00688
8.284,-0.01799
8.288,-0.00196
8.292,0.01037
8.296,0.01696
8.3,-0.00317
8.304,0.00172
8.308,-0.00092
8.312,-0.01596
8.316,3e-05
8.32,0.04625
8.324,0.02414
8.328,0.02658
8.332,0.05373
8.336,0.04658
8.34,0.0908
8.344,0.09714
8.348,0.07744
8.352,0.08509
8.356,0.09926
8.36,0.09013
8.364,0.09054
8.368,0.08675
8.372,0.04575
8.376,0.06861
8.38,0.01733
8.384,0.04796
8.388,0.03352
8.392,0.01909
8.396,-0.00213
8.4,0.01378
8.404,0.01363
8.408,-0.0049
8.412,-0.01392
8.416,-0.01346
8.42,0.01915
8.424,-0.00253
8.428,0.00631
8.432,-0.01188
8.436,-0.01019
8.44,-0.01641
8.444,-0.00711
8.448,0.01973
8.452,-0.00879
8.456,0.00744
8.46,-0.01854
8.464,-0.01806
8.468,-0.00697
8.472,-0.03805
8.476,-0.0852
8.48,-0.12451
8.484,-0.13517
8.488,-0.06886
8.492,0.04424
8.496,0.21667
8.5,0.42815
8.504,0.6177
8.508,0.81951
8.512,0.96773
8.516,0.95758
8.52,0.91737
8.524,0.7457
8.528,0.54259
8.532,0.28603
8.536,0.10641
8.54,-0.06964
8.544,-0.13401
8.548,-0.20885
8.552,-0.14456
8.556,-0.09849
8.56,-0.05799
8.564,-0.02936
8.568,-0.00285
8.572,-0.02069
8.576,-0.01323
8.58,-0.01971
8.584,0.00263
8.588,-0.00086
8.592,0.02927
8.596,-0.03184
8.6,-0.00229
8.604,-0.00286
8.608,-0.00524
8.612,0.01252
8.616,-0.02301
8.62,-0.02143
8.624,0.00429
8.628,-0.01141
8.632,0.00475
8.636,0.01424
8.64,-0.02116
8.644,-0.00463
8.648,0.01206
8.652,-0.01884
8.656,-0.01272
8.66,-0.01989
8.664,-0.01429
8.668,-0.01454
8.672,0.00556
8.676,0.01014
8.68,0.02037
8.684,0.00894
8.688,0.00408
8.692,0.03186
8.696,-0.00703
8.7,0.00694
8.704,0.04778
8.708,0.0497
8.712,0.03535
8.716,0.00864
8.72,0.05201
8.724,0.05555
8.728,0.03449
8.732,0.06005
8.736,0.10077
8.74,0.07404
8.744,0.11045
8.748,0.13169
8.752,0.12145
8.756,0.15247
8.76,0.14816
8.764,0.12842
8.768,0.16392
8.772,0.18288
8.776,0.19531
8.78,0.20952
8.784,0.21518
8.788,0.22708
8.792,0.19196
8.796,0.18511
8.8,0.19522
8.804,0.19163
8.808,0.19185
8.812,0.19922
8.816,0.16688
8.82,0.17389
8.824,0.1567
8.828,0.17787
8.832,0.17004
8.836,0.14215
8.84,0.11101
8.844,0.10337
8.848,0.09192
8.852,0.10266
8.856,0.08338
8.86,0.045
8.864,0.04414
8.868,0.07477
8.872,0.02422
8.876,0.04537
8.88,0.00859
8.884,-0.0097
8.888,0.01874
8.892,0.03457
8.896,-0.01276
8.9,0.01072
8.904,0.0113
8.908,8e-05
8.912,-0.00656
8.916,-0.03928
8.92,-0.00039
8.924,-0.00693
8.928,0.01802
8.932,-0.02813
8.936,-0.01817
8.94,-0.03853
8.944,-0.00523
8.948,0.00469
8.952,-0.02058
8.956,-0.00668
8.96,-0.0218
8.964,-0.00157
8.968,-0.01173
8.972,0.00151
8.976,-0.04822
8.98,0.0004
8.984,-0.0067
8.988,-0.03016
8.992,0.00942
8.996,-0.04562
9.0,-0.03285
9.004,-0.01227
9.008,-0.01196
9.012,-0.00366
9.016,-2e-05
9.02,0.00977
9.024,0.02678
9.028,0.00142
9.032,0.04302
9.036,0.05513
9.04,0.06088
9.044,0.05687
9.048,0.06814
9.052,0.08471
9.056,0.07688
9.06,0.07449
9.064,0.05147
9.068,0.06128
9.072,0.02859
9.076,0.0498
9.08,0.04205
9.084,0.00172
9.088,0.0059
9.092,-0.00545
9.096,-0.00201
9.1,-0.0122
9.104,-0.02566
9.108,-0.03019
9.112,-0.00492
9.116,-0.01356
9.12,-0.03818
9.124,-0.0072
9.128,-0.00453
9.132,0.03393
9.136,0.01071
9.14,-0.0172
9.144,-0.01294
9.148,-0.0171
9.152,0.00031
9.156,-0.02743
9.16,-0.02147
9.164,-0.02382
9.168,-0.04807
9.172,-0.0572
9.176,-0.07327
9.18,-0.13433
9.184,-0.13312
9.188,-0.07634
9.192,0.04351
9.196,0.24466
9.2,0.43283
9.204,0.65203
9.208,0.84098
9.212,0.94243
9.216,0.96388
9.22,0.88986
9.224,0.69274
9.228,0.47688
9.232,0.23906
9.236,0.04398
9.24,-0.11799
9.244,-0.16361
9.248,-0.19252
9.252,-0.18247
9.256,-0.12838
9.26,-0.06679
9.264,-0.04726
9.268,-0.04974
9.272,-0.01758
9.276,0.01007
9.28,-0.05263
9.284,0.00015
9.288,-0.03047
9.292,-0.00253
9.296,0.00685
9.3,-0.01579
9.304,-0.02596
9.308,-0.01509
9.312,-0.01519
9.316,-0.0168
9.32,-0.03319
9.324,-0.02834
9.328,-0.00564
9.332,-0.03108
9.336,-0.0377
9.34,-0.0097
9.344,-0.05445
9.348,-0.03308
9.352,-0.00564
9.356,-0.0376
9.36,-0.01079
9.364,-0.02928
9.368,-0.01742
9.372,-0.03684
9.376,-0.01685
9.38,-0.01364
9.384,-0.02757
9.388,0.00143
9.392,-0.0227
9.396,-0.01169
9.4,-0.01489
9.404,-0.00604
9.408,0.01237
9.412,0.00884
9.416,0.01442
9.42,0.05194
9.424,0.03056
9.428,0.04047
9.432,0.07156
9.436,0.06708
9.44,0.10558
9.444,0.08559
9.448,0.12865
9.452,0.10039
9.456,0.15636
9.46,0.11359
9.464,0.15499
9.468,0.14592
9.472,0.17384
9.476,0.16267
9.48,0.18549
9.484,0.18614
9.488,0.19966
9.492,0.20189
9.496,0.19695
9.5,0.16931
9.504,0.18543
9.508,0.18146
9.512,0.1713
9.516,0.188
9.52,0.16292
9.524,0.11767
9.528,0.13422
9.532,0.10976
9.536,0.12186
9.54,0.10256
9.544,0.09462
9.548,0.06868
9.552,0.07006
9.556,0.04111
9.56,0.04945
9.564,0.06565
9.568,0.03773
9.572,0.04007
9.576,0.02028
9.58,0.03997
9.584,0.01377
9.588,-0.00035
9.592,-0.0087
9.596,-0.00176
9.6,-0.01812
9.604,-0.01954
9.608,0.00601
9.612,-0.007
9.616,-0.04617
9.62,-0.02786
9.624,-0.01025
9.628,-0.02398
9.632,-0.02238
9.636,-0.05347
9.64,-0.00247
9.644,-0.04003
9.648,-0.02636
9.652,0.00106
9.656,-0.02551
9.66,-0.0224
9.664,-0.03972
9.668,-0.01724
9.672,-0.04005
9.676,-0.03549
9.68,-0.02222
9.684,-0.02455
9.688,-0.00376
9.692,-0.00371
9.696,-0.0147
9.7,-0.04302
9.704,-0.03466
9.708,-0.03313
9.712,-0.03425
9.716,-0.05031
9.72,-0.0359
9.724,-0.0288
9.728,-0.02291
9.732,-0.04424
9.736,-0.03348
9.74,-0.03327
9.744,-0.0352
9.748,-0.03191
9.752,-0.02827
9.756,-0.03457
9.76,-0.03304
9.764,-0.0386
9.768,-0.02582
9.772,-0.01258
9.776,-0.0444
9.78,-0.03425
9.784,-0.00702
9.788,0.01919
9.792,0.01048
9.796,-0.0074
9.8,0.0224
9.804,0.02448
9.808,0.0537
9.812,0.06996
9.816,0.05424
9.82,0.11113
9.824,0.08766
9.828,0.0794
9.832,0.04482
9.836,0.04218
9.84,0.02217
9.844,0.01347
9.848,0.00549
9.852,0.01674
9.856,-0.01052
9.86,-0.02168
9.864,-0.0061
9.868,-0.00718
9.872,-0.04535
9.876,-0.03116
9.88,-0.01038
9.884,-0.05897
9.888,-0.01897
9.892,-0.03717
9.896,-0.03741
9.9,-0.03167
9.904,-0.05893
9.908,-0.06187
9.912,-0.01703
9.916,-0.01985
9.92,-0.01426
9.924,-0.03807
9.928,-0.0681
9.932,-0.04507
9.936,-0.07114
9.94,-0.08474
9.944,-0.13127
9.948,-0.13418
9.952,-0.11424
9.956,-0.03068
9.96,0.08481
9.964,0.29624
9.968,0.49585
9.972,0.71165
9.976,0.88276
9.98,0.97745
9.984,0.92636
9.988,0.80945
9.992,0.59363
9.996,0.3466
