t_seg,ecg_mV
0.0,-0.00307
0.004,-0.0202
0.008,-0.00317
0.012,-0.0386
0.016,-0.04189
0.02,-0.02087
0.024,-0.04188
0.028,-0.03121
0.032,-0.02349
0.036,-0.00707
0.04,-0.02892
0.044,-0.03606
0.048,-0.03201
0.052,-0.01779
0.056,-0.03101
0.06,-0.01211
0.064,-0.03058
0.068,-0.03996
0.072,-0.02485
0.076,-0.01569
0.08,-0.00563
0.084,-0.04173
0.088,-0.02697
0.092,-0.00827
0.096,-0.01393
0.1,-0.02495
0.104,-0.02676
0.108,-0.01635
0.112,-0.01827
0.116,-0.01639
0.12,0.0073
0.124,-0.0181
0.128,-0.03594
0.132,-0.03006
0.136,-0.05465
0.14,-0.02315
0.144,-0.01182
0.148,-0.01956
0.152,-0.00845
0.156,-0.01535
0.16,-0.03877
0.164,-0.02036
0.168,-0.0027
0.172,-0.01373
0.176,-0.02735
0.18,-0.04741
0.184,-0.02172
0.188,-0.02733
0.192,-0.04864
0.196,-0.026
0.2,-0.02125
0.204,-0.02498
0.208,-0.03347
0.212,-0.02505
0.216,-0.04816
0.22,-0.01194
0.224,-0.03485
0.228,-0.03796
0.232,-0.00277
0.236,-0.0172
0.24,-0.01635
0.244,-0.0297
0.248,-0.02998
0.252,-0.03844
0.256,-0.01318
0.26,-0.03428
0.264,-0.01183
0.268,-0.04279
0.272,-0.05733
0.276,-0.01201
0.28,-0.02925
0.284,-0.0244
0.288,-0.03232
0.292,-0.00218
0.296,-0.04047
0.3,-0.01794
0.304,-0.0056
0.308,-0.03317
0.312,-0.03524
0.316,-0.04969
0.32,-0.03029
0.324,-0.04246
0.328,-0.03193
0.332,-0.0443
0.336,-0.01781
0.34,-0.04848
0.344,-0.02436
0.348,-0.02979
0.352,-0.02841
0.356,-0.04211
0.36,-0.01522
0.364,0.00052
0.368,-0.00153
0.372,-0.05225
0.376,-0.02167
0.38,-0.05515
0.384,-0.03985
0.388,-0.04552
0.392,-0.04765
0.396,-0.0342
0.4,-0.04023
0.404,-0.02009
0.408,-0.03163
0.412,-0.04455
0.416,-0.02473
0.42,-0.03282
0.424,0.01143
0.428,-0.01951
0.432,-0.01546
0.436,-0.02024
0.44,-0.01881
0.444,-0.00809
0.448,-0.02738
0.452,-0.00615
0.456,0.02432
0.46,-0.02451
0.464,0.02924
0.468,0.02991
0.472,0.05426
0.476,0.02802
0.48,0.05925
0.484,0.06088
0.488,0.06
0.492,0.08032
0.496,0.0567
0.5,0.05798
0.504,0.03616
0.508,0.03579
0.512,0.00768
0.516,0.01256
0.52,-0.00994
0.524,-0.0078
0.528,-0.00378
0.532,-0.03627
0.536,-0.01906
0.54,0.00904
0.544,-0.04143
0.548,-0.05099
0.552,-0.05532
0.556,-0.0395
0.56,-0.03178
0.564,-0.02451
0.568,-0.01171
0.572,-0.00929
0.576,-0.02571
0.58,-0.0243
0.584,-0.01253
0.588,-0.0273
0.592,-0.02516
0.596,-0.03834
0.6,-0.02417
0.604,-0.04212
0.608,-0.06735
0.612,-0.14307
0.616,-0.11716
0.62,-0.10461
0.624,-0.01844
0.628,0.17458
0.632,0.36951
0.636,0.5764
0.64,0.80349
0.644,0.93579
0.648,0.98768
0.652,0.87784
0.656,0.73524
0.66,0.51281
0.664,0.2864
0.668,0.10253
0.672,-0.07085
0.676,-0.16301
0.68,-0.21711
0.684,-0.15729
0.688,-0.14275
0.692,-0.12283
0.696,-0.08031
0.7,-0.04493
0.704,-0.01495
0.708,-0.05189
0.712,-0.05964
0.716,-0.02147
0.72,-0.01557
0.724,-0.02999
0.728,-0.03306
0.732,-0.02086
0.736,-0.04565
0.74,-0.03303
0.744,-0.03509
0.748,-0.02386
0.752,-0.03543
0.756,-0.01388
0.76,-0.0401
0.764,0.00881
0.768,-0.04229
0.772,-0.02248
0.776,-0.02476
0.78,-0.03132
0.784,-0.01447
0.788,-0.03188
0.792,-0.02957
0.796,-0.02772
0.8,-0.02225
0.804,-0.03806
0.808,-0.03622
0.812,-0.02145
0.816,-0.033
0.82,-0.01443
0.824,-0.01978
0.828,0.0268
0.832,0.00346
0.836,0.00918
0.84,-0.0012
0.844,-0.00538
0.848,0.00905
0.852,0.0309
0.856,0.01702
0.86,0.03281
0.864,0.05465
0.868,0.07123
0.872,0.07042
0.876,0.08696
0.88,0.06654
0.884,0.09079
0.888,0.09422
0.892,0.12732
0.896,0.13062
0.9,0.13227
0.904,0.16196
0.908,0.15855
0.912,0.15188
0.916,0.14889
0.92,0.20414
0.924,0.2014
0.928,0.20269
0.932,0.18762
0.936,0.18735
0.94,0.19343
0.944,0.149
0.948,0.16658
0.952,0.15589
0.956,0.13962
0.96,0.14477
0.964,0.14665
0.968,0.13596
0.972,0.09756
0.976,0.11564
0.98,0.0753
0.984,0.04639
0.988,0.05879
0.992,0.07604
0.996,0.04881
1.0,0.03687
1.004,0.04611
1.008,0.01559
1.012,0.01028
1.016,-0.00991
1.02,-0.00019
1.024,0.01151
1.028,-0.02388
1.032,0.00552
1.036,-0.02758
1.04,-0.01923
1.044,-0.0197
1.048,-0.0279
1.052,-0.03075
1.056,-0.03575
1.06,-0.03768
1.064,-0.02345
1.068,-0.03107
1.072,-0.04144
1.076,-0.03318
1.08,-0.02415
1.084,-0.03106
1.088,-0.04232
1.092,-0.01569
1.096,-0.03233
1.1,-0.05463
1.104,-0.02458
1.108,-0.02569
1.112,-0.04571
1.116,-0.03711
1.12,-0.01745
1.124,-0.02461
1.128,-0.03534
1.132,-0.01976
1.136,-0.02871
1.14,-0.0306
1.144,-0.04893
1.148,-0.04539
1.152,-0.03393
1.156,-0.01126
1.16,-0.03125
1.164,-0.03733
1.168,-0.02238
1.172,-0.02455
1.176,-0.01193
1.18,-0.00229
1.184,-0.0328
1.188,-0.05683
1.192,-0.00573
1.196,-0.02306
1.2,-0.01474
1.204,-0.03841
1.208,-0.01748
1.212,-0.02343
1.216,-0.03081
1.22,-0.02393
1.224,-0.01975
1.228,-0.02569
1.232,-0.02665
1.236,-0.04244
1.24,-0.02572
1.244,-0.03795
1.248,-0.03564
1.252,-0.03477
1.256,-0.04847
1.26,-0.01254
1.264,-0.02154
1.268,-0.02708
1.272,-0.0293
1.276,-0.01446
1.28,-0.02516
1.284,-0.03977
1.288,-0.02348
1.292,-0.03887
1.296,-0.03791
1.3,-0.0457
1.304,-0.01573
1.308,-0.01744
1.312,-0.02715
1.316,-0.00432
1.32,-0.00949
1.324,-0.00266
1.328,-0.02126
1.332,-0.05727
1.336,-0.03512
1.34,-0.01602
1.344,-0.02758
1.348,-0.01679
1.352,-0.03143
1.356,-0.00676
1.36,-0.02312
1.364,-0.0467
1.368,-0.03002
1.372,-0.0154
1.376,-0.02165
1.38,-0.0149
1.384,-0.01985
1.388,-0.01637
1.392,-0.03076
1.396,-0.04073
1.4,-0.00884
1.404,-0.00472
1.408,-0.00035
1.412,-0.03577
1.416,-0.02709
1.42,-0.0063
1.424,-0.04704
1.428,-0.01633
1.432,-0.03484
1.436,-0.01381
1.44,-0.0104
1.444,-0.03626
1.448,-0.01299
1.452,-0.02046
1.456,-0.04732
1.46,-0.01012
1.464,-0.01036
1.468,-0.04803
1.472,-0.03787
1.476,-0.02641
1.48,-0.01518
1.484,0.01405
1.488,-0.01384
1.492,-0.03566
1.496,-0.00164
1.5,0.00385
1.504,0.0096
1.508,0.0506
1.512,0.04998
1.516,0.05076
1.52,0.08401
1.524,0.06762
1.528,0.05726
1.532,0.08787
1.536,0.07503
1.54,0.05518
1.544,0.07598
1.548,0.05327
1.552,0.04176
1.556,0.00676
1.56,0.01004
1.564,0.00608
1.568,0.00385
1.572,0.01721
1.576,-0.02801
1.58,-0.00734
1.584,-0.03251
1.588,-0.01596
1.592,-0.02766
1.596,-0.03982
1.6,-0.01786
1.604,-0.00991
1.608,-0.02129
1.612,-0.02572
1.616,-0.03992
1.62,-0.02424
1.624,-0.01714
1.628,-0.02953
1.632,-0.01799
1.636,-0.03226
1.64,-0.00527
1.644,-0.02319
1.648,-0.04899
1.652,-0.09969
1.656,-0.10725
1.66,-0.12423
1.664,-0.07434
1.668,0.03681
1.672,0.21001
1.676,0.41368
1.68,0.6487
1.684,0.83388
1.688,0.96909
1.692,0.96694
1.696,0.90199
1.7,0.69741
1.704,0.45616
1.708,0.23289
1.712,0.03336
1.716,-0.08545
1.72,-0.17837
1.724,-0.20713
1.728,-0.1615
1.732,-0.11653
1.736,-0.08332
1.74,-0.05338
1.744,-0.02571
1.748,-0.01148
1.752,-0.0119
1.756,-0.00621
1.76,-0.00351
1.764,-0.00565
1.768,-0.01178
1.772,-0.00265
1.776,-0.03547
1.78,-0.00428
1.784,0.00088
1.788,-0.03159
1.792,0.00969
1.796,-0.03527
1.8,-0.02099
1.804,-0.0167
1.808,-0.04399
1.812,-0.0317
1.816,-0.04375
1.82,-0.03673
1.824,-0.03136
1.828,-0.00743
1.832,-0.00344
1.836,-0.02052
1.84,-0.01112
1.844,0.02152
1.848,-0.01966
1.852,-0.01648
1.856,-0.01258
1.86,0.00259
1.864,-0.00742
1.868,-0.02261
1.872,-0.00221
1.876,0.00197
1.88,0.01613
1.884,0.04266
1.888,0.02665
1.892,0.025
1.896,0.00789
1.9,0.03033
1.904,0.07564
1.908,0.0676
1.912,0.05897
1.916,0.09781
1.92,0.11116
1.924,0.13465
1.928,0.13488
1.932,0.13912
1.936,0.15318
1.94,0.14803
1.944,0.17277
1.948,0.18133
1.952,0.18974
1.956,0.20666
1.96,0.18755
1.964,0.1983
1.968,0.20545
1.972,0.21134
1.976,0.19051
1.98,0.2028
1.984,0.16638
1.988,0.18085
1.992,0.19109
1.996,0.1634
2.0,0.16011
2.004,0.13653
2.008,0.12333
2.012,0.15615
2.016,0.13899
2.02,0.13243
2.024,0.0912
2.028,0.07806
2.032,0.06376
2.036,0.06121
2.04,0.04423
2.044,0.05667
2.048,0.0443
2.052,0.01776
2.056,0.04053
2.06,0.02201
2.064,0.00462
2.068,0.03471
2.072,-0.00611
2.076,0.01541
2.08,0.01518
2.084,-0.00182
2.088,0.02776
2.092,-0.02317
2.096,-0.02914
2.1,0.00416
2.104,-0.01052
2.108,-0.00105
2.112,-0.01408
2.116,-0.03179
2.12,0.0121
2.124,-0.0214
2.128,-0.0195
2.132,0.00187
2.136,-0.00901
2.14,0.01619
2.144,-0.02732
2.148,-0.02803
2.152,-0.00854
2.156,-0.00014
2.16,0.00982
2.164,-0.00102
2.168,-0.032
2.172,0.00941
2.176,0.0038
2.18,-0.00639
2.184,-0.01616
2.188,0.00795
2.192,-0.00469
2.196,0.01494
2.2,0.00288
2.204,-0.004
2.208,0.01545
2.212,-0.00371
2.216,0.00618
2.22,0.02062
2.224,-0.01643
2.228,0.0058
2.232,0.00028
2.236,0.00128
2.24,0.00738
2.244,-0.00459
2.248,0.00485
2.252,0.00138
2.256,0.00895
2.26,-0.01963
2.264,-0.00413
2.268,0.00264
2.272,-0.00688
2.276,0.00248
2.28,-0.00501
2.284,0.00541
2.288,0.00971
2.292,-0.01749
2.296,0.03357
2.3,-0.01578
2.304,-0.00188
2.308,-0.00114
2.312,0.00281
2.316,0.01449
2.32,-0.00574
2.324,-0.00133
2.328,0.00066
2.332,-0.03081
2.336,0.01939
2.34,0.01566
2.344,0.00926
2.348,0.01317
2.352,-0.00667
2.356,-0.00373
2.36,0.02147
2.364,-0.01942
2.368,0.0177
2.372,-0.00335
2.376,-0.00985
2.38,0.00027
2.384,0.00036
2.388,0.01559
2.392,-0.0055
2.396,0.0339
2.4,0.015
2.404,0.005
2.408,-0.01738
2.412,0.00398
2.416,-0.00182
2.42,0.0213
2.424,0.00362
2.428,0.01117
2.432,0.01121
2.436,-0.01733
2.44,0.03214
2.444,0.00906
2.448,0.0229
2.452,0.05354
2.456,0.07062
2.46,0.07469
2.464,0.0791
2.468,0.08595
2.472,0.0858
2.476,0.06149
2.48,0.06988
2.484,0.09234
2.488,0.12028
2.492,0.05526
2.496,0.07815
2.5,0.0438
2.504,0.05436
2.508,0.04806
2.512,0.04092
2.516,0.01674
2.52,-0.01902
2.524,-0.01047
2.528,0.01619
2.532,0.0172
2.536,0.01228
2.54,0.03628
2.544,0.02255
2.548,-0.00289
2.552,-0.0091
2.556,-0.01162
2.56,0.0208
2.564,0.01498
2.568,-0.01233
2.572,0.0358
2.576,0.02368
2.58,0.00445
2.584,0.01093
2.588,-0.00352
2.592,-0.00819
2.596,-0.05658
2.6,-0.12467
2.604,-0.12241
2.608,-0.06409
2.612,0.03984
2.616,0.21863
2.62,0.41635
2.624,0.64779
2.628,0.85123
2.632,0.98063
2.636,1.005
2.64,0.91677
2.644,0.75321
2.648,0.53246
2.652,0.30889
2.656,0.08813
2.66,-0.0441
2.664,-0.14066
2.668,-0.15753
2.672,-0.15328
2.676,-0.12824
2.68,-0.0599
2.684,-0.02554
2.688,0.02429
2.692,0.02022
2.696,0.02434
2.7,0.00724
2.704,0.02554
2.708,0.01692
2.712,-0.00937
2.716,0.00527
2.72,0.0065
2.724,0.01432
2.728,0.03214
2.732,-0.01263
2.736,0.00588
2.74,0.01444
2.744,0.01309
2.748,0.00513
2.752,0.00843
2.756,0.0205
2.76,0.01471
2.764,0.03335
2.768,0.00231
2.772,0.02347
2.776,-0.0009
2.78,0.00287
2.784,0.02955
2.788,-0.02218
2.792,0.02895
2.796,0.01824
2.8,-0.00912
2.804,0.02698
2.808,0.0228
2.812,0.01551
2.816,0.05553
2.82,0.04283
2.824,0.0077
2.828,0.07679
2.832,0.04332
2.836,0.0567
2.84,0.0721
2.844,0.07738
2.848,0.09276
2.852,0.08008
2.856,0.10967
2.86,0.12391
2.864,0.12486
2.868,0.15458
2.872,0.13383
2.876,0.13338
2.88,0.17028
2.884,0.18589
2.888,0.20154
2.892,0.21831
2.896,0.19908
2.9,0.24055
2.904,0.2386
2.908,0.26069
2.912,0.23246
2.916,0.21261
2.92,0.21663
2.924,0.22549
2.928,0.20684
2.932,0.22363
2.936,0.21277
2.94,0.19498
2.944,0.19061
2.948,0.19785
2.952,0.17431
2.956,0.16675
2.96,0.129
2.964,0.13451
2.968,0.12479
2.972,0.14858
2.976,0.07282
2.98,0.07003
2.984,0.0817
2.988,0.07473
2.992,0.05936
2.996,0.06037
3.0,0.03913
3.004,0.06374
3.008,0.02668
3.012,0.03186
3.016,0.04284
3.02,0.04485
3.024,0.03312
3.028,0.0337
3.032,-0.00043
3.036,0.00951
3.04,0.00834
3.044,0.04477
3.048,0.02311
3.052,0.04374
3.056,0.0443
3.06,0.03328
3.064,0.02073
3.068,0.02867
3.072,0.02128
3.076,0.04806
3.08,0.00204
3.084,0.02995
3.088,0.03336
3.092,0.0216
3.096,-0.00585
3.1,0.02788
3.104,0.03849
3.108,0.01456
3.112,-0.00185
3.116,0.04387
3.12,0.0238
3.124,0.02875
3.128,0.01739
3.132,0.00901
3.136,0.00623
3.14,0.01197
3.144,0.03522
3.148,0.01685
3.152,0.03134
3.156,0.04079
3.16,0.01891
3.164,0.01518
3.168,0.01435
3.172,0.0261
3.176,0.02204
3.18,0.03069
3.184,0.03116
3.188,0.0104
3.192,0.02379
3.196,0.01594
3.2,0.02395
3.204,0.01546
3.208,0.01034
3.212,-0.00591
3.216,0.01417
3.22,0.02375
3.224,0.04598
3.228,0.02866
3.232,0.01715
3.236,0.02189
3.24,0.00514
3.244,0.00484
3.248,0.0344
3.252,0.02842
3.256,0.03531
3.26,0.02351
3.264,0.02315
3.268,0.00277
3.272,0.03541
3.276,0.0115
3.28,0.02515
3.284,0.0187
3.288,0.03911
3.292,0.02302
3.296,0.02146
3.3,0.02742
3.304,-0.00832
3.308,0.01432
3.312,0.02928
3.316,0.04251
3.32,0.02533
3.324,0.02386
3.328,0.04385
3.332,0.03257
3.336,0.00258
3.34,0.04014
3.344,0.03798
3.348,0.00372
3.352,0.05873
3.356,-0.00754
3.36,0.02718
3.364,-0.00838
3.368,0.02899
3.372,0.01171
3.376,0.02998
3.38,0.02194
3.384,0.02574
3.388,0.02159
3.392,0.02546
3.396,0.02734
3.4,0.038
3.404,0.03174
3.408,0.0339
3.412,0.00349
3.416,0.02555
3.42,0.06555
3.424,0.03162
3.428,0.08195
3.432,0.06674
3.436,0.05633
3.44,0.08846
3.444,0.0901
3.448,0.09982
3.452,0.11127
3.456,0.10835
3.46,0.1199
3.464,0.11865
3.468,0.09586
3.472,0.13676
3.476,0.10262
3.48,0.0837
3.484,0.07694
3.488,0.06988
3.492,0.02439
3.496,0.07349
3.5,0.04627
3.504,0.03283
3.508,0.046
3.512,0.0045
3.516,0.03055
3.52,0.0309
3.524,0.00742
3.528,0.02496
3.532,0.01886
3.536,0.02341
3.54,0.03414
3.544,0.02697
3.548,0.00848
3.552,0.01513
3.556,0.04328
3.56,0.07609
3.564,0.02321
3.568,0.02108
3.572,0.01481
3.576,-0.01486
3.58,-0.04074
3.584,-0.06024
3.588,-0.06751
3.592,-0.0639
3.596,0.03921
3.6,0.19707
3.604,0.39638
3.608,0.59604
3.612,0.83567
3.616,0.97969
3.62,1.0094
3.624,0.95735
3.628,0.80956
3.632,0.56292
3.636,0.36631
3.64,0.15791
3.644,-0.01437
3.648,-0.12845
3.652,-0.13097
3.656,-0.15076
3.66,-0.06034
3.664,-0.03028
3.668,-0.01597
3.672,0.0326
3.676,0.0195
3.68,0.01889
3.684,0.02242
3.688,0.02296
3.692,0.00444
3.696,0.03605
3.7,0.04546
3.704,0.05446
3.708,0.03513
3.712,0.01382
3.716,0.01843
3.72,0.03165
3.724,0.01431
3.728,0.01842
3.732,0.02268
3.736,0.03349
3.74,0.02041
3.744,0.00916
3.748,0.04508
3.752,0.02751
3.756,0.03721
3.76,0.02603
3.764,0.0074
3.768,0.05218
3.772,0.03025
3.776,0.03788
3.78,0.05452
3.784,0.04999
3.788,0.0542
3.792,0.03379
3.796,0.03775
3.8,0.03443
3.804,0.05985
3.808,0.04937
3.812,0.06156
3.816,0.059
3.82,0.04788
3.824,0.10046
3.828,0.07304
3.832,0.0927
3.836,0.09745
3.84,0.12473
3.844,0.13026
3.848,0.13914
3.852,0.14128
3.856,0.16194
3.86,0.20345
3.864,0.17967
3.868,0.19126
3.872,0.20559
3.876,0.23529
3.88,0.25203
3.884,0.23805
3.888,0.22608
3.892,0.25924
3.896,0.26379
3.9,0.24694
3.904,0.2336
3.908,0.23892
3.912,0.27834
3.916,0.2375
3.92,0.21514
3.924,0.21712
3.928,0.21319
3.932,0.20322
3.936,0.18417
3.94,0.17054
3.944,0.1814
3.948,0.15414
3.952,0.11874
3.956,0.13363
3.96,0.12966
3.964,0.1093
3.968,0.1061
3.972,0.06082
3.976,0.08335
3.98,0.08673
3.984,0.10066
3.988,0.06723
3.992,0.07071
3.996,0.05478
4.0,0.03709
4.004,0.06285
4.008,0.03855
4.012,0.03054
4.016,0.01269
4.02,0.04122
4.024,0.04056
4.028,0.02602
4.032,0.03061
4.036,0.02712
4.04,0.01811
4.044,0.04743
4.048,0.0119
4.052,0.03558
4.056,0.04068
4.06,0.03181
4.064,0.02082
4.068,0.02108
4.072,0.04369
4.076,0.0347
4.08,0.02972
4.084,0.03669
4.088,0.03964
4.092,0.04554
4.096,0.02944
4.1,0.04449
4.104,0.0395
4.108,0.01718
4.112,0.03262
4.116,0.04796
4.12,0.0184
4.124,0.02249
4.128,0.06135
4.132,0.0517
4.136,0.01589
4.14,0.01704
4.144,0.02862
4.148,0.03036
4.152,0.04641
4.156,0.0359
4.16,0.04047
4.164,0.02249
4.168,0.01734
4.172,0.01247
4.176,0.04492
4.18,0.01361
4.184,0.01148
4.188,0.03162
4.192,0.03824
4.196,0.02867
4.2,0.02706
4.204,0.02483
4.208,0.00943
4.212,0.01934
4.216,0.01007
4.22,0.02686
4.224,0.01022
4.228,0.02488
4.232,0.04578
4.236,0.03982
4.24,0.03405
4.244,0.05683
4.248,0.02392
4.252,0.02891
4.256,0.03084
4.26,0.03398
4.264,0.01543
4.268,0.053
4.272,0.04939
4.276,0.01599
4.28,0.01845
4.284,0.03811
4.288,0.02533
4.292,0.03057
4.296,-0.00052
4.3,0.0212
4.304,0.02788
4.308,0.05262
4.312,0.04029
4.316,0.05329
4.32,0.02849
4.324,0.04406
4.328,0.02403
4.332,0.03853
4.336,0.01913
4.34,0.022
4.344,0.01317
4.348,0.04109
4.352,0.02456
4.356,0.03623
4.36,-0.01075
4.364,0.02472
4.368,0.03952
4.372,0.04624
4.376,0.0578
4.38,0.05471
4.384,0.11015
4.388,0.07567
4.392,0.09881
4.396,0.10154
4.4,0.11561
4.404,0.15183
4.408,0.09195
4.412,0.1207
4.416,0.12328
4.42,0.11855
4.424,0.10986
4.428,0.07479
4.432,0.09727
4.436,0.06951
4.44,0.04456
4.444,0.04031
4.448,0.0602
4.452,0.02893
4.456,0.00905
4.46,0.06696
4.464,0.03265
4.468,0.03062
4.472,0.00664
4.476,0.01202
4.48,0.01595
4.484,0.05665
4.488,0.03422
4.492,0.01613
4.496,0.04776
4.5,0.0597
4.504,0.03768
4.508,0.04662
4.512,0.02951
4.516,0.04285
4.52,0.03041
4.524,-0.00539
4.528,-0.03323
4.532,-0.07106
4.536,-0.09231
4.54,-0.06273
4.544,0.02995
4.548,0.20168
4.552,0.41302
4.556,0.59042
4.56,0.83027
4.564,0.99299
4.568,1.03075
4.572,0.96712
4.576,0.83813
4.58,0.60263
4.584,0.38559
4.588,0.1578
4.592,-0.00681
4.596,-0.10338
4.6,-0.11975
4.604,-0.14332
4.608,-0.09405
4.612,-0.04714
4.616,-0.01993
4.62,0.01447
4.624,0.04283
4.628,0.02386
4.632,0.02161
4.636,0.03104
4.64,0.02021
4.644,0.03452
4.648,0.04173
4.652,0.02459
4.656,0.007
4.66,0.00211
4.664,0.02513
4.668,0.03079
4.672,0.02778
4.676,0.03331
4.68,0.02328
4.684,0.03081
4.688,0.06077
4.692,0.0058
4.696,0.03544
4.7,0.02302
4.704,0.02298
4.708,0.04299
4.712,0.01331
4.716,0.0283
4.72,0.03888
4.724,0.02559
4.728,0.03262
4.732,0.03303
4.736,0.01951
4.74,0.06564
4.744,0.04101
4.748,0.05739
4.752,0.02984
4.756,0.04331
4.76,0.04429
4.764,0.06605
4.768,0.04001
4.772,0.05788
4.776,0.08425
4.78,0.12644
4.784,0.06894
4.788,0.12092
4.792,0.11395
4.796,0.14535
4.8,0.13864
4.804,0.1792
4.808,0.18
4.812,0.21077
4.816,0.20292
4.82,0.20709
4.824,0.20338
4.828,0.24529
4.832,0.23612
4.836,0.20746
4.84,0.24895
4.844,0.23582
4.848,0.23933
4.852,0.24168
4.856,0.24447
4.86,0.25848
4.864,0.22262
4.868,0.22544
4.872,0.20769
4.876,0.20059
4.88,0.22255
4.884,0.18526
4.888,0.1655
4.892,0.16839
4.896,0.15932
4.9,0.12398
4.904,0.1114
4.908,0.1133
4.912,0.08882
4.916,0.08576
4.92,0.08669
4.924,0.07933
4.928,0.0632
4.932,0.07006
4.936,0.06214
4.94,0.03086
4.944,0.05113
4.948,0.03772
4.952,0.0374
4.956,0.04691
4.96,0.04469
4.964,0.04555
4.968,0.00393
4.972,0.03507
4.976,0.01974
4.98,0.03255
4.984,0.00529
4.988,0.04243
4.992,0.01195
4.996,0.00195
5.0,0.04275
5.004,-0.01691
5.008,0.02153
5.012,0.03664
5.016,-0.00608
5.02,0.00906
5.024,0.01607
5.028,0.02286
5.032,-0.01846
5.036,0.01029
5.04,0.04049
5.044,0.03442
5.048,-0.01489
5.052,0.03328
5.056,-0.00473
5.06,-0.00625
5.064,0.01393
5.068,-0.01033
5.072,-0.00684
5.076,0.02374
5.08,0.0231
5.084,0.01446
5.088,0.02493
5.092,0.01131
5.096,0.0216
5.1,0.01791
5.104,-0.00121
5.108,0.02142
5.112,0.02731
5.116,0.02597
5.12,0.03477
5.124,0.01236
5.128,-0.00258
5.132,-0.01599
5.136,0.02968
5.14,-0.00078
5.144,0.01029
5.148,0.03245
5.152,0.00389
5.156,0.01353
5.16,0.02771
5.164,0.02609
5.168,0.00773
5.172,0.01831
5.176,0.00989
5.18,0.00178
5.184,0.02159
5.188,0.01061
5.192,-0.00992
5.196,0.02434
5.2,0.00337
5.204,0.00921
5.208,0.03617
5.212,-0.00566
5.216,0.01084
5.22,0.03115
5.224,0.01751
5.228,-0.00926
5.232,0.011
5.236,0.01047
5.24,0.02862
5.244,0.00215
5.248,-0.00113
5.252,0.00284
5.256,0.00596
5.26,0.01855
5.264,0.0158
5.268,0.00819
5.272,0.00515
5.276,-0.00384
5.28,0.00736
5.284,-0.0041
5.288,0.01162
5.292,0.00373
5.296,0.0074
5.3,-0.00097
5.304,0.00096
5.308,-0.01489
5.312,0.01585
5.316,0.00898
5.32,0.02541
5.324,0.03582
5.328,0.04262
5.332,0.01098
5.336,0.00167
5.34,0.00831
5.344,0.00048
5.348,0.01128
5.352,0.02999
5.356,0.03197
5.36,-0.00128
5.364,-0.00589
5.368,0.01682
5.372,0.02524
5.376,0.02509
5.38,-0.01292
5.384,-0.00705
5.388,0.01507
5.392,0.00524
5.396,0.00926
5.4,0.00643
5.404,0.02308
5.408,0.02717
5.412,0.02249
5.416,0.02021
5.42,0.00882
5.424,-0.00013
5.428,0.00825
5.432,0.00015
5.436,0.00792
5.44,-0.00159
5.444,-0.00437
5.448,0.01662
5.452,-0.00058
5.456,0.0357
5.46,-0.00644
5.464,-0.01007
5.468,-0.00478
5.472,0.00096
5.476,0.04178
5.48,0.00203
5.484,0.00602
5.488,-0.03041
5.492,0.00627
5.496,-0.00609
5.5,0.02497
5.504,-0.01132
5.508,-0.00346
5.512,0.0058
5.516,0.01795
5.52,-0.01489
5.524,-0.0012
5.528,-0.00082
5.532,0.00563
5.536,0.01776
5.54,0.02348
5.544,-0.00548
5.548,0.00644
5.552,-0.01679
5.556,0.00707
5.56,-0.01105
5.564,0.01975
5.568,-0.00356
5.572,0.02858
5.576,0.00496
5.58,0.01171
5.584,0.02135
5.588,0.00017
5.592,0.00687
5.596,-0.00608
5.6,0.02405
5.604,0.01588
5.608,0.00209
5.612,0.01117
5.616,0.0001
5.62,0.01768
5.624,0.03762
5.628,0.00375
5.632,0.02791
5.636,0.02226
5.64,0.04359
5.644,0.0971
5.648,0.0965
5.652,0.08275
5.656,0.08738
5.66,0.08788
5.664,0.10298
5.668,0.09409
5.672,0.0799
5.676,0.08086
5.68,0.07225
5.684,0.06364
5.688,0.05393
5.692,0.02449
5.696,0.04174
5.7,0.02753
5.704,0.01878
5.708,0.0262
5.712,-0.00085
5.716,-0.01287
5.72,-0.00934
5.724,0.00989
5.728,0.01085
5.732,-0.0095
5.736,0.00203
5.74,-0.00401
5.744,0.0026
5.748,-0.01148
5.752,-0.02886
5.756,-0.00283
5.76,0.0095
5.764,0.00468
5.768,0.01474
5.772,-0.00086
5.776,-0.01676
5.78,-0.04185
5.784,-0.09321
5.788,-0.10494
5.792,-0.10664
5.796,-0.03823
5.8,0.11813
5.804,0.27054
5.808,0.50915
5.812,0.72065
5.816,0.91282
5.82,0.96674
5.824,0.96648
5.828,0.84994
5.832,0.66455
5.836,0.43376
5.84,0.18354
5.844,0.02589
5.848,-0.09588
5.852,-0.17111
5.856,-0.16831
5.86,-0.15458
5.864,-0.08589
5.868,-0.05105
5.872,-0.02587
5.876,0.00071
5.88,0.00454
5.884,0.00209
5.888,0.00951
5.892,0.01326
5.896,0.00801
5.9,-0.02586
5.904,-0.02697
5.908,-0.00092
5.912,-0.00388
5.916,0.00129
5.92,0.01634
5.924,-0.03295
5.928,0.00227
5.932,-0.02684
5.936,-0.01726
5.94,-0.0165
5.944,-0.0037
5.948,-0.01845
5.952,0.01146
5.956,0.01553
5.96,-0.00164
5.964,0.00136
5.968,-0.03051
5.972,-0.00515
5.976,-0.00291
5.98,-0.01169
5.984,-0.00526
5.988,0.01132
5.992,-0.00772
5.996,-0.00085
6.0,0.01228
6.004,-0.01284
6.008,0.01179
6.012,0.00349
6.016,0.03139
6.02,0.04451
6.024,0.03824
6.028,0.04516
6.032,0.0606
6.036,0.07004
6.04,0.09555
6.044,0.08088
6.048,0.1115
6.052,0.09835
6.056,0.11605
6.06,0.11718
6.064,0.16908
6.068,0.18226
6.072,0.17338
6.076,0.1867
6.08,0.20902
6.084,0.16035
6.088,0.20283
6.092,0.22226
6.096,0.19981
6.1,0.21741
6.104,0.20079
6.108,0.2145
6.112,0.22051
6.116,0.24067
6.12,0.20955
6.124,0.19117
6.128,0.1556
6.132,0.13632
6.136,0.14895
6.14,0.14703
6.144,0.15181
6.148,0.12905
6.152,0.10744
6.156,0.08844
6.16,0.0977
6.164,0.06814
6.168,0.04438
6.172,0.0616
6.176,0.05992
6.18,0.02414
6.184,0.0325
6.188,0.00384
6.192,0.03418
6.196,0.02261
6.2,0.01886
6.204,-0.00305
6.208,0.00983
6.212,0.0008
6.216,0.00091
6.22,-0.03039
6.224,-0.02916
6.228,0.00199
6.232,-0.01177
6.236,-0.03505
6.24,-0.01672
6.244,-0.00088
6.248,-0.01993
6.252,-0.01564
6.256,-0.01814
6.26,-0.01967
6.264,-0.03564
6.268,0.00456
6.272,-0.00397
6.276,-0.02178
6.28,-0.01695
6.284,-0.02308
6.288,-0.00346
6.292,-0.01093
6.296,0.02297
6.3,-0.01539
6.304,-0.0334
6.308,-0.0329
6.312,0.01111
6.316,-0.01942
6.32,-0.03741
6.324,-0.00501
6.328,-0.02045
6.332,-0.0288
6.336,-0.0012
6.34,-0.02093
6.344,-0.01913
6.348,-0.02486
6.352,0.00611
6.356,-0.03618
6.36,-0.01688
6.364,-0.02178
6.368,-0.02541
6.372,-0.02659
6.376,-0.04058
6.38,-0.02058
6.384,-0.04915
6.388,0.01955
6.392,-0.00934
6.396,-0.03669
6.4,-0.00429
6.404,-0.04648
6.408,-0.03813
6.412,-0.01627
6.416,-0.00998
6.42,-0.01793
6.424,-0.01471
6.428,-0.00948
6.432,-0.01333
6.436,-0.02733
6.44,-0.03782
6.444,-0.03401
6.448,-0.02261
6.452,0.00086
6.456,-0.02726
6.46,-0.03211
6.464,-0.04521
6.468,-0.03062
6.472,-0.02771
6.476,-0.03664
6.48,-0.01312
6.484,-0.00608
6.488,-0.00669
6.492,-0.04335
6.496,-0.03552
6.5,-0.03681
6.504,-0.01744
6.508,-0.04542
6.512,-0.0449
6.516,-0.0113
6.52,-0.00516
6.524,-0.02534
6.528,-0.03172
6.532,-0.03192
6.536,-0.0417
6.54,-0.02782
6.544,-0.02411
6.548,-0.01539
6.552,-0.02849
6.556,0.0018
6.56,-0.0184
6.564,-0.02481
6.568,-0.02864
6.572,-0.03321
6.576,0.01195
6.58,-0.0015
6.584,-0.00589
6.588,-0.02272
6.592,0.00029
6.596,-0.03123
6.6,-0.00909
6.604,-0.02584
6.608,-0.00886
6.612,-0.02463
6.616,-0.04955
6.62,-0.00325
6.624,-0.01742
6.628,-0.02165
6.632,-0.04625
6.636,-0.02191
6.64,-0.01293
6.644,-0.01371
6.648,-0.02943
6.652,-0.04888
6.656,-0.01416
6.66,-0.00929
6.664,-0.00718
6.668,-0.01612
6.672,-0.03538
6.676,-0.02434
6.68,-0.01808
6.684,-0.02265
6.688,-0.01568
6.692,-0.03322
6.696,-0.05522
6.7,-0.02068
6.704,0.03069
6.708,0.00215
6.712,0.02768
6.716,0.02529
6.72,0.06435
6.724,0.03935
6.728,0.04117
6.732,0.05235
6.736,0.09489
6.74,0.05872
6.744,0.11074
6.748,0.07266
6.752,0.08837
6.756,0.0815
6.76,0.061
6.764,0.06096
6.768,0.03657
6.772,0.01515
6.776,-0.00117
6.78,-0.02838
6.784,-0.01779
6.788,-0.0234
6.792,-0.01676
6.796,-0.00735
6.8,-0.03266
6.804,-0.01785
6.808,-0.02322
6.812,-0.02042
6.816,-0.03691
6.82,-0.01894
6.824,0.00421
6.828,-0.01763
6.832,-0.04336
6.836,-0.03593
6.84,-0.02102
6.844,-0.0125
6.848,0.00073
6.852,-0.04182
6.856,-0.09371
6.86,-0.07728
6.864,-0.12015
6.868,-0.15033
6.872,-0.09711
6.876,-0.04046
6.88,0.145
6.884,0.31785
6.888,0.53083
6.892,0.75528
6.896,0.88806
6.9,0.95984
6.904,0.92718
6.908,0.80935
6.912,0.59278
6.916,0.32477
6.92,0.10222
6.924,-0.05472
6.928,-0.15769
6.932,-0.21264
6.936,-0.19474
6.94,-0.16261
6.944,-0.10332
6.948,-0.06743
6.952,-0.04001
6.956,-0.02881
6.96,-0.02449
6.964,-0.00978
6.968,-0.04803
6.972,-0.03925
6.976,-0.03121
6.98,0.01415
6.984,-0.03481
6.988,-0.01898
6.992,-0.03335
6.996,-0.03207
7.0,-0.0307
7.004,-0.03785
7.008,-0.04635
7.012,-0.02798
7.016,-0.04077
7.02,-0.01246
7.024,-0.0403
7.028,-0.0398
7.032,-0.02669
7.036,-0.05645
7.04,-0.03197
7.044,-0.00808
7.048,-0.0347
7.052,-0.01206
7.056,-0.03072
7.06,-0.05581
7.064,0.01183
7.068,-0.0186
7.072,-0.02311
7.076,0.00093
7.08,0.01506
7.084,-0.00554
7.088,-0.01002
7.092,-0.0115
7.096,0.02338
7.1,0.05148
7.104,0.02322
7.108,0.03129
7.112,0.05378
7.116,0.04341
7.12,0.04598
7.124,0.07182
7.128,0.07062
7.132,0.11672
7.136,0.10011
7.14,0.12931
7.144,0.11487
7.148,0.17586
7.152,0.1689
7.156,0.16995
7.16,0.18513
7.164,0.15655
7.168,0.18929
7.172,0.15477
7.176,0.21043
7.18,0.19949
7.184,0.20002
7.188,0.19842
7.192,0.17101
7.196,0.16822
7.2,0.17677
7.204,0.1836
7.208,0.12396
7.212,0.14638
7.216,0.13154
7.22,0.13876
7.224,0.09006
7.228,0.09071
7.232,0.10273
7.236,0.05244
7.24,0.07977
7.244,0.03381
7.248,0.03122
7.252,0.06764
7.256,0.02752
7.26,0.04348
7.264,0.0038
7.268,0.00057
7.272,-0.0177
7.276,-0.01538
7.28,-0.02876
7.284,-0.00103
7.288,-0.01352
7.292,-0.02225
7.296,-0.03967
7.3,-0.00595
7.304,-0.02366
7.308,-0.02362
7.312,-0.0207
7.316,-0.03634
7.32,-0.03022
7.324,-0.02614
7.328,-0.0505
7.332,-0.03098
7.336,-0.03483
7.34,-0.02162
7.344,-0.05301
7.348,-0.03313
7.352,-0.02059
7.356,-0.03582
7.36,-0.04084
7.364,-0.0137
7.368,-0.03981
7.372,-0.01693
7.376,-0.02735
7.38,-0.03535
7.384,-0.03599
7.388,-0.03113
7.392,-0.02632
7.396,-0.05975
7.4,-0.05101
7.404,-0.00915
7.408,-0.04651
7.412,-0.02383
7.416,-0.04996
7.42,-0.07618
7.424,-0.03323
7.428,-0.01527
7.432,-0.02731
7.436,-0.03158
7.44,-0.00916
7.444,-0.01724
7.448,-0.03488
7.452,-0.00439
7.456,-0.05145
7.46,-0.01061
7.464,-0.04548
7.468,-0.01889
7.472,-0.03288
7.476,-0.02128
7.48,-0.02098
7.484,-0.02689
7.488,-0.01186
7.492,-0.01547
7.496,-0.02621
7.5,-0.03489
7.504,-0.02169
7.508,-0.03794
7.512,-0.03526
7.516,-0.02924
7.52,-0.02886
7.524,-0.06581
7.528,-0.03366
7.532,-0.03886
7.536,-0.01505
7.54,-0.03641
7.544,-0.01793
7.548,-0.03917
7.552,-0.04332
7.556,-0.01934
7.56,-0.03578
7.564,-0.02222
7.568,-0.02043
7.572,-0.03146
7.576,-0.04169
7.58,-0.01102
7.584,0.00538
7.588,-0.03606
7.592,-0.03627
7.596,-0.03361
7.6,-0.0404
7.604,-0.01627
7.608,-0.01929
7.612,-0.04214
7.616,-0.01878
7.62,-0.00498
7.624,-0.0304
7.628,-0.01666
7.632,-0.02329
7.636,-0.05414
7.64,-0.04065
7.644,-0.00739
7.648,-0.03315
7.652,-0.01146
7.656,-0.02945
7.66,-0.02291
7.664,-0.04918
7.668,-0.04385
7.672,-0.04151
7.676,-0.02361
7.68,-0.02411
7.684,-0.03597
7.688,-0.04846
7.692,-0.01993
7.696,-0.03761
7.7,-0.02483
7.704,-0.00944
7.708,-0.03704
7.712,-0.0271
7.716,-0.04579
7.72,-0.03239
7.724,-0.01689
7.728,-0.01456
7.732,-0.042
7.736,-0.02655
7.74,-0.01572
7.744,-0.02556
7.748,-0.02241
7.752,-0.03151
7.756,-0.02214
7.76,-0.05259
7.764,-0.03867
7.768,-0.0099
7.772,-0.03511
7.776,-0.02767
7.78,-0.00479
7.784,0.0028
7.788,-0.00656
7.792,-0.02041
7.796,-0.04448
7.8,-0.04806
7.804,-0.02159
7.808,-0.0235
7.812,-0.00763
7.816,-0.00581
7.82,0.00867
7.824,-0.03104
7.828,-0.01357
7.832,-0.03905
7.836,-0.0227
7.84,-0.04516
7.844,-0.0277
7.848,-0.03445
7.852,-0.01715
7.856,-0.02798
7.86,-0.01434
7.864,-0.05507
7.868,-0.006
7.872,-0.03612
7.876,-0.03034
7.88,0.00142
7.884,-0.00184
7.888,0.00594
7.892,-0.02391
7.896,0.00347
7.9,-0.00029
7.904,0.03405
7.908,0.02972
7.912,0.03984
7.916,0.06855
7.92,0.073
7.924,0.06794
7.928,0.07462
7.932,0.08147
7.936,0.04525
7.94,0.06259
7.944,0.05214
7.948,0.03528
7.952,0.01446
7.956,0.00865
7.96,-0.00478
7.964,-0.01767
7.968,-0.0162
7.972,-0.03192
7.976,-0.02519
7.98,-0.04391
7.984,-0.02797
7.988,-0.01442
7.992,-0.02784
7.996,-0.02971
8.0,-0.01443
8.004,-0.0174
8.008,-0.06243
8.012,-0.04237
8.016,-0.00932
8.02,-0.04979
8.024,-0.01919
8.028,-0.00506
8.032,-0.02103
8.036,-0.02377
8.04,-0.05295
8.044,-0.07417
8.048,-0.13591
8.052,-0.14401
8.056,-0.08821
8.06,-0.04951
8.064,0.1097
8.068,0.32074
8.072,0.55537
8.076,0.73558
8.08,0.88727
8.084,0.99335
8.088,0.94032
8.092,0.78488
8.096,0.59349
8.1,0.36145
8.104,0.14863
8.108,-0.02121
8.112,-0.15742
8.116,-0.20451
8.12,-0.19867
8.124,-0.15168
8.128,-0.12202
8.132,-0.05081
8.136,-0.06286
8.14,-0.01422
8.144,-0.04367
8.148,0.003
8.152,0.00684
8.156,-0.01363
8.16,-0.02335
8.164,-0.04323
8.168,-0.0214
8.172,-0.01118
8.176,-0.01338
8.18,-0.0187
8.184,-0.02136
8.188,-0.02124
8.192,-0.03975
8.196,-0.001
8.2,-0.02153
8.204,-0.03909
8.208,-0.01956
8.212,-0.00772
8.216,-0.00328
8.22,-0.03902
8.224,-0.00744
8.228,-0.00242
8.232,-0.00791
8.236,-0.05158
8.24,-0.02586
8.244,-0.03228
8.248,0.01354
8.252,-0.00873
8.256,-0.01639
8.26,-0.01711
8.264,0.00343
8.268,0.01331
8.272,-0.01367
8.276,-0.00341
8.28,0.02949
8.284,0.04383
8.288,0.02942
8.292,0.05415
8.296,0.07645
8.3,0.0465
8.304,0.07385
8.308,0.05784
8.312,0.09696
8.316,0.08504
8.32,0.08415
8.324,0.12333
8.328,0.15255
8.332,0.15757
8.336,0.14369
8.34,0.1668
8.344,0.17337
8.348,0.20295
8.352,0.20278
8.356,0.18534
8.36,0.19685
8.364,0.16906
8.368,0.19566
8.372,0.21386
8.376,0.23736
8.38,0.18062
8.384,0.15981
8.388,0.18952
8.392,0.16539
8.396,0.12914
8.4,0.13525
8.404,0.12414
8.408,0.10744
8.412,0.12202
8.416,0.09416
8.42,0.07873
8.424,0.06067
8.428,0.09308
8.432,0.05329
8.436,0.05045
8.44,0.0367
8.444,0.03692
8.448,0.01295
8.452,0.03403
8.456,0.00958
8.46,0.00678
8.464,-0.0165
8.468,-0.0072
8.472,0.02605
8.476,-0.00576
8.48,-0.02553
8.484,-0.03234
8.488,0.0022
8.492,-0.00661
8.496,-0.02874
8.5,-0.01719
8.504,-0.00882
8.508,0.0101
8.512,-0.02133
8.516,-0.02091
8.52,-0.02926
8.524,-0.03044
8.528,-0.00846
8.532,-0.02106
8.536,0.02865
8.54,-0.01163
8.544,0.01
8.548,0.00232
8.552,0.00176
8.556,-0.03429
8.56,-0.00541
8.564,0.00267
8.568,-0.04165
8.572,0.00829
8.576,-0.02235
8.58,0.00772
8.584,-0.02346
8.588,-0.0261
8.592,0.00942
8.596,0.03945
8.6,-0.02916
8.604,0.00552
8.608,0.00138
8.612,-0.01652
8.616,0.00737
8.62,-0.0066
8.624,-0.0027
8.628,-0.00956
8.632,-0.02122
8.636,-0.01711
8.64,0.01007
8.644,-0.01087
8.648,0.00264
8.652,-0.01599
8.656,-0.01631
8.66,-0.00018
8.664,-0.03033
8.668,-0.01659
8.672,-0.03459
8.676,-0.00462
8.68,-0.05138
8.684,-0.03304
8.688,-0.01947
8.692,-0.03785
8.696,0.03462
8.7,0.00331
8.704,0.01464
8.708,-0.02553
8.712,-0.02632
8.716,-0.03153
8.72,0.00418
8.724,0.00534
8.728,0.01649
8.732,0.00647
8.736,-0.01544
8.74,-0.02207
8.744,-0.02032
8.748,-0.01471
8.752,0.01223
8.756,-0.00121
8.76,-0.02376
8.764,-0.01673
8.768,0.00071
8.772,0.02765
8.776,0.00021
8.78,-0.00485
8.784,-0.01256
8.788,-0.01807
8.792,-0.00601
8.796,-0.00418
8.8,-0.005
8.804,-0.03624
8.808,-0.02474
8.812,-0.00911
8.816,-0.00146
8.82,-3e-05
8.824,0.01465
8.828,-0.00813
8.832,-0.0089
8.836,0.00161
8.84,0.01194
8.844,0.00274
8.848,0.02966
8.852,0.08245
8.856,0.06638
8.86,0.04575
8.864,0.07133
8.868,0.12715
8.872,0.09874
8.876,0.10325
8.88,0.11636
8.884,0.06213
8.888,0.05616
8.892,0.05673
8.896,0.05891
8.9,0.0398
8.904,0.00967
8.908,0.03986
8.912,0.01515
8.916,0.0061
8.92,0.0117
8.924,0.02948
8.928,0.00244
8.932,-0.01439
8.936,-0.02091
8.94,-0.03203
8.944,-0.00744
8.948,0.00455
8.952,-0.00108
8.956,0.02238
8.96,-0.01892
8.964,-0.00661
8.968,-0.00094
8.972,-0.01569
8.976,0.02384
8.98,-0.0007
8.984,-0.01739
8.988,-0.01025
8.992,-0.05967
8.996,-0.06733
9.0,-0.14141
9.004,-0.11272
9.008,-0.01746
9.012,0.14136
9.016,0.34345
9.02,0.55451
9.024,0.75483
9.028,0.95413
9.032,0.98926
9.036,0.9456
9.04,0.84781
9.044,0.62492
9.048,0.38702
9.052,0.18403
9.056,-0.00204
9.06,-0.11885
9.064,-0.16251
9.068,-0.17187
9.072,-0.11095
9.076,-0.07988
9.08,-0.01416
9.084,0.00964
9.088,-0.01174
9.092,0.01102
9.096,0.01797
9.1,-0.00809
9.104,0.00115
9.108,0.00139
9.112,-0.00212
9.116,0.01166
9.12,0.00408
9.124,0.00448
9.128,0.00417
9.132,-0.01277
9.136,-0.01043
9.14,0.00376
9.144,0.01736
9.148,-0.00804
9.152,-0.00174
9.156,0.01464
9.16,-0.01819
9.164,-0.00218
9.168,0.02773
9.172,0.00638
9.176,0.02305
9.18,0.01782
9.184,-0.01971
9.188,0.02868
9.192,0.01899
9.196,0.02668
9.2,0.03442
9.204,0.00295
9.208,0.00037
9.212,-0.00086
9.216,-0.00764
9.22,0.05484
9.224,0.0166
9.228,0.08313
9.232,0.04266
9.236,0.08877
9.24,0.05497
9.244,0.09277
9.248,0.10481
9.252,0.09806
9.256,0.13676
9.26,0.11346
9.264,0.13072
9.268,0.13557
9.272,0.14049
9.276,0.16266
9.28,0.15267
9.284,0.17729
9.288,0.16462
9.292,0.21717
9.296,0.23155
9.3,0.21754
9.304,0.2381
9.308,0.21838
9.312,0.21427
9.316,0.2056
9.32,0.22918
9.324,0.22202
9.328,0.21906
9.332,0.23831
9.336,0.20176
9.34,0.20799
9.344,0.17142
9.348,0.15609
9.352,0.16315
9.356,0.1054
9.36,0.16323
9.364,0.13002
9.368,0.09816
9.372,0.09603
9.376,0.0852
9.38,0.08511
9.384,0.06581
9.388,0.06455
9.392,0.06356
9.396,0.04523
9.4,0.05624
9.404,0.05258
9.408,0.04154
9.412,0.03389
9.416,0.01183
9.42,0.02464
9.424,0.04904
9.428,0.03073
9.432,0.02211
9.436,0.02025
9.44,0.01956
9.444,-0.00742
9.448,0.03062
9.452,-0.007
9.456,-0.01139
9.46,-0.01349
9.464,0.02121
9.468,0.04714
9.472,-0.00285
9.476,0.01749
9.48,0.03179
9.484,-0.00289
9.488,0.02193
9.492,0.0068
9.496,-0.0265
9.5,0.01904
9.504,-0.02074
9.508,-0.00307
9.512,0.04499
9.516,0.0117
9.52,0.00365
9.524,-0.00815
9.528,0.01132
9.532,0.03675
9.536,0.02425
9.54,0.017
9.544,0.03585
9.548,0.052
9.552,0.0294
9.556,0.02027
9.56,0.02064
9.564,0.01909
9.568,0.01412
9.572,0.0077
9.576,-0.00034
9.58,0.02869
9.584,0.02762
9.588,0.04443
9.592,0.00596
9.596,0.01975
9.6,0.0202
9.604,0.02533
9.608,0.02943
9.612,0.01209
9.616,0.02911
9.62,0.05629
9.624,0.03057
9.628,0.02617
9.632,0.00478
9.636,0.04021
9.64,-0.00032
9.644,0.01721
9.648,-0.00204
9.652,0.03045
9.656,-0.00429
9.66,0.02382
9.664,0.02591
9.668,0.03663
9.672,0.02596
9.676,0.00629
9.68,0.01192
9.684,0.0254
9.688,0.00058
9.692,0.041
9.696,0.01146
9.7,0.0548
9.704,-0.01191
9.708,0.00093
9.712,0.04817
9.716,0.00816
9.72,0.00258
9.724,0.01519
9.728,0.00492
9.732,0.02989
9.736,-0.0157
9.74,0.0387
9.744,0.0215
9.748,-0.00115
9.752,0.03797
9.756,-0.00327
9.76,0.01142
9.764,0.01307
9.768,-0.01821
9.772,0.00907
9.776,0.03073
9.78,0.01064
9.784,0.01228
9.788,-0.0096
9.792,0.03858
9.796,0.00849
9.8,0.01904
9.804,0.01688
9.808,0.03506
9.812,-0.00281
9.816,0.02355
9.82,0.00013
9.824,0.03377
9.828,0.04128
9.832,0.00721
9.836,0.01778
9.84,0.03331
9.844,0.02203
9.848,0.03577
9.852,0.01264
9.856,0.02109
9.86,0.04713
9.864,0.01959
9.868,0.01075
9.872,0.01417
9.876,0.01065
9.88,0.04681
9.884,0.01841
9.888,0.03045
9.892,-0.00596
9.896,0.0189
9.9,0.03549
9.904,0.04179
9.908,0.03689
9.912,0.02964
9.916,0.02563
9.92,0.01879
9.924,0.033
9.928,0.04106
9.932,0.0224
9.936,0.00774
9.94,0.02156
9.944,0.02333
9.948,0.0239
9.952,0.02583
9.956,0.03084
9.96,0.03005
9.964,0.00462
9.968,0.01819
9.972,0.01742
9.976,0.02141
9.98,0.02953
9.984,0.01217
9.988,0.02691
9.992,-0.00189
9.996,0.02384
