t_seg,ecg_mV
0.0,0.00988
0.004,-0.0101
0.008,-0.03713
0.012,-0.06731
0.016,0.00109
0.02,-0.03556
0.024,-0.02634
0.028,-0.03247
0.032,-0.02506
0.036,-0.03812
0.04,-0.00938
0.044,-0.04534
0.048,-0.03516
0.052,-0.01911
0.056,-0.01432
0.06,-0.00209
0.064,-0.00447
0.068,-0.02283
0.072,-0.04837
0.076,-0.03129
0.08,-0.03213
0.084,-0.0261
0.088,-0.02874
0.092,-0.02856
0.096,-0.029
0.1,-0.00953
0.104,-0.02895
0.108,-0.00545
0.112,-0.0221
0.116,-0.02541
0.12,-0.02324
0.124,-0.02275
0.128,-0.0441
0.132,-0.0216
0.136,-0.03852
0.14,-0.0321
0.144,-0.02659
0.148,-0.012
0.152,-0.03527
0.156,-0.03569
0.16,-0.04841
0.164,-0.01756
0.168,-0.02804
0.172,-0.02628
0.176,-0.04243
0.18,-0.0147
0.184,-0.01787
0.188,-0.0263
0.192,-0.04647
0.196,-0.02925
0.2,-0.03711
0.204,-0.05168
0.208,-0.04814
0.212,-0.01877
0.216,-0.03986
0.22,-0.05164
0.224,-0.0298
0.228,-0.01834
0.232,-0.01219
0.236,-0.04771
0.24,-0.03418
0.244,-0.0181
0.248,-0.03093
0.252,-0.02401
0.256,-0.04863
0.26,-0.04745
0.264,0.00358
0.268,-0.02057
0.272,-0.02691
0.276,-0.02689
0.28,-0.03573
0.284,-0.03487
0.288,-0.05099
0.292,-0.02708
0.296,-0.02021
0.3,-0.00997
0.304,-0.01104
0.308,0.00128
0.312,0.01778
0.316,0.03225
0.32,0.05785
0.324,0.05443
0.328,0.04669
0.332,0.06066
0.336,0.05304
0.34,0.06429
0.344,0.06595
0.348,0.08613
0.352,0.05625
0.356,0.0544
0.36,0.02208
0.364,0.02113
0.368,-0.01024
0.372,0.00914
0.376,0.01785
0.38,-0.00165
0.384,-0.02123
0.388,-0.03037
0.392,-0.01974
0.396,-0.01958
0.4,0.01128
0.404,-0.05016
0.408,-0.03973
0.412,-0.02509
0.416,-0.03326
0.42,-0.00814
0.424,-0.03686
0.428,-0.03094
0.432,-0.04326
0.436,-0.00893
0.44,-0.00882
0.444,-0.02221
0.448,-0.02431
0.452,-0.01326
0.456,-0.06136
0.46,-0.09441
0.464,-0.09788
0.468,-0.12891
0.472,-0.12203
0.476,-0.00105
0.48,0.12021
0.484,0.31228
0.488,0.54078
0.492,0.75877
0.496,0.89049
0.5,0.94224
0.504,0.9578
0.508,0.79054
0.512,0.57192
0.516,0.33098
0.52,0.12942
0.524,-0.03316
0.528,-0.17151
0.532,-0.19383
0.536,-0.17886
0.54,-0.16267
0.544,-0.08535
0.548,-0.06698
0.552,-0.04611
0.556,-0.02106
0.56,-0.03978
0.564,-0.04304
0.568,0.01052
0.572,-0.00213
0.576,-0.02786
0.58,-0.04501
0.584,-0.0178
0.588,-0.0356
0.592,-0.04389
0.596,-0.02031
0.6,-0.0629
0.604,-0.02937
0.608,-0.03309
0.612,0.00154
0.616,-0.03109
0.62,-0.00846
0.624,-0.02715
0.628,-0.02648
0.632,-0.02673
0.636,-0.01357
0.64,-0.00757
0.644,-0.01935
0.648,-0.01382
0.652,-0.03142
0.656,-0.00968
0.66,-0.0355
0.664,-0.0035
0.668,-0.02315
0.672,-0.00393
0.676,-0.00024
0.68,-0.0001
0.684,-0.00487
0.688,0.00903
0.692,0.01783
0.696,0.02632
0.7,0.01559
0.704,0.0385
0.708,0.02826
0.712,0.0435
0.716,0.06715
0.72,0.07179
0.724,0.08314
0.728,0.093
0.732,0.09637
0.736,0.13604
0.74,0.11952
0.744,0.15402
0.748,0.14514
0.752,0.15153
0.756,0.16473
0.76,0.20761
0.764,0.18143
0.768,0.19598
0.772,0.2196
0.776,0.20397
0.78,0.19473
0.784,0.19326
0.788,0.21388
0.792,0.19267
0.796,0.18556
0.8,0.1798
0.804,0.1761
0.808,0.16665
0.812,0.14613
0.816,0.12535
0.82,0.14785
0.824,0.141
0.828,0.10143
0.832,0.09497
0.836,0.08848
0.84,0.05841
0.844,0.05866
0.848,0.0467
0.852,0.05585
0.856,0.03509
0.86,0.01847
0.864,-0.00425
0.868,0.02052
0.872,0.00588
0.876,-0.03115
0.88,-0.00492
0.884,0.00347
0.888,0.01476
0.892,0.00425
0.896,-0.01079
0.9,0.00792
0.904,-0.02682
0.908,0.00593
0.912,0.00786
0.916,-0.00238
0.92,-0.03283
0.924,-0.0601
0.928,0.01064
0.932,-0.01756
0.936,-0.02238
0.94,-0.01745
0.944,-0.00543
0.948,-0.04536
0.952,-0.0052
0.956,-0.00551
0.96,-0.00625
0.964,-0.0064
0.968,-0.04388
0.972,-0.02127
0.976,0.00266
0.98,-0.01516
0.984,0.0061
0.988,-0.00667
0.992,-0.01778
0.996,0.00686
1.0,0.00139
1.004,0.01107
1.008,0.00179
1.012,-0.03285
1.016,-0.01432
1.02,-0.0339
1.024,-0.03355
1.028,0.00808
1.032,-0.0093
1.036,-0.01612
1.04,-0.01334
1.044,0.01754
1.048,0.00614
1.052,0.00624
1.056,0.00724
1.06,-0.01202
1.064,-0.03257
1.068,-0.03436
1.072,0.00521
1.076,0.00953
1.08,-0.01038
1.084,-0.00926
1.088,-0.01238
1.092,-0.01359
1.096,-0.00272
1.1,-0.02386
1.104,0.00656
1.108,-0.02057
1.112,-0.00389
1.116,-0.02067
1.12,-0.00837
1.124,-0.0006
1.128,-0.00652
1.132,0.0013
1.136,-0.00535
1.14,-0.00083
1.144,-0.02559
1.148,-0.02879
1.152,-0.00332
1.156,-0.01865
1.16,-0.02592
1.164,0.0126
1.168,-0.01246
1.172,-0.03163
1.176,-0.0063
1.18,0.0046
1.184,0.01604
1.188,0.02663
1.192,0.02085
1.196,-0.00594
1.2,0.00133
1.204,0.03108
1.208,0.07303
1.212,0.05381
1.216,0.08616
1.22,0.09845
1.224,0.06374
1.228,0.08666
1.232,0.08978
1.236,0.0894
1.24,0.08211
1.244,0.06513
1.248,0.05417
1.252,0.05843
1.256,0.04334
1.26,0.02676
1.264,-0.00741
1.268,0.01941
1.272,0.00502
1.276,0.0136
1.28,0.00119
1.284,-0.00486
1.288,-0.00631
1.292,-0.00214
1.296,0.01139
1.3,-0.01354
1.304,-0.03329
1.308,-0.0026
1.312,-0.02597
1.316,-0.01145
1.32,-0.01061
1.324,0.00222
1.328,0.02466
1.332,-0.00401
1.336,-0.01315
1.34,-0.00407
1.344,-0.03548
1.348,-0.04282
1.352,-0.0888
1.356,-0.0794
1.36,-0.12861
1.364,-0.06001
1.368,0.083
1.372,0.22204
1.376,0.44482
1.38,0.65501
1.384,0.81617
1.388,0.95705
1.392,0.98468
1.396,0.88059
1.4,0.6723
1.404,0.45155
1.408,0.25797
1.412,0.07093
1.416,-0.07812
1.42,-0.12534
1.424,-0.19332
1.428,-0.12236
1.432,-0.10667
1.436,-0.04382
1.44,-0.04944
1.444,-0.03916
1.448,-0.00076
1.452,-0.00246
1.456,-0.04408
1.46,-0.01726
1.464,0.00164
1.468,-0.01952
1.472,-0.01016
1.476,0.00566
1.48,0.01103
1.484,0.00386
1.488,-0.00572
1.492,-0.04789
1.496,0.00547
1.5,-0.00621
1.504,0.00898
1.508,0.01767
1.512,0.00707
1.516,0.00863
1.52,0.0306
1.524,-0.00427
1.528,-0.00845
1.532,0.03316
1.536,-0.00617
1.54,0.01641
1.544,0.00126
1.548,0.03262
1.552,0.01282
1.556,0.01741
1.56,0.01412
1.564,0.01874
1.568,0.00847
1.572,0.01143
1.576,0.00882
1.58,0.03386
1.584,0.04056
1.588,0.07563
1.592,0.03866
1.596,0.09712
1.6,0.07396
1.604,0.08787
1.608,0.07507
1.612,0.08093
1.616,0.13141
1.62,0.14304
1.624,0.14271
1.628,0.14668
1.632,0.14277
1.636,0.16247
1.64,0.18252
1.644,0.20006
1.648,0.17401
1.652,0.22297
1.656,0.20258
1.66,0.22835
1.664,0.22285
1.668,0.22486
1.672,0.21506
1.676,0.22769
1.68,0.21924
1.684,0.20294
1.688,0.18363
1.692,0.19385
1.696,0.20663
1.7,0.21681
1.704,0.17354
1.708,0.15545
1.712,0.19552
1.716,0.13639
1.72,0.11521
1.724,0.11864
1.728,0.11242
1.732,0.08311
1.736,0.07879
1.74,0.08887
1.744,0.08311
1.748,0.05664
1.752,0.0527
1.756,0.05385
1.76,0.03172
1.764,0.02523
1.768,0.00297
1.772,0.03917
1.776,0.04318
1.78,0.02816
1.784,0.00741
1.788,0.02793
1.792,0.01208
1.796,0.01384
1.8,0.0093
1.804,0.0242
1.808,0.0218
1.812,0.03385
1.816,0.01492
1.82,0.01015
1.824,0.02082
1.828,0.02533
1.832,0.02883
1.836,-0.00796
1.84,0.00593
1.844,0.011
1.848,0.00558
1.852,0.01784
1.856,-0.0005
1.86,0.00436
1.864,0.01519
1.868,0.02672
1.872,-0.00063
1.876,0.0276
1.88,0.01855
1.884,0.01531
1.888,0.01117
1.892,0.02631
1.896,0.00921
1.9,0.02184
1.904,0.02692
1.908,0.0243
1.912,0.03109
1.916,0.02578
1.92,0.05445
1.924,0.06077
1.928,0.07007
1.932,0.11004
1.936,0.11091
1.94,0.11134
1.944,0.122
1.948,0.1226
1.952,0.10642
1.956,0.08437
1.96,0.08393
1.964,0.09244
1.968,0.0718
1.972,0.06278
1.976,0.03794
1.98,0.02952
1.984,0.03351
1.988,0.02962
1.992,0.05663
1.996,0.019
2.0,0.01789
2.004,0.00408
2.008,0.00372
2.012,0.02942
2.016,-0.00453
2.02,0.02434
2.024,0.00142
2.028,0.03142
2.032,-0.01003
2.036,-0.00998
2.04,-0.00782
2.044,0.01835
2.048,0.01906
2.052,0.01369
2.056,0.00112
2.06,-0.02298
2.064,0.0063
2.068,-0.0348
2.072,-0.06122
2.076,-0.07615
2.08,-0.04933
2.084,0.01171
2.088,0.18929
2.092,0.36157
2.096,0.61894
2.1,0.78021
2.104,0.94014
2.108,0.99386
2.112,0.97581
2.116,0.85092
2.12,0.61089
2.124,0.39269
2.128,0.17143
2.132,0.00185
2.136,-0.1314
2.14,-0.12917
2.144,-0.14596
2.148,-0.10289
2.152,-0.05008
2.156,-0.02589
2.16,-4e-05
2.164,-0.00935
2.168,0.04114
2.172,0.03407
2.176,0.02122
2.18,0.00832
2.184,0.01058
2.188,0.02247
2.192,0.02769
2.196,0.00205
2.2,-0.00615
2.204,0.01714
2.208,0.02524
2.212,0.00333
2.216,0.01229
2.22,0.02235
2.224,0.01051
2.228,0.02857
2.232,0.01203
2.236,0.01365
2.24,0.01606
2.244,0.01369
2.248,0.01685
2.252,0.00091
2.256,0.02968
2.26,0.0116
2.264,0.04453
2.268,0.01417
2.272,0.04203
2.276,0.03364
2.28,0.03364
2.284,0.02291
2.288,0.01926
2.292,0.04034
2.296,0.05885
2.3,0.05558
2.304,0.07302
2.308,0.06453
2.312,0.06131
2.316,0.07376
2.32,0.10408
2.324,0.07767
2.328,0.09676
2.332,0.11142
2.336,0.13053
2.34,0.13061
2.344,0.17538
2.348,0.17051
2.352,0.18959
2.356,0.17761
2.36,0.20564
2.364,0.20781
2.368,0.22413
2.372,0.21724
2.376,0.23026
2.38,0.2378
2.384,0.25125
2.388,0.23268
2.392,0.23795
2.396,0.22995
2.4,0.24587
2.404,0.22512
2.408,0.20437
2.412,0.21626
2.416,0.19806
2.42,0.2169
2.424,0.18683
2.428,0.16694
2.432,0.14818
2.436,0.14236
2.44,0.13133
2.444,0.11258
2.448,0.11229
2.452,0.14598
2.456,0.09576
2.46,0.09121
2.464,0.07135
2.468,0.07544
2.472,0.07106
2.476,0.04543
2.48,0.04041
2.484,0.0587
2.488,0.05396
2.492,0.04124
2.496,0.0398
2.5,0.02079
2.504,0.04281
2.508,0.00518
2.512,0.0488
2.516,0.05199
2.52,0.0058
2.524,-0.0077
2.528,0.01715
2.532,0.00707
2.536,0.00088
2.54,0.00273
2.544,0.05912
2.548,0.03391
2.552,0.02611
2.556,0.02241
2.56,0.01705
2.564,0.01427
2.568,0.01793
2.572,0.01754
2.576,0.03906
2.58,-0.01498
2.584,0.01659
2.588,0.03248
2.592,0.03148
2.596,0.02655
2.6,0.02378
2.604,0.03894
2.608,0.04268
2.612,0.03854
2.616,0.01736
2.62,0.03526
2.624,0.02994
2.628,0.0128
2.632,0.01892
2.636,0.02181
2.64,0.04846
2.644,0.04458
2.648,0.05963
2.652,0.06197
2.656,0.06278
2.66,0.07604
2.664,0.07702
2.668,0.10351
2.672,0.10198
2.676,0.13941
2.68,0.11676
2.684,0.14482
2.688,0.1164
2.692,0.12334
2.696,0.10285
2.7,0.10536
2.704,0.11258
2.708,0.06223
2.712,0.0631
2.716,0.05292
2.72,0.05421
2.724,0.01349
2.728,0.02656
2.732,0.00639
2.736,0.05285
2.74,0.03213
2.744,0.01786
2.748,0.03027
2.752,0.03932
2.756,0.00892
2.76,0.00952
2.764,0.05061
2.768,0.02836
2.772,-0.00654
2.776,-0.00341
2.78,0.00657
2.784,0.01375
2.788,0.05805
2.792,0.01663
2.796,0.03137
2.8,-0.00059
2.804,-0.05811
2.808,-0.0714
2.812,-0.10323
2.816,-0.03568
2.82,0.079
2.824,0.25153
2.828,0.44524
2.832,0.68206
2.836,0.8714
2.84,0.99639
2.844,1.00258
2.848,0.92508
2.852,0.76953
2.856,0.52633
2.86,0.32466
2.864,0.10456
2.868,-0.0335
2.872,-0.12878
2.876,-0.12701
2.88,-0.14148
2.884,-0.08875
2.888,-0.0465
2.892,-0.02249
2.896,0.00332
2.9,0.04664
2.904,0.02656
2.908,0.02575
2.912,0.02572
2.916,0.02213
2.92,0.03251
2.924,0.04112
2.928,0.01362
2.932,0.0445
2.936,0.03477
2.94,0.05013
2.944,0.04079
2.948,0.02529
2.952,0.01852
2.956,0.01865
2.96,0.04607
2.964,-0.00041
2.968,0.03485
2.972,0.02977
2.976,0.04477
2.98,0.02835
2.984,0.02497
2.988,0.03058
2.992,0.02515
2.996,0.04685
3.0,0.05703
3.004,0.03334
3.008,0.04222
3.012,0.02646
3.016,0.01571
3.02,0.04974
3.024,0.03314
3.028,0.03566
3.032,0.06477
3.036,0.05199
3.04,0.07808
3.044,0.08774
3.048,0.06052
3.052,0.10397
3.056,0.1012
3.06,0.11315
3.064,0.11412
3.068,0.11643
3.072,0.1432
3.076,0.16085
3.08,0.18658
3.084,0.17574
3.088,0.17015
3.092,0.20904
3.096,0.21869
3.1,0.22519
3.104,0.25408
3.108,0.22071
3.112,0.22928
3.116,0.24267
3.12,0.26894
3.124,0.26069
3.128,0.22341
3.132,0.25851
3.136,0.24131
3.14,0.23241
3.144,0.22977
3.148,0.22754
3.152,0.21564
3.156,0.20441
3.16,0.18382
3.164,0.17751
3.168,0.16547
3.172,0.17997
3.176,0.14082
3.18,0.13454
3.184,0.12449
3.188,0.07761
3.192,0.10469
3.196,0.0867
3.2,0.09123
3.204,0.09451
3.208,0.06543
3.212,0.07745
3.216,0.04441
3.22,0.0448
3.224,0.05044
3.228,0.06175
3.232,0.04412
3.236,0.04404
3.24,0.05641
3.244,0.01236
3.248,0.04116
3.252,0.02023
3.256,0.03468
3.26,0.02506
3.264,0.02296
3.268,0.02527
3.272,0.03561
3.276,0.05382
3.28,0.04098
3.284,-0.01095
3.288,0.04219
3.292,0.03062
3.296,0.03494
3.3,0.00706
3.304,0.03588
3.308,0.0287
3.312,0.03838
3.316,0.02736
3.32,0.02443
3.324,-0.01001
3.328,0.04691
3.332,0.02584
3.336,0.01648
3.34,0.02178
3.344,0.03667
3.348,0.03493
3.352,0.03838
3.356,0.02742
3.36,0.0327
3.364,0.02028
3.368,0.00938
3.372,0.01861
3.376,0.02065
3.38,0.06013
3.384,0.02094
3.388,0.00188
3.392,0.04041
3.396,0.03508
3.4,0.03605
3.404,0.05946
3.408,0.0167
3.412,0.04719
3.416,0.0254
3.42,0.04898
3.424,0.01861
3.428,0.02042
3.432,0.04253
3.436,0.0357
3.44,0.02933
3.444,0.05941
3.448,0.03662
3.452,0.02257
3.456,0.02979
3.46,0.01033
3.464,0.0063
3.468,0.02551
3.472,0.02039
3.476,0.01584
3.48,0.02547
3.484,0.02685
3.488,0.04527
3.492,0.03243
3.496,0.02346
3.5,0.03618
3.504,0.02042
3.508,-0.00356
3.512,0.04548
3.516,0.01525
3.52,0.05242
3.524,0.0225
3.528,0.02663
3.532,0.03162
3.536,0.04081
3.54,0.05119
3.544,0.05201
3.548,0.02563
3.552,0.03152
3.556,0.04143
3.56,0.06262
3.564,0.01732
3.568,0.02085
3.572,0.02138
3.576,0.02248
3.58,0.02777
3.584,0.03946
3.588,0.0106
3.592,0.01931
3.596,0.03292
3.6,0.04785
3.604,0.02547
3.608,0.06708
3.612,0.04483
3.616,0.09408
3.62,0.10887
3.624,0.09858
3.628,0.09829
3.632,0.12721
3.636,0.1344
3.64,0.11348
3.644,0.12174
3.648,0.12991
3.652,0.11132
3.656,0.10738
3.66,0.1156
3.664,0.08965
3.668,0.05148
3.672,0.02231
3.676,0.05185
3.68,0.02681
3.684,0.04468
3.688,0.01001
3.692,0.02466
3.696,0.05253
3.7,0.02925
3.704,0.00789
3.708,0.01069
3.712,-0.00586
3.716,0.00483
3.72,0.05403
3.724,0.03544
3.728,0.01206
3.732,0.01826
3.736,0.01812
3.74,0.01365
3.744,0.00483
3.748,0.04425
3.752,0.05598
3.756,0.02385
3.76,-0.01514
3.764,-0.02697
3.768,-0.10983
3.772,-0.10788
3.776,-0.01839
3.78,0.1574
3.784,0.34296
3.788,0.54117
3.792,0.77461
3.796,0.92563
3.8,1.00274
3.804,0.99614
3.808,0.85056
3.812,0.68253
3.816,0.44993
3.82,0.21301
3.824,0.05605
3.828,-0.08083
3.832,-0.14757
3.836,-0.11799
3.84,-0.12887
3.844,-0.05417
3.848,-0.01826
3.852,-0.00047
3.856,0.00349
3.86,0.04607
3.864,0.02554
3.868,0.0333
3.872,0.00816
3.876,0.03067
3.88,0.01605
3.884,0.01818
3.888,0.02725
3.892,0.02025
3.896,0.01513
3.9,0.00484
3.904,0.03908
3.908,0.02197
3.912,0.04148
3.916,0.01262
3.92,0.02343
3.924,0.02818
3.928,0.01568
3.932,0.01529
3.936,0.01494
3.94,0.03128
3.944,0.03884
3.948,0.02361
3.952,0.03974
3.956,-0.00799
3.96,0.03932
3.964,0.02011
3.968,0.0282
3.972,0.05332
3.976,0.05299
3.98,0.06595
3.984,0.05407
3.988,0.04836
3.992,0.05903
3.996,0.03456
4.0,0.0984
4.004,0.07885
4.008,0.0639
4.012,0.11066
4.016,0.09377
4.02,0.08513
4.024,0.10834
4.028,0.1673
4.032,0.15463
4.036,0.13772
4.04,0.16908
4.044,0.18183
4.048,0.18719
4.052,0.19831
4.056,0.18715
4.06,0.22274
4.064,0.22566
4.068,0.25196
4.072,0.25761
4.076,0.23905
4.08,0.22436
4.084,0.22484
4.088,0.19898
4.092,0.23356
4.096,0.22734
4.1,0.21075
4.104,0.21419
4.108,0.22664
4.112,0.20556
4.116,0.17632
4.12,0.19124
4.124,0.16066
4.128,0.14907
4.132,0.15097
4.136,0.12132
4.14,0.12513
4.144,0.09327
4.148,0.07547
4.152,0.07514
4.156,0.08306
4.16,0.07757
4.164,0.06079
4.168,0.07091
4.172,0.05594
4.176,0.00802
4.18,0.05062
4.184,0.05701
4.188,0.01165
4.192,-0.00939
4.196,0.02925
4.2,0.02947
4.204,0.00929
4.208,0.00381
4.212,0.02643
4.216,0.03384
4.22,0.02566
4.224,0.00253
4.228,0.02165
4.232,0.00099
4.236,0.02742
4.24,0.03179
4.244,0.01524
4.248,0.02245
4.252,0.02229
4.256,0.01252
4.26,0.01895
4.264,0.02887
4.268,0.00642
4.272,0.02914
4.276,0.01395
4.28,0.01533
4.284,0.00677
4.288,0.00552
4.292,0.02003
4.296,-0.00227
4.3,-0.01288
4.304,0.01787
4.308,0.0247
4.312,0.02852
4.316,0.02567
4.32,0.01204
4.324,0.00058
4.328,0.02674
4.332,0.00302
4.336,0.03797
4.34,0.02572
4.344,0.02552
4.348,0.01581
4.352,0.0055
4.356,0.01335
4.36,0.03986
4.364,0.01166
4.368,0.02607
4.372,-0.0087
4.376,0.01993
4.38,-0.00573
4.384,0.00459
4.388,0.03813
4.392,0.01225
4.396,0.0128
4.4,0.02078
4.404,0.01528
4.408,0.02823
4.412,0.03617
4.416,0.02772
4.42,0.03088
4.424,-0.00159
4.428,0.0169
4.432,0.01155
4.436,-0.01129
4.44,0.02663
4.444,0.00321
4.448,0.0273
4.452,0.01285
4.456,0.0036
4.46,0.04175
4.464,0.0395
4.468,0.00799
4.472,0.0239
4.476,0.05368
4.48,0.05755
4.484,0.09153
4.488,0.08345
4.492,0.07398
4.496,0.11347
4.5,0.12213
4.504,0.11241
4.508,0.12545
4.512,0.10183
4.516,0.09664
4.52,0.06929
4.524,0.0811
4.528,0.04325
4.532,0.03955
4.536,0.02955
4.54,0.01502
4.544,0.02003
4.548,0.01685
4.552,0.02339
4.556,-0.00918
4.56,0.02733
4.564,0.02653
4.568,0.00818
4.572,0.02503
4.576,-0.01718
4.58,0.02801
4.584,-0.0133
4.588,0.01879
4.592,0.00883
4.596,0.02375
4.6,0.01051
4.604,0.02443
4.608,0.00903
4.612,-0.00054
4.616,-0.03417
4.62,-0.03137
4.624,-0.0803
4.628,-0.09401
4.632,-0.1225
4.636,-0.03878
4.64,0.07697
4.644,0.26307
4.648,0.44997
4.652,0.60922
4.656,0.86322
4.66,0.94836
4.664,0.98299
4.668,0.91452
4.672,0.7377
4.676,0.52927
4.68,0.30984
4.684,0.08321
4.688,-0.0352
4.692,-0.15085
4.696,-0.17509
4.7,-0.15339
4.704,-0.06531
4.708,-0.05285
4.712,-0.02356
4.716,-0.02667
4.72,-0.01208
4.724,-0.02048
4.728,0.002
4.732,0.00031
4.736,0.0081
4.74,-0.01115
4.744,0.023
4.748,0.02139
4.752,0.01769
4.756,0.01407
4.76,-0.01749
4.764,-0.02646
4.768,0.00176
4.772,0.02177
4.776,-0.01786
4.78,0.00843
4.784,-0.00238
4.788,0.02417
4.792,-0.02332
4.796,-0.02476
4.8,-0.00352
4.804,0.01535
4.808,0.00341
4.812,0.01422
4.816,-0.00096
4.82,0.00165
4.824,-0.00477
4.828,-0.00462
4.832,0.00546
4.836,0.01482
4.84,0.01326
4.844,0.0086
4.848,0.01131
4.852,0.00583
4.856,0.02708
4.86,0.03818
4.864,0.04646
4.868,0.05247
4.872,0.04811
4.876,0.06392
4.88,0.08492
4.884,0.11261
4.888,0.10039
4.892,0.11551
4.896,0.13792
4.9,0.1251
4.904,0.16328
4.908,0.15391
4.912,0.17872
4.916,0.19084
4.92,0.17811
4.924,0.19229
4.928,0.20769
4.932,0.24141
4.936,0.20547
4.94,0.20272
4.944,0.23614
4.948,0.22296
4.952,0.24105
4.956,0.20163
4.96,0.21098
4.964,0.19804
4.968,0.2063
4.972,0.20924
4.976,0.17089
4.98,0.17513
4.984,0.16942
4.988,0.11708
4.992,0.13614
4.996,0.09427
5.0,0.07476
5.004,0.10103
5.008,0.0687
5.012,0.05645
5.016,0.04574
5.02,0.01897
5.024,0.02737
5.028,0.01777
5.032,0.00655
5.036,0.03596
5.04,0.023
5.044,0.00151
5.048,0.01495
5.052,-0.01662
5.056,0.0036
5.06,0.00118
5.064,-0.01778
5.068,0.00759
5.072,-0.00501
5.076,-0.03198
5.08,-0.00702
5.084,-0.00532
5.088,-0.02969
5.092,-0.01841
5.096,-0.00378
5.1,-0.00331
5.104,0.03399
5.108,-0.01964
5.112,-0.02102
5.116,-0.00114
5.12,0.00135
5.124,-0.02431
5.128,-0.01263
5.132,0.00762
5.136,-0.01251
5.14,-0.01021
5.144,-0.02182
5.148,-0.01319
5.152,-0.00239
5.156,-0.0144
5.16,-0.03623
5.164,-0.00889
5.168,-0.02371
5.172,0.00616
5.176,-0.00833
5.18,-0.02401
5.184,0.01596
5.188,0.00526
5.192,0.01452
5.196,-0.01457
5.2,-0.01793
5.204,0.0155
5.208,0.00996
5.212,0.02054
5.216,0.00312
5.22,0.00304
5.224,0.03091
5.228,0.02687
5.232,0.07066
5.236,0.07262
5.24,0.11514
5.244,0.08634
5.248,0.09104
5.252,0.08737
5.256,0.09778
5.26,0.0694
5.264,0.06419
5.268,0.05409
5.272,0.03423
5.276,0.02668
5.28,0.02505
5.284,0.00106
5.288,0.01121
5.292,1e-05
5.296,-0.0042
5.3,-0.00105
5.304,-0.04215
5.308,-0.0089
5.312,-0.04743
5.316,-0.01151
5.32,-0.00158
5.324,-0.02644
5.328,-0.00346
5.332,-0.01743
5.336,-0.01862
5.34,0.01338
5.344,-0.01024
5.348,-0.01546
5.352,-0.01782
5.356,-0.03038
5.36,0.01567
5.364,-0.0209
5.368,-0.06014
5.372,-0.10526
5.376,-0.12278
5.38,-0.11626
5.384,-0.02331
5.388,0.11056
5.392,0.26113
5.396,0.50368
5.4,0.74295
5.404,0.87378
5.408,0.98475
5.412,0.96147
5.416,0.832
5.42,0.60196
5.424,0.40051
5.428,0.1718
5.432,0.00409
5.436,-0.09667
5.44,-0.18333
5.444,-0.18434
5.448,-0.16162
5.452,-0.11611
5.456,-0.06075
5.46,-0.04671
5.464,-0.03636
5.468,-0.01118
5.472,-0.00943
5.476,-0.01909
5.48,-0.00347
5.484,-0.01869
5.488,-0.02077
5.492,-0.02115
5.496,0.03894
5.5,0.00753
5.504,-0.01246
5.508,-0.04055
5.512,-0.01186
5.516,-0.01042
5.52,-0.03334
5.524,-0.02411
5.528,-0.03223
5.532,-0.02836
5.536,-0.04105
5.54,-0.03734
5.544,-0.02553
5.548,-0.00727
5.552,-0.02898
5.556,-0.02037
5.56,-0.01012
5.564,-0.01853
5.568,-0.01667
5.572,-0.04508
5.576,-0.00525
5.58,-0.01893
5.584,-0.01352
5.588,0.00603
5.592,0.00574
5.596,-0.00733
5.6,0.03066
5.604,0.01398
5.608,-0.01303
5.612,0.03807
5.616,0.01921
5.62,0.063
5.624,0.08922
5.628,0.05074
5.632,0.08243
5.636,0.10883
5.64,0.10104
5.644,0.15559
5.648,0.10871
5.652,0.12067
5.656,0.16957
5.66,0.1537
5.664,0.16272
5.668,0.17509
5.672,0.20267
5.676,0.19075
5.68,0.22758
5.684,0.17082
5.688,0.19076
5.692,0.215
5.696,0.18104
5.7,0.22417
5.704,0.17949
5.708,0.17041
5.712,0.1791
5.716,0.16685
5.72,0.15094
5.724,0.15076
5.728,0.11621
5.732,0.13777
5.736,0.1141
5.74,0.09077
5.744,0.08471
5.748,0.05036
5.752,0.05207
5.756,0.04455
5.76,0.05658
5.764,0.05099
5.768,-0.00182
5.772,0.00126
5.776,-0.01078
5.78,0.01956
5.784,-0.01296
5.788,0.0049
5.792,-0.03276
5.796,-0.01048
5.8,-0.02567
5.804,-0.03065
5.808,-0.04915
5.812,-0.00489
5.816,-0.01427
5.82,-0.04812
5.824,-0.02259
5.828,-0.05074
5.832,-0.0377
5.836,-0.01448
5.84,-0.01421
5.844,-0.01775
5.848,-0.01801
5.852,-0.01495
5.856,-0.02105
5.86,-0.03222
5.864,-0.03611
5.868,-0.04346
5.872,-0.01511
5.876,-0.03073
5.88,-0.03242
5.884,-0.03578
5.888,-0.02394
5.892,-0.01168
5.896,-0.01321
5.9,0.00203
5.904,-0.01751
5.908,-0.03473
5.912,0.02346
5.916,-0.0361
5.92,-0.02698
5.924,-0.01455
5.928,-0.04198
5.932,-0.0436
5.936,-0.02692
5.94,0.00146
5.944,0.00475
5.948,-0.03961
5.952,-0.04821
5.956,-0.04327
5.96,-0.02171
5.964,-0.02868
5.968,-0.02205
5.972,-0.00509
5.976,-0.02652
5.98,-0.0397
5.984,-0.02345
5.988,-0.04206
5.992,-0.04645
5.996,-0.04278
6.0,-0.02077
6.004,-0.0097
6.008,-0.03212
6.012,-0.03765
6.016,-0.02995
6.02,-0.05626
6.024,-0.04249
6.028,-0.0584
6.032,-0.02011
6.036,-0.00625
6.04,-0.01533
6.044,-0.03458
6.048,0.00072
6.052,-0.0263
6.056,-0.0332
6.06,-0.02383
6.064,0.00452
6.068,0.01124
6.072,0.02438
6.076,0.02565
6.08,0.02742
6.084,0.02429
6.088,0.04173
6.092,0.06607
6.096,0.07518
6.1,0.06219
6.104,0.07393
6.108,0.05615
6.112,0.03116
6.116,0.06174
6.12,0.04258
6.124,0.02035
6.128,0.00351
6.132,-0.00515
6.136,0.00163
6.14,-0.01463
6.144,-0.02379
6.148,-0.0066
6.152,-0.02115
6.156,-0.0232
6.16,-0.04561
6.164,-0.01644
6.168,-0.04066
6.172,-0.02113
6.176,-0.04413
6.18,-0.03517
6.184,0.00459
6.188,-0.01588
6.192,-0.02071
6.196,-0.04355
6.2,-0.02989
6.204,-0.03559
6.208,-0.02788
6.212,-0.05161
6.216,-0.06072
6.22,-0.09449
6.224,-0.13859
6.228,-0.14784
6.232,-0.0631
6.236,0.02682
6.24,0.2258
6.244,0.42228
6.248,0.68499
6.252,0.84771
6.256,0.93273
6.26,0.96801
6.264,0.86114
6.268,0.6653
6.272,0.41383
6.276,0.20571
6.28,0.01698
6.284,-0.12239
6.288,-0.1938
6.292,-0.20043
6.296,-0.17592
6.3,-0.13251
6.304,-0.10085
6.308,-0.0493
6.312,-0.06499
6.316,-0.02402
6.32,-0.01967
6.324,-0.03536
6.328,-0.01423
6.332,-0.02296
6.336,-0.03694
6.34,-0.06142
6.344,-0.03419
6.348,-0.05173
6.352,-0.03013
6.356,-0.01603
6.36,-0.01475
6.364,-0.03569
6.368,-0.01452
6.372,-0.03191
6.376,-0.06292
6.38,-0.01857
6.384,-0.04527
6.388,-0.04423
6.392,-0.01997
6.396,-0.03511
6.4,-0.0414
6.404,-0.03376
6.408,-0.03282
6.412,-0.0153
6.416,-0.00705
6.42,-0.03484
6.424,-0.04254
6.428,-0.03141
6.432,-0.00237
6.436,-0.00391
6.44,-0.01436
6.444,0.00041
6.448,-0.01093
6.452,0.00483
6.456,0.01806
6.46,0.02172
6.464,0.05371
6.468,0.04596
6.472,0.06396
6.476,0.06662
6.48,0.06687
6.484,0.08512
6.488,0.1011
6.492,0.11895
6.496,0.14088
6.5,0.11585
6.504,0.1293
6.508,0.15618
6.512,0.14827
6.516,0.18308
6.52,0.16489
6.524,0.20519
6.528,0.18252
6.532,0.18721
6.536,0.19352
6.54,0.16834
6.544,0.20688
6.548,0.17589
6.552,0.17808
6.556,0.16139
6.56,0.15761
6.564,0.16429
6.568,0.15507
6.572,0.13277
6.576,0.15164
6.58,0.12658
6.584,0.09754
6.588,0.09705
6.592,0.0678
6.596,0.03901
6.6,0.09085
6.604,0.045
6.608,0.03999
6.612,0.05681
6.616,0.0058
6.62,-0.0354
6.624,0.01829
6.628,-0.01817
6.632,-0.00548
6.636,0.01813
6.64,-0.0336
6.644,-0.01378
6.648,-0.01933
6.652,-0.01359
6.656,-0.0101
6.66,-0.0304
6.664,-0.02761
6.668,-0.04334
6.672,-0.01188
6.676,-0.04589
6.68,-0.05795
6.684,-0.03818
6.688,-0.03451
6.692,-0.02419
6.696,-0.00674
6.7,-0.05245
6.704,-0.00403
6.708,-0.04465
6.712,-0.05062
6.716,-0.03219
6.72,-0.0268
6.724,-0.03222
6.728,-0.02336
6.732,-0.02186
6.736,-0.04244
6.74,-0.01286
6.744,-0.03104
6.748,-0.02449
6.752,-0.05504
6.756,-0.04399
6.76,-0.03013
6.764,-0.04086
6.768,-0.00252
6.772,-0.02958
6.776,-0.01389
6.78,-0.0214
6.784,0.00768
6.788,-0.0424
6.792,-0.00502
6.796,-0.03623
6.8,-0.01996
6.804,-0.04735
6.808,-0.02526
6.812,-0.03
6.816,-0.03313
6.82,-0.01957
6.824,-0.01984
6.828,0.01305
6.832,0.01052
6.836,-0.00941
6.84,-0.00352
6.844,0.03915
6.848,0.04372
6.852,0.05804
6.856,0.08485
6.86,0.05524
6.864,0.07631
6.868,0.07937
6.872,0.07366
6.876,0.04414
6.88,0.04957
6.884,0.04119
6.888,0.04081
6.892,-0.01191
6.896,0.01943
6.9,-0.00619
6.904,-0.02103
6.908,-0.0006
6.912,-0.05016
6.916,-0.03619
6.92,-0.04988
6.924,-0.05398
6.928,-0.02407
6.932,-0.0244
6.936,0.00443
6.94,-0.04549
6.944,-0.05249
6.948,-0.02656
6.952,-0.0169
6.956,-0.03669
6.96,-0.04837
6.964,0.00013
6.968,-0.03442
6.972,-0.05277
6.976,-0.00643
6.98,-0.05434
6.984,-0.07804
6.988,-0.08604
6.992,-0.15208
6.996,-0.11431
7.0,-0.0303
7.004,0.13817
7.008,0.37723
7.012,0.54678
7.016,0.75201
7.02,0.91196
7.024,0.96821
7.028,0.93357
7.032,0.75672
7.036,0.57157
7.04,0.31483
7.044,0.12738
7.048,-0.0165
7.052,-0.15119
7.056,-0.20365
7.06,-0.21668
7.064,-0.15676
7.068,-0.09795
7.072,-0.08289
7.076,-0.04495
7.08,-0.01451
7.084,-0.05089
7.088,-0.01726
7.092,-0.02174
7.096,-0.03654
7.1,-0.01127
7.104,-0.02749
7.108,-0.01965
7.112,-0.02034
7.116,-0.03972
7.12,-0.03338
7.124,-0.0128
7.128,-0.05085
7.132,-0.04083
7.136,-0.03072
7.14,-0.04359
7.144,-0.00425
7.148,-0.03476
7.152,-0.01223
7.156,-0.0191
7.16,-0.00958
7.164,-0.03394
7.168,-0.03746
7.172,-0.02673
7.176,-0.00341
7.18,-0.04982
7.184,0.0039
7.188,-0.01989
7.192,-0.04174
7.196,-0.01034
7.2,0.00243
7.204,-0.01023
7.208,0.0075
7.212,0.0116
7.216,-0.00633
7.22,-0.02099
7.224,-0.00175
7.228,0.00753
7.232,0.04216
7.236,0.06317
7.24,0.03093
7.244,0.07263
7.248,0.06934
7.252,0.08805
7.256,0.11236
7.26,0.14314
7.264,0.12435
7.268,0.14107
7.272,0.14882
7.276,0.14987
7.28,0.17127
7.284,0.16233
7.288,0.17484
7.292,0.19346
7.296,0.20175
7.3,0.21882
7.304,0.19852
7.308,0.18427
7.312,0.18387
7.316,0.19305
7.32,0.18759
7.324,0.17833
7.328,0.16082
7.332,0.16115
7.336,0.12833
7.34,0.14571
7.344,0.13849
7.348,0.12706
7.352,0.07426
7.356,0.08483
7.36,0.10713
7.364,0.07107
7.368,0.0449
7.372,0.0504
7.376,0.02613
7.38,0.0582
7.384,-0.00578
7.388,0.03151
7.392,0.00362
7.396,-0.01401
7.4,-0.00767
7.404,0.015
7.408,-0.03087
7.412,-0.01586
7.416,-0.03057
7.42,-0.00795
7.424,-0.01619
7.428,-0.02111
7.432,-0.01381
7.436,-0.02358
7.44,-0.01533
7.444,-0.00805
7.448,-0.01706
7.452,-0.02294
7.456,-0.0134
7.46,-0.01376
7.464,-0.00524
7.468,0.00615
7.472,-0.01149
7.476,-0.01085
7.48,-0.02263
7.484,-0.0207
7.488,-0.04788
7.492,-0.02922
7.496,-0.02186
7.5,-0.02179
7.504,-0.02304
7.508,-0.05208
7.512,-0.02798
7.516,-0.03062
7.52,-0.02496
7.524,-0.00084
7.528,-0.01126
7.532,-0.02229
7.536,-0.00788
7.54,-0.0135
7.544,-0.02972
7.548,-0.00447
7.552,-0.00976
7.556,-0.05263
7.56,-0.00073
7.564,-0.03532
7.568,-0.01284
7.572,-0.01752
7.576,-0.0026
7.58,-0.00653
7.584,-0.03567
7.588,-0.01699
7.592,-0.02358
7.596,-0.0349
7.6,-0.00729
7.604,-0.01912
7.608,0.01584
7.612,-0.00268
7.616,0.00315
7.62,0.01836
7.624,0.0376
7.628,0.03054
7.632,0.06413
7.636,0.07395
7.64,0.0925
7.644,0.0639
7.648,0.08214
7.652,0.0591
7.656,0.0696
7.66,0.07223
7.664,0.0618
7.668,0.04836
7.672,0.03511
7.676,-0.00472
7.68,0.02548
7.684,-0.00786
7.688,0.00935
7.692,0.01442
7.696,0.00806
7.7,-0.01395
7.704,0.01011
7.708,-0.01378
7.712,-0.01588
7.716,-0.00353
7.72,-0.01794
7.724,-0.01656
7.728,-0.01264
7.732,-0.01457
7.736,-0.02643
7.74,-0.00524
7.744,-0.00332
7.748,-0.01417
7.752,-0.02032
7.756,-0.03968
7.76,-0.02618
7.764,-0.07033
7.768,-0.10024
7.772,-0.13931
7.776,-0.13461
7.78,-0.02881
7.784,0.08309
7.788,0.30651
7.792,0.50835
7.796,0.68681
7.8,0.86091
7.804,0.99953
7.808,0.95904
7.812,0.85205
7.816,0.64134
7.82,0.41173
7.824,0.2028
7.828,0.01948
7.832,-0.13226
7.836,-0.19153
7.84,-0.2019
7.844,-0.10415
7.848,-0.10948
7.852,-0.07031
7.856,-0.04697
7.86,-0.0109
7.864,-0.01274
7.868,-0.01447
7.872,-0.02675
7.876,0.00416
7.88,-0.01573
7.884,0.00155
7.888,0.00814
7.892,-0.02313
7.896,-0.00363
7.9,-0.00745
7.904,-0.02589
7.908,-0.00374
7.912,-0.00956
7.916,-0.00836
7.92,-0.0042
7.924,0.00083
7.928,-0.02039
7.932,-0.03274
7.936,-0.01403
7.94,0.00297
7.944,-0.00804
7.948,-0.06189
7.952,0.00611
7.956,0.00814
7.96,-0.00236
7.964,-0.01891
7.968,0.00151
7.972,4e-05
7.976,0.0235
7.98,0.01876
7.984,-0.00254
7.988,-0.02145
7.992,0.02001
7.996,0.03514
8.0,0.03375
8.004,0.06085
8.008,0.03315
8.012,0.07136
8.016,0.05243
8.02,0.05139
8.024,0.08418
8.028,0.08036
8.032,0.10401
8.036,0.11808
8.04,0.12037
8.044,0.13669
8.048,0.14102
8.052,0.15932
8.056,0.18541
8.06,0.19923
8.064,0.18598
8.068,0.19283
8.072,0.21132
8.076,0.22234
8.08,0.21792
8.084,0.21155
8.088,0.22906
8.092,0.19641
8.096,0.2166
8.1,0.20113
8.104,0.19394
8.108,0.19909
8.112,0.18339
8.116,0.16464
8.12,0.17377
8.124,0.16682
8.128,0.13392
8.132,0.14225
8.136,0.11572
8.14,0.11241
8.144,0.09303
8.148,0.08382
8.152,0.07035
8.156,0.08719
8.16,0.05786
8.164,0.07635
8.168,0.02913
8.172,0.02192
8.176,0.04959
8.18,0.05003
8.184,0.01974
8.188,-0.0205
8.192,0.0158
8.196,0.01624
8.2,0.01346
8.204,0.0102
8.208,0.01666
8.212,0.01413
8.216,-0.03049
8.22,0.00719
8.224,0.01953
8.228,0.00248
8.232,-0.01689
8.236,-0.01909
8.24,-0.03311
8.244,0.0009
8.248,0.00409
8.252,-0.0006
8.256,-0.01964
8.26,-0.01207
8.264,0.01086
8.268,-0.00614
8.272,0.00978
8.276,0.0095
8.28,0.05446
8.284,-0.00887
8.288,-0.00635
8.292,0.00967
8.296,0.0021
8.3,0.02029
8.304,0.01569
8.308,0.01287
8.312,0.0144
8.316,0.01908
8.32,0.00312
8.324,0.00269
8.328,-0.0204
8.332,0.03775
8.336,0.0145
8.34,0.00494
8.344,-0.00672
8.348,0.00406
8.352,0.01202
8.356,0.01863
8.36,0.02216
8.364,0.00457
8.368,0.00752
8.372,0.00113
8.376,0.01181
8.38,-0.03555
8.384,-0.02216
8.388,-0.0142
8.392,-0.00293
8.396,-0.00564
8.4,0.00418
8.404,0.02441
8.408,-0.00356
8.412,0.02127
8.416,0.03614
8.42,0.01156
8.424,0.04823
8.428,0.05299
8.432,0.07978
8.436,0.08044
8.44,0.0892
8.444,0.09605
8.448,0.11616
8.452,0.11575
8.456,0.13574
8.46,0.10443
8.464,0.11576
8.468,0.07637
8.472,0.06471
8.476,0.07321
8.48,0.07181
8.484,0.05134
8.488,0.02134
8.492,0.01465
8.496,0.02645
8.5,0.03397
8.504,0.02968
8.508,0.01814
8.512,0.01255
8.516,-0.01195
8.52,0.02099
8.524,0.02488
8.528,0.00062
8.532,0.00151
8.536,0.0222
8.54,0.00258
8.544,0.03033
8.548,0.0184
8.552,0.00345
8.556,-0.00666
8.56,0.01933
8.564,0.03548
8.568,1e-05
8.572,0.01612
8.576,-0.02966
8.58,-0.05519
8.584,-0.12116
8.588,-0.08523
8.592,-0.00906
8.596,0.1133
8.6,0.3166
8.604,0.5269
8.608,0.73106
8.612,0.91899
8.616,1.01996
8.62,0.96129
8.624,0.8677
8.628,0.66593
8.632,0.42473
8.636,0.22602
8.64,0.00867
8.644,-0.0997
8.648,-0.13985
8.652,-0.16208
8.656,-0.10458
8.66,-0.07182
8.664,-0.05875
8.668,0.00486
8.672,0.00706
8.676,0.00701
8.68,0.0299
8.684,0.0223
8.688,0.03099
8.692,0.02959
8.696,0.02525
8.7,0.01357
8.704,0.01384
8.708,0.00958
8.712,0.0117
8.716,0.04274
8.72,0.00024
8.724,0.02693
8.728,-0.00374
8.732,0.00146
8.736,0.01526
8.74,0.00271
8.744,0.02437
8.748,0.02931
8.752,0.0227
8.756,-0.01178
8.76,-0.00272
8.764,-0.00328
8.768,0.00655
8.772,0.03371
8.776,0.03768
8.78,0.02491
8.784,-0.00227
8.788,0.04559
8.792,0.04396
8.796,0.05741
8.8,0.03413
8.804,0.04915
8.808,0.06112
8.812,0.08274
8.816,0.04439
8.82,0.09745
8.824,0.05327
8.828,0.05612
8.832,0.09093
8.836,0.09129
8.84,0.11684
8.844,0.15999
8.848,0.17378
8.852,0.16692
8.856,0.16253
8.86,0.15869
8.864,0.20038
8.868,0.21088
8.872,0.18048
8.876,0.22502
8.88,0.20692
8.884,0.19825
8.888,0.23792
8.892,0.24164
8.896,0.2206
8.9,0.24904
8.904,0.23493
8.908,0.23294
8.912,0.23252
8.916,0.22823
8.92,0.2345
8.924,0.1979
8.928,0.20749
8.932,0.16223
8.936,0.1709
8.94,0.14779
8.944,0.16274
8.948,0.11066
8.952,0.1323
8.956,0.11761
8.96,0.1035
8.964,0.10329
8.968,0.0744
8.972,0.0729
8.976,0.07923
8.98,0.07636
8.984,0.06079
8.988,0.07942
8.992,0.03435
8.996,0.05051
9.0,0.01243
9.004,0.03162
9.008,0.03153
9.012,0.03322
9.016,0.03287
9.02,0.0165
9.024,0.02868
9.028,0.036
9.032,0.02186
9.036,0.02068
9.04,0.00622
9.044,0.02544
9.048,0.04995
9.052,0.02346
9.056,-0.00011
9.06,0.00443
9.064,0.01705
9.068,0.0204
9.072,0.0563
9.076,0.04704
9.08,0.05416
9.084,0.05808
9.088,0.09094
9.092,0.07514
9.096,0.0868
9.1,0.09124
9.104,0.11736
9.108,0.13919
9.112,0.13512
9.116,0.14817
9.12,0.10949
9.124,0.12847
9.128,0.11866
9.132,0.06741
9.136,0.07844
9.14,0.06548
9.144,0.06345
9.148,0.05713
9.152,0.05511
9.156,0.04288
9.16,0.01207
9.164,0.02415
9.168,-0.01813
9.172,0.01957
9.176,0.01829
9.18,0.04957
9.184,0.02766
9.188,0.02681
9.192,0.01102
9.196,0.02071
9.2,0.02715
9.204,0.02263
9.208,0.05229
9.212,0.00974
9.216,0.01197
9.22,0.04029
9.224,0.00438
9.228,-0.00561
9.232,-0.03054
9.236,-0.06817
9.24,-0.11111
9.244,-0.08796
9.248,0.02553
9.252,0.16838
9.256,0.36638
9.26,0.59395
9.264,0.81083
9.268,0.97691
9.272,1.02619
9.276,0.98956
9.28,0.80399
9.284,0.64344
9.288,0.38326
9.292,0.17335
9.296,0.0177
9.3,-0.09754
9.304,-0.14478
9.308,-0.11859
9.312,-0.06528
9.316,-0.04295
9.32,-0.03446
9.324,0.02293
9.328,0.00342
9.332,0.03757
9.336,0.0233
9.34,0.02802
9.344,3e-05
9.348,0.01675
9.352,0.02941
9.356,0.05596
9.36,0.01894
9.364,0.02113
9.368,0.02951
9.372,0.03904
9.376,0.04374
9.38,0.02467
9.384,0.00487
9.388,0.02876
9.392,0.03125
9.396,0.0155
9.4,0.03193
9.404,0.0335
9.408,0.05576
9.412,0.00191
9.416,0.00474
9.42,0.03165
9.424,0.01218
9.428,0.02012
9.432,0.02958
9.436,0.0483
9.44,0.02925
9.444,0.07436
9.448,0.06731
9.452,0.04546
9.456,0.04905
9.46,0.05672
9.464,0.05589
9.468,0.0881
9.472,0.06978
9.476,0.06398
9.48,0.07922
9.484,0.08165
9.488,0.11566
9.492,0.14469
9.496,0.14981
9.5,0.14885
9.504,0.14212
9.508,0.15555
9.512,0.16238
9.516,0.18283
9.52,0.19099
9.524,0.21465
9.528,0.23276
9.532,0.21547
9.536,0.22964
9.54,0.25275
9.544,0.23657
9.548,0.23152
9.552,0.25724
9.556,0.22528
9.56,0.21896
9.564,0.22385
9.568,0.24649
9.572,0.21944
9.576,0.23058
9.58,0.17806
9.584,0.1743
9.588,0.20753
9.592,0.16842
9.596,0.17984
9.6,0.14682
9.604,0.15725
9.608,0.15333
9.612,0.14187
9.616,0.1288
9.62,0.11577
9.624,0.08966
9.628,0.07282
9.632,0.07591
9.636,0.06857
9.64,0.09518
9.644,0.04054
9.648,0.05049
9.652,0.06074
9.656,0.04327
9.66,0.04516
9.664,0.05198
9.668,0.04549
9.672,0.0396
9.676,0.01654
9.68,0.05917
9.684,0.02662
9.688,0.02819
9.692,0.00897
9.696,0.03639
9.7,0.03552
9.704,0.0448
9.708,0.01579
9.712,0.03071
9.716,0.0619
9.72,0.03604
9.724,0.05362
9.728,0.03804
9.732,0.07569
9.736,0.07049
9.74,0.10137
9.744,0.06346
9.748,0.08196
9.752,0.11647
9.756,0.11001
9.76,0.12153
9.764,0.12927
9.768,0.13049
9.772,0.10933
9.776,0.09343
9.78,0.09752
9.784,0.05637
9.788,0.09366
9.792,0.05692
9.796,0.04104
9.8,0.04244
9.804,0.04788
9.808,0.05394
9.812,0.02556
9.816,0.01226
9.82,0.05804
9.824,0.02421
9.828,0.03477
9.832,0.05778
9.836,0.04004
9.84,0.04109
9.844,0.05443
9.848,0.02037
9.852,0.04845
9.856,0.03596
9.86,0.00928
9.864,0.04134
9.868,0.0343
9.872,0.01596
9.876,-0.02404
9.88,-0.05121
9.884,-0.08486
9.888,-0.05546
9.892,-0.03349
9.896,0.11447
9.9,0.27271
9.904,0.47349
9.908,0.68735
9.912,0.88706
9.916,1.00611
9.92,1.01259
9.924,0.92729
9.928,0.75005
9.932,0.51633
9.936,0.28431
9.94,0.0966
9.944,-0.04443
9.948,-0.12941
9.952,-0.15262
9.956,-0.10126
9.96,-0.0481
9.964,-0.03361
9.968,-0.01238
9.972,0.04215
9.976,0.01098
9.98,0.01407
9.984,0.00929
9.988,0.01513
9.992,0.04558
9.996,0.03415
