t_seg,ecg_mV
0.0,0.03615
0.004,0.00042
0.008,0.02572
0.012,-0.0134
0.016,0.01126
0.02,0.03522
0.024,0.00904
0.028,0.00975
0.032,0.01402
0.036,0.02965
0.04,0.02954
0.044,0.02881
0.048,0.02873
0.052,0.00523
0.056,0.01572
0.06,0.0315
0.064,0.0339
0.068,0.0391
0.072,0.01959
0.076,0.03252
0.08,0.0363
0.084,0.06555
0.088,0.03009
0.092,0.03615
0.096,0.03501
0.1,0.0122
0.104,0.0238
0.108,0.02616
0.112,0.05292
0.116,0.03075
0.12,0.03169
0.124,0.04057
0.128,0.0101
0.132,0.0173
0.136,0.06425
0.14,0.02102
0.144,0.02841
0.148,0.00804
0.152,0.02583
0.156,0.03656
0.16,0.03228
0.164,0.00818
0.168,0.02101
0.172,0.03532
0.176,0.01584
0.18,0.02775
0.184,0.0238
0.188,0.0151
0.192,0.00225
0.196,0.02324
0.2,-0.00601
0.204,0.02424
0.208,0.04956
0.212,0.03641
0.216,0.02706
0.22,0.02594
0.224,0.02455
0.228,0.03806
0.232,0.0207
0.236,0.01645
0.24,0.02931
0.244,0.0388
0.248,0.01697
0.252,0.0007
0.256,0.02629
0.26,0.02926
0.264,0.03805
0.268,0.03941
0.272,0.0223
0.276,0.03422
0.28,0.05849
0.284,0.02044
0.288,0.03395
0.292,0.0349
0.296,0.01571
0.3,0.03144
0.304,0.03224
0.308,0.03551
0.312,0.02292
0.316,0.03068
0.32,0.04647
0.324,-0.00202
0.328,0.02986
0.332,0.04504
0.336,0.03347
0.34,0.03723
0.344,0.02409
0.348,0.02688
0.352,0.04812
0.356,0.02571
0.36,0.03614
0.364,0.01062
0.368,0.02247
0.372,-0.00064
0.376,0.02899
0.38,0.0166
0.384,0.01791
0.388,0.01499
0.392,0.04841
0.396,0.04358
0.4,0.02977
0.404,0.01731
0.408,0.02995
0.412,0.00499
0.416,0.02897
0.42,0.02117
0.424,0.03317
0.428,0.04836
0.432,0.03156
0.436,0.05334
0.44,0.04731
0.444,0.03334
0.448,0.07186
0.452,0.0898
0.456,0.09227
0.46,0.09444
0.464,0.10396
0.468,0.12133
0.472,0.11576
0.476,0.08912
0.48,0.11067
0.484,0.07884
0.488,0.11099
0.492,0.09452
0.496,0.10526
0.5,0.06438
0.504,0.06257
0.508,0.04838
0.512,0.05662
0.516,0.06011
0.52,0.03404
0.524,0.03217
0.528,0.04979
0.532,0.03246
0.536,0.02697
0.54,0.01903
0.544,0.03219
0.548,0.02282
0.552,0.03734
0.556,0.02723
0.56,0.01947
0.564,0.03322
0.568,0.01001
0.572,0.0167
0.576,0.05144
0.58,0.04113
0.584,0.01463
0.588,0.01765
0.592,0.00644
0.596,-0.0495
0.6,-0.04445
0.604,-0.08291
0.608,-0.0091
0.612,0.0533
0.616,0.22264
0.62,0.43223
0.624,0.66556
0.628,0.85024
0.632,0.98414
0.636,1.0287
0.64,0.96818
0.644,0.77424
0.648,0.5518
0.652,0.34411
0.656,0.09391
0.66,0.00847
0.664,-0.08846
0.668,-0.13826
0.672,-0.12778
0.676,-0.08119
0.68,-0.03409
0.684,-0.02635
0.688,0.00034
0.692,0.01095
0.696,0.02418
0.7,0.02521
0.704,0.04172
0.708,0.00824
0.712,0.03001
0.716,0.03368
0.72,0.01782
0.724,0.03584
0.728,0.02056
0.732,0.06036
0.736,0.03308
0.74,0.01368
0.744,0.04024
0.748,0.01431
0.752,-0.01348
0.756,0.04642
0.76,0.04789
0.764,0.03672
0.768,0.03046
0.772,0.02405
0.776,0.06024
0.78,0.03463
0.784,0.03617
0.788,0.03586
0.792,0.00572
0.796,0.04647
0.8,0.07001
0.804,0.03424
0.808,0.06215
0.812,0.03018
0.816,0.0182
0.82,0.04592
0.824,0.06069
0.828,0.08347
0.832,0.06995
0.836,0.06419
0.84,0.06821
0.844,0.07692
0.848,0.11176
0.852,0.12799
0.856,0.11954
0.86,0.14569
0.864,0.15566
0.868,0.12153
0.872,0.18233
0.876,0.16381
0.88,0.19797
0.884,0.21064
0.888,0.18716
0.892,0.19931
0.896,0.2171
0.9,0.22958
0.904,0.26161
0.908,0.2483
0.912,0.2314
0.916,0.25719
0.92,0.23828
0.924,0.23355
0.928,0.26122
0.932,0.24783
0.936,0.22938
0.94,0.21902
0.944,0.23816
0.948,0.21913
0.952,0.17706
0.956,0.18979
0.96,0.15916
0.964,0.13841
0.968,0.14641
0.972,0.15172
0.976,0.10361
0.98,0.08374
0.984,0.10173
0.988,0.10107
0.992,0.08583
0.996,0.09909
1.0,0.06539
1.004,0.05135
1.008,0.05201
1.012,0.05303
1.016,0.0593
1.02,0.02426
1.024,0.06563
1.028,0.03918
1.032,0.01628
1.036,0.02937
1.04,0.01204
1.044,0.05139
1.048,0.0395
1.052,0.04065
1.056,0.03294
1.06,0.01654
1.064,0.02863
1.068,0.04576
1.072,0.02668
1.076,0.00852
1.08,0.00067
1.084,0.02341
1.088,0.01275
1.092,0.03341
1.096,0.03569
1.1,0.03164
1.104,0.01168
1.108,0.02373
1.112,0.02314
1.116,0.04862
1.12,0.0196
1.124,0.00516
1.128,0.03859
1.132,0.01339
1.136,0.03813
1.14,0.03176
1.144,0.02874
1.148,0.04771
1.152,0.02333
1.156,0.02798
1.16,0.02474
1.164,0.03905
1.168,0.03702
1.172,0.05598
1.176,0.03019
1.18,0.01413
1.184,0.0087
1.188,0.01495
1.192,0.01196
1.196,0.02147
1.2,0.02123
1.204,0.00888
1.208,0.00972
1.212,0.02232
1.216,0.02167
1.22,0.03802
1.224,0.01091
1.228,0.04387
1.232,0.06697
1.236,0.04659
1.24,0.10543
1.244,0.07407
1.248,0.08013
1.252,0.08126
1.256,0.11605
1.26,0.11262
1.264,0.10586
1.268,0.11476
1.272,0.13947
1.276,0.1092
1.28,0.09738
1.284,0.07154
1.288,0.07419
1.292,0.02871
1.296,0.0261
1.3,0.06455
1.304,0.02811
1.308,0.03155
1.312,0.04359
1.316,0.03679
1.32,0.02648
1.324,0.04144
1.328,0.02836
1.332,0.01176
1.336,0.01801
1.34,0.02965
1.344,0.01609
1.348,0.03228
1.352,0.01343
1.356,0.02043
1.36,0.03256
1.364,0.03547
1.368,0.03226
1.372,0.02933
1.376,0.03607
1.38,-0.00879
1.384,-0.0216
1.388,-0.09073
1.392,-0.1049
1.396,-0.06425
1.4,0.05538
1.404,0.2105
1.408,0.39087
1.412,0.62878
1.416,0.80048
1.42,0.97364
1.424,1.01593
1.428,0.97165
1.432,0.81891
1.436,0.60396
1.44,0.36514
1.444,0.15601
1.448,0.01128
1.452,-0.12136
1.456,-0.15371
1.46,-0.12579
1.464,-0.09921
1.468,-0.05524
1.472,-0.03257
1.476,0.0188
1.48,0.01458
1.484,0.04206
1.488,0.01526
1.492,0.03946
1.496,0.0193
1.5,0.01494
1.504,0.04148
1.508,0.03343
1.512,0.01407
1.516,0.01987
1.52,0.05345
1.524,0.02721
1.528,0.02859
1.532,0.05705
1.536,0.03448
1.54,-0.00993
1.544,0.02203
1.548,0.01624
1.552,0.01287
1.556,0.02254
1.56,0.01612
1.564,0.03076
1.568,-0.00355
1.572,0.03677
1.576,0.02049
1.58,0.00959
1.584,0.03274
1.588,0.00602
1.592,0.01961
1.596,0.02727
1.6,0.01507
1.604,0.04151
1.608,0.03548
1.612,0.04377
1.616,0.05179
1.62,0.04655
1.624,0.06077
1.628,0.07592
1.632,0.08501
1.636,0.08862
1.64,0.08401
1.644,0.09315
1.648,0.13295
1.652,0.10878
1.656,0.13274
1.66,0.15079
1.664,0.15949
1.668,0.1622
1.672,0.20196
1.676,0.18393
1.68,0.20107
1.684,0.21417
1.688,0.2081
1.692,0.2236
1.696,0.21339
1.7,0.21296
1.704,0.25583
1.708,0.2442
1.712,0.22745
1.716,0.20139
1.72,0.24248
1.724,0.2157
1.728,0.20923
1.732,0.17263
1.736,0.1522
1.74,0.16023
1.744,0.16591
1.748,0.14315
1.752,0.12098
1.756,0.14203
1.76,0.15239
1.764,0.11338
1.768,0.10946
1.772,0.09192
1.776,0.08195
1.78,0.08398
1.784,0.05723
1.788,0.06074
1.792,0.03375
1.796,0.02489
1.8,0.06311
1.804,0.02283
1.808,0.0315
1.812,0.01548
1.816,0.01621
1.82,0.01273
1.824,0.03353
1.828,0.01608
1.832,0.01531
1.836,0.00505
1.84,-0.01478
1.844,-0.01379
1.848,0.03352
1.852,0.0083
1.856,0.01176
1.86,0.0035
1.864,0.02067
1.868,0.00424
1.872,-0.02452
1.876,-0.0015
1.88,-0.0204
1.884,0.02473
1.888,0.04724
1.892,0.0007
1.896,0.00254
1.9,0.01704
1.904,0.01017
1.908,0.0341
1.912,0.01945
1.916,0.02509
1.92,-0.00579
1.924,0.00123
1.928,-0.00209
1.932,-0.00443
1.936,0.00303
1.94,-0.00242
1.944,0.00719
1.948,0.00801
1.952,0.00776
1.956,0.01389
1.96,0.01086
1.964,-0.00537
1.968,0.05265
1.972,-0.01332
1.976,-0.00137
1.98,0.00463
1.984,0.02224
1.988,0.02452
1.992,0.02548
1.996,0.0318
2.0,0.09143
2.004,0.04247
2.008,0.07456
2.012,0.07316
2.016,0.12519
2.02,0.09951
2.024,0.08239
2.028,0.10554
2.032,0.07211
2.036,0.08068
2.04,0.06587
2.044,0.04563
2.048,0.05784
2.052,0.02484
2.056,0.0377
2.06,0.01556
2.064,0.03411
2.068,0.02096
2.072,-0.00537
2.076,-0.01934
2.08,-0.00405
2.084,0.02975
2.088,0.0106
2.092,0.01828
2.096,0.03188
2.1,-0.01139
2.104,0.01197
2.108,0.00879
2.112,0.01444
2.116,0.01057
2.12,-0.01243
2.124,0.00705
2.128,-0.01154
2.132,-0.01161
2.136,-0.0117
2.14,-0.03496
2.144,-0.08127
2.148,-0.09795
2.152,-0.11894
2.156,-0.03729
2.16,0.09518
2.164,0.25978
2.168,0.48503
2.172,0.69044
2.176,0.89227
2.18,0.97545
2.184,0.99301
2.188,0.86323
2.192,0.68562
2.196,0.45179
2.2,0.23932
2.204,0.06068
2.208,-0.10922
2.212,-0.15974
2.216,-0.1613
2.22,-0.133
2.224,-0.08557
2.228,-0.06908
2.232,-0.00563
2.236,-0.02279
2.24,-0.02103
2.244,0.02071
2.248,0.00696
2.252,0.00624
2.256,9e-05
2.26,-0.00875
2.264,0.01178
2.268,-0.00377
2.272,0.00696
2.276,-0.00821
2.28,0.03724
2.284,0.00828
2.288,-0.0151
2.292,-0.01327
2.296,-0.01108
2.3,0.01398
2.304,0.0117
2.308,0.00331
2.312,0.00142
2.316,0.01187
2.32,0.00355
2.324,0.03316
2.328,0.01852
2.332,0.0046
2.336,-0.02695
2.34,0.01731
2.344,-0.00029
2.348,0.00798
2.352,0.02239
2.356,0.02313
2.36,-0.00621
2.364,0.03038
2.368,0.02512
2.372,0.00485
2.376,0.05167
2.38,0.04835
2.384,0.03931
2.388,0.05017
2.392,0.08885
2.396,0.07029
2.4,0.09816
2.404,0.0895
2.408,0.11676
2.412,0.11118
2.416,0.12788
2.42,0.13841
2.424,0.16288
2.428,0.1578
2.432,0.17451
2.436,0.1942
2.44,0.19979
2.444,0.20741
2.448,0.20525
2.452,0.2128
2.456,0.21708
2.46,0.2221
2.464,0.2118
2.468,0.21625
2.472,0.21987
2.476,0.21846
2.48,0.21282
2.484,0.18501
2.488,0.19564
2.492,0.1411
2.496,0.15078
2.5,0.14606
2.504,0.1221
2.508,0.14183
2.512,0.11688
2.516,0.1092
2.52,0.09716
2.524,0.08991
2.528,0.05295
2.532,0.03036
2.536,0.04347
2.54,0.07096
2.544,0.06525
2.548,0.04159
2.552,0.01751
2.556,0.03871
2.56,0.01752
2.564,0.00314
2.568,0.0201
2.572,0.01792
2.576,0.00437
2.58,-0.00286
2.584,-0.01842
2.588,-0.00982
2.592,0.00737
2.596,-0.02077
2.6,-0.01125
2.604,-0.01427
2.608,-0.00598
2.612,-0.04728
2.616,-0.03655
2.62,-0.0087
2.624,0.00157
2.628,-0.01103
2.632,0.00585
2.636,-0.02172
2.64,-0.00823
2.644,-0.01508
2.648,0.0158
2.652,-0.00162
2.656,-0.0072
2.66,-0.01315
2.664,0.01246
2.668,0.01402
2.672,0.02342
2.676,0.03236
2.68,0.03526
2.684,0.03859
2.688,0.06289
2.692,0.05688
2.696,0.07747
2.7,0.09006
2.704,0.06757
2.708,0.05103
2.712,0.07618
2.716,0.04975
2.72,0.0486
2.724,0.05665
2.728,0.03539
2.732,0.02489
2.736,-0.00821
2.74,-0.00342
2.744,0.00176
2.748,-0.03025
2.752,-0.02532
2.756,-0.00472
2.76,-0.00287
2.764,-0.01352
2.768,-0.01817
2.772,-0.00324
2.776,-0.03386
2.78,-0.02448
2.784,-0.0161
2.788,-0.00582
2.792,0.00052
2.796,-0.03308
2.8,-0.02023
2.804,-0.01389
2.808,0.00328
2.812,-0.02017
2.816,-0.04278
2.82,-0.05925
2.824,-0.13931
2.828,-0.13723
2.832,-0.09699
2.836,0.02011
2.84,0.16532
2.844,0.39134
2.848,0.58387
2.852,0.79733
2.856,0.9088
2.86,0.9876
2.864,0.93369
2.868,0.75079
2.872,0.55798
2.876,0.32772
2.88,0.11865
2.884,-0.05646
2.888,-0.15856
2.892,-0.18666
2.896,-0.1384
2.9,-0.13898
2.904,-0.07207
2.908,-0.08346
2.912,-0.01968
2.916,-0.02186
2.92,-0.00608
2.924,-0.03171
2.928,-0.01678
2.932,-0.02035
2.936,-0.00795
2.94,-0.00658
2.944,-0.04158
2.948,-0.01819
2.952,-0.01117
2.956,-0.01435
2.96,0.01043
2.964,-0.02096
2.968,-0.01062
2.972,-0.02712
2.976,-0.00209
2.98,-0.01859
2.984,-0.01064
2.988,-0.02438
2.992,-0.01399
2.996,-0.024
3.0,-0.00801
3.004,-0.02935
3.008,-0.02977
3.012,-0.01414
3.016,-0.00988
3.02,0.00206
3.024,-0.01325
3.028,-0.01106
3.032,-0.03245
3.036,0.0043
3.04,0.00573
3.044,0.0075
3.048,0.00551
3.052,0.03458
3.056,0.02077
3.06,0.01198
3.064,0.02952
3.068,0.02391
3.072,0.03473
3.076,0.0677
3.08,0.06056
3.084,0.11253
3.088,0.12642
3.092,0.08992
3.096,0.10902
3.1,0.12245
3.104,0.16169
3.108,0.15259
3.112,0.14405
3.116,0.18979
3.12,0.18713
3.124,0.19632
3.128,0.18627
3.132,0.21947
3.136,0.18659
3.14,0.20412
3.144,0.20007
3.148,0.19412
3.152,0.1834
3.156,0.1914
3.16,0.17872
3.164,0.15994
3.168,0.17226
3.172,0.14667
3.176,0.10501
3.18,0.12072
3.184,0.11946
3.188,0.10446
3.192,0.09473
3.196,0.08886
3.2,0.05682
3.204,0.06533
3.208,0.04428
3.212,0.037
3.216,0.0269
3.22,0.04861
3.224,0.02296
3.228,0.03127
3.232,-0.0007
3.236,-0.01468
3.24,0.03573
3.244,-0.02893
3.248,-0.0377
3.252,-0.00633
3.256,-0.04497
3.26,-0.04787
3.264,6e-05
3.268,-0.02155
3.272,-0.04044
3.276,-0.01758
3.28,-0.00428
3.284,-0.02346
3.288,-0.00855
3.292,-0.01386
3.296,-0.03235
3.3,-0.01939
3.304,-0.019
3.308,-0.0141
3.312,-0.02423
3.316,-0.04275
3.32,-0.03358
3.324,-0.01329
3.328,-0.04648
3.332,-0.00533
3.336,-0.05404
3.34,-0.02319
3.344,-0.0334
3.348,-0.02143
3.352,-0.03666
3.356,-0.00219
3.36,-0.03006
3.364,-0.01793
3.368,-0.02763
3.372,-0.01959
3.376,-0.01727
3.38,0.00736
3.384,-0.0263
3.388,-0.0148
3.392,-0.0122
3.396,-0.01066
3.4,-0.01612
3.404,-0.03435
3.408,-0.04331
3.412,0.00299
3.416,0.00344
3.42,-0.02888
3.424,-0.0278
3.428,-0.03455
3.432,-0.01817
3.436,0.00367
3.44,-0.0241
3.444,-0.02273
3.448,-0.02255
3.452,-0.01571
3.456,-0.04304
3.46,-0.03659
3.464,-0.00842
3.468,-0.02936
3.472,-0.00835
3.476,-0.05081
3.48,-0.03757
3.484,-0.0068
3.488,-0.03099
3.492,-0.0391
3.496,0.00134
3.5,-0.0064
3.504,-0.03207
3.508,-0.03232
3.512,-0.02372
3.516,-0.02787
3.52,-0.01952
3.524,0.00792
3.528,-0.00749
3.532,0.02525
3.536,0.02558
3.54,0.01661
3.544,0.08007
3.548,0.07179
3.552,0.04647
3.556,0.04602
3.56,0.07127
3.564,0.06581
3.568,0.08157
3.572,0.07154
3.576,0.03494
3.58,0.02116
3.584,0.00853
3.588,-0.0067
3.592,0.00218
3.596,0.00183
3.6,-0.00662
3.604,-0.01179
3.608,-0.02418
3.612,-0.05005
3.616,-0.02945
3.62,-0.02474
3.624,-0.02024
3.628,-0.04498
3.632,-0.01125
3.636,-0.04844
3.64,-0.04579
3.644,-0.0362
3.648,-0.04343
3.652,-0.03383
3.656,-0.01575
3.66,-0.01067
3.664,-0.01235
3.668,-0.03122
3.672,-0.04531
3.676,-0.07868
3.68,-0.10822
3.684,-0.11826
3.688,-0.14093
3.692,-0.07512
3.696,0.05691
3.7,0.23708
3.704,0.42236
3.708,0.63321
3.712,0.8284
3.716,0.94542
3.72,0.97564
3.724,0.86951
3.728,0.6612
3.732,0.45368
3.736,0.22949
3.74,0.0303
3.744,-0.12827
3.748,-0.18386
3.752,-0.2116
3.756,-0.18739
3.76,-0.14652
3.764,-0.06754
3.768,-0.05746
3.772,-0.08043
3.776,-0.06583
3.78,-0.0525
3.784,-0.0314
3.788,-0.02996
3.792,-0.04137
3.796,-0.02843
3.8,-0.01948
3.804,-0.0345
3.808,-0.02231
3.812,-0.00675
3.816,-0.02972
3.82,-0.00952
3.824,-0.03701
3.828,-0.02831
3.832,-0.03978
3.836,-0.05058
3.84,-0.02376
3.844,-0.04672
3.848,-0.01798
3.852,-0.02753
3.856,-0.02261
3.86,-0.04529
3.864,-0.02953
3.868,-0.02966
3.872,-0.04602
3.876,-0.04161
3.88,-0.02396
3.884,-0.03609
3.888,-0.03059
3.892,-0.00897
3.896,-0.03069
3.9,0.00179
3.904,-0.00231
3.908,0.00386
3.912,0.00596
3.916,0.01548
3.92,0.00967
3.924,0.02762
3.928,0.03552
3.932,0.02865
3.936,0.06624
3.94,0.08717
3.944,0.05867
3.948,0.09268
3.952,0.10463
3.956,0.08694
3.96,0.14518
3.964,0.14649
3.968,0.14188
3.972,0.13876
3.976,0.1558
3.98,0.15036
3.984,0.17381
3.988,0.1743
3.992,0.1733
3.996,0.21249
4.0,0.18517
4.004,0.1678
4.008,0.18231
4.012,0.18885
4.016,0.16915
4.02,0.15664
4.024,0.14755
4.028,0.15586
4.032,0.15814
4.036,0.09642
4.04,0.09324
4.044,0.10879
4.048,0.08894
4.052,0.08128
4.056,0.0634
4.06,0.05827
4.064,0.05485
4.068,0.06243
4.072,0.01007
4.076,0.01519
4.08,0.01638
4.084,-0.01096
4.088,0.00893
4.092,-0.01505
4.096,0.00804
4.1,0.02023
4.104,-0.01692
4.108,-0.00049
4.112,-0.00478
4.116,-0.01836
4.12,-0.01114
4.124,-0.04465
4.128,-0.04074
4.132,-0.01613
4.136,-0.02558
4.14,-0.04589
4.144,0.01668
4.148,-0.00393
4.152,-0.05401
4.156,-0.03567
4.16,-0.02736
4.164,-0.03768
4.168,-0.04981
4.172,0.0177
4.176,-0.03815
4.18,-0.04468
4.184,-0.02781
4.188,-0.0025
4.192,-0.01891
4.196,-0.03743
4.2,-0.03867
4.204,-0.03844
4.208,-0.02618
4.212,-0.04982
4.216,-0.01487
4.22,-0.02194
4.224,-0.03915
4.228,-0.03205
4.232,-0.02447
4.236,-0.02227
4.24,-0.03622
4.244,-0.04829
4.248,-0.02198
4.252,-0.04607
4.256,-0.02939
4.26,-0.02079
4.264,-0.01242
4.268,-0.02042
4.272,0.00311
4.276,0.00952
4.28,0.00246
4.284,0.02485
4.288,0.01705
4.292,0.04217
4.296,0.05076
4.3,0.05745
4.304,0.05703
4.308,0.10329
4.312,0.0793
4.316,0.07191
4.32,0.07416
4.324,0.0297
4.328,0.05828
4.332,0.03364
4.336,0.01764
4.34,0.02892
4.344,0.00255
4.348,0.01755
4.352,-0.036
4.356,-0.03383
4.36,-0.00936
4.364,-0.01442
4.368,-0.01799
4.372,-0.0266
4.376,-0.0319
4.38,-0.04146
4.384,-0.05491
4.388,-0.04303
4.392,-0.02775
4.396,-0.00194
4.4,0.00035
4.404,-0.03182
4.408,-0.04214
4.412,-0.03664
4.416,-0.0047
4.42,-0.03249
4.424,-0.04411
4.428,-0.09658
4.432,-0.12434
4.436,-0.13683
4.44,-0.15254
4.444,-0.05376
4.448,0.04713
4.452,0.22097
4.456,0.44654
4.46,0.68591
4.464,0.84515
4.468,0.97549
4.472,0.96173
4.476,0.85215
4.48,0.65452
4.484,0.42737
4.488,0.20312
4.492,0.02176
4.496,-0.1223
4.5,-0.16172
4.504,-0.18187
4.508,-0.13672
4.512,-0.14388
4.516,-0.07494
4.52,-0.06686
4.524,-0.03343
4.528,-0.02471
4.532,-0.02056
4.536,-0.01077
4.54,-0.01901
4.544,-0.03503
4.548,-0.02827
4.552,-0.05622
4.556,-0.0155
4.56,-0.01902
4.564,-0.03013
4.568,-0.04391
4.572,-0.01248
4.576,-0.02628
4.58,-0.02517
4.584,-0.02256
4.588,-0.03925
4.592,-0.05583
4.596,-0.02803
4.6,-0.04268
4.604,-0.00592
4.608,-0.02463
4.612,-0.00285
4.616,-0.03481
4.62,-0.03577
4.624,-0.04887
4.628,-0.02372
4.632,-0.02765
4.636,-0.02694
4.64,-0.00132
4.644,0.00254
4.648,-0.00406
4.652,-0.01624
4.656,-0.03729
4.66,0.02743
4.664,-0.00254
4.668,0.01633
4.672,0.00685
4.676,0.04541
4.68,0.02858
4.684,0.03862
4.688,0.0308
4.692,0.09639
4.696,0.10428
4.7,0.0801
4.704,0.09138
4.708,0.14325
4.712,0.12016
4.716,0.13187
4.72,0.15896
4.724,0.1745
4.728,0.17379
4.732,0.19483
4.736,0.18203
4.74,0.18442
4.744,0.19333
4.748,0.20594
4.752,0.20845
4.756,0.20363
4.76,0.20643
4.764,0.1853
4.768,0.16361
4.772,0.184
4.776,0.18136
4.78,0.15619
4.784,0.12961
4.788,0.13881
4.792,0.09477
4.796,0.11411
4.8,0.0873
4.804,0.09932
4.808,0.09711
4.812,0.06693
4.816,0.0704
4.82,0.02443
4.824,0.01544
4.828,-0.00041
4.832,0.0013
4.836,0.02284
4.84,-0.02157
4.844,-0.0048
4.848,-0.00699
4.852,0.01552
4.856,0.00402
4.86,-0.02427
4.864,0.01102
4.868,0.01355
4.872,-0.01148
4.876,-0.01804
4.88,-0.0432
4.884,-0.02928
4.888,-0.01803
4.892,-0.01061
4.896,0.00321
4.9,-0.00865
4.904,-0.02219
4.908,-0.01316
4.912,-0.02168
4.916,-0.00919
4.92,-0.00994
4.924,-0.01086
4.928,0.00095
4.932,0.00243
4.936,0.00619
4.94,0.03384
4.944,0.06676
4.948,0.07978
4.952,0.07352
4.956,0.07344
4.96,0.06627
4.964,0.06919
4.968,0.08174
4.972,0.09479
4.976,0.05636
4.98,0.04921
4.984,0.02898
4.988,0.03288
4.992,-0.01301
4.996,0.0214
5.0,-0.01019
5.004,0.01878
5.008,-0.01245
5.012,-0.05292
5.016,-0.03137
5.02,-0.02151
5.024,-0.00706
5.028,-0.02995
5.032,-0.02017
5.036,-0.0045
5.04,-0.02463
5.044,-0.01043
5.048,-0.02938
5.052,-0.01264
5.056,-0.01658
5.06,-0.03404
5.064,-0.02089
5.068,-0.01102
5.072,-0.03093
5.076,-0.02491
5.08,-0.07673
5.084,-0.07385
5.088,-0.1196
5.092,-0.10025
5.096,-0.04082
5.1,0.09803
5.104,0.29024
5.108,0.4846
5.112,0.7084
5.116,0.89337
5.12,0.96767
5.124,0.99513
5.128,0.84812
5.132,0.65548
5.136,0.42251
5.14,0.18684
5.144,0.0218
5.148,-0.10476
5.152,-0.16853
5.156,-0.16821
5.16,-0.14555
5.164,-0.11476
5.168,-0.06032
5.172,-0.01263
5.176,-0.01772
5.18,-0.0235
5.184,-0.02315
5.188,-0.01525
5.192,-0.01827
5.196,-0.03222
5.2,-0.02842
5.204,-0.01854
5.208,-0.01503
5.212,-0.03406
5.216,-0.00396
5.22,0.0251
5.224,0.00199
5.228,0.01272
5.232,-0.02891
5.236,-0.02252
5.24,-0.03898
5.244,-0.02538
5.248,0.0103
5.252,-0.00799
5.256,-0.03512
5.26,-0.00594
5.264,-0.02046
5.268,0.0131
5.272,0.00873
5.276,0.01299
5.28,-0.01207
5.284,0.01713
5.288,0.00509
5.292,0.00563
5.296,0.0053
5.3,-0.01574
5.304,0.03985
5.308,0.00995
5.312,0.01735
5.316,0.0237
5.32,0.05931
5.324,0.07087
5.328,0.05029
5.332,0.05823
5.336,0.02691
5.34,0.07272
5.344,0.09802
5.348,0.0691
5.352,0.11853
5.356,0.11923
5.36,0.10965
5.364,0.15028
5.368,0.19211
5.372,0.17504
5.376,0.19891
5.38,0.19078
5.384,0.19433
5.388,0.22006
5.392,0.2044
5.396,0.19406
5.4,0.22631
5.404,0.23364
5.408,0.24599
5.412,0.19881
5.416,0.21345
5.42,0.17937
5.424,0.17751
5.428,0.19884
5.432,0.16451
5.436,0.16049
5.44,0.15883
5.444,0.13854
5.448,0.12614
5.452,0.12074
5.456,0.12075
5.46,0.07631
5.464,0.06581
5.468,0.06368
5.472,0.03756
5.476,0.05146
5.48,0.03486
5.484,0.03567
5.488,0.07717
5.492,-0.02021
5.496,0.03181
5.5,-0.01115
5.504,0.01545
5.508,0.01691
5.512,0.00089
5.516,-0.00723
5.52,0.01454
5.524,-0.00031
5.528,-0.00342
5.532,-0.00385
5.536,-0.01049
5.54,0.03931
5.544,0.02107
5.548,-0.00685
5.552,0.00347
5.556,0.00835
5.56,-0.01194
5.564,-0.00331
5.568,0.00014
5.572,0.0099
5.576,0.00354
5.58,0.01128
5.584,0.00894
5.588,-0.01291
5.592,0.01537
5.596,-0.01283
5.6,0.00202
5.604,0.0253
5.608,0.02842
5.612,0.04443
5.616,0.01829
5.62,0.05414
5.624,0.063
5.628,0.07416
5.632,0.08348
5.636,0.0828
5.64,0.10894
5.644,0.11667
5.648,0.11932
5.652,0.0825
5.656,0.07671
5.66,0.05927
5.664,0.04935
5.668,0.03334
5.672,0.00599
5.676,0.00582
5.68,0.02564
5.684,0.04012
5.688,0.00625
5.692,0.00493
5.696,-0.00448
5.7,0.00423
5.704,-0.00052
5.708,0.01389
5.712,0.0254
5.716,0.00098
5.72,0.01174
5.724,0.01062
5.728,-0.01325
5.732,0.02692
5.736,-0.01382
5.74,-0.00089
5.744,-0.0269
5.748,0.01313
5.752,0.00386
5.756,-0.00498
5.76,-0.04286
5.764,-0.06862
5.768,-0.09742
5.772,-0.10649
5.776,-0.07369
5.78,0.05122
5.784,0.22683
5.788,0.42858
5.792,0.64114
5.796,0.86067
5.8,0.95628
5.804,1.00168
5.808,0.94928
5.812,0.73391
5.816,0.53274
5.82,0.2963
5.824,0.09751
5.828,-0.05921
5.832,-0.12022
5.836,-0.14056
5.84,-0.12471
5.844,-0.1128
5.848,-0.00831
5.852,-0.02635
5.856,-0.00486
5.86,0.03315
5.864,-0.01468
5.868,0.02448
5.872,-0.01067
5.876,-0.00151
5.88,0.01016
5.884,0.00757
5.888,0.02187
5.892,0.01334
5.896,-0.03997
5.9,0.0259
5.904,0.01332
5.908,0.01728
5.912,0.01472
5.916,0.00465
5.92,0.00793
5.924,0.01303
5.928,0.0048
5.932,0.0045
5.936,-2e-05
5.94,0.01329
5.944,0.00461
5.948,-0.01091
5.952,0.01076
5.956,0.02513
5.96,0.03587
5.964,0.01875
5.968,0.01284
5.972,0.04497
5.976,0.01715
5.98,0.02473
5.984,0.01881
5.988,0.04165
5.992,0.07364
5.996,0.06704
6.0,0.0915
6.004,0.03751
6.008,0.05832
6.012,0.0631
6.016,0.0708
6.02,0.10424
6.024,0.10822
6.028,0.11517
6.032,0.1269
6.036,0.16036
6.04,0.16881
6.044,0.13622
6.048,0.16691
6.052,0.18644
6.056,0.19892
6.06,0.20742
6.064,0.22126
6.068,0.19196
6.072,0.21191
6.076,0.20767
6.08,0.24364
6.084,0.20142
6.088,0.22694
6.092,0.21795
6.096,0.21672
6.1,0.20393
6.104,0.2363
6.108,0.18261
6.112,0.20271
6.116,0.19676
6.12,0.17338
6.124,0.16117
6.128,0.1265
6.132,0.13875
6.136,0.12068
6.14,0.1295
6.144,0.12097
6.148,0.07069
6.152,0.07693
6.156,0.07385
6.16,0.09313
6.164,0.0586
6.168,0.06515
6.172,0.03628
6.176,0.0547
6.18,0.05755
6.184,0.04208
6.188,0.02179
6.192,0.03752
6.196,0.03269
6.2,-0.00205
6.204,0.02588
6.208,0.02633
6.212,0.03305
6.216,-0.02048
6.22,0.00253
6.224,0.02932
6.228,0.00917
6.232,0.02725
6.236,0.01748
6.24,0.04878
6.244,0.02388
6.248,0.04557
6.252,0.01596
6.256,0.01569
6.26,0.01913
6.264,0.01072
6.268,0.03
6.272,0.01323
6.276,0.01208
6.28,0.01771
6.284,0.02814
6.288,0.00656
6.292,-0.0016
6.296,0.00671
6.3,0.01219
6.304,0.03191
6.308,0.03406
6.312,0.00853
6.316,0.02065
6.32,0.03124
6.324,0.03071
6.328,0.08108
6.332,0.04923
6.336,0.0839
6.34,0.07106
6.344,0.07069
6.348,0.07742
6.352,0.13557
6.356,0.12104
6.36,0.12546
6.364,0.13839
6.368,0.12561
6.372,0.10706
6.376,0.09115
6.38,0.07405
6.384,0.07251
6.388,0.04419
6.392,0.03725
6.396,0.05596
6.4,0.03522
6.404,0.05799
6.408,0.01669
6.412,0.02305
6.416,0.04489
6.42,0.03062
6.424,-0.00878
6.428,0.03022
6.432,0.04829
6.436,0.00723
6.44,0.01539
6.444,0.00677
6.448,0.03168
6.452,0.03215
6.456,0.01996
6.46,0.02605
6.464,0.01163
6.468,0.03728
6.472,0.00294
6.476,-0.00168
6.48,-0.01649
6.484,-0.03736
6.488,-0.0773
6.492,-0.08112
6.496,-0.01419
6.5,0.0738
6.504,0.28551
6.508,0.48369
6.512,0.71237
6.516,0.88846
6.52,1.03198
6.524,1.01844
6.528,0.88336
6.532,0.72353
6.536,0.49278
6.54,0.26472
6.544,0.07148
6.548,-0.05912
6.552,-0.13147
6.556,-0.14293
6.56,-0.1191
6.564,-0.06948
6.568,-0.04595
6.572,0.00515
6.576,0.01774
6.58,0.00404
6.584,0.00935
6.588,0.01583
6.592,-0.00501
6.596,0.02653
6.6,0.01335
6.604,0.06558
6.608,0.01225
6.612,0.00409
6.616,0.00982
6.62,0.03013
6.624,0.01028
6.628,-0.0025
6.632,0.03844
6.636,0.00142
6.64,0.0172
6.644,0.00826
6.648,0.06233
6.652,0.00898
6.656,0.02227
6.66,0.01955
6.664,0.05839
6.668,0.05882
6.672,0.01501
6.676,0.04957
6.68,0.04998
6.684,0.04802
6.688,0.05665
6.692,0.04417
6.696,0.05563
6.7,0.0724
6.704,0.06243
6.708,0.06541
6.712,0.06137
6.716,0.04568
6.72,0.06652
6.724,0.06091
6.728,0.09985
6.732,0.10191
6.736,0.0861
6.74,0.10499
6.744,0.10377
6.748,0.1124
6.752,0.13446
6.756,0.14258
6.76,0.15992
6.764,0.19037
6.768,0.19168
6.772,0.17976
6.776,0.20426
6.78,0.23331
6.784,0.23714
6.788,0.24775
6.792,0.24951
6.796,0.26842
6.8,0.2327
6.804,0.25146
6.808,0.25245
6.812,0.2527
6.816,0.26489
6.82,0.23375
6.824,0.24661
6.828,0.20468
6.832,0.21807
6.836,0.19047
6.84,0.19288
6.844,0.18726
6.848,0.1502
6.852,0.14226
6.856,0.13293
6.86,0.11597
6.864,0.11387
6.868,0.09636
6.872,0.10118
6.876,0.11716
6.88,0.07966
6.884,0.09393
6.888,0.08708
6.892,0.06288
6.896,0.04092
6.9,0.0655
6.904,0.07259
6.908,0.04638
6.912,0.04113
6.916,0.04669
6.92,0.04094
6.924,0.03232
6.928,0.05925
6.932,0.03882
6.936,0.04614
6.94,0.02278
6.944,0.0485
6.948,0.06181
6.952,0.03819
6.956,0.01325
6.96,0.02712
6.964,0.04847
6.968,0.05266
6.972,0.03188
6.976,0.03622
6.98,0.03062
6.984,0.04449
6.988,0.02732
6.992,0.03353
6.996,0.00579
7.0,0.03321
7.004,0.01054
7.008,0.01578
7.012,0.02577
7.016,0.04576
7.02,0.0497
7.024,0.05126
7.028,0.04801
7.032,0.04599
7.036,0.05043
7.04,0.05388
7.044,0.06608
7.048,0.05531
7.052,0.04747
7.056,0.07994
7.06,0.08177
7.064,0.10027
7.068,0.13611
7.072,0.11372
7.076,0.09982
7.08,0.14473
7.084,0.12159
7.088,0.12173
7.092,0.09542
7.096,0.10189
7.1,0.09537
7.104,0.08208
7.108,0.09103
7.112,0.07881
7.116,0.03549
7.12,0.05891
7.124,-0.00056
7.128,0.03313
7.132,0.04884
7.136,0.02686
7.14,0.05142
7.144,0.02328
7.148,0.02428
7.152,0.02921
7.156,0.04516
7.16,0.01336
7.164,0.02133
7.168,0.03457
7.172,0.03979
7.176,0.04097
7.18,0.02035
7.184,-0.01275
7.188,0.01939
7.192,-0.01277
7.196,0.00211
7.2,-0.06665
7.204,-0.08002
7.208,-0.09384
7.212,-0.06162
7.216,0.12691
7.22,0.29832
7.224,0.47952
7.228,0.69048
7.232,0.89609
7.236,1.01668
7.24,1.01487
7.244,0.9154
7.248,0.70569
7.252,0.46633
7.256,0.29389
7.26,0.08035
7.264,-0.04869
7.268,-0.10656
7.272,-0.11383
7.276,-0.10413
7.28,-0.07151
7.284,-0.04369
7.288,0.01245
7.292,0.00468
7.296,0.01782
7.3,0.01527
7.304,0.02588
7.308,0.03496
7.312,0.02153
7.316,0.04433
7.32,0.04229
7.324,0.02909
7.328,0.02766
7.332,0.01713
7.336,0.04686
7.34,-0.00111
7.344,0.04106
7.348,0.04701
7.352,0.02492
7.356,0.04213
7.36,0.03765
7.364,0.05325
7.368,0.04623
7.372,0.03646
7.376,0.03081
7.38,0.02379
7.384,0.06062
7.388,0.04773
7.392,0.05625
7.396,0.04233
7.4,0.07332
7.404,0.0528
7.408,0.04576
7.412,0.04058
7.416,0.05411
7.42,0.04936
7.424,0.05854
7.428,0.06227
7.432,0.06234
7.436,0.08042
7.44,0.0826
7.444,0.10322
7.448,0.10045
7.452,0.12092
7.456,0.11853
7.46,0.13759
7.464,0.14211
7.468,0.14512
7.472,0.15437
7.476,0.14178
7.48,0.18848
7.484,0.16552
7.488,0.19797
7.492,0.21896
7.496,0.25147
7.5,0.20454
7.504,0.24721
7.508,0.22614
7.512,0.25623
7.516,0.25072
7.52,0.22297
7.524,0.25948
7.528,0.22933
7.532,0.23615
7.536,0.23166
7.54,0.23025
7.544,0.22086
7.548,0.19169
7.552,0.20345
7.556,0.19264
7.56,0.1724
7.564,0.15166
7.568,0.14543
7.572,0.12712
7.576,0.14236
7.58,0.10497
7.584,0.12921
7.588,0.10005
7.592,0.09151
7.596,0.07567
7.6,0.08952
7.604,0.0758
7.608,0.05328
7.612,0.04745
7.616,0.04388
7.62,0.05662
7.624,0.02382
7.628,0.05122
7.632,0.03102
7.636,0.06389
7.64,0.03509
7.644,0.04705
7.648,0.02986
7.652,0.01891
7.656,0.02175
7.66,0.04523
7.664,0.0508
7.668,0.01574
7.672,0.02223
7.676,0.04061
7.68,0.01559
7.684,0.0049
7.688,0.02378
7.692,0.02891
7.696,0.02244
7.7,0.03514
7.704,0.0253
7.708,0.05767
7.712,0.02257
7.716,0.02275
7.72,0.01481
7.724,0.02204
7.728,-0.01363
7.732,0.02729
7.736,0.05944
7.74,0.02546
7.744,0.02978
7.748,0.02502
7.752,0.0144
7.756,0.05146
7.76,0.01168
7.764,0.03002
7.768,0.04574
7.772,0.05501
7.776,0.04021
7.78,0.02497
7.784,0.04109
7.788,0.05821
7.792,0.04853
7.796,0.06923
7.8,0.06644
7.804,0.10372
7.808,0.11208
7.812,0.09652
7.816,0.11548
7.82,0.11157
7.824,0.14268
7.828,0.12405
7.832,0.1286
7.836,0.11019
7.84,0.10187
7.844,0.08193
7.848,0.06388
7.852,0.07393
7.856,0.06717
7.86,0.01595
7.864,0.03734
7.868,0.03382
7.872,0.03583
7.876,0.03412
7.88,0.01997
7.884,0.05223
7.888,0.00895
7.892,0.04986
7.896,0.02316
7.9,0.0264
7.904,0.04157
7.908,0.01048
7.912,0.01431
7.916,0.03706
7.92,0.03899
7.924,0.03043
7.928,0.04415
7.932,0.00454
7.936,0.05502
7.94,0.03129
7.944,-0.04322
7.948,-0.09309
7.952,-0.08201
7.956,-0.04226
7.96,0.02765
7.964,0.21628
7.968,0.36216
7.972,0.59766
7.976,0.78176
7.98,0.95006
7.984,1.0279
7.988,0.97098
7.992,0.82535
7.996,0.61928
8.0,0.38575
8.004,0.15437
8.008,0.00147
8.012,-0.10891
8.016,-0.14758
8.02,-0.14587
8.024,-0.09817
8.028,-0.05466
8.032,-0.03079
8.036,0.01241
8.04,0.029
8.044,0.01923
8.048,0.01137
8.052,0.02113
8.056,0.01767
8.06,0.01961
8.064,0.0359
8.068,0.01261
8.072,0.00593
8.076,0.04553
8.08,0.01206
8.084,0.01605
8.088,0.0328
8.092,0.02799
8.096,0.02372
8.1,0.02952
8.104,0.0206
8.108,0.02168
8.112,0.02807
8.116,0.01277
8.12,0.03947
8.124,0.02316
8.128,0.01319
8.132,0.02298
8.136,0.0376
8.14,0.01246
8.144,0.04844
8.148,0.03621
8.152,0.05416
8.156,0.05051
8.16,0.01932
8.164,0.05429
8.168,0.0159
8.172,0.03172
8.176,0.04913
8.18,0.03526
8.184,0.04551
8.188,0.07987
8.192,0.11
8.196,0.09681
8.2,0.08144
8.204,0.1082
8.208,0.13203
8.212,0.13711
8.216,0.14159
8.22,0.16216
8.224,0.16198
8.228,0.18636
8.232,0.21243
8.236,0.18542
8.24,0.22433
8.244,0.22635
8.248,0.21455
8.252,0.23697
8.256,0.23007
8.26,0.21774
8.264,0.21057
8.268,0.23266
8.272,0.24391
8.276,0.22643
8.28,0.2202
8.284,0.22263
8.288,0.19935
8.292,0.20403
8.296,0.18408
8.3,0.17047
8.304,0.17453
8.308,0.17428
8.312,0.16064
8.316,0.10785
8.32,0.13049
8.324,0.08404
8.328,0.10432
8.332,0.09211
8.336,0.07703
8.34,0.07649
8.344,0.06496
8.348,0.05089
8.352,0.03977
8.356,0.04884
8.36,0.03157
8.364,0.02427
8.368,0.02795
8.372,0.0302
8.376,0.01137
8.38,0.02727
8.384,0.04838
8.388,-0.00069
8.392,0.04701
8.396,0.01777
8.4,-0.01458
8.404,0.00185
8.408,0.00273
8.412,0.01361
8.416,-0.01521
8.42,0.00211
8.424,0.01465
8.428,0.00819
8.432,0.00868
8.436,0.02432
8.44,0.03088
8.444,0.03068
8.448,0.00888
8.452,0.01437
8.456,0.02441
8.46,0.02128
8.464,0.04196
8.468,0.0511
8.472,0.08367
8.476,0.06389
8.48,0.07383
8.484,0.07393
8.488,0.11465
8.492,0.10542
8.496,0.09749
8.5,0.10355
8.504,0.09029
8.508,0.11079
8.512,0.06686
8.516,0.08745
8.52,0.07541
8.524,0.04576
8.528,0.0302
8.532,0.04925
8.536,0.025
8.54,0.02279
8.544,-0.00978
8.548,0.01491
8.552,0.01579
8.556,0.00214
8.56,0.01177
8.564,-0.01833
8.568,0.04663
8.572,0.01032
8.576,0.01997
8.58,0.00451
8.584,0.02746
8.588,0.02921
8.592,-0.01492
8.596,0.0087
8.6,0.03612
8.604,0.00518
8.608,-0.01527
8.612,-0.00666
8.616,-0.04651
8.62,-0.06048
8.624,-0.13453
8.628,-0.091
8.632,-0.02119
8.636,0.10954
8.64,0.29421
8.644,0.49873
8.648,0.68514
8.652,0.87712
8.656,0.99599
8.66,1.00247
8.664,0.85713
8.668,0.66856
8.672,0.491
8.676,0.22468
8.68,0.05669
8.684,-0.11919
8.688,-0.13099
8.692,-0.14289
8.696,-0.12097
8.7,-0.10072
8.704,-0.05634
8.708,-0.03884
8.712,-0.02754
8.716,0.00314
8.72,-0.01779
8.724,0.02147
8.728,-0.0181
8.732,0.00156
8.736,0.01926
8.74,0.01819
8.744,0.0294
8.748,-0.00244
8.752,0.00159
8.756,0.00627
8.76,-0.00276
8.764,-0.00013
8.768,0.00743
8.772,-0.00778
8.776,-0.00774
8.78,-0.0265
8.784,-0.00535
8.788,0.01346
8.792,0.02113
8.796,0.02169
8.8,-0.01131
8.804,0.00806
8.808,0.00114
8.812,0.0013
8.816,0.02021
8.82,0.03354
8.824,0.01483
8.828,0.02327
8.832,-0.0014
8.836,0.04347
8.84,0.02087
8.844,0.03862
8.848,0.0234
8.852,0.03783
8.856,0.05791
8.86,0.05945
8.864,0.03852
8.868,0.06247
8.872,0.08781
8.876,0.09489
8.88,0.09449
8.884,0.09876
8.888,0.10603
8.892,0.14605
8.896,0.1515
8.9,0.18198
8.904,0.17118
8.908,0.19997
8.912,0.17098
8.916,0.20295
8.92,0.22294
8.924,0.22888
8.928,0.21633
8.932,0.2318
8.936,0.19736
8.94,0.21606
8.944,0.19615
8.948,0.19332
8.952,0.1934
8.956,0.22065
8.96,0.19939
8.964,0.18452
8.968,0.16117
8.972,0.13538
8.976,0.16256
8.98,0.1655
8.984,0.12564
8.988,0.1308
8.992,0.12632
8.996,0.12894
9.0,0.0851
9.004,0.0657
9.008,0.06437
9.012,0.07316
9.016,0.0445
9.02,0.04305
9.024,0.02333
9.028,0.02434
9.032,0.02367
9.036,0.01872
9.04,0.03547
9.044,-0.01715
9.048,-0.0003
9.052,0.00137
9.056,-0.01343
9.06,0.00151
9.064,-0.02942
9.068,0.01076
9.072,0.01207
9.076,0.01249
9.08,0.00641
9.084,0.001
9.088,-0.00072
9.092,-0.01462
9.096,0.00438
9.1,-0.00988
9.104,0.0173
9.108,-0.00254
9.112,-0.00864
9.116,-0.00384
9.12,0.00152
9.124,0.00794
9.128,-0.00101
9.132,0.01807
9.136,-0.01429
9.14,-0.02047
9.144,-0.00531
9.148,-0.02361
9.152,-0.00315
9.156,0.00611
9.16,0.0027
9.164,-0.01386
9.168,-0.02327
9.172,-0.00456
9.176,0.00654
9.18,0.00976
9.184,-0.01618
9.188,-0.01839
9.192,-0.00344
9.196,0.00919
9.2,-0.00382
9.204,-0.02729
9.208,0.00913
9.212,-0.04705
9.216,-0.00665
9.22,-0.02347
9.224,0.00348
9.228,0.00438
9.232,-0.01075
9.236,0.02029
9.24,-0.01422
9.244,-0.00842
9.248,-0.00693
9.252,-0.03341
9.256,-0.02157
9.26,-0.0118
9.264,-0.0212
9.268,0.01885
9.272,-0.02822
9.276,-0.0014
9.28,0.00642
9.284,-0.02883
9.288,-0.01744
9.292,-0.00135
9.296,-0.00935
9.3,-0.02108
9.304,-0.00381
9.308,-0.03539
9.312,-0.02921
9.316,-0.05014
9.32,-0.03762
9.324,-0.01792
9.328,-0.01084
9.332,0.00372
9.336,0.00425
9.34,-0.0306
9.344,0.00441
9.348,0.01717
9.352,-0.01834
9.356,-0.00074
9.36,0.02256
9.364,0.01691
9.368,0.03729
9.372,0.0449
9.376,0.03843
9.38,0.0604
9.384,0.06602
9.388,0.08808
9.392,0.08249
9.396,0.07653
9.4,0.0941
9.404,0.10415
9.408,0.07419
9.412,0.05597
9.416,0.03519
9.42,4e-05
9.424,0.02364
9.428,0.00163
9.432,0.01226
9.436,-0.00353
9.44,0.00894
9.444,-0.0377
9.448,-0.01056
9.452,-0.00709
9.456,-0.00168
9.46,-0.02323
9.464,-0.00974
9.468,0.00191
9.472,0.01061
9.476,-0.00528
9.48,-0.03786
9.484,0.01378
9.488,-0.03278
9.492,-0.01018
9.496,-0.00888
9.5,-0.01306
9.504,-0.0204
9.508,-0.04013
9.512,-0.02935
9.516,-0.06796
9.52,-0.14156
9.524,-0.13014
9.528,-0.11871
9.532,-0.01917
9.536,0.13916
9.54,0.32591
9.544,0.56477
9.548,0.74809
9.552,0.90244
9.556,0.99409
9.56,0.93462
9.564,0.77313
9.568,0.55952
9.572,0.33808
9.576,0.11807
9.58,-0.03495
9.584,-0.14596
9.588,-0.18274
9.592,-0.16005
9.596,-0.13408
9.6,-0.08856
9.604,-0.07326
9.608,-0.00849
9.612,-0.04507
9.616,-0.02235
9.62,-0.02647
9.624,0.01653
9.628,-0.0378
9.632,-0.0242
9.636,-0.02749
9.64,-0.01928
9.644,-0.05408
9.648,-0.01531
9.652,-0.00106
9.656,-0.02156
9.66,-0.03795
9.664,-0.00704
9.668,0.00273
9.672,-0.03227
9.676,-0.03608
9.68,-0.02627
9.684,-0.00651
9.688,-0.01004
9.692,-0.01539
9.696,-0.01009
9.7,-0.00382
9.704,-0.01765
9.708,0.0051
9.712,-0.03032
9.716,-0.0451
9.72,-0.00505
9.724,-0.00312
9.728,-0.01711
9.732,0.00269
9.736,-0.02972
9.74,-0.00379
9.744,0.01721
9.748,0.0181
9.752,0.0141
9.756,0.03759
9.76,0.03306
9.764,0.0606
9.768,0.01565
9.772,0.06654
9.776,0.06411
9.78,0.06289
9.784,0.09665
9.788,0.0725
9.792,0.09789
9.796,0.13179
9.8,0.13284
9.804,0.14476
9.808,0.15435
9.812,0.16218
9.816,0.16774
9.82,0.18868
9.824,0.20567
9.828,0.18141
9.832,0.20215
9.836,0.18677
9.84,0.21229
9.844,0.18573
9.848,0.16685
9.852,0.16522
9.856,0.18946
9.86,0.14482
9.864,0.16028
9.868,0.14616
9.872,0.13375
9.876,0.12178
9.88,0.13243
9.884,0.08703
9.888,0.09512
9.892,0.07724
9.896,0.09662
9.9,0.06794
9.904,0.07318
9.908,0.02446
9.912,0.01442
9.916,0.03299
9.92,0.03386
9.924,0.01576
9.928,-0.03169
9.932,0.02836
9.936,-0.01061
9.94,-0.02744
9.944,-0.00943
9.948,-0.0086
9.952,-0.03152
9.956,-0.01801
9.96,-0.02943
9.964,-0.02889
9.968,-0.02489
9.972,-0.02333
9.976,-0.01972
9.98,0.00736
9.984,-0.04889
9.988,-0.0206
9.992,-0.0282
9.996,-0.01571
