t_seg,ecg_mV
0.0,-0.03839
0.004,0.04361
0.008,-0.06352
0.012,-0.11054
0.016,-0.02689
0.02,-0.05844
0.024,-0.04421
0.028,-0.0598
0.032,-0.0176
0.036,-0.03675
0.04,-0.0173
0.044,-0.08915
0.048,-0.04576
0.052,-0.01455
0.056,-0.08658
0.06,0.01834
0.064,-0.04988
0.068,-0.07306
0.072,0.04422
0.076,0.01473
0.08,0.01962
0.084,-0.02464
0.088,0.01582
0.092,-0.03748
0.096,-0.05044
0.1,-0.01659
0.104,-0.01271
0.108,-0.01032
0.112,-0.00507
0.116,-0.03414
0.12,-0.08735
0.124,0.02007
0.128,0.00024
0.132,-0.03374
0.136,-0.06423
0.14,-0.02877
0.144,-0.04223
0.148,-0.01707
0.152,0.00231
0.156,0.01188
0.16,0.01337
0.164,-0.03974
0.168,-0.05839
0.172,-0.13428
0.176,-0.06149
0.18,-0.0734
0.184,-0.05272
0.188,-0.05854
0.192,-0.08072
0.196,-0.02109
0.2,-0.02903
0.204,0.02129
0.208,0.02791
0.212,-0.07026
0.216,-0.04689
0.22,0.0131
0.224,0.0037
0.228,-0.01698
0.232,-0.00664
0.236,0.00132
0.24,-0.00192
0.244,0.02949
0.248,0.01858
0.252,-0.0335
0.256,-0.02124
0.26,-0.07488
0.264,-0.03951
0.268,-0.07893
0.272,-0.02702
0.276,0.0135
0.28,-0.00572
0.284,-0.06618
0.288,-0.01092
0.292,-0.04095
0.296,-0.03852
0.3,0.02553
0.304,-0.10241
0.308,0.04856
0.312,-0.04777
0.316,-0.01929
0.32,-0.05994
0.324,-0.02434
0.328,-0.05179
0.332,-0.05769
0.336,-0.031
0.34,-0.01801
0.344,-0.03501
0.348,-0.00486
0.352,-0.1359
0.356,-0.08089
0.36,-0.08403
0.364,0.00805
0.368,-0.03497
0.372,-0.04013
0.376,-0.06033
0.38,0.03994
0.384,0.04231
0.388,0.01362
0.392,-0.02362
0.396,0.00893
0.4,0.01393
0.404,0.08228
0.408,0.02081
0.412,0.06513
0.416,0.09947
0.42,0.04418
0.424,0.03295
0.428,-0.01752
0.432,0.00881
0.436,-0.01916
0.44,0.01004
0.444,0.02494
0.448,-0.0049
0.452,-0.05643
0.456,0.03594
0.46,-0.03283
0.464,-0.04802
0.468,-0.05113
0.472,-0.0422
0.476,-0.03447
0.48,-0.01646
0.484,-0.06397
0.488,-0.08403
0.492,0.02904
0.496,-0.04674
0.5,0.01166
0.504,-0.03539
0.508,-0.00221
0.512,-0.03769
0.516,-0.07525
0.52,-0.06604
0.524,0.01713
0.528,0.04305
0.532,-0.04881
0.536,-0.12784
0.54,-0.06477
0.544,-0.1495
0.548,-0.07972
0.552,-0.05411
0.556,0.09269
0.56,0.2499
0.564,0.43628
0.568,0.69383
0.572,0.86892
0.576,0.94956
0.58,0.97672
0.584,0.87418
0.588,0.60574
0.592,0.42717
0.596,0.19113
0.6,-0.0112
0.604,-0.0555
0.608,-0.19781
0.612,-0.20954
0.616,-0.13242
0.62,-0.14393
0.624,-0.12519
0.628,-0.05087
0.632,-0.08618
0.636,-0.01365
0.64,0.00961
0.644,-0.04425
0.648,-0.02599
0.652,-0.04207
0.656,-0.03122
0.66,-0.0759
0.664,-0.08496
0.668,-0.14008
0.672,-0.03107
0.676,-0.03674
0.68,-0.05106
0.684,-0.00017
0.688,-0.05791
0.692,-0.09266
0.696,-0.01985
0.7,0.01646
0.704,-0.02692
0.708,0.00952
0.712,-0.04488
0.716,0.05258
0.72,0.00838
0.724,-0.02708
0.728,-0.06987
0.732,0.0244
0.736,-4e-05
0.74,0.00574
0.744,-0.03297
0.748,0.00621
0.752,-0.01207
0.756,-0.00496
0.76,-0.01656
0.764,0.0221
0.768,-0.04162
0.772,0.02433
0.776,0.07813
0.78,-0.05304
0.784,0.03181
0.788,0.06337
0.792,0.00447
0.796,0.05607
0.8,0.08927
0.804,0.11753
0.808,0.11688
0.812,0.02552
0.816,0.14504
0.82,0.1609
0.824,0.19232
0.828,0.12625
0.832,0.19107
0.836,0.14908
0.84,0.13758
0.844,0.20679
0.848,0.21885
0.852,0.24086
0.856,0.24347
0.86,0.15851
0.864,0.23428
0.868,0.22475
0.872,0.13469
0.876,0.16388
0.88,0.24237
0.884,0.11276
0.888,0.136
0.892,0.14133
0.896,0.084
0.9,0.08751
0.904,0.12662
0.908,0.15257
0.912,0.079
0.916,0.07888
0.92,0.06947
0.924,0.08791
0.928,0.08405
0.932,0.07524
0.936,0.07297
0.94,-0.02673
0.944,0.00246
0.948,-0.00969
0.952,-0.00362
0.956,-0.05654
0.96,0.01663
0.964,0.02026
0.968,0.01313
0.972,0.005
0.976,-0.03593
0.98,-0.01128
0.984,-0.00867
0.988,-0.093
0.992,-0.04814
0.996,-0.02124
1.0,-0.00919
1.004,-0.00332
1.008,-0.0214
1.012,-0.00868
1.016,-0.02412
1.02,-0.07119
1.024,-0.02189
1.028,-0.07034
1.032,-0.0787
1.036,0.01316
1.04,-0.01263
1.044,-0.05094
1.048,-0.01166
1.052,0.00291
1.056,-0.11393
1.06,-0.04421
1.064,0.01297
1.068,-0.00688
1.072,-0.01963
1.076,0.01954
1.08,0.06866
1.084,0.04589
1.088,-0.02568
1.092,-0.00478
1.096,0.04558
1.1,0.05159
1.104,0.06829
1.108,0.06257
1.112,0.06392
1.116,0.05959
1.12,0.08817
1.124,0.08916
1.128,0.09628
1.132,0.09366
1.136,0.04947
1.14,0.02161
1.144,0.0214
1.148,-0.01051
1.152,0.02712
1.156,0.01203
1.16,0.0613
1.164,-0.00789
1.168,-0.05722
1.172,-0.02521
1.176,0.07142
1.18,0.0224
1.184,0.03707
1.188,-0.08027
1.192,-0.03471
1.196,-0.06978
1.2,-0.04418
1.204,-0.02966
1.208,-0.01177
1.212,-0.00206
1.216,-0.02668
1.22,0.00701
1.224,-0.02866
1.228,-0.08811
1.232,-0.03881
1.236,-0.05969
1.24,-0.09249
1.244,-0.10138
1.248,-0.1236
1.252,-0.09988
1.256,-0.02653
1.26,0.1332
1.264,0.2556
1.268,0.54385
1.272,0.74162
1.276,0.89827
1.28,0.95133
1.284,0.94636
1.288,0.81074
1.292,0.56984
1.296,0.38576
1.3,0.18013
1.304,0.04001
1.308,-0.11148
1.312,-0.21821
1.316,-0.18456
1.32,-0.16787
1.324,-0.04417
1.328,-0.05623
1.332,-0.04851
1.336,-0.04819
1.34,-0.0328
1.344,-0.05477
1.348,-0.03938
1.352,-0.00765
1.356,0.01811
1.36,-0.02245
1.364,-0.02528
1.368,0.0082
1.372,-0.01869
1.376,-0.03219
1.38,0.0479
1.384,-0.01692
1.388,-0.03913
1.392,0.04208
1.396,-0.03546
1.4,-0.02105
1.404,0.02064
1.408,-0.01052
1.412,-0.01472
1.416,-0.04836
1.42,-0.011
1.424,0.00245
1.428,-0.014
1.432,-0.03603
1.436,0.02579
1.44,-0.03109
1.444,0.01293
1.448,-0.03782
1.452,0.03393
1.456,-0.03338
1.46,-0.0141
1.464,0.05214
1.468,0.08776
1.472,-0.02781
1.476,-0.02997
1.48,0.11349
1.484,0.06629
1.488,0.04472
1.492,0.06019
1.496,0.09074
1.5,0.10856
1.504,0.0844
1.508,0.122
1.512,0.11122
1.516,0.18121
1.52,0.14061
1.524,0.14724
1.528,0.10025
1.532,0.16751
1.536,0.19289
1.54,0.25475
1.544,0.16742
1.548,0.20812
1.552,0.15354
1.556,0.20885
1.56,0.15898
1.564,0.2092
1.568,0.22674
1.572,0.24502
1.576,0.20343
1.58,0.22533
1.584,0.2141
1.588,0.19351
1.592,0.15042
1.596,0.15223
1.6,0.21767
1.604,0.13146
1.608,0.13175
1.612,0.19166
1.616,0.10472
1.62,0.09773
1.624,0.06214
1.628,0.03586
1.632,0.08862
1.636,0.04377
1.64,0.00417
1.644,0.0444
1.648,-0.02399
1.652,0.05016
1.656,0.03869
1.66,0.0256
1.664,-0.01396
1.668,0.07066
1.672,-0.01007
1.676,0.0659
1.68,-0.03602
1.684,0.14024
1.688,0.00435
1.692,0.02951
1.696,0.08488
1.7,0.07948
1.704,0.08654
1.708,0.0325
1.712,0.11769
1.716,0.12613
1.72,0.11757
1.724,0.01278
1.728,0.11087
1.732,0.08201
1.736,0.0537
1.74,0.0208
1.744,0.02182
1.748,0.04218
1.752,0.03366
1.756,0.01779
1.76,-0.07192
1.764,0.01656
1.768,0.01636
1.772,0.03584
1.776,0.04034
1.78,-0.02426
1.784,0.04114
1.788,0.00568
1.792,0.07268
1.796,-0.03925
1.8,-0.01601
1.804,-0.00986
1.808,-0.01652
1.812,0.02826
1.816,0.057
1.82,0.0046
1.824,-0.02739
1.828,0.02965
1.832,-0.00939
1.836,-0.05025
1.84,-0.10825
1.844,-0.11784
1.848,-0.05798
1.852,-0.03434
1.856,0.11551
1.86,0.31495
1.864,0.49095
1.868,0.64777
1.872,0.85772
1.876,0.97437
1.88,1.02402
1.884,0.87064
1.888,0.6475
1.892,0.40409
1.896,0.22212
1.9,0.06728
1.904,-0.0956
1.908,-0.13783
1.912,-0.17445
1.916,-0.11757
1.92,-0.04438
1.924,-0.06764
1.928,-0.03034
1.932,-0.02846
1.936,-0.0108
1.94,0.03967
1.944,-0.02932
1.948,0.06167
1.952,0.01136
1.956,-0.00204
1.96,0.00834
1.964,0.03093
1.968,0.03703
1.972,0.04527
1.976,0.04447
1.98,-0.0192
1.984,-0.03208
1.988,0.00189
1.992,0.04022
1.996,0.01736
2.0,0.04077
2.004,0.05114
2.008,0.017
2.012,0.00453
2.016,-0.00971
2.02,-0.05928
2.024,0.06791
2.028,0.05464
2.032,-0.03078
2.036,-0.04557
2.04,0.01952
2.044,0.03372
2.048,0.09642
2.052,0.03362
2.056,0.08537
2.06,0.05726
2.064,0.00553
2.068,0.03519
2.072,0.0055
2.076,0.04291
2.08,0.02626
2.084,0.11915
2.088,0.08725
2.092,0.08781
2.096,0.10337
2.1,0.17782
2.104,0.10992
2.108,0.10096
2.112,0.14489
2.116,0.13777
2.12,0.17768
2.124,0.18568
2.128,0.23288
2.132,0.19646
2.136,0.26743
2.14,0.21077
2.144,0.21078
2.148,0.18217
2.152,0.23503
2.156,0.22537
2.16,0.22901
2.164,0.26326
2.168,0.23103
2.172,0.20267
2.176,0.26136
2.18,0.16656
2.184,0.21154
2.188,0.26191
2.192,0.20028
2.196,0.23467
2.2,0.23083
2.204,0.21074
2.208,0.13456
2.212,0.20356
2.216,0.13955
2.22,0.18239
2.224,0.16962
2.228,0.13581
2.232,0.17331
2.236,0.15279
2.24,0.07176
2.244,0.11821
2.248,0.0868
2.252,0.0883
2.256,0.0104
2.26,0.05387
2.264,-0.00363
2.268,0.01334
2.272,-0.04415
2.276,0.02892
2.28,-0.03007
2.284,0.00064
2.288,0.00092
2.292,0.01907
2.296,-0.00513
2.3,0.05113
2.304,0.01836
2.308,0.01731
2.312,-0.01586
2.316,0.0158
2.32,0.01382
2.324,0.05714
2.328,0.0368
2.332,0.02875
2.336,-0.00757
2.34,-0.05591
2.344,-0.0537
2.348,-0.11276
2.352,-0.06264
2.356,-0.13721
2.36,-0.02284
2.364,0.06018
2.368,0.23607
2.372,0.50228
2.376,0.70025
2.38,0.88012
2.384,1.04392
2.388,1.01106
2.392,0.91039
2.396,0.76686
2.4,0.54966
2.404,0.33082
2.408,0.17373
2.412,-0.07892
2.416,-0.12419
2.42,-0.09481
2.424,-0.15343
2.428,-0.0779
2.432,0.00712
2.436,0.01331
2.44,-0.0205
2.444,0.01284
2.448,0.03178
2.452,0.07963
2.456,0.03289
2.46,0.05184
2.464,0.03625
2.468,-0.00058
2.472,-0.05573
2.476,0.03065
2.48,0.06148
2.484,0.00263
2.488,-0.00918
2.492,0.03228
2.496,0.0496
2.5,-0.01687
2.504,0.01673
2.508,0.0492
2.512,-0.00422
2.516,-0.01041
2.52,0.02124
2.524,-0.03656
2.528,0.03752
2.532,0.02286
2.536,0.04578
2.54,0.05361
2.544,0.00851
2.548,0.08511
2.552,0.0391
2.556,0.06914
2.56,0.00154
2.564,0.03661
2.568,-0.01907
2.572,0.04174
2.576,0.05104
2.58,0.10798
2.584,0.01773
2.588,0.07428
2.592,0.08387
2.596,0.10142
2.6,0.11313
2.604,0.11028
2.608,0.07925
2.612,0.144
2.616,0.17074
2.62,0.17728
2.624,0.16184
2.628,0.11241
2.632,0.15613
2.636,0.20474
2.64,0.21116
2.644,0.19961
2.648,0.16736
2.652,0.21937
2.656,0.2495
2.66,0.17029
2.664,0.2594
2.668,0.27756
2.672,0.27604
2.676,0.26204
2.68,0.16568
2.684,0.27618
2.688,0.2495
2.692,0.25934
2.696,0.24105
2.7,0.20685
2.704,0.12548
2.708,0.21386
2.712,0.15598
2.716,0.17164
2.72,0.17469
2.724,0.1423
2.728,0.1848
2.732,0.16691
2.736,0.20895
2.74,0.18887
2.744,0.15806
2.748,0.22337
2.752,0.19158
2.756,0.13839
2.76,0.14982
2.764,0.10538
2.768,0.10197
2.772,0.05815
2.776,0.10804
2.78,0.1109
2.784,0.05483
2.788,0.01659
2.792,0.05248
2.796,0.02345
2.8,0.03834
2.804,0.03589
2.808,-0.01133
2.812,0.00621
2.816,0.02384
2.82,0.00458
2.824,0.03895
2.828,0.07658
2.832,0.03746
2.836,0.0364
2.84,0.05309
2.844,0.02519
2.848,0.02676
2.852,0.01778
2.856,-0.02583
2.86,0.02268
2.864,-0.00465
2.868,-0.10267
2.872,-0.11708
2.876,-0.13664
2.88,-0.03403
2.884,0.1373
2.888,0.29464
2.892,0.46539
2.896,0.75867
2.9,0.84456
2.904,0.96739
2.908,1.03083
2.912,0.89964
2.916,0.72722
2.92,0.49556
2.924,0.30515
2.928,0.08315
2.932,-0.10185
2.936,-0.13059
2.94,-0.10634
2.944,-0.12449
2.948,-0.05177
2.952,-0.0328
2.956,-0.02228
2.96,0.03184
2.964,-0.01617
2.968,0.04954
2.972,0.07408
2.976,-0.04072
2.98,0.04285
2.984,0.00023
2.988,-0.00125
2.992,0.06281
2.996,0.0632
3.0,0.08316
3.004,0.0257
3.008,0.08074
3.012,0.10273
3.016,-0.02404
3.02,0.00914
3.024,-0.03746
3.028,-0.00422
3.032,0.03312
3.036,0.09009
3.04,-0.00659
3.044,0.04111
3.048,0.01712
3.052,0.05925
3.056,0.04734
3.06,-0.03572
3.064,0.00021
3.068,0.0031
3.072,0.05525
3.076,0.09954
3.08,0.04467
3.084,0.03741
3.088,0.00749
3.092,-0.00377
3.096,0.08517
3.1,0.12873
3.104,0.02206
3.108,0.09454
3.112,0.0653
3.116,0.11555
3.12,0.10301
3.124,0.11513
3.128,0.14447
3.132,0.14871
3.136,0.06453
3.14,0.1606
3.144,0.16328
3.148,0.2256
3.152,0.15625
3.156,0.18121
3.16,0.15728
3.164,0.22843
3.168,0.25891
3.172,0.3317
3.176,0.21334
3.18,0.24312
3.184,0.27058
3.188,0.1814
3.192,0.2349
3.196,0.28051
3.2,0.20443
3.204,0.31885
3.208,0.2813
3.212,0.21528
3.216,0.19309
3.22,0.16719
3.224,0.14701
3.228,0.20071
3.232,0.12872
3.236,0.21283
3.24,0.14513
3.244,0.16112
3.248,0.10806
3.252,0.14659
3.256,0.12369
3.26,0.09837
3.264,0.015
3.268,0.09688
3.272,0.07641
3.276,0.0786
3.28,0.04452
3.284,0.05598
3.288,0.01584
3.292,0.04792
3.296,0.03211
3.3,0.0129
3.304,0.06416
3.308,0.06717
3.312,0.00689
3.316,-0.00649
3.32,0.03945
3.324,-0.00682
3.328,0.02657
3.332,0.03044
3.336,-0.04355
3.34,-0.00143
3.344,0.03385
3.348,0.00112
3.352,0.06987
3.356,0.04791
3.36,0.02543
3.364,0.04034
3.368,0.09319
3.372,0.09084
3.376,0.04658
3.38,0.08864
3.384,0.05498
3.388,0.09066
3.392,0.11647
3.396,0.16792
3.4,0.1022
3.404,0.1655
3.408,0.17952
3.412,0.11187
3.416,0.08278
3.42,0.11263
3.424,0.08605
3.428,0.00108
3.432,0.11614
3.436,0.07499
3.44,0.01942
3.444,0.02663
3.448,0.07013
3.452,0.0765
3.456,0.01414
3.46,0.04174
3.464,0.03367
3.468,0.01034
3.472,0.02891
3.476,0.01446
3.48,0.07179
3.484,0.04929
3.488,0.04803
3.492,0.05807
3.496,0.09546
3.5,0.04239
3.504,0.07413
3.508,0.03486
3.512,-0.02733
3.516,0.01294
3.52,-0.04297
3.524,0.00995
3.528,-0.08231
3.532,-0.10875
3.536,-0.03443
3.54,0.01848
3.544,0.17056
3.548,0.37291
3.552,0.58446
3.556,0.79305
3.56,0.93586
3.564,0.97362
3.568,0.99305
3.572,0.81429
3.576,0.70629
3.58,0.38379
3.584,0.18993
3.588,0.07071
3.592,-0.0397
3.596,-0.16999
3.6,-0.15808
3.604,-0.03829
3.608,-0.06155
3.612,-0.03561
3.616,-0.01517
3.62,-0.01153
3.624,0.01438
3.628,-0.03627
3.632,0.02457
3.636,0.00744
3.64,0.00447
3.644,0.0375
3.648,0.04531
3.652,0.07199
3.656,0.05212
3.66,0.0462
3.664,0.05539
3.668,0.05016
3.672,0.02316
3.676,0.0394
3.68,-0.0119
3.684,0.01368
3.688,0.06514
3.692,0.03894
3.696,0.06667
3.7,0.07062
3.704,0.01374
3.708,-0.01205
3.712,0.08014
3.716,-0.02701
3.72,0.04931
3.724,0.01185
3.728,0.05665
3.732,0.04743
3.736,0.0549
3.74,0.02862
3.744,0.0493
3.748,0.03936
3.752,0.03119
3.756,0.07294
3.76,0.09693
3.764,0.00874
3.768,0.0697
3.772,0.09599
3.776,0.10615
3.78,0.16975
3.784,0.16199
3.788,0.14393
3.792,0.15695
3.796,0.14115
3.8,0.14817
3.804,0.1616
3.808,0.19263
3.812,0.23246
3.816,0.27257
3.82,0.18891
3.824,0.2287
3.828,0.30019
3.832,0.16631
3.836,0.23963
3.84,0.23669
3.844,0.26928
3.848,0.22711
3.852,0.21156
3.856,0.25356
3.86,0.21367
3.864,0.26542
3.868,0.26244
3.872,0.24941
3.876,0.21071
3.88,0.19798
3.884,0.19763
3.888,0.10896
3.892,0.11098
3.896,0.10242
3.9,0.1255
3.904,0.15436
3.908,0.11575
3.912,0.14069
3.916,0.03328
3.92,-0.00147
3.924,0.08129
3.928,0.08705
3.932,0.08382
3.936,0.08833
3.94,0.00127
3.944,0.13175
3.948,-0.00207
3.952,0.0309
3.956,0.05172
3.96,0.05576
3.964,0.07834
3.968,0.06864
3.972,0.0372
3.976,0.0156
3.98,0.03325
3.984,0.04881
3.988,0.08268
3.992,-0.00666
3.996,0.03928
4.0,0.04191
4.004,0.09754
4.008,-0.02659
4.012,0.01826
4.016,0.03689
4.02,0.05818
4.024,0.03792
4.028,-0.02678
4.032,0.04886
4.036,-0.01046
4.04,0.03679
4.044,0.00713
4.048,-0.02343
4.052,0.06344
4.056,0.058
4.06,0.07522
4.064,0.09438
4.068,0.00341
4.072,0.00354
4.076,-0.02453
4.08,0.02753
4.084,0.04154
4.088,0.06555
4.092,0.02819
4.096,0.0377
4.1,0.09278
4.104,0.10911
4.108,0.06398
4.112,0.08422
4.116,0.1454
4.12,0.09887
4.124,0.19124
4.128,0.11497
4.132,0.14272
4.136,0.13307
4.14,0.11074
4.144,0.08457
4.148,0.08367
4.152,0.03235
4.156,0.04471
4.16,0.05571
4.164,0.01058
4.168,0.04983
4.172,0.03809
4.176,0.01671
4.18,0.01277
4.184,0.09007
4.188,0.02372
4.192,0.00046
4.196,0.06709
4.2,0.03351
4.204,-0.00195
4.208,0.00694
4.212,0.01623
4.216,0.02297
4.22,0.04013
4.224,0.06562
4.228,-0.02933
4.232,0.00448
4.236,0.01145
4.24,0.03913
4.244,-0.02882
4.248,-0.0036
4.252,-0.06992
4.256,-0.07341
4.26,-0.03659
4.264,-0.10902
4.268,-0.02043
4.272,0.00735
4.276,0.23768
4.28,0.50135
4.284,0.58979
4.288,0.80099
4.292,0.92475
4.296,1.05796
4.3,0.91882
4.304,0.77176
4.308,0.52561
4.312,0.338
4.316,0.15726
4.32,-0.00409
4.324,-0.08877
4.328,-0.12581
4.332,-0.09888
4.336,-0.08832
4.34,-0.08962
4.344,-0.05988
4.348,0.05948
4.352,0.05787
4.356,-0.05184
4.36,0.05021
4.364,0.05689
4.368,0.03833
4.372,0.06526
4.376,0.04302
4.38,-0.00591
4.384,0.02355
4.388,0.026
4.392,-0.00935
4.396,-0.01312
4.4,-0.04031
4.404,-0.02067
4.408,-0.00312
4.412,0.00632
4.416,0.03212
4.42,-0.02828
4.424,0.04755
4.428,0.01675
4.432,0.02384
4.436,0.07726
4.44,0.03129
4.444,0.02394
4.448,-0.01545
4.452,0.01104
4.456,0.01233
4.46,-0.00602
4.464,0.03077
4.468,-0.04378
4.472,0.04186
4.476,-0.00863
4.48,0.01124
4.484,0.0771
4.488,0.08064
4.492,0.02659
4.496,0.08023
4.5,0.08793
4.504,0.08622
4.508,0.07456
4.512,0.05442
4.516,0.08987
4.52,0.09519
4.524,0.09626
4.528,0.16656
4.532,0.13952
4.536,0.13493
4.54,0.26531
4.544,0.17633
4.548,0.15782
4.552,0.1634
4.556,0.2169
4.56,0.21357
4.564,0.17902
4.568,0.22702
4.572,0.27721
4.576,0.23654
4.58,0.32278
4.584,0.255
4.588,0.24995
4.592,0.26934
4.596,0.19937
4.6,0.19421
4.604,0.22732
4.608,0.17247
4.612,0.19229
4.616,0.21393
4.62,0.13262
4.624,0.25256
4.628,0.14688
4.632,0.18067
4.636,0.195
4.64,0.19205
4.644,0.19985
4.648,0.17726
4.652,0.14883
4.656,0.18187
4.66,0.10002
4.664,0.09607
4.668,0.08034
4.672,0.08472
4.676,0.07647
4.68,0.10672
4.684,0.02772
4.688,0.04804
4.692,0.03243
4.696,0.01578
4.7,0.05571
4.704,0.05217
4.708,0.00717
4.712,-0.00959
4.716,0.02813
4.72,-0.00721
4.724,-0.04116
4.728,-0.03946
4.732,0.05449
4.736,0.09701
4.74,-0.00473
4.744,-0.00683
4.748,-0.01017
4.752,0.03963
4.756,0.00026
4.76,-0.00213
4.764,0.00604
4.768,-0.11547
4.772,-0.06942
4.776,-0.09899
4.78,0.00744
4.784,0.06848
4.788,0.28472
4.792,0.48282
4.796,0.6926
4.8,0.84631
4.804,1.0048
4.808,1.00439
4.812,0.96944
4.816,0.73543
4.82,0.53094
4.824,0.31048
4.828,0.15476
4.832,0.01949
4.836,-0.10911
4.84,-0.16931
4.844,-0.15299
4.848,-0.14652
4.852,-0.06882
4.856,-0.00617
4.86,0.00041
4.864,-0.00667
4.868,-0.0246
4.872,0.03094
4.876,0.00513
4.88,0.00505
4.884,-0.03963
4.888,-0.05166
4.892,0.03503
4.896,0.01889
4.9,-0.01656
4.904,0.04337
4.908,-0.0253
4.912,0.03177
4.916,-0.05957
4.92,0.00902
4.924,0.01384
4.928,-0.03097
4.932,0.0252
4.936,0.01124
4.94,0.06806
4.944,0.0168
4.948,0.01408
4.952,0.0009
4.956,0.01235
4.96,0.0215
4.964,-0.00477
4.968,-0.01632
4.972,0.03202
4.976,0.05107
4.98,0.00096
4.984,0.04513
4.988,0.07458
4.992,0.05561
4.996,0.03729
5.0,-0.01252
5.004,0.00467
5.008,0.08503
5.012,0.11866
5.016,0.01744
5.02,0.09726
5.024,0.10826
5.028,0.0669
5.032,0.13569
5.036,0.0953
5.04,0.16871
5.044,0.08958
5.048,0.11001
5.052,0.14393
5.056,0.17605
5.06,0.19067
5.064,0.2055
5.068,0.21799
5.072,0.20753
5.076,0.17059
5.08,0.17146
5.084,0.2202
5.088,0.26856
5.092,0.24778
5.096,0.18045
5.1,0.22518
5.104,0.2275
5.108,0.23635
5.112,0.2652
5.116,0.20921
5.12,0.16213
5.124,0.15832
5.128,0.10898
5.132,0.19903
5.136,0.11871
5.14,0.15648
5.144,0.11152
5.148,0.10869
5.152,0.15064
5.156,0.15572
5.16,0.15034
5.164,0.11192
5.168,0.11484
5.172,0.10903
5.176,0.13528
5.18,0.09431
5.184,0.13678
5.188,0.09629
5.192,0.08556
5.196,0.08479
5.2,0.002
5.204,0.10141
5.208,-0.01972
5.212,0.05065
5.216,0.03712
5.22,-0.01766
5.224,0.02177
5.228,0.05212
5.232,-0.00689
5.236,-0.03941
5.24,-0.04211
5.244,-0.00915
5.248,-0.00852
5.252,-0.01088
5.256,0.04122
5.26,-0.00702
5.264,-0.00612
5.268,-0.03121
5.272,-0.04086
5.276,-0.01365
5.28,-0.07094
5.284,0.05917
5.288,-0.04207
5.292,-0.08474
5.296,-0.0894
5.3,-0.10418
5.304,-0.07823
5.308,0.00182
5.312,0.16679
5.316,0.33945
5.32,0.47344
5.324,0.74196
5.328,0.89361
5.332,1.00313
5.336,0.98318
5.34,0.76354
5.344,0.61304
5.348,0.38756
5.352,0.19716
5.356,-0.06775
5.36,-0.12889
5.364,-0.19197
5.368,-0.2177
5.372,-0.14182
5.376,-0.11222
5.38,-0.05004
5.384,-0.00485
5.388,0.06395
5.392,0.053
5.396,-0.01316
5.4,0.02986
5.404,0.03616
5.408,0.07465
5.412,0.01934
5.416,0.03988
5.42,0.10357
5.424,0.11002
5.428,0.0068
5.432,0.03961
5.436,0.04533
5.44,0.05573
5.444,-0.0204
5.448,0.03517
5.452,0.03661
5.456,0.07242
5.46,0.02058
5.464,-0.00749
5.468,-0.05621
5.472,0.05138
5.476,0.01962
5.48,-0.01168
5.484,0.01299
5.488,0.053
5.492,0.02824
5.496,-0.0364
5.5,0.00635
5.504,-0.01965
5.508,0.01934
5.512,0.02008
5.516,0.03027
5.52,0.02375
5.524,-0.01574
5.528,-0.02014
5.532,-0.09222
5.536,0.03457
5.54,-0.04739
5.544,-0.02258
5.548,-0.06694
5.552,-0.04765
5.556,0.03831
5.56,0.17793
5.564,0.37349
5.568,0.60487
5.572,0.76537
5.576,0.97468
5.58,1.09248
5.584,1.14367
5.588,1.08325
5.592,0.89899
5.596,0.70422
5.6,0.47179
5.604,0.26245
5.608,0.08974
5.612,0.07434
5.616,0.04687
5.62,0.12519
5.624,0.16974
5.628,0.17783
5.632,0.14417
5.636,0.16065
5.64,0.14551
5.644,0.19626
5.648,0.12816
5.652,0.13809
5.656,0.09596
5.66,0.07183
5.664,0.11081
5.668,0.05581
5.672,0.06424
5.676,0.01783
5.68,0.10207
5.684,0.04549
5.688,0.03444
5.692,0.01386
5.696,0.00861
5.7,-0.01142
5.704,-0.02902
5.708,-0.02141
5.712,0.00848
5.716,0.00583
5.72,0.00312
5.724,-0.04656
5.728,-0.00929
5.732,0.03054
5.736,-0.0163
5.74,-0.01524
5.744,-0.04708
5.748,0.01408
5.752,0.01615
5.756,0.00196
5.76,-0.00275
5.764,0.02302
5.768,0.00342
5.772,0.00293
5.776,0.06542
5.78,0.05617
5.784,0.02391
5.788,0.06161
5.792,0.10174
5.796,0.10033
5.8,0.1288
5.804,0.04026
5.808,0.04876
5.812,0.08204
5.816,0.1054
5.82,0.09453
5.824,0.12403
5.828,0.13113
5.832,0.1849
5.836,0.16845
5.84,0.21307
5.844,0.21565
5.848,0.16024
5.852,0.19556
5.856,0.19381
5.86,0.14123
5.864,0.19061
5.868,0.20749
5.872,0.1898
5.876,0.1527
5.88,0.21021
5.884,0.2317
5.888,0.15463
5.892,0.15997
5.896,0.13624
5.9,0.15194
5.904,0.08501
5.908,0.11155
5.912,0.11042
5.916,0.08861
5.92,0.03392
5.924,0.0427
5.928,0.06425
5.932,0.04129
5.936,-0.00175
5.94,0.09054
5.944,0.02728
5.948,0.02653
5.952,0.04226
5.956,0.0076
5.96,-0.00595
5.964,-0.05396
5.968,0.0491
5.972,-0.01034
5.976,0.00417
5.98,-0.02226
5.984,0.01784
5.988,-0.11137
5.992,-0.01986
5.996,0.03419
6.0,-0.01401
6.004,-0.00323
6.008,-0.02497
6.012,-0.03274
6.016,-0.03099
6.02,0.00213
6.024,-0.00606
6.028,-0.04942
6.032,0.04187
6.036,-0.06425
6.04,-0.03299
6.044,-0.02241
6.048,-0.05161
6.052,-0.04985
6.056,-0.04421
6.06,-0.00598
6.064,-0.07127
6.068,-0.01456
6.072,-0.04841
6.076,-0.0136
6.08,0.04985
6.084,0.00655
6.088,0.01704
6.092,-0.01926
6.096,0.04442
6.1,-0.02861
6.104,0.00274
6.108,0.02257
6.112,0.04564
6.116,0.08889
6.12,0.0824
6.124,0.06306
6.128,0.04177
6.132,0.09441
6.136,0.04711
6.14,0.07674
6.144,0.04733
6.148,0.04599
6.152,0.02607
6.156,0.0353
6.16,0.03732
6.164,-0.0714
6.168,-0.02119
6.172,0.01798
6.176,-0.02735
6.18,-0.0317
6.184,0.008
6.188,-0.04444
6.192,-0.00557
6.196,-0.06522
6.2,-0.04801
6.204,-0.0378
6.208,-0.00659
6.212,0.0289
6.216,-0.01008
6.22,-0.02227
6.224,-0.01063
6.228,0.00295
6.232,-0.03136
6.236,-0.06045
6.24,-0.01604
6.244,-0.11582
6.248,-0.11884
6.252,-0.19906
6.256,-0.10873
6.26,-0.04933
6.264,0.06309
6.268,0.15144
6.272,0.28802
6.276,0.35793
6.28,0.49803
6.284,0.47351
6.288,0.38774
6.292,0.28443
6.296,0.232
6.3,0.15895
6.304,-0.04545
6.308,-0.13309
6.312,-0.20852
6.316,-0.21216
6.32,-0.1601
6.324,-0.17866
6.328,-0.0668
6.332,-0.07707
6.336,-0.03589
6.34,-0.02865
6.344,-0.0825
6.348,0.01134
6.352,-0.02926
6.356,-0.04214
6.36,0.04075
6.364,-0.02104
6.368,-0.08087
6.372,-0.05249
6.376,0.00132
6.38,-0.0167
6.384,-0.06011
6.388,-0.04235
6.392,-0.08061
6.396,0.0372
6.4,-0.05856
6.404,-0.04003
6.408,0.0563
6.412,-0.034
6.416,0.01101
6.42,-0.09003
6.424,0.04709
6.428,-0.01869
6.432,-0.02688
6.436,-0.04233
6.44,0.05211
6.444,-0.04576
6.448,-0.03842
6.452,0.01865
6.456,-0.03541
6.46,-0.02602
6.464,-0.01751
6.468,0.02253
6.472,0.02147
6.476,-0.0178
6.48,0.01462
6.484,0.01673
6.488,-0.04081
6.492,0.046
6.496,0.05955
6.5,0.08178
6.504,0.03065
6.508,0.1302
6.512,0.09608
6.516,0.01515
6.52,0.07937
6.524,0.16432
6.528,0.15363
6.532,0.17036
6.536,0.1383
6.54,0.1037
6.544,0.17962
6.548,0.20358
6.552,0.20446
6.556,0.19654
6.56,0.23559
6.564,0.19372
6.568,0.09096
6.572,0.1437
6.576,0.21008
6.58,0.16702
6.584,0.12598
6.588,0.17198
6.592,0.16027
6.596,0.14314
6.6,0.19822
6.604,0.10109
6.608,0.11016
6.612,0.10592
6.616,0.05107
6.62,-0.00264
6.624,0.06104
6.628,0.09025
6.632,0.08302
6.636,-0.02691
6.64,-0.02378
6.644,0.00613
6.648,-0.00195
6.652,-0.03693
6.656,0.09183
6.66,-0.01082
6.664,-0.01306
6.668,-0.02604
6.672,-0.03433
6.676,0.01059
6.68,-0.02985
6.684,0.00433
6.688,-0.06338
6.692,0.00157
6.696,-0.00531
6.7,-0.03576
6.704,0.01656
6.708,-0.05991
6.712,-0.02791
6.716,-0.05479
6.72,-0.05401
6.724,0.03337
6.728,-0.05027
6.732,0.06247
6.736,0.00155
6.74,-0.01539
6.744,-0.00923
6.748,0.00785
6.752,0.01119
6.756,-0.0529
6.76,-0.03383
6.764,0.02387
6.768,-0.04482
6.772,-0.0401
6.776,-0.04762
6.78,-0.07441
6.784,-0.02809
6.788,0.03228
6.792,0.02182
6.796,-0.02932
6.8,-0.05712
6.804,-0.0266
6.808,-0.01038
6.812,0.04102
6.816,-0.0596
6.82,-0.04724
6.824,-0.03514
6.828,0.01083
6.832,-0.04413
6.836,0.02478
6.84,-0.04181
6.844,-0.04132
6.848,0.03209
6.852,-0.07543
6.856,-0.07878
6.86,0.01065
6.864,-0.02379
6.868,-0.02015
6.872,-0.05621
6.876,-0.00591
6.88,-0.01911
6.884,-0.08176
6.888,-0.03429
6.892,0.0509
6.896,-0.03207
6.9,0.02385
6.904,-0.07309
6.908,-0.03065
6.912,-0.0946
6.916,-0.04796
6.92,-0.08294
6.924,-0.03854
6.928,-0.06276
6.932,-0.06828
6.936,-0.05574
6.94,-0.00265
6.944,-0.01522
6.948,-0.06498
6.952,-0.04375
6.956,-0.00943
6.96,-0.0697
6.964,-0.08053
6.968,-0.08711
6.972,0.03513
6.976,0.02255
6.98,-0.01111
6.984,-0.02882
6.988,-0.00789
6.992,-0.05449
6.996,-0.05482
7.0,-0.07199
7.004,-0.0148
7.008,-0.0507
7.012,-0.09341
7.016,-0.01586
7.02,-0.01243
7.024,0.01933
7.028,-0.01918
7.032,-0.05861
7.036,-0.04283
7.04,-0.05306
7.044,-0.02016
7.048,-0.0072
7.052,0.00861
7.056,0.03371
7.06,-0.01295
7.064,-0.03182
7.068,0.01591
7.072,-0.05898
7.076,-0.09299
7.08,-0.00984
7.084,-0.00493
7.088,0.00889
7.092,0.06149
7.096,0.06739
7.1,0.06494
7.104,0.0455
7.108,0.02042
7.112,0.07129
7.116,0.06332
7.12,0.01198
7.124,0.08961
7.128,0.03973
7.132,0.08675
7.136,0.02327
7.14,-0.02138
7.144,0.04889
7.148,0.01889
7.152,-0.05332
7.156,-0.01159
7.16,0.00654
7.164,-0.01203
7.168,-0.06864
7.172,-0.00821
7.176,-0.0608
7.18,-0.01982
7.184,-0.04795
7.188,-0.05088
7.192,0.00813
7.196,-0.089
7.2,-0.02861
7.204,-0.02325
7.208,-0.03517
7.212,-0.02601
7.216,-0.07245
7.22,-0.00583
7.224,-0.06092
7.228,-0.1115
7.232,-0.06291
7.236,-0.1507
7.24,-0.1529
7.244,-0.10665
7.248,-0.11254
7.252,0.05638
7.256,0.3291
7.26,0.51357
7.264,0.68906
7.268,0.87842
7.272,0.96542
7.276,0.87504
7.28,0.74688
7.284,0.6138
7.288,0.36936
7.292,0.14507
7.296,0.01722
7.3,-0.17976
7.304,-0.14817
7.308,-0.1795
7.312,-0.19643
7.316,-0.10632
7.32,-0.1286
7.324,-0.00169
7.328,-0.02568
7.332,-0.05579
7.336,-0.06174
7.34,-0.06243
7.344,-0.04337
7.348,-0.02825
7.352,-0.01575
7.356,0.0381
7.36,-0.03827
7.364,-0.0437
7.368,-0.02196
7.372,-0.00483
7.376,0.05245
7.38,0.00372
7.384,0.00272
7.388,-0.02119
7.392,-0.02123
7.396,-0.06521
7.4,-0.00186
7.404,-0.02534
7.408,0.00377
7.412,-0.06141
7.416,-0.04435
7.42,0.00848
7.424,-0.05058
7.428,-0.09066
7.432,-0.01192
7.436,-0.07347
7.44,-0.0009
7.444,-0.037
7.448,-0.04889
7.452,-0.02683
7.456,-0.05544
7.46,0.05371
7.464,0.0507
7.468,0.0151
7.472,-0.00977
7.476,0.0366
7.48,0.01286
7.484,0.05385
7.488,0.05274
7.492,0.08461
7.496,0.06909
7.5,0.07556
7.504,0.08268
7.508,0.11307
7.512,0.13034
7.516,0.16821
7.52,0.12674
7.524,0.24357
7.528,0.17233
7.532,0.12287
7.536,0.27602
7.54,0.17662
7.544,0.2023
7.548,0.18946
7.552,0.18428
7.556,0.19213
7.56,0.1834
7.564,0.19074
7.568,0.22489
7.572,0.15971
7.576,0.16633
7.58,0.14331
7.584,0.19559
7.588,0.17685
7.592,0.12061
7.596,0.20789
7.6,0.12784
7.604,0.08642
7.608,0.10858
7.612,0.04866
7.616,0.14413
7.62,0.0085
7.624,0.06528
7.628,-0.00539
7.632,0.08724
7.636,0.06656
7.64,-0.05115
7.644,0.04024
7.648,0.03606
7.652,-0.00843
7.656,0.0337
7.66,0.00506
7.664,0.02612
7.668,0.02995
7.672,0.0525
7.676,0.04329
7.68,0.0287
7.684,0.10803
7.688,0.08393
7.692,0.0645
7.696,0.09959
7.7,0.13515
7.704,0.06127
7.708,0.12924
7.712,0.07457
7.716,0.07459
7.72,0.01086
7.724,-0.01028
7.728,0.03378
7.732,0.04605
7.736,0.00967
7.74,-0.06116
7.744,0.04381
7.748,-0.07193
7.752,-0.04404
7.756,-0.01103
7.76,0.00849
7.764,-0.0116
7.768,-0.10025
7.772,0.01029
7.776,0.03226
7.78,0.012
7.784,-0.08989
7.788,-0.05739
7.792,-0.01332
7.796,-0.01959
7.8,0.00083
7.804,-0.04222
7.808,-0.11113
7.812,-0.06418
7.816,-0.03583
7.82,-0.12559
7.824,-0.10206
7.828,-0.10281
7.832,0.07229
7.836,0.24505
7.84,0.42638
7.844,0.62077
7.848,0.82097
7.852,0.99908
7.856,0.89819
7.86,0.83296
7.864,0.68537
7.868,0.48355
7.872,0.27946
7.876,0.04717
7.88,-0.10464
7.884,-0.20549
7.888,-0.1779
7.892,-0.21958
7.896,-0.12761
7.9,-0.09518
7.904,-0.03098
7.908,-0.05537
7.912,-0.00605
7.916,0.03271
7.92,0.00583
7.924,-0.01615
7.928,-0.06954
7.932,0.02293
7.936,0.01118
7.94,-0.02657
7.944,-0.07422
7.948,0.05146
7.952,-0.06193
7.956,-0.05478
7.96,-0.03216
7.964,-0.0216
7.968,0.03632
7.972,-0.03042
7.976,-0.02204
7.98,0.00906
7.984,0.00633
7.988,0.03835
7.992,-0.00324
7.996,0.01545
8.0,0.12924
8.004,0.07757
8.008,0.06089
8.012,0.08398
8.016,0.09369
8.02,0.10947
8.024,0.11385
8.028,0.06337
8.032,0.07522
8.036,0.14378
8.04,0.07891
8.044,-0.00442
8.048,0.10617
8.052,0.03106
8.056,0.09186
8.06,0.09521
8.064,0.05898
8.068,0.05864
8.072,0.06079
8.076,0.14651
8.08,0.09728
8.084,0.06232
8.088,0.20898
8.092,0.11628
8.096,0.14759
8.1,0.22616
8.104,0.13952
8.108,0.18408
8.112,0.18861
8.116,0.20215
8.12,0.21569
8.124,0.16478
8.128,0.20432
8.132,0.19212
8.136,0.15004
8.14,0.1376
8.144,0.07285
8.148,0.07327
8.152,0.09631
8.156,0.12228
8.16,0.21762
8.164,0.4176
8.168,0.52993
8.172,0.70469
8.176,0.80511
8.18,0.70386
8.184,0.74892
8.188,0.63559
8.192,0.42463
8.196,0.28703
8.2,0.10579
8.204,0.01692
8.208,-0.14432
8.212,-0.12294
8.216,-0.15154
8.22,-0.20233
8.224,-0.03595
8.228,-0.02751
8.232,0.03891
8.236,0.01065
8.24,-0.00532
8.244,-0.02968
8.248,-0.04656
8.252,-0.04962
8.256,-0.0349
8.26,0.01437
8.264,0.00224
8.268,0.05667
8.272,-0.01494
8.276,-0.01656
8.28,-0.00932
8.284,0.01571
8.288,-0.00859
8.292,0.02722
8.296,-0.03481
8.3,-0.05096
8.304,-0.03936
8.308,0.01286
8.312,-0.00705
8.316,-0.0047
8.32,0.00759
8.324,-0.00037
8.328,-0.02911
8.332,-0.01245
8.336,0.01123
8.34,0.00553
8.344,0.04736
8.348,0.00527
8.352,0.03396
8.356,-0.03662
8.36,0.02537
8.364,-0.0027
8.368,0.0128
8.372,-0.04715
8.376,0.03462
8.38,0.04887
8.384,0.00559
8.388,0.0283
8.392,0.06613
8.396,0.13514
8.4,0.09309
8.404,0.17037
8.408,0.13558
8.412,0.18692
8.416,0.14854
8.42,0.22046
8.424,0.13873
8.428,0.25426
8.432,0.23536
8.436,0.20713
8.44,0.26727
8.444,0.27526
8.448,0.33282
8.452,0.34902
8.456,0.28778
8.46,0.27928
8.464,0.29983
8.468,0.26902
8.472,0.25408
8.476,0.22113
8.48,0.15946
8.484,0.15731
8.488,0.17505
8.492,0.2198
8.496,0.18002
8.5,0.12647
8.504,0.17878
8.508,0.18124
8.512,0.14105
8.516,0.11741
8.52,0.1059
8.524,0.03739
8.528,0.11373
8.532,0.04463
8.536,0.07362
8.54,0.06037
8.544,0.03684
8.548,0.03295
8.552,-0.02445
8.556,0.00044
8.56,-0.02077
8.564,-0.06509
8.568,-0.01736
8.572,-0.13033
8.576,-0.02209
8.58,0.04638
8.584,0.26643
8.588,0.38665
8.592,0.66096
8.596,0.81836
8.6,0.93671
8.604,0.995
8.608,0.89056
8.612,0.70172
8.616,0.57538
8.62,0.32499
8.624,0.08301
8.628,-0.05929
8.632,-0.10505
8.636,-0.14037
8.64,-0.14641
8.644,-0.11847
8.648,-0.08977
8.652,-0.03952
8.656,-0.00461
8.66,-0.0402
8.664,-0.02318
8.668,0.11801
8.672,-0.04826
8.676,0.01345
8.68,0.03399
8.684,0.02045
8.688,0.02112
8.692,-0.02618
8.696,-0.00549
8.7,-0.00713
8.704,0.00541
8.708,0.04957
8.712,0.05985
8.716,-0.05244
8.72,-0.03343
8.724,-0.00157
8.728,0.04258
8.732,0.07444
8.736,-0.03259
8.74,-0.04335
8.744,0.05413
8.748,-0.03358
8.752,0.01436
8.756,0.00555
8.76,0.04651
8.764,0.03279
8.768,0.00809
8.772,-0.00639
8.776,0.04695
8.78,0.01367
8.784,0.00176
8.788,0.02209
8.792,0.07603
8.796,0.07125
8.8,0.00286
8.804,0.03533
8.808,0.00193
8.812,0.04091
8.816,0.07116
8.82,0.06649
8.824,0.05536
8.828,0.17902
8.832,0.14565
8.836,0.15175
8.84,0.16883
8.844,0.18448
8.848,0.10461
8.852,0.18911
8.856,0.2135
8.86,0.20012
8.864,0.17492
8.868,0.31422
8.872,0.19047
8.876,0.23512
8.88,0.25501
8.884,0.28809
8.888,0.25425
8.892,0.28126
8.896,0.22608
8.9,0.25511
8.904,0.23041
8.908,0.23662
8.912,0.23706
8.916,0.25138
8.92,0.22967
8.924,0.21549
8.928,0.2995
8.932,0.21203
8.936,0.22378
8.94,0.22941
8.944,0.22795
8.948,0.18695
8.952,0.18887
8.956,0.10266
8.96,0.13284
8.964,0.11839
8.968,0.0484
8.972,0.09514
8.976,0.05803
8.98,0.01042
8.984,0.03926
8.988,0.08224
8.992,0.01229
8.996,0.02429
9.0,-0.00093
9.004,0.04401
9.008,0.06996
9.012,0.00211
9.016,-0.01257
9.02,0.01833
9.024,-0.01961
9.028,0.05223
9.032,0.04848
9.036,-0.02336
9.04,0.03868
9.044,-0.00133
9.048,0.02054
9.052,-0.0125
9.056,-0.09974
9.06,-0.13647
9.064,-0.04636
9.068,-0.07609
9.072,0.05135
9.076,0.1478
9.08,0.25675
9.084,0.4447
9.088,0.52844
9.092,0.61734
9.096,0.64146
9.1,0.56196
9.104,0.43417
9.108,0.28228
9.112,0.12089
9.116,-0.01701
9.12,-0.1013
9.124,-0.1854
9.128,-0.16073
9.132,-0.15408
9.136,-0.06969
9.14,-0.06119
9.144,-0.05412
9.148,-0.00664
9.152,0.00214
9.156,0.06045
9.16,0.06072
9.164,0.02627
9.168,0.02406
9.172,0.01894
9.176,0.00498
9.18,0.06411
9.184,0.02516
9.188,0.03016
9.192,0.0007
9.196,0.02103
9.2,0.04315
9.204,0.00828
9.208,0.02504
9.212,-0.02613
9.216,0.03199
9.22,-0.0026
9.224,0.07061
9.228,-0.07239
9.232,-0.01945
9.236,0.02217
9.24,-0.02403
9.244,-0.00848
9.248,0.05212
9.252,-0.00064
9.256,-0.01095
9.26,0.07017
9.264,0.0154
9.268,0.01419
9.272,0.0411
9.276,0.00069
9.28,0.04392
9.284,0.03613
9.288,0.07362
9.292,0.07436
9.296,0.04072
9.3,0.04454
9.304,0.07592
9.308,0.07366
9.312,0.08053
9.316,0.14747
9.32,0.16271
9.324,0.19203
9.328,0.13422
9.332,0.16944
9.336,0.11449
9.34,0.18284
9.344,0.16766
9.348,0.21921
9.352,0.19286
9.356,0.14021
9.36,0.22029
9.364,0.26287
9.368,0.19167
9.372,0.23145
9.376,0.25641
9.38,0.25415
9.384,0.24715
9.388,0.21619
9.392,0.27827
9.396,0.2487
9.4,0.18994
9.404,0.25067
9.408,0.12682
9.412,0.22715
9.416,0.17868
9.42,0.10153
9.424,0.11087
9.428,0.15484
9.432,0.14827
9.436,0.16809
9.44,0.10138
9.444,0.04552
9.448,0.12227
9.452,0.10542
9.456,0.06552
9.46,0.08994
9.464,0.07898
9.468,0.02875
9.472,0.02821
9.476,0.09444
9.48,0.02668
9.484,0.0103
9.488,0.11062
9.492,0.019
9.496,-0.02033
9.5,0.04622
9.504,-0.01256
9.508,-0.01569
9.512,0.03815
9.516,-0.01324
9.52,0.0653
9.524,0.05184
9.528,0.01818
9.532,0.01194
9.536,0.05072
9.54,0.02135
9.544,0.05781
9.548,0.02313
9.552,0.07919
9.556,0.04613
9.56,-0.01134
9.564,0.02545
9.568,0.01687
9.572,-0.00229
9.576,0.00319
9.58,0.09215
9.584,0.05185
9.588,0.02671
9.592,0.08329
9.596,0.01729
9.6,0.08413
9.604,0.0272
9.608,0.14389
9.612,0.08047
9.616,0.13987
9.62,0.06749
9.624,0.08649
9.628,0.157
9.632,0.07994
9.636,0.1072
9.64,0.12189
9.644,0.12139
9.648,0.11099
9.652,0.12392
9.656,0.04457
9.66,-0.00362
9.664,0.06845
9.668,0.01852
9.672,0.01425
9.676,0.0465
9.68,0.0429
9.684,0.04077
9.688,-0.00811
9.692,0.07015
9.696,0.05516
9.7,-0.00385
9.704,0.01528
9.708,-0.02462
9.712,0.07317
9.716,0.10286
9.72,0.01498
9.724,-0.01034
9.728,0.00049
9.732,-0.00607
9.736,0.05029
9.74,0.02362
9.744,-0.02224
9.748,-0.08075
9.752,-0.03885
9.756,-0.11544
9.76,-0.10406
9.764,0.03204
9.768,0.23888
9.772,0.4225
9.776,0.57126
9.78,0.83561
9.784,1.00237
9.788,0.96474
9.792,1.00548
9.796,0.8169
9.8,0.56793
9.804,0.39326
9.808,0.21664
9.812,-0.03311
9.816,-0.06451
9.82,-0.08488
9.824,-0.15513
9.828,-0.04055
9.832,-0.0525
9.836,-0.01805
9.84,0.00743
9.844,0.02744
9.848,-0.04901
9.852,0.03024
9.856,-0.00439
9.86,0.05041
9.864,-0.00556
9.868,0.02501
9.872,-0.01212
9.876,-0.00456
9.88,0.05971
9.884,0.08802
9.888,0.01428
9.892,0.05448
9.896,-0.04632
9.9,0.01511
9.904,0.04052
9.908,0.01183
9.912,0.01681
9.916,-0.0091
9.92,0.08721
9.924,-0.00467
9.928,0.10612
9.932,0.06366
9.936,0.07903
9.94,0.00584
9.944,0.06828
9.948,0.06092
9.952,0.05484
9.956,0.0602
9.96,0.04106
9.964,0.04239
9.968,0.05894
9.972,0.04248
9.976,0.03183
9.98,0.14072
9.984,0.01857
9.988,0.13082
9.992,0.06721
9.996,0.05808
