t_seg,ecg_mV
0.0,0.00629
0.004,0.0178
0.008,0.00784
0.012,0.01598
0.016,-0.00838
0.02,-0.00684
0.024,-0.00377
0.028,-7e-05
0.032,0.02497
0.036,-0.01128
0.04,0.02842
0.044,-0.01702
0.048,-0.00028
0.052,-0.0093
0.056,-0.01645
0.06,0.00252
0.064,0.01377
0.068,-0.0133
0.072,-0.02996
0.076,-0.02085
0.08,-0.01295
0.084,-0.00475
0.088,-0.01243
0.092,0.01389
0.096,0.00339
0.1,0.00225
0.104,-0.01664
0.108,-0.00191
0.112,0.01812
0.116,0.00427
0.12,0.00761
0.124,-0.01137
0.128,-0.00591
0.132,-0.02928
0.136,0.01176
0.14,0.00149
0.144,0.01984
0.148,0.00216
0.152,-0.03619
0.156,-0.017
0.16,0.00075
0.164,-0.0039
0.168,0.00104
0.172,0.00569
0.176,-0.03913
0.18,0.01513
0.184,-0.00168
0.188,-0.01815
0.192,0.02388
0.196,-0.0077
0.2,0.00921
0.204,-0.00971
0.208,-0.01266
0.212,-0.00843
0.216,-0.02408
0.22,0.00576
0.224,-0.02056
0.228,-0.01053
0.232,0.00751
0.236,-0.00639
0.24,-0.01289
0.244,-0.0169
0.248,-0.01787
0.252,0.01806
0.256,-0.0312
0.26,-0.02022
0.264,0.01306
0.268,-0.02242
0.272,-0.00056
0.276,-0.01126
0.28,0.00094
0.284,-0.00652
0.288,0.00062
0.292,0.01522
0.296,-0.04147
0.3,-0.01855
0.304,-0.02656
0.308,-0.00124
0.312,-0.02221
0.316,0.01226
0.32,-0.01308
0.324,-0.04072
0.328,0.00941
0.332,0.01121
0.336,-0.01586
0.34,-0.01647
0.344,-0.01968
0.348,-0.02618
0.352,0.03045
0.356,-0.00669
0.36,-0.01083
0.364,0.00587
0.368,-0.00284
0.372,-0.01735
0.376,-0.01271
0.38,-0.03082
0.384,-0.02
0.388,0.0114
0.392,-0.02845
0.396,0.024
0.4,-0.01179
0.404,-0.01491
0.408,-0.00644
0.412,-0.0196
0.416,-0.03657
0.42,-0.01949
0.424,-0.00478
0.428,-0.02175
0.432,-0.02056
0.436,-0.00785
0.44,-0.00218
0.444,-0.04233
0.448,0.00991
0.452,0.00946
0.456,-0.02534
0.46,-0.00392
0.464,0.01987
0.468,0.01644
0.472,0.01504
0.476,0.00655
0.48,0.05839
0.484,0.07952
0.488,0.05343
0.492,0.116
0.496,0.09446
0.5,0.10755
0.504,0.0815
0.508,0.10438
0.512,0.06751
0.516,0.04964
0.52,0.07858
0.524,0.03191
0.528,0.04245
0.532,0.0184
0.536,0.03217
0.54,0.01463
0.544,-0.01615
0.548,-0.00332
0.552,-0.02441
0.556,-0.01472
0.56,-0.00526
0.564,0.00529
0.568,-0.02824
0.572,0.00391
0.576,-0.0436
0.58,-0.0071
0.584,-0.00762
0.588,-0.0024
0.592,-0.01062
0.596,-0.02623
0.6,-0.01279
0.604,0.01606
0.608,-0.02231
0.612,-0.0227
0.616,-0.001
0.62,-0.05734
0.624,-0.08433
0.628,-0.11472
0.632,-0.13093
0.636,-0.05734
0.64,0.02949
0.644,0.20167
0.648,0.4034
0.652,0.63837
0.656,0.77823
0.66,0.92462
0.664,0.98503
0.668,0.91975
0.672,0.77673
0.676,0.52234
0.68,0.29409
0.684,0.07457
0.688,-0.08117
0.692,-0.15451
0.696,-0.19154
0.7,-0.15387
0.704,-0.11796
0.708,-0.08222
0.712,-0.05716
0.716,-0.03233
0.72,-0.03118
0.724,-0.03642
0.728,-0.00128
0.732,-0.023
0.736,-0.03185
0.74,-0.01771
0.744,0.01324
0.748,-0.01488
0.752,-0.00528
0.756,-0.01857
0.76,-0.03233
0.764,-0.00143
0.768,-0.01336
0.772,-0.01118
0.776,-0.00511
0.78,0.00759
0.784,-0.03283
0.788,0.003
0.792,0.01317
0.796,0.00099
0.8,-0.02206
0.804,-0.01193
0.808,-0.03201
0.812,0.00685
0.816,-0.0424
0.82,-0.01325
0.824,0.00589
0.828,0.0086
0.832,0.01246
0.836,0.00202
0.84,-0.00953
0.844,-0.00059
0.848,0.0167
0.852,0.01215
0.856,0.02166
0.86,0.02768
0.864,0.0439
0.868,0.02928
0.872,0.0419
0.876,0.0416
0.88,0.06839
0.884,0.04269
0.888,0.08649
0.892,0.09788
0.896,0.11407
0.9,0.10589
0.904,0.10114
0.908,0.15797
0.912,0.16581
0.916,0.13228
0.92,0.13189
0.924,0.17277
0.928,0.16789
0.932,0.16693
0.936,0.1798
0.94,0.20163
0.944,0.15711
0.948,0.1958
0.952,0.21132
0.956,0.1951
0.96,0.17133
0.964,0.17814
0.968,0.15289
0.972,0.14889
0.976,0.16305
0.98,0.1488
0.984,0.15072
0.988,0.13554
0.992,0.09344
0.996,0.0956
1.0,0.05773
1.004,0.07431
1.008,0.05103
1.012,0.06152
1.016,0.02587
1.02,0.05226
1.024,0.03965
1.028,0.01261
1.032,0.01236
1.036,0.0096
1.04,0.02657
1.044,-0.00392
1.048,0.00119
1.052,0.02131
1.056,-0.0132
1.06,0.01731
1.064,-0.03394
1.068,-0.01239
1.072,-0.03241
1.076,-0.02717
1.08,-0.05534
1.084,-0.02198
1.088,-0.03625
1.092,-0.00789
1.096,-0.00793
1.1,-0.03666
1.104,-0.03338
1.108,-0.00812
1.112,-0.0018
1.116,-0.06329
1.12,-0.04046
1.124,-0.05849
1.128,-0.04978
1.132,-0.05221
1.136,-0.02649
1.14,-0.03215
1.144,-0.04002
1.148,-0.02612
1.152,-0.0214
1.156,-0.03117
1.16,-0.01517
1.164,-0.02782
1.168,-0.01571
1.172,-0.02843
1.176,-0.03465
1.18,-0.01097
1.184,-0.02327
1.188,-0.02836
1.192,0.0094
1.196,-0.02142
1.2,-0.01292
1.204,-0.03148
1.208,-0.02247
1.212,-0.03351
1.216,-0.00907
1.22,-0.01809
1.224,-0.00236
1.228,-0.01929
1.232,0.00503
1.236,-0.03049
1.24,-0.03042
1.244,-0.01821
1.248,-0.00028
1.252,0.00304
1.256,0.03554
1.26,0.01971
1.264,0.06385
1.268,0.09072
1.272,0.0764
1.276,0.05418
1.28,0.07461
1.284,0.08375
1.288,0.04708
1.292,0.04492
1.296,0.03588
1.3,0.03282
1.304,0.041
1.308,7e-05
1.312,-0.00281
1.316,-0.0236
1.32,-0.02147
1.324,-0.00102
1.328,-0.03649
1.332,-0.04323
1.336,-0.03704
1.34,-0.05169
1.344,0.00433
1.348,-0.01428
1.352,-0.03985
1.356,-0.02712
1.36,-0.0357
1.364,-0.02309
1.368,-0.04468
1.372,-0.03168
1.376,-0.02641
1.38,-0.0123
1.384,-0.03595
1.388,-0.01614
1.392,-0.02064
1.396,-0.08115
1.4,-0.106
1.404,-0.11644
1.408,-0.12053
1.412,-0.06708
1.416,0.04469
1.42,0.23029
1.424,0.46139
1.428,0.65945
1.432,0.82127
1.436,0.96034
1.44,0.95406
1.444,0.85957
1.448,0.67864
1.452,0.43298
1.456,0.22668
1.46,0.01702
1.464,-0.10825
1.468,-0.17721
1.472,-0.20553
1.476,-0.18608
1.48,-0.10634
1.484,-0.0781
1.488,-0.05976
1.492,-0.03121
1.496,-0.04959
1.5,-0.00025
1.504,-0.01187
1.508,-0.01623
1.512,-0.0216
1.516,-0.01287
1.52,-0.04291
1.524,-0.02901
1.528,-0.02307
1.532,-0.03124
1.536,-0.03816
1.54,-0.03536
1.544,-0.02336
1.548,-0.0369
1.552,-0.04033
1.556,-0.01459
1.56,-0.02141
1.564,-0.03346
1.568,-0.03078
1.572,-0.03215
1.576,-0.05527
1.58,-0.02255
1.584,-0.00408
1.588,-0.02343
1.592,-0.00697
1.596,0.00293
1.6,-0.01092
1.604,-0.02334
1.608,-0.02581
1.612,-0.00131
1.616,-0.02048
1.62,0.00068
1.624,-0.0107
1.628,-0.01042
1.632,-0.00637
1.636,-0.00655
1.64,0.0119
1.644,-0.0238
1.648,0.02986
1.652,0.03269
1.656,0.04154
1.66,0.05603
1.664,0.07723
1.668,0.10579
1.672,0.07753
1.676,0.13097
1.68,0.10434
1.684,0.12425
1.688,0.17553
1.692,0.17151
1.696,0.15522
1.7,0.17717
1.704,0.17275
1.708,0.16801
1.712,0.17695
1.716,0.18281
1.72,0.17837
1.724,0.17051
1.728,0.18952
1.732,0.18308
1.736,0.14825
1.74,0.15403
1.744,0.17285
1.748,0.1104
1.752,0.13935
1.756,0.12459
1.76,0.09651
1.764,0.12033
1.768,0.09178
1.772,0.11084
1.776,0.07968
1.78,0.04981
1.784,0.02271
1.788,0.02031
1.792,0.02838
1.796,0.00986
1.8,0.01505
1.804,0.00491
1.808,0.00642
1.812,-0.00337
1.816,-0.02467
1.82,-0.00733
1.824,-0.00739
1.828,-0.03173
1.832,-0.01108
1.836,-0.0328
1.84,-0.0331
1.844,-0.02622
1.848,-0.0328
1.852,-0.031
1.856,-0.06319
1.86,-0.02987
1.864,-0.02404
1.868,-0.02124
1.872,-0.00776
1.876,-0.03335
1.88,-0.01375
1.884,-0.04439
1.888,-0.03305
1.892,-0.0429
1.896,-0.02194
1.9,-0.02728
1.904,-0.04244
1.908,-0.04151
1.912,-0.0271
1.916,-0.0102
1.92,-0.02649
1.924,-0.0196
1.928,-0.0331
1.932,-0.06508
1.936,-0.02079
1.94,-0.026
1.944,-0.04259
1.948,-0.03325
1.952,-0.0477
1.956,0.00787
1.96,-0.05221
1.964,0.00173
1.968,-0.04128
1.972,-0.02367
1.976,-0.03383
1.98,-0.02224
1.984,-0.02864
1.988,-0.02469
1.992,-0.02022
1.996,-0.03035
2.0,-0.03939
2.004,-0.03096
2.008,-0.03581
2.012,-0.03907
2.016,-0.01743
2.02,-0.03883
2.024,-0.02457
2.028,-0.0259
2.032,-0.01371
2.036,-0.04782
2.04,-0.02692
2.044,-0.04079
2.048,-0.02884
2.052,-0.01909
2.056,0.00879
2.06,0.01973
2.064,-0.0129
2.068,-0.01401
2.072,0.01944
2.076,0.01919
2.08,0.05308
2.084,0.05025
2.088,0.07587
2.092,0.07451
2.096,0.07972
2.1,0.06296
2.104,0.05322
2.108,0.05186
2.112,0.04536
2.116,0.00679
2.12,0.01645
2.124,0.00393
2.128,-0.00855
2.132,-0.01991
2.136,-0.02469
2.14,-0.02505
2.144,-0.01108
2.148,-0.01887
2.152,-0.05306
2.156,-0.04999
2.16,-0.01225
2.164,-0.02102
2.168,-0.04725
2.172,-0.00406
2.176,-0.04698
2.18,-0.04062
2.184,-0.01545
2.188,-0.0178
2.192,-0.00866
2.196,-0.00703
2.2,-0.0014
2.204,-0.03853
2.208,-0.0569
2.212,-0.07592
2.216,-0.10757
2.22,-0.15892
2.224,-0.1403
2.228,-0.02245
2.232,0.09392
2.236,0.30621
2.24,0.51182
2.244,0.70246
2.248,0.88331
2.252,0.95605
2.256,0.92172
2.26,0.82469
2.264,0.60324
2.268,0.36197
2.272,0.15849
2.276,0.00111
2.28,-0.13463
2.284,-0.18484
2.288,-0.22329
2.292,-0.16999
2.296,-0.12614
2.3,-0.06461
2.304,-0.02813
2.308,-0.0459
2.312,-0.01359
2.316,-0.01833
2.32,-0.03889
2.324,-0.00364
2.328,-0.03053
2.332,-0.00815
2.336,-0.0377
2.34,-0.01661
2.344,-0.01669
2.348,-0.01999
2.352,-0.04553
2.356,-0.00985
2.36,-0.02963
2.364,-0.0333
2.368,-0.042
2.372,0.01146
2.376,0.01477
2.38,-0.02858
2.384,-0.03298
2.388,-0.03681
2.392,-0.00952
2.396,-0.01769
2.4,-0.01883
2.404,-0.00397
2.408,-0.0321
2.412,-0.01928
2.416,-0.02464
2.42,-0.04257
2.424,-0.03629
2.428,-0.0008
2.432,0.00074
2.436,-0.00932
2.44,0.02189
2.444,0.00642
2.448,0.01318
2.452,0.03291
2.456,0.02628
2.46,0.02398
2.464,0.02823
2.468,0.0479
2.472,0.06721
2.476,0.08809
2.48,0.09772
2.484,0.12351
2.488,0.09341
2.492,0.10926
2.496,0.15058
2.5,0.15667
2.504,0.15508
2.508,0.16364
2.512,0.17237
2.516,0.19775
2.52,0.19295
2.524,0.18844
2.528,0.2128
2.532,0.22398
2.536,0.22479
2.54,0.19479
2.544,0.1947
2.548,0.1708
2.552,0.20162
2.556,0.1671
2.56,0.17295
2.564,0.16065
2.568,0.1234
2.572,0.14086
2.576,0.0871
2.58,0.1095
2.584,0.05539
2.588,0.09665
2.592,0.05552
2.596,0.03235
2.6,0.05511
2.604,0.05545
2.608,0.01935
2.612,0.00608
2.616,0.01101
2.62,-0.01225
2.624,-0.00803
2.628,-0.02149
2.632,-0.00687
2.636,-0.01585
2.64,-0.01544
2.644,-0.02496
2.648,0.0099
2.652,-0.00864
2.656,-0.01175
2.66,-0.02537
2.664,-0.04943
2.668,-0.01509
2.672,-0.01642
2.676,-0.03356
2.68,-0.00746
2.684,-0.02805
2.688,-0.01393
2.692,-0.02447
2.696,-0.0256
2.7,-0.03204
2.704,-0.0039
2.708,-0.03897
2.712,-0.02191
2.716,0.00217
2.72,-0.00998
2.724,0.01273
2.728,0.00224
2.732,-0.01541
2.736,-0.02275
2.74,-0.01137
2.744,-0.01418
2.748,-0.0146
2.752,-0.04644
2.756,0.00539
2.76,-0.01748
2.764,-0.01212
2.768,-0.03059
2.772,-0.00535
2.776,-0.03036
2.78,-0.00703
2.784,-0.0194
2.788,0.01091
2.792,-0.01229
2.796,-0.02203
2.8,-0.01515
2.804,-0.0259
2.808,-0.00797
2.812,-0.04149
2.816,-0.03257
2.82,-0.01037
2.824,0.00647
2.828,-0.00864
2.832,-0.01444
2.836,-0.00865
2.84,-0.00738
2.844,-0.0246
2.848,-0.04293
2.852,-0.00468
2.856,-0.02771
2.86,-0.0332
2.864,-0.03589
2.868,-0.01308
2.872,-0.01486
2.876,-0.01378
2.88,-0.00757
2.884,-0.0092
2.888,-0.04743
2.892,-0.00805
2.896,-0.02719
2.9,-0.02586
2.904,-0.00259
2.908,-0.00428
2.912,-0.01261
2.916,-0.02988
2.92,0.00302
2.924,-0.01343
2.928,-0.01823
2.932,0.01338
2.936,-0.01255
2.94,-0.00977
2.944,-0.02332
2.948,-0.01985
2.952,-0.00451
2.956,-0.01139
2.96,-0.01764
2.964,0.01389
2.968,0.0188
2.972,0.0231
2.976,0.04666
2.98,0.04432
2.984,0.05614
2.988,0.06655
2.992,0.09014
2.996,0.06464
3.0,0.1074
3.004,0.08782
3.008,0.06873
3.012,0.05631
3.016,0.01997
3.02,0.04854
3.024,0.05638
3.028,0.03047
3.032,0.02551
3.036,0.01243
3.04,0.02283
3.044,0.00982
3.048,-0.0136
3.052,-0.00903
3.056,-0.02728
3.06,0.0076
3.064,0.02069
3.068,-0.00161
3.072,-0.02965
3.076,0.00546
3.08,0.00199
3.084,0.00223
3.088,-0.04108
3.092,0.01703
3.096,0.00407
3.1,-0.02017
3.104,-0.00867
3.108,-0.01163
3.112,-0.01263
3.116,-0.03675
3.12,-0.04299
3.124,-0.07861
3.128,-0.09661
3.132,-0.10842
3.136,-0.01078
3.14,0.13874
3.144,0.31889
3.148,0.54723
3.152,0.73595
3.156,0.9072
3.16,0.97474
3.164,0.95682
3.168,0.8025
3.172,0.62111
3.176,0.38429
3.18,0.1443
3.184,0.0052
3.188,-0.11924
3.192,-0.15067
3.196,-0.16696
3.2,-0.13823
3.204,-0.08473
3.208,-0.04447
3.212,-0.0193
3.216,-0.03814
3.22,-0.02019
3.224,0.00392
3.228,-0.01251
3.232,-0.00036
3.236,-0.0027
3.24,0.00892
3.244,-0.00403
3.248,-0.00887
3.252,0.00651
3.256,0.00632
3.26,-0.00951
3.264,0.00558
3.268,-0.00161
3.272,0.00197
3.276,-0.01089
3.28,0.00649
3.284,0.01448
3.288,-0.01852
3.292,-0.00869
3.296,0.02232
3.3,-4e-05
3.304,0.01408
3.308,0.00332
3.312,0.00965
3.316,-0.01418
3.32,0.01277
3.324,0.04402
3.328,0.0259
3.332,-0.02249
3.336,0.03243
3.34,0.02874
3.344,0.00055
3.348,0.02328
3.352,0.04042
3.356,0.02185
3.36,0.06204
3.364,0.04001
3.368,0.04999
3.372,0.05931
3.376,0.05411
3.38,0.07
3.384,0.11415
3.388,0.1247
3.392,0.13481
3.396,0.11563
3.4,0.16601
3.404,0.13205
3.408,0.17259
3.412,0.21168
3.416,0.19189
3.42,0.19054
3.424,0.20514
3.428,0.18291
3.432,0.21119
3.436,0.21849
3.44,0.19729
3.444,0.21754
3.448,0.2113
3.452,0.21347
3.456,0.2134
3.46,0.23181
3.464,0.20259
3.468,0.184
3.472,0.18849
3.476,0.14662
3.48,0.14834
3.484,0.16731
3.488,0.13817
3.492,0.11808
3.496,0.09022
3.5,0.11059
3.504,0.0801
3.508,0.09665
3.512,0.07166
3.516,0.04911
3.52,0.04023
3.524,0.03204
3.528,0.03623
3.532,0.03404
3.536,0.03391
3.54,0.02601
3.544,0.00957
3.548,0.02464
3.552,-0.00187
3.556,0.00614
3.56,0.01328
3.564,0.00581
3.568,-0.00082
3.572,0.00495
3.576,-0.01855
3.58,0.00361
3.584,0.01054
3.588,0.00014
3.592,0.02778
3.596,-0.0003
3.6,0.01526
3.604,0.02382
3.608,-0.00419
3.612,0.00357
3.616,0.00021
3.62,0.00557
3.624,-0.02124
3.628,0.01095
3.632,-0.01155
3.636,0.00168
3.64,0.00567
3.644,0.01385
3.648,0.0107
3.652,-0.00404
3.656,0.00967
3.66,0.00405
3.664,0.0029
3.668,0.02274
3.672,0.00781
3.676,0.00987
3.68,0.03184
3.684,0.01438
3.688,0.00308
3.692,0.00014
3.696,0.00874
3.7,0.02441
3.704,0.01955
3.708,-0.01833
3.712,0.01809
3.716,0.003
3.72,0.00838
3.724,0.01906
3.728,0.00094
3.732,0.0192
3.736,-0.00443
3.74,0.02217
3.744,0.03833
3.748,0.02121
3.752,0.00213
3.756,0.01644
3.76,-0.00102
3.764,0.01541
3.768,0.00208
3.772,0.00456
3.776,0.00115
3.78,-0.01514
3.784,0.0174
3.788,-0.00727
3.792,0.01334
3.796,-0.00165
3.8,0.00809
3.804,0.02719
3.808,-0.00777
3.812,0.02813
3.816,0.01086
3.82,0.03815
3.824,0.02103
3.828,0.0341
3.832,0.08268
3.836,0.06204
3.84,0.0481
3.844,0.10721
3.848,0.10144
3.852,0.08934
3.856,0.10094
3.86,0.10572
3.864,0.07446
3.868,0.08876
3.872,0.07607
3.876,0.0896
3.88,0.05408
3.884,0.05835
3.888,0.04141
3.892,0.02423
3.896,0.01342
3.9,0.04175
3.904,-0.01018
3.908,0.03432
3.912,0.01643
3.916,0.01106
3.92,0.01232
3.924,0.01711
3.928,0.00967
3.932,0.01933
3.936,-0.01267
3.94,0.02158
3.944,0.00063
3.948,0.01531
3.952,0.00051
3.956,-0.0107
3.96,-0.00792
3.964,-0.00955
3.968,0.00591
3.972,-0.0122
3.976,-0.05345
3.98,-0.10555
3.984,-0.06598
3.988,-0.04159
3.992,0.06572
3.996,0.23268
4.0,0.44403
4.004,0.66607
4.008,0.8777
4.012,0.99197
4.016,1.02153
4.02,0.94823
4.024,0.76418
4.028,0.51231
4.032,0.28692
4.036,0.09335
4.04,-0.01808
4.044,-0.10854
4.048,-0.15324
4.052,-0.14545
4.056,-0.11388
4.06,-0.06678
4.064,0.00911
4.068,-0.00657
4.072,0.0053
4.076,0.01524
4.08,0.01785
4.084,-0.0078
4.088,0.01241
4.092,0.01631
4.096,0.00227
4.1,0.01391
4.104,0.01154
4.108,0.0103
4.112,0.03203
4.116,0.02337
4.12,0.00685
4.124,0.04123
4.128,0.02857
4.132,0.00953
4.136,0.00083
4.14,0.00268
4.144,0.01305
4.148,0.03443
4.152,0.03382
4.156,-0.00096
4.16,0.02925
4.164,0.02048
4.168,0.03873
4.172,0.00239
4.176,0.01316
4.18,-0.00575
4.184,0.03996
4.188,0.0261
4.192,0.07407
4.196,0.0452
4.2,0.05673
4.204,0.02019
4.208,0.06
4.212,0.09148
4.216,0.0853
4.22,0.04487
4.224,0.08301
4.228,0.06493
4.232,0.09036
4.236,0.11355
4.24,0.14005
4.244,0.13897
4.248,0.13448
4.252,0.14994
4.256,0.19433
4.26,0.16354
4.264,0.18538
4.268,0.19189
4.272,0.2203
4.276,0.2089
4.28,0.21891
4.284,0.21947
4.288,0.28164
4.292,0.23514
4.296,0.22617
4.3,0.27402
4.304,0.2375
4.308,0.23156
4.312,0.23546
4.316,0.19664
4.32,0.2273
4.324,0.19613
4.328,0.22242
4.332,0.18571
4.336,0.1955
4.34,0.1444
4.344,0.11231
4.348,0.12308
4.352,0.11128
4.356,0.09743
4.36,0.10232
4.364,0.09112
4.368,0.09438
4.372,0.07403
4.376,0.0738
4.38,0.05544
4.384,0.0378
4.388,0.04879
4.392,0.04529
4.396,0.03835
4.4,0.03148
4.404,0.02148
4.408,0.04323
4.412,0.05253
4.416,0.02345
4.42,0.01332
4.424,0.01974
4.428,0.02032
4.432,0.02501
4.436,0.0301
4.44,0.03376
4.444,0.02776
4.448,0.04941
4.452,0.02077
4.456,0.00441
4.46,0.02305
4.464,0.02427
4.468,0.01865
4.472,0.0267
4.476,0.02954
4.48,0.04839
4.484,-0.00115
4.488,-0.00285
4.492,0.00985
4.496,-0.01524
4.5,0.00088
4.504,0.02472
4.508,0.02186
4.512,0.01017
4.516,0.03059
4.52,0.02944
4.524,0.0084
4.528,0.01333
4.532,0.01422
4.536,0.03383
4.54,0.03617
4.544,0.01513
4.548,0.0266
4.552,0.03579
4.556,0.02816
4.56,0.03431
4.564,0.04847
4.568,0.04425
4.572,0.01122
4.576,0.01731
4.58,0.015
4.584,0.0257
4.588,0.02139
4.592,0.01158
4.596,0.02948
4.6,0.03423
4.604,0.0322
4.608,0.01602
4.612,0.01626
4.616,0.0483
4.62,0.02338
4.624,0.01552
4.628,0.0449
4.632,0.03417
4.636,0.03817
4.64,0.04564
4.644,0.02215
4.648,0.01987
4.652,0.01317
4.656,0.03073
4.66,0.03484
4.664,0.02624
4.668,0.03621
4.672,0.03985
4.676,0.05441
4.68,0.04816
4.684,0.04775
4.688,0.05074
4.692,0.06617
4.696,0.06481
4.7,0.10604
4.704,0.09687
4.708,0.12391
4.712,0.11569
4.716,0.11461
4.72,0.11437
4.724,0.14651
4.728,0.15733
4.732,0.10857
4.736,0.12268
4.74,0.06074
4.744,0.07718
4.748,0.07086
4.752,0.07278
4.756,0.05678
4.76,0.03915
4.764,0.0423
4.768,0.03957
4.772,0.01055
4.776,0.00422
4.78,0.05318
4.784,0.04489
4.788,0.01594
4.792,0.03918
4.796,0.01757
4.8,0.02953
4.804,0.00158
4.808,0.01566
4.812,0.0586
4.816,-0.00064
4.82,0.04645
4.824,0.03826
4.828,0.05005
4.832,-0.00092
4.836,-0.0145
4.84,-0.04067
4.844,-0.04754
4.848,-0.10837
4.852,-0.06487
4.856,0.07038
4.86,0.21141
4.864,0.40531
4.868,0.62027
4.872,0.8334
4.876,0.98671
4.88,1.01257
4.884,0.98364
4.888,0.81263
4.892,0.60057
4.896,0.37482
4.9,0.13112
4.904,0.02867
4.908,-0.11543
4.912,-0.14261
4.916,-0.12611
4.92,-0.06677
4.924,-0.03565
4.928,-0.00786
4.932,0.01985
4.936,0.03442
4.94,0.00178
4.944,0.00512
4.948,0.02911
4.952,-0.01184
4.956,0.05209
4.96,0.01909
4.964,0.01693
4.968,0.00642
4.972,0.0331
4.976,0.03847
4.98,0.03496
4.984,0.02351
4.988,0.0528
4.992,0.02501
4.996,0.01879
5.0,0.03999
5.004,0.03682
5.008,0.02554
5.012,0.05596
5.016,0.02015
5.02,0.03123
5.024,0.03861
5.028,0.01728
5.032,0.05869
5.036,0.05029
5.04,0.05579
5.044,0.02452
5.048,0.03718
5.052,0.04132
5.056,0.05334
5.06,0.07532
5.064,0.04284
5.068,0.04357
5.072,0.03396
5.076,0.09268
5.08,0.08843
5.084,0.09552
5.088,0.08585
5.092,0.11467
5.096,0.11122
5.1,0.10659
5.104,0.12052
5.108,0.12793
5.112,0.16167
5.116,0.15607
5.12,0.14911
5.124,0.17767
5.128,0.18414
5.132,0.22998
5.136,0.22328
5.14,0.23588
5.144,0.22187
5.148,0.24158
5.152,0.23749
5.156,0.23567
5.16,0.25152
5.164,0.26498
5.168,0.2708
5.172,0.22996
5.176,0.25937
5.18,0.22684
5.184,0.24111
5.188,0.18937
5.192,0.19426
5.196,0.19299
5.2,0.16847
5.204,0.16392
5.208,0.15012
5.212,0.13975
5.216,0.11651
5.22,0.11186
5.224,0.08654
5.228,0.10559
5.232,0.09275
5.236,0.08508
5.24,0.06171
5.244,0.08284
5.248,0.06984
5.252,0.05887
5.256,0.06857
5.26,0.0507
5.264,0.05141
5.268,0.0494
5.272,0.05121
5.276,0.02341
5.28,0.04921
5.284,0.01651
5.288,0.03361
5.292,0.04902
5.296,0.0299
5.3,0.02976
5.304,0.02316
5.308,0.04205
5.312,0.00339
5.316,0.05041
5.32,0.04018
5.324,0.03901
5.328,0.05831
5.332,0.02111
5.336,-0.00963
5.34,0.01858
5.344,0.02501
5.348,0.01739
5.352,-0.00882
5.356,0.02954
5.36,0.00954
5.364,0.02456
5.368,0.02582
5.372,0.01872
5.376,0.0334
5.38,0.03742
5.384,0.04643
5.388,0.00585
5.392,0.02123
5.396,0.01158
5.4,0.03722
5.404,0.00667
5.408,0.03953
5.412,0.04807
5.416,0.02882
5.42,0.03557
5.424,0.05688
5.428,0.02023
5.432,0.03917
5.436,0.08143
5.44,0.07638
5.444,0.07769
5.448,0.09769
5.452,0.10284
5.456,0.12949
5.46,0.10925
5.464,0.1203
5.468,0.10105
5.472,0.12861
5.476,0.09775
5.48,0.09468
5.484,0.07936
5.488,0.08813
5.492,0.06653
5.496,0.06584
5.5,0.04954
5.504,0.06106
5.508,0.05916
5.512,0.00472
5.516,0.0435
5.52,0.00883
5.524,0.03087
5.528,-0.01051
5.532,0.0135
5.536,0.04426
5.54,0.05369
5.544,0.01308
5.548,0.03286
5.552,0.0369
5.556,0.02916
5.56,0.0286
5.564,0.03755
5.568,0.02304
5.572,0.04027
5.576,-0.00435
5.58,0.00774
5.584,-0.01205
5.588,-0.07742
5.592,-0.06479
5.596,-0.07023
5.6,0.04322
5.604,0.16482
5.608,0.3872
5.612,0.56483
5.616,0.76097
5.62,0.93527
5.624,1.01273
5.628,0.99372
5.632,0.83432
5.636,0.6609
5.64,0.41886
5.644,0.20427
5.648,0.00972
5.652,-0.07653
5.656,-0.11442
5.66,-0.13264
5.664,-0.09866
5.668,-0.06972
5.672,-0.00598
5.676,0.02173
5.68,0.02976
5.684,0.00698
5.688,0.0395
5.692,0.02986
5.696,0.02281
5.7,0.01427
5.704,0.02485
5.708,0.00952
5.712,0.03424
5.716,0.0121
5.72,0.0015
5.724,-0.00748
5.728,-0.00581
5.732,0.04219
5.736,0.04623
5.74,0.02511
5.744,0.02024
5.748,0.04126
5.752,0.02493
5.756,-0.01881
5.76,0.01516
5.764,0.02185
5.768,0.02228
5.772,0.04995
5.776,0.02226
5.78,0.00867
5.784,0.03368
5.788,0.0174
5.792,0.00449
5.796,0.00918
5.8,0.00431
5.804,0.06287
5.808,0.06953
5.812,0.04849
5.816,0.06692
5.82,0.0617
5.824,0.06462
5.828,0.04835
5.832,0.05172
5.836,0.0799
5.84,0.07951
5.844,0.09475
5.848,0.0989
5.852,0.14443
5.856,0.13113
5.86,0.17391
5.864,0.1628
5.868,0.20103
5.872,0.21067
5.876,0.1928
5.88,0.20259
5.884,0.23619
5.888,0.21141
5.892,0.22746
5.896,0.23947
5.9,0.25808
5.904,0.24791
5.908,0.24754
5.912,0.21745
5.916,0.22716
5.92,0.23044
5.924,0.23015
5.928,0.22035
5.932,0.17771
5.936,0.18967
5.94,0.18639
5.944,0.1806
5.948,0.13097
5.952,0.13328
5.956,0.13632
5.96,0.09204
5.964,0.11012
5.968,0.10488
5.972,0.07526
5.976,0.09624
5.98,0.06444
5.984,0.07014
5.988,0.0404
5.992,0.02902
5.996,0.04432
6.0,0.05677
6.004,0.05754
6.008,0.04461
6.012,0.00249
6.016,0.02627
6.02,0.05682
6.024,0.02887
6.028,0.02594
6.032,0.031
6.036,0.01623
6.04,0.00609
6.044,0.03148
6.048,-0.00325
6.052,0.02142
6.056,0.00918
6.06,0.0392
6.064,0.00592
6.068,0.02424
6.072,0.02461
6.076,-0.02434
6.08,0.01929
6.084,0.02681
6.088,0.00212
6.092,0.03168
6.096,0.01781
6.1,-0.00047
6.104,0.01514
6.108,0.02604
6.112,0.01419
6.116,0.02581
6.12,0.00856
6.124,0.02709
6.128,0.01063
6.132,0.03021
6.136,-0.00472
6.14,0.01313
6.144,0.036
6.148,0.02381
6.152,-0.00202
6.156,0.01242
6.16,0.00689
6.164,0.03507
6.168,-0.00342
6.172,-0.00549
6.176,0.02452
6.18,0.02439
6.184,0.00958
6.188,-0.00637
6.192,0.0093
6.196,0.00523
6.2,0.01074
6.204,0.02811
6.208,0.02589
6.212,0.01994
6.216,0.04928
6.22,0.00241
6.224,0.027
6.228,0.01993
6.232,0.0108
6.236,0.0296
6.24,0.00835
6.244,0.00932
6.248,0.00699
6.252,0.04777
6.256,0.02973
6.26,0.02203
6.264,-0.00753
6.268,0.01907
6.272,0.03289
6.276,-0.00769
6.28,0.02454
6.284,0.04258
6.288,0.00447
6.292,0.02808
6.296,0.00738
6.3,0.01816
6.304,0.01438
6.308,0.00548
6.312,0.02461
6.316,-0.01124
6.32,0.01593
6.324,-0.01452
6.328,0.0239
6.332,0.01289
6.336,0.02292
6.34,0.00463
6.344,0.03094
6.348,0.01964
6.352,0.03876
6.356,0.03596
6.36,0.06755
6.364,0.10246
6.368,0.09988
6.372,0.08656
6.376,0.08278
6.38,0.13243
6.384,0.11797
6.388,0.12487
6.392,0.08655
6.396,0.12594
6.4,0.07657
6.404,0.06287
6.408,0.07697
6.412,0.03
6.416,0.05558
6.42,0.00526
6.424,0.03675
6.428,0.01616
6.432,0.0141
6.436,0.03348
6.44,0.00611
6.444,-0.00274
6.448,0.0372
6.452,0.02138
6.456,-0.01091
6.46,0.00997
6.464,0.03231
6.468,-0.00698
6.472,0.00493
6.476,0.01826
6.48,0.00312
6.484,-0.0093
6.488,-0.00391
6.492,-0.01369
6.496,-0.01859
6.5,-0.00105
6.504,-0.05589
6.508,-0.06111
6.512,-0.12145
6.516,-0.11917
6.52,-0.03072
6.524,0.09659
6.528,0.26441
6.532,0.46992
6.536,0.69148
6.54,0.87396
6.544,0.98449
6.548,0.98974
6.552,0.88256
6.556,0.70797
6.56,0.48049
6.564,0.25629
6.568,0.03748
6.572,-0.06981
6.576,-0.14925
6.58,-0.16445
6.584,-0.13023
6.588,-0.12237
6.592,-0.06012
6.596,-0.02819
6.6,-0.00183
6.604,0.01329
6.608,0.00527
6.612,-0.01378
6.616,0.04119
6.62,-0.00364
6.624,0.00589
6.628,0.01204
6.632,-0.01184
6.636,0.0145
6.64,0.01603
6.644,0.03727
6.648,-0.00288
6.652,0.01202
6.656,-0.00499
6.66,-0.02686
6.664,0.01405
6.668,0.00189
6.672,0.01806
6.676,-0.01088
6.68,0.00997
6.684,-0.0232
6.688,-0.00454
6.692,0.03174
6.696,0.00471
6.7,-0.00239
6.704,-0.0001
6.708,0.02574
6.712,0.05462
6.716,0.01609
6.72,0.01788
6.724,0.01023
6.728,0.00237
6.732,0.01305
6.736,0.03477
6.74,0.05108
6.744,0.03493
6.748,0.05003
6.752,0.0524
6.756,0.09117
6.76,0.06861
6.764,0.08951
6.768,0.10864
6.772,0.09315
6.776,0.10231
6.78,0.12861
6.784,0.14944
6.788,0.15646
6.792,0.17085
6.796,0.19384
6.8,0.19126
6.804,0.18984
6.808,0.20845
6.812,0.18916
6.816,0.21149
6.82,0.23902
6.824,0.22721
6.828,0.23528
6.832,0.2324
6.836,0.22021
6.84,0.20051
6.844,0.18419
6.848,0.18269
6.852,0.17984
6.856,0.14682
6.86,0.17466
6.864,0.13688
6.868,0.15146
6.872,0.0969
6.876,0.13042
6.88,0.09935
6.884,0.09718
6.888,0.05567
6.892,0.07232
6.896,0.07576
6.9,0.07514
6.904,0.0498
6.908,0.02557
6.912,0.01714
6.916,0.01042
6.92,0.02384
6.924,0.02011
6.928,0.01817
6.932,0.02167
6.936,0.02204
6.94,0.01047
6.944,0.00965
6.948,0.0103
6.952,0.00929
6.956,0.02407
6.96,-0.00733
6.964,0.00125
6.968,0.00606
6.972,-0.0093
6.976,-0.00449
6.98,-0.02476
6.984,-0.00727
6.988,0.00754
6.992,-0.01652
6.996,-0.00597
7.0,0.00037
7.004,-0.01019
7.008,-0.03638
7.012,-0.00859
7.016,-0.00442
7.02,0.01681
7.024,-0.02286
7.028,-0.01104
7.032,-0.02217
7.036,-0.01567
7.04,-0.02646
7.044,-0.03662
7.048,-0.0011
7.052,0.01889
7.056,0.01034
7.06,-0.03575
7.064,-0.00857
7.068,0.01258
7.072,0.0078
7.076,0.00713
7.08,-0.01104
7.084,-0.01683
7.088,0.01551
7.092,0.02101
7.096,0.00428
7.1,-0.02016
7.104,-0.03448
7.108,-0.032
7.112,-0.01349
7.116,-0.0202
7.12,-0.0039
7.124,0.01534
7.128,-0.00922
7.132,-0.01506
7.136,-0.00542
7.14,-0.02539
7.144,-0.0173
7.148,-0.03551
7.152,-0.01925
7.156,-0.00213
7.16,-0.01652
7.164,-0.00148
7.168,-0.01651
7.172,-0.01065
7.176,0.00042
7.18,0.00462
7.184,0.00841
7.188,-0.00394
7.192,-0.00807
7.196,-0.01864
7.2,0.01523
7.204,-0.02346
7.208,-0.01744
7.212,-0.0191
7.216,-0.02482
7.22,-0.04346
7.224,-0.01044
7.228,-0.02264
7.232,0.00419
7.236,-0.02784
7.24,-0.02286
7.244,-0.01822
7.248,0.00444
7.252,-0.01997
7.256,-0.01013
7.26,-0.0464
7.264,-0.0413
7.268,0.0045
7.272,-0.00264
7.276,0.0012
7.28,0.00807
7.284,-0.01769
7.288,-0.02084
7.292,0.0073
7.296,-0.01801
7.3,0.00334
7.304,-0.00451
7.308,-0.0007
7.312,-0.05405
7.316,0.01031
7.32,0.01571
7.324,0.00693
7.328,0.01003
7.332,0.01677
7.336,0.01707
7.34,0.02038
7.344,0.0826
7.348,0.0604
7.352,0.06109
7.356,0.09599
7.36,0.07084
7.364,0.09048
7.368,0.08029
7.372,0.043
7.376,0.06785
7.38,0.06864
7.384,0.02148
7.388,0.00424
7.392,0.01255
7.396,0.01473
7.4,0.02322
7.404,-0.02573
7.408,0.02507
7.412,-0.01443
7.416,-0.01922
7.42,-0.01741
7.424,-0.00389
7.428,-0.01773
7.432,0.00336
7.436,-0.04774
7.44,-0.028
7.444,-0.00509
7.448,-0.02324
7.452,-0.0037
7.456,-0.00933
7.46,-0.0232
7.464,-0.00278
7.468,-0.04452
7.472,-0.01614
7.476,-0.0301
7.48,-0.04019
7.484,-0.0828
7.488,-0.11874
7.492,-0.13612
7.496,-0.09519
7.5,0.00725
7.504,0.18417
7.508,0.39619
7.512,0.58724
7.516,0.79914
7.52,0.93256
7.524,0.9744
7.528,0.90136
7.532,0.73335
7.536,0.51257
7.54,0.31402
7.544,0.08933
7.548,-0.05184
7.552,-0.14746
7.556,-0.16401
7.56,-0.19089
7.564,-0.12589
7.568,-0.11468
7.572,-0.04953
7.576,-0.03247
7.58,0.00217
7.584,-0.03023
7.588,-0.02039
7.592,-0.00852
7.596,-0.01969
7.6,-0.00381
7.604,-0.00071
7.608,-0.01948
7.612,0.00351
7.616,-0.02953
7.62,-0.03106
7.624,-0.03044
7.628,-0.01868
7.632,-0.02593
7.636,-0.0303
7.64,-0.00345
7.644,-0.03161
7.648,-0.02556
7.652,-0.02831
7.656,-0.02903
7.66,-0.01064
7.664,-0.03225
7.668,-0.00959
7.672,-0.02273
7.676,-0.04565
7.68,-0.00202
7.684,-0.05118
7.688,-0.02978
7.692,-0.00841
7.696,-0.00437
7.7,-0.00043
7.704,-0.01292
7.708,0.00417
7.712,-0.00493
7.716,-0.00418
7.72,0.02564
7.724,0.01212
7.728,0.02558
7.732,0.0483
7.736,0.02439
7.74,0.04449
7.744,0.06995
7.748,0.10856
7.752,0.08616
7.756,0.0734
7.76,0.10455
7.764,0.1392
7.768,0.14786
7.772,0.14999
7.776,0.14792
7.78,0.1776
7.784,0.17727
7.788,0.17513
7.792,0.17584
7.796,0.20159
7.8,0.18457
7.804,0.17275
7.808,0.2243
7.812,0.21357
7.816,0.18256
7.82,0.17493
7.824,0.17
7.828,0.16295
7.832,0.1317
7.836,0.13944
7.84,0.13574
7.844,0.09716
7.848,0.11063
7.852,0.08649
7.856,0.08489
7.86,0.08478
7.864,0.0609
7.868,0.05385
7.872,0.04319
7.876,0.03549
7.88,0.02401
7.884,0.02671
7.888,0.03134
7.892,0.01627
7.896,-0.01248
7.9,0.00409
7.904,0.01543
7.908,-0.02906
7.912,-0.01273
7.916,0.00392
7.92,-0.01266
7.924,-0.00169
7.928,-0.00905
7.932,-0.00599
7.936,-0.01706
7.94,-0.04288
7.944,-0.04245
7.948,-0.03097
7.952,-0.02612
7.956,0.00681
7.96,-0.01495
7.964,-0.02946
7.968,-0.02958
7.972,-0.00603
7.976,-0.02627
7.98,-0.02745
7.984,-0.04558
7.988,-0.04079
7.992,-0.02825
7.996,-0.02909
8.0,-0.03543
8.004,-0.00371
8.008,-0.023
8.012,-0.01047
8.016,-0.07028
8.02,-0.02796
8.024,-0.04927
8.028,-0.05286
8.032,-0.01599
8.036,-0.03778
8.04,-0.01147
8.044,-0.04184
8.048,-0.06124
8.052,-0.051
8.056,-0.03998
8.06,-0.01919
8.064,-0.03088
8.068,-0.01801
8.072,-0.01334
8.076,-0.03928
8.08,-0.02636
8.084,-0.04256
8.088,-0.0221
8.092,-0.03752
8.096,-0.02734
8.1,-0.04311
8.104,-0.01084
8.108,-0.0124
8.112,-0.00487
8.116,-0.02166
8.12,-0.02203
8.124,-0.04101
8.128,-0.03248
8.132,-0.04645
8.136,-0.0187
8.14,-0.02976
8.144,-0.03471
8.148,-0.02542
8.152,-0.0267
8.156,-0.02752
8.16,-0.01279
8.164,-0.02821
8.168,-0.01222
8.172,-0.04203
8.176,-0.03805
8.18,0.00477
8.184,-0.02541
8.188,-0.02665
8.192,0.00732
8.196,-0.01812
8.2,-0.04178
8.204,-0.00934
8.208,-0.01992
8.212,-0.03183
8.216,-0.02417
8.22,-0.03123
8.224,-0.01357
8.228,-0.02039
8.232,0.00229
8.236,0.00041
8.24,0.01845
8.244,0.02674
8.248,0.05436
8.252,0.06341
8.256,0.06696
8.26,0.07667
8.264,0.07008
8.268,0.07508
8.272,0.04588
8.276,0.04742
8.28,0.03755
8.284,0.00429
8.288,0.01095
8.292,-0.00856
8.296,-0.00978
8.3,-0.0203
8.304,-0.01881
8.308,-0.00105
8.312,-0.02236
8.316,-0.03954
8.32,-0.02485
8.324,-0.01997
8.328,-0.04077
8.332,-0.02914
8.336,-0.02244
8.34,-0.00134
8.344,-0.04341
8.348,-0.01814
8.352,-0.04735
8.356,-0.01994
8.36,-0.01798
8.364,-0.01316
8.368,-0.05224
8.372,-0.02178
8.376,-0.04844
8.38,-0.06682
8.384,-0.08817
8.388,-0.1266
8.392,-0.13708
8.396,-0.0726
8.4,0.02697
8.404,0.24172
8.408,0.41266
8.412,0.66774
8.416,0.84652
8.42,0.92433
8.424,0.95146
8.428,0.85257
8.432,0.65477
8.436,0.44334
8.44,0.24148
8.444,0.0391
8.448,-0.13304
8.452,-0.16366
8.456,-0.2012
8.46,-0.15411
8.464,-0.10924
8.468,-0.10576
8.472,-0.06472
8.476,-0.04734
8.48,-0.03491
8.484,-0.04918
8.488,-0.04461
8.492,-0.0146
8.496,-0.04149
8.5,-0.04401
8.504,-0.03097
8.508,-0.02589
8.512,-0.03064
8.516,-0.04532
8.52,-0.01304
8.524,-0.00541
8.528,-0.01379
8.532,-0.02423
8.536,-0.02364
8.54,-0.03331
8.544,-0.02588
8.548,-0.02449
8.552,-0.03211
8.556,-0.0225
8.56,-0.0245
8.564,-0.00251
8.568,-0.03541
8.572,-0.04803
8.576,-0.05611
8.58,-0.01423
8.584,-0.0292
8.588,-0.03347
8.592,-0.03674
8.596,-0.01963
8.6,-0.00647
8.604,-0.01835
8.608,-0.00237
8.612,-0.01651
8.616,-0.00247
8.62,0.01281
8.624,0.01251
8.628,0.03544
8.632,0.00665
8.636,0.04665
8.64,0.03917
8.644,0.04881
8.648,0.08182
8.652,0.08402
8.656,0.10419
8.66,0.09951
8.664,0.1253
8.668,0.11525
8.672,0.1583
8.676,0.15543
8.68,0.18116
8.684,0.16622
8.688,0.16915
8.692,0.17831
8.696,0.17448
8.7,0.15812
8.704,0.18806
8.708,0.15506
8.712,0.19601
8.716,0.20973
8.72,0.16811
8.724,0.15812
8.728,0.16464
8.732,0.14444
8.736,0.11144
8.74,0.12326
8.744,0.13084
8.748,0.09461
8.752,0.10986
8.756,0.07523
8.76,0.05049
8.764,0.04832
8.768,0.04285
8.772,0.03453
8.776,0.02527
8.78,0.02627
8.784,0.01736
8.788,0.00476
8.792,-0.02417
8.796,0.00154
8.8,0.00716
8.804,-0.00259
8.808,-0.00687
8.812,-0.0109
8.816,-0.01528
8.82,-0.00103
8.824,-0.00756
8.828,-0.01256
8.832,-0.02349
8.836,-0.04783
8.84,-0.02243
8.844,-0.0091
8.848,-0.03024
8.852,-0.00904
8.856,-0.02427
8.86,-0.02597
8.864,-0.04758
8.868,-0.01687
8.872,-0.0348
8.876,-0.03865
8.88,-0.03883
8.884,-0.03579
8.888,-0.02464
8.892,-0.01146
8.896,-0.03747
8.9,-0.01097
8.904,-0.00616
8.908,-0.01008
8.912,-0.0134
8.916,-0.03627
8.92,-0.0186
8.924,-0.04094
8.928,-0.04077
8.932,-0.0591
8.936,-0.03927
8.94,-0.02662
8.944,-0.02493
8.948,-0.02385
8.952,0.00357
8.956,-0.043
8.96,-0.03072
8.964,-0.01395
8.968,-0.02971
8.972,0.00674
8.976,-0.0178
8.98,-0.01843
8.984,0.0126
8.988,-0.00851
8.992,-0.00437
8.996,0.02263
9.0,0.01933
9.004,0.03123
9.008,0.04717
9.012,0.0395
9.016,0.02437
9.02,0.08808
9.024,0.08096
9.028,0.07867
9.032,0.03662
9.036,0.03732
9.04,0.04142
9.044,0.04732
9.048,0.05371
9.052,-0.00635
9.056,0.01533
9.06,-0.01541
9.064,-0.01551
9.068,-0.03498
9.072,-0.02247
9.076,-0.03781
9.08,-0.02198
9.084,-0.02739
9.088,-0.02624
9.092,-0.01118
9.096,-0.01084
9.1,-0.05049
9.104,-0.02496
9.108,-0.03424
9.112,-0.03373
9.116,-0.03611
9.12,-0.02404
9.124,-0.01923
9.128,-0.00928
9.132,-0.03935
9.136,-0.05386
9.14,-0.09596
9.144,-0.11882
9.148,-0.14711
9.152,-0.09294
9.156,0.008
9.16,0.15874
9.164,0.36131
9.168,0.56984
9.172,0.79284
9.176,0.92972
9.18,0.97699
9.184,0.90876
9.188,0.7384
9.192,0.52675
9.196,0.30726
9.2,0.06237
9.204,-0.06284
9.208,-0.17064
9.212,-0.19831
9.216,-0.18792
9.22,-0.11636
9.224,-0.11204
9.228,-0.05289
9.232,-0.04313
9.236,-0.03204
9.24,-0.04777
9.244,-0.03897
9.248,-0.0121
9.252,-0.046
9.256,-0.04423
9.26,-0.00717
9.264,-0.02986
9.268,-0.03782
9.272,-0.01631
9.276,-0.02399
9.28,-0.00551
9.284,-0.03691
9.288,-0.02533
9.292,-0.01464
9.296,-0.05753
9.3,-0.02149
9.304,-0.01367
9.308,-0.0041
9.312,-0.01989
9.316,-0.0281
9.32,-0.00963
9.324,0.0092
9.328,-0.01819
9.332,-0.02677
9.336,-0.02034
9.34,-0.01075
9.344,-0.03189
9.348,-0.01891
9.352,-0.01087
9.356,0.004
9.36,0.01258
9.364,0.03222
9.368,0.02225
9.372,0.01127
9.376,0.01952
9.38,0.03164
9.384,0.01995
9.388,0.04608
9.392,0.02267
9.396,0.04503
9.4,0.05758
9.404,0.10202
9.408,0.09415
9.412,0.07978
9.416,0.13
9.42,0.12287
9.424,0.1436
9.428,0.1487
9.432,0.16289
9.436,0.17544
9.44,0.20551
9.444,0.19702
9.448,0.20549
9.452,0.18116
9.456,0.19334
9.46,0.20238
9.464,0.23255
9.468,0.21023
9.472,0.16996
9.476,0.18748
9.48,0.17018
9.484,0.17847
9.488,0.17009
9.492,0.14925
9.496,0.14065
9.5,0.11714
9.504,0.15546
9.508,0.09736
9.512,0.08751
9.516,0.07243
9.52,0.05688
9.524,0.07849
9.528,0.06968
9.532,0.04282
9.536,0.04009
9.54,0.01315
9.544,0.02676
9.548,0.0294
9.552,-0.0146
9.556,0.02848
9.56,0.00916
9.564,0.00331
9.568,-0.0058
9.572,-0.00662
9.576,-0.01736
9.58,-0.00834
9.584,0.00183
9.588,0.01602
9.592,0.00703
9.596,0.00275
9.6,-0.00482
9.604,-0.01668
9.608,-0.03512
9.612,-0.0134
9.616,-0.01576
9.62,-0.00116
9.624,-0.0022
9.628,-0.01674
9.632,-0.00093
9.636,-0.01778
9.64,-0.02063
9.644,0.00133
9.648,-0.00983
9.652,0.00212
9.656,-0.0009
9.66,-0.0151
9.664,-0.01326
9.668,-0.00654
9.672,-0.0333
9.676,-0.01769
9.68,-0.00461
9.684,-0.00252
9.688,0.00292
9.692,-0.01459
9.696,-0.02755
9.7,-0.04622
9.704,-0.02922
9.708,-0.02606
9.712,-0.05607
9.716,-0.00861
9.72,-0.00523
9.724,-0.02213
9.728,-0.00178
9.732,0.00738
9.736,0.00396
9.74,-0.0007
9.744,-0.00498
9.748,0.00567
9.752,-0.02677
9.756,-0.01674
9.76,-0.0356
9.764,-0.0117
9.768,-0.0197
9.772,-0.03832
9.776,-0.00952
9.78,-0.01342
9.784,-0.01013
9.788,0.0099
9.792,-0.01849
9.796,-0.01629
9.8,0.00428
9.804,0.00862
9.808,0.0068
9.812,0.01135
9.816,-0.04031
9.82,-0.0252
9.824,0.00015
9.828,-0.01492
9.832,0.00461
9.836,0.00465
9.84,-0.00036
9.844,-0.00048
9.848,0.01722
9.852,0.00431
9.856,-0.01745
9.86,-0.00504
9.864,-0.00713
9.868,-0.00178
9.872,-0.00866
9.876,-0.00164
9.88,-0.00173
9.884,-2e-05
9.888,-0.00478
9.892,-0.00557
9.896,0.00391
9.9,-0.00391
9.904,0.00457
9.908,-0.0251
9.912,-0.0143
9.916,-0.01013
9.92,-0.02512
9.924,-0.01023
9.928,-0.02234
9.932,-0.00048
9.936,-0.01792
9.94,-0.00948
9.944,-0.03067
9.948,-0.01494
9.952,-0.029
9.956,0.01474
9.96,-0.00637
9.964,0.00876
9.968,-0.00739
9.972,-0.0093
9.976,0.00416
9.98,-0.00325
9.984,-0.00118
9.988,0.01372
9.992,0.0043
9.996,-0.01036
