t_seg,ecg_mV
0.0,0.53296
0.004,0.73023
0.008,0.92893
0.012,1.03478
0.016,1.00455
0.02,0.89544
0.024,0.65546
0.028,0.48895
0.032,0.24188
0.036,0.09901
0.04,-0.1986
0.044,-0.20394
0.048,-0.19601
0.052,-0.098
0.056,-0.06913
0.06,-0.02086
0.064,0.05208
0.068,0.01867
0.072,0.10148
0.076,0.04199
0.08,0.08402
0.084,0.1143
0.088,0.12887
0.092,0.09065
0.096,0.07642
0.1,0.14367
0.104,0.0897
0.108,0.1237
0.112,0.07428
0.116,0.13256
0.12,0.0114
0.124,0.09199
0.128,0.0613
0.132,0.12556
0.136,0.10814
0.14,-0.00028
0.144,0.0417
0.148,-2e-05
0.152,0.02516
0.156,0.03568
0.16,0.04704
0.164,0.14047
0.168,-0.02138
0.172,-0.01962
0.176,0.06692
0.18,0.04557
0.184,0.02009
0.188,0.13247
0.192,0.01687
0.196,0.01953
0.2,0.05966
0.204,-0.04139
0.208,-0.00715
0.212,0.01689
0.216,0.07971
0.22,0.0262
0.224,-0.0149
0.228,-0.008
0.232,-0.0115
0.236,0.04557
0.24,0.14568
0.244,0.3096
0.248,0.53854
0.252,0.77613
0.256,0.93995
0.26,1.18914
0.264,1.23842
0.268,1.15378
0.272,0.96475
0.276,0.79158
0.28,0.48432
0.284,0.34131
0.288,0.20237
0.292,0.06859
0.296,0.07245
0.3,0.04565
0.304,0.12167
0.308,0.06022
0.312,0.14114
0.316,0.16975
0.32,0.16934
0.324,0.19013
0.328,0.19948
0.332,0.12667
0.336,0.20409
0.34,0.12378
0.344,0.14097
0.348,0.07949
0.352,0.07251
0.356,0.10394
0.36,0.07217
0.364,0.07349
0.368,0.13149
0.372,0.07765
0.376,0.04362
0.38,0.06609
0.384,0.03707
0.388,0.01922
0.392,0.01935
0.396,0.01391
0.4,-0.07975
0.404,0.0293
0.408,0.07107
0.412,0.06856
0.416,0.04974
0.42,-0.04802
0.424,0.04706
0.428,0.11348
0.432,0.0487
0.436,-0.039
0.44,0.01678
0.444,0.05664
0.448,0.0234
0.452,0.00112
0.456,0.09467
0.46,0.00267
0.464,0.01697
0.468,0.07473
0.472,0.08383
0.476,0.11584
0.48,0.13337
0.484,0.05581
0.488,0.09386
0.492,0.06961
0.496,0.12912
0.5,0.11708
0.504,0.21329
0.508,0.22582
0.512,0.23111
0.516,0.18648
0.52,0.15664
0.524,0.16458
0.528,0.20779
0.532,0.22885
0.536,0.18394
0.54,0.21584
0.544,0.27515
0.548,0.31432
0.552,0.21429
0.556,0.22382
0.56,0.19909
0.564,0.16545
0.568,0.20385
0.572,0.21378
0.576,0.20893
0.58,0.12343
0.584,0.15032
0.588,0.09963
0.592,0.10469
0.596,0.11454
0.6,0.11169
0.604,0.12453
0.608,0.14378
0.612,0.132
0.616,0.06149
0.62,0.03179
0.624,0.09005
0.628,0.06126
0.632,0.06058
0.636,0.05679
0.64,-0.01618
0.644,0.02444
0.648,0.09672
0.652,0.07858
0.656,0.01604
0.66,0.04768
0.664,0.0923
0.668,0.15176
0.672,0.07297
0.676,0.05652
0.68,0.1046
0.684,0.16525
0.688,0.09838
0.692,0.06991
0.696,0.04373
0.7,0.12407
0.704,0.04685
0.708,0.00432
0.712,0.09058
0.716,-0.06597
0.72,0.02454
0.724,0.02898
0.728,-0.03985
0.732,0.06246
0.736,-0.05545
0.74,-0.03165
0.744,0.06665
0.748,-0.01792
0.752,-0.04131
0.756,0.03763
0.76,0.00991
0.764,-0.00913
0.768,-0.02882
0.772,0.0042
0.776,-0.0153
0.78,0.0208
0.784,-4e-05
0.788,-0.03421
0.792,0.02722
0.796,-0.06971
0.8,-0.02987
0.804,-0.03971
0.808,-0.13295
0.812,-0.07151
0.816,-0.07189
0.82,0.09673
0.824,0.24336
0.828,0.39759
0.832,0.57255
0.836,0.62352
0.84,0.63535
0.844,0.60722
0.848,0.47504
0.852,0.31884
0.856,0.16795
0.86,-0.03263
0.864,-0.04652
0.868,-0.17928
0.872,-0.19798
0.876,-0.19021
0.88,-0.08396
0.884,-0.12579
0.888,-0.00409
0.892,0.00418
0.896,-0.01577
0.9,-0.01354
0.904,0.06683
0.908,-0.02827
0.912,-0.04521
0.916,0.04796
0.92,-0.00919
0.924,-0.08363
0.928,0.05105
0.932,-0.01366
0.936,0.01569
0.94,0.01009
0.944,-0.00356
0.948,0.0357
0.952,-0.06633
0.956,-0.04929
0.96,-0.05819
0.964,0.02632
0.968,0.02522
0.972,0.00303
0.976,-0.06112
0.98,0.06476
0.984,0.04316
0.988,-0.00225
0.992,0.03243
0.996,0.00859
1.0,0.00899
1.004,0.01607
1.008,-0.01519
1.012,0.00656
1.016,0.05916
1.02,-0.00371
1.024,-0.00217
1.028,0.03548
1.032,-0.00569
1.036,0.05287
1.04,0.1036
1.044,0.09048
1.048,0.08863
1.052,0.03401
1.056,0.0037
1.06,0.09466
1.064,0.10179
1.068,0.11143
1.072,0.11055
1.076,0.1763
1.08,0.10667
1.084,0.18998
1.088,0.16729
1.092,0.16779
1.096,0.15887
1.1,0.14896
1.104,0.19951
1.108,0.21149
1.112,0.19313
1.116,0.24221
1.12,0.11291
1.124,0.23767
1.128,0.24079
1.132,0.23123
1.136,0.1381
1.14,0.16345
1.144,0.15653
1.148,0.25346
1.152,0.18145
1.156,0.14402
1.16,0.12098
1.164,0.11872
1.168,0.11759
1.172,0.08169
1.176,0.09711
1.18,0.10928
1.184,0.04016
1.188,0.07239
1.192,0.07132
1.196,0.05648
1.2,0.04899
1.204,0.00124
1.208,0.06882
1.212,-0.00762
1.216,0.01075
1.22,0.00482
1.224,0.05772
1.228,0.0106
1.232,-0.0302
1.236,-0.01603
1.24,-0.07359
1.244,0.01597
1.248,0.0919
1.252,-0.07244
1.256,-0.00914
1.26,0.03244
1.264,0.03558
1.268,-0.04446
1.272,0.06121
1.276,-0.02837
1.28,-0.03102
1.284,-0.084
1.288,-0.00588
1.292,0.05724
1.296,-0.02256
1.3,-0.03445
1.304,-0.00944
1.308,-0.02446
1.312,-0.01238
1.316,-0.03572
1.32,0.01795
1.324,-0.07479
1.328,-0.05592
1.332,-0.02347
1.336,0.01393
1.34,0.00298
1.344,-0.01971
1.348,0.02363
1.352,0.00497
1.356,-0.11562
1.36,-0.046
1.364,-0.03721
1.368,-0.06498
1.372,0.00067
1.376,0.02693
1.38,-0.04
1.384,-0.07755
1.388,0.0065
1.392,-0.01792
1.396,-0.02643
1.4,-0.01051
1.404,-0.02373
1.408,0.00727
1.412,-0.02394
1.416,-0.01487
1.42,0.07879
1.424,0.04657
1.428,0.06789
1.432,0.04989
1.436,0.09168
1.44,0.06135
1.444,0.01986
1.448,0.07153
1.452,0.05989
1.456,0.06532
1.46,0.07273
1.464,0.03051
1.468,0.09174
1.472,0.0144
1.476,0.01904
1.48,0.0463
1.484,-0.06057
1.488,0.06627
1.492,0.02443
1.496,-0.03741
1.5,-0.08227
1.504,-0.01423
1.508,-0.01559
1.512,0.02232
1.516,-0.02221
1.52,-0.01771
1.524,0.07923
1.528,0.07972
1.532,0.00193
1.536,-0.03354
1.54,-0.04489
1.544,0.05166
1.548,-0.05024
1.552,-0.0487
1.556,-0.04714
1.56,-0.00136
1.564,-0.06387
1.568,0.01261
1.572,-0.02611
1.576,-0.05766
1.58,-0.01793
1.584,-0.15975
1.588,-0.14154
1.592,-0.08742
1.596,0.03813
1.6,0.25081
1.604,0.39957
1.608,0.68789
1.612,0.90318
1.616,0.97298
1.62,0.86271
1.624,0.83041
1.628,0.72938
1.632,0.4796
1.636,0.15902
1.64,0.06226
1.644,-0.10979
1.648,-0.11963
1.652,-0.22378
1.656,-0.21249
1.66,-0.09993
1.664,-0.06674
1.668,-0.05411
1.672,-0.04364
1.676,-0.00925
1.68,0.01517
1.684,-0.08988
1.688,-0.03662
1.692,-0.0058
1.696,-0.05649
1.7,0.00914
1.704,-0.05515
1.708,-0.07996
1.712,-0.02009
1.716,-0.0261
1.72,0.09459
1.724,-0.02022
1.728,-0.01491
1.732,-0.00727
1.736,-0.00105
1.74,0.03289
1.744,-0.04831
1.748,0.01565
1.752,-0.03705
1.756,-0.07284
1.76,-0.04722
1.764,-0.03264
1.768,0.03549
1.772,0.03444
1.776,-0.07852
1.78,-0.05757
1.784,0.00466
1.788,-0.00117
1.792,-0.05426
1.796,0.01717
1.8,-0.04357
1.804,-0.02425
1.808,0.00198
1.812,0.0261
1.816,-0.01422
1.82,0.03417
1.824,-0.0114
1.828,0.10231
1.832,0.10322
1.836,0.0445
1.84,0.14325
1.844,0.09031
1.848,0.09278
1.852,0.09347
1.856,0.08252
1.86,0.08363
1.864,0.13727
1.868,0.19404
1.872,0.19338
1.876,0.17488
1.88,0.22408
1.884,0.19091
1.888,0.21812
1.892,0.14857
1.896,0.18035
1.9,0.22614
1.904,0.20841
1.908,0.14144
1.912,0.22606
1.916,0.18793
1.92,0.1555
1.924,0.20309
1.928,0.17663
1.932,0.14918
1.936,0.15
1.94,0.17546
1.944,0.09157
1.948,0.13052
1.952,0.0862
1.956,0.05822
1.96,0.01367
1.964,-0.00744
1.968,0.10476
1.972,0.09452
1.976,0.02797
1.98,0.00318
1.984,0.03025
1.988,0.01091
1.992,0.0403
1.996,-0.04532
2.0,0.00464
2.004,0.05094
2.008,-0.03964
2.012,-0.04241
2.016,0.00184
2.02,-0.06563
2.024,-0.07389
2.028,-0.06765
2.032,0.0522
2.036,-0.03422
2.04,0.00023
2.044,-0.0656
2.048,-0.09733
2.052,0.00811
2.056,-0.01802
2.06,-0.09461
2.064,-0.01277
2.068,-0.02655
2.072,0.02994
2.076,-0.09431
2.08,0.06286
2.084,-0.00512
2.088,0.04092
2.092,0.06293
2.096,0.04746
2.1,0.07631
2.104,0.04674
2.108,0.05699
2.112,0.09426
2.116,0.02639
2.12,0.01637
2.124,0.06853
2.128,0.08671
2.132,0.02512
2.136,-0.00362
2.14,0.02637
2.144,-0.02792
2.148,-0.00605
2.152,0.03373
2.156,-0.05187
2.16,0.03046
2.164,0.00641
2.168,0.01584
2.172,-0.00261
2.176,-0.00945
2.18,-0.0266
2.184,-0.0608
2.188,0.00149
2.192,0.00175
2.196,-0.03402
2.2,-0.08715
2.204,-0.01867
2.208,0.03581
2.212,-0.0399
2.216,-0.09016
2.22,-0.08976
2.224,-0.07567
2.228,-0.13359
2.232,-0.16759
2.236,-0.13405
2.24,-0.09254
2.244,0.12918
2.248,0.25838
2.252,0.4505
2.256,0.65468
2.26,0.83305
2.264,0.9506
2.268,0.97776
2.272,0.86173
2.276,0.66226
2.28,0.45059
2.284,0.19271
2.288,0.02972
2.292,-0.16828
2.296,-0.18199
2.3,-0.16652
2.304,-0.17082
2.308,-0.13268
2.312,-0.13194
2.316,-0.02458
2.32,-0.06315
2.324,0.04667
2.328,-0.07596
2.332,-0.01332
2.336,-0.03203
2.34,-0.06884
2.344,-0.02208
2.348,0.01772
2.352,-0.09201
2.356,-0.01872
2.36,-0.03258
2.364,-0.0311
2.368,0.00138
2.372,-0.03367
2.376,-0.06493
2.38,-0.07808
2.384,-0.04037
2.388,-0.01514
2.392,-0.05936
2.396,-0.06024
2.4,0.02568
2.404,-0.08708
2.408,0.03462
2.412,-0.04196
2.416,-0.02725
2.42,-0.05313
2.424,-0.02833
2.428,-0.06574
2.432,0.01014
2.436,0.00831
2.44,-0.02697
2.444,0.02334
2.448,0.00884
2.452,-0.03139
2.456,-0.03006
2.46,0.00534
2.464,0.00449
2.468,0.00969
2.472,0.08859
2.476,-0.00644
2.48,0.07066
2.484,0.0347
2.488,0.05606
2.492,0.02607
2.496,0.11911
2.5,0.11794
2.504,0.07635
2.508,0.15611
2.512,0.13622
2.516,0.11028
2.52,0.13208
2.524,0.09307
2.528,0.1433
2.532,0.17653
2.536,0.11716
2.54,0.17061
2.544,0.28741
2.548,0.19116
2.552,0.16471
2.556,0.15589
2.56,0.25537
2.564,0.14543
2.568,0.15974
2.572,0.11325
2.576,0.11217
2.58,0.13115
2.584,0.17528
2.588,0.19746
2.592,0.12657
2.596,0.12333
2.6,0.06193
2.604,0.07334
2.608,0.09616
2.612,0.08898
2.616,-0.00449
2.62,0.0024
2.624,-0.01607
2.628,0.03533
2.632,0.01615
2.636,0.02809
2.64,-0.00202
2.644,0.04019
2.648,-0.00334
2.652,0.03791
2.656,0.01646
2.66,-0.03283
2.664,0.03658
2.668,-0.02045
2.672,0.07938
2.676,0.0826
2.68,0.07236
2.684,0.06871
2.688,0.05269
2.692,0.08183
2.696,0.11454
2.7,0.05645
2.704,0.03706
2.708,0.06086
2.712,-0.00077
2.716,0.02315
2.72,-0.01749
2.724,-0.06009
2.728,-0.04713
2.732,-0.00793
2.736,-0.03678
2.74,-0.02585
2.744,-0.07948
2.748,0.00861
2.752,0.00517
2.756,-0.05775
2.76,0.00728
2.764,-0.05181
2.768,0.00404
2.772,-0.00412
2.776,0.01014
2.78,-0.0629
2.784,-0.04866
2.788,-0.0398
2.792,-0.02334
2.796,-0.01351
2.8,-0.02992
2.804,-0.13001
2.808,-0.04503
2.812,-0.15406
2.816,-0.14007
2.82,-0.05134
2.824,0.16117
2.828,0.23859
2.832,0.40668
2.836,0.71367
2.84,0.85929
2.844,0.93912
2.848,0.90024
2.852,0.82134
2.856,0.60235
2.86,0.35386
2.864,0.19592
2.868,-0.04821
2.872,-0.06898
2.876,-0.2279
2.88,-0.23639
2.884,-0.19364
2.888,-0.13888
2.892,-0.06538
2.896,-0.07676
2.9,-0.03873
2.904,-0.07031
2.908,-0.05828
2.912,-0.06133
2.916,-0.03763
2.92,-0.07619
2.924,-0.05391
2.928,-0.07276
2.932,-0.0872
2.936,-0.01248
2.94,-0.04729
2.944,-0.05615
2.948,-0.03976
2.952,-0.0748
2.956,0.00414
2.96,0.045
2.964,-0.04422
2.968,-0.05143
2.972,-0.02709
2.976,-0.06026
2.98,-0.01341
2.984,-0.00749
2.988,0.02708
2.992,-0.05217
2.996,-0.0869
3.0,-0.04642
3.004,-0.09787
3.008,-0.06169
3.012,-0.02781
3.016,-0.03114
3.02,-0.0102
3.024,-0.00779
3.028,0.00701
3.032,0.03281
3.036,0.04277
3.04,0.03675
3.044,0.09282
3.048,0.09401
3.052,0.12636
3.056,0.15716
3.06,0.16318
3.064,0.17914
3.068,0.16983
3.072,0.15808
3.076,0.13134
3.08,0.24611
3.084,0.23071
3.088,0.12484
3.092,0.17698
3.096,0.1764
3.1,0.1802
3.104,0.1968
3.108,0.23229
3.112,0.15461
3.116,0.20253
3.12,0.18847
3.124,0.23034
3.128,0.18731
3.132,0.15263
3.136,0.17426
3.14,0.11574
3.144,0.18755
3.148,0.18612
3.152,0.13615
3.156,0.16271
3.16,0.10933
3.164,0.09681
3.168,0.1761
3.172,0.12715
3.176,0.07928
3.18,0.05388
3.184,-0.04492
3.188,-0.08806
3.192,-0.03079
3.196,-0.00508
3.2,0.11611
3.204,0.39381
3.208,0.59132
3.212,0.76589
3.216,0.88039
3.22,1.04066
3.224,0.97939
3.228,0.89337
3.232,0.64012
3.236,0.38777
3.24,0.10876
3.244,-0.03771
3.248,-0.10193
3.252,-0.22889
3.256,-0.19337
3.26,-0.13176
3.264,-0.13091
3.268,-0.04828
3.272,-0.08841
3.276,-0.13352
3.28,0.01225
3.284,-0.01456
3.288,0.03368
3.292,-0.00034
3.296,-0.06638
3.3,-0.04801
3.304,-0.01281
3.308,-0.01576
3.312,0.04794
3.316,-0.03243
3.32,0.05896
3.324,-0.11326
3.328,-0.02088
3.332,-0.02283
3.336,-0.06499
3.34,-0.04096
3.344,0.02291
3.348,-0.01683
3.352,0.00744
3.356,-0.00954
3.36,0.00934
3.364,0.00059
3.368,-0.0361
3.372,-0.02542
3.376,-0.05153
3.38,-0.00709
3.384,0.01865
3.388,0.07734
3.392,-0.04834
3.396,-0.0219
3.4,-0.01281
3.404,0.04407
3.408,0.05769
3.412,-0.02115
3.416,-0.01758
3.42,0.04459
3.424,0.05061
3.428,0.05183
3.432,0.07945
3.436,0.06573
3.44,0.08945
3.444,0.07936
3.448,0.12681
3.452,0.06989
3.456,0.14954
3.46,0.10603
3.464,0.13175
3.468,0.17644
3.472,0.13803
3.476,0.10437
3.48,0.2013
3.484,0.24474
3.488,0.13506
3.492,0.13449
3.496,0.14139
3.5,0.16738
3.504,0.2081
3.508,0.16216
3.512,0.17648
3.516,0.11609
3.52,0.16722
3.524,0.1882
3.528,0.10306
3.532,0.17875
3.536,0.1319
3.54,0.12983
3.544,0.06577
3.548,0.11541
3.552,0.11171
3.556,0.05471
3.56,0.09632
3.564,0.12669
3.568,0.05883
3.572,0.06311
3.576,0.01383
3.58,0.01233
3.584,0.05471
3.588,0.03093
3.592,0.00596
3.596,0.06757
3.6,0.05406
3.604,-0.03819
3.608,0.00792
3.612,-0.02618
3.616,0.00406
3.62,0.02863
3.624,-0.03434
3.628,0.03143
3.632,-0.01545
3.636,-0.08097
3.64,-0.01451
3.644,-0.05205
3.648,0.02249
3.652,0.00663
3.656,0.06147
3.66,0.05696
3.664,0.00128
3.668,0.05229
3.672,0.06958
3.676,0.10335
3.68,0.01848
3.684,0.01209
3.688,0.09257
3.692,0.05117
3.696,0.08833
3.7,0.05556
3.704,0.03367
3.708,0.03205
3.712,0.06578
3.716,0.01034
3.72,0.02414
3.724,-0.02625
3.728,-0.03215
3.732,0.05061
3.736,-0.00226
3.74,-0.01003
3.744,-0.01589
3.748,0.02958
3.752,-0.02622
3.756,-0.02271
3.76,0.00306
3.764,0.04276
3.768,0.01187
3.772,-0.05024
3.776,-0.05724
3.78,-0.04125
3.784,-0.01428
3.788,-0.03429
3.792,-0.02059
3.796,0.00499
3.8,-0.07667
3.804,-0.0101
3.808,-0.09934
3.812,-0.1891
3.816,-0.16919
3.82,-0.04999
3.824,0.01194
3.828,0.28034
3.832,0.4345
3.836,0.59726
3.84,0.81466
3.844,1.00164
3.848,1.05007
3.852,0.8856
3.856,0.74202
3.86,0.49514
3.864,0.34124
3.868,0.12051
3.872,-0.05558
3.876,-0.15343
3.88,-0.18041
3.884,-0.18587
3.888,-0.13882
3.892,-0.11166
3.896,-0.07303
3.9,-0.02692
3.904,-0.04612
3.908,-0.0279
3.912,0.02792
3.916,-0.01164
3.92,0.01678
3.924,-0.01993
3.928,0.01103
3.932,0.0108
3.936,0.08408
3.94,0.05268
3.944,-0.0361
3.948,0.00239
3.952,0.03611
3.956,-0.04332
3.96,0.01235
3.964,0.01994
3.968,0.00815
3.972,-0.05358
3.976,-0.05733
3.98,0.01576
3.984,-0.02502
3.988,0.00367
3.992,0.011
3.996,-0.00897
4.0,0.02347
4.004,-0.01847
4.008,-0.02607
4.012,-0.08473
4.016,0.01508
4.02,0.03469
4.024,-0.00346
4.028,0.01821
4.032,0.04689
4.036,0.02525
4.04,0.03504
4.044,0.07633
4.048,0.07844
4.052,0.04051
4.056,0.01465
4.06,0.04412
4.064,0.13303
4.068,0.13128
4.072,0.07027
4.076,0.11246
4.08,0.08769
4.084,0.1316
4.088,0.15768
4.092,0.14818
4.096,0.16287
4.1,0.19171
4.104,0.17358
4.108,0.24962
4.112,0.18019
4.116,0.17403
4.12,0.20864
4.124,0.23527
4.128,0.3176
4.132,0.20639
4.136,0.23295
4.14,0.18895
4.144,0.16042
4.148,0.18527
4.152,0.20193
4.156,0.23877
4.16,0.15321
4.164,0.16589
4.168,0.19676
4.172,0.06766
4.176,0.09164
4.18,0.09148
4.184,0.10395
4.188,0.07119
4.192,0.0792
4.196,0.05107
4.2,0.13393
4.204,0.04263
4.208,0.04476
4.212,0.01135
4.216,0.04524
4.22,0.03895
4.224,-0.01811
4.228,0.04611
4.232,0.0795
4.236,0.00505
4.24,0.00115
4.244,0.04575
4.248,0.06369
4.252,0.00778
4.256,0.02012
4.26,0.02187
4.264,0.01514
4.268,0.04037
4.272,0.0116
4.276,-0.02562
4.28,0.01437
4.284,-0.04266
4.288,-0.01403
4.292,-0.01442
4.296,0.01898
4.3,0.0284
4.304,-0.01027
4.308,0.02982
4.312,0.04715
4.316,0.03219
4.32,0.04529
4.324,-0.01043
4.328,0.02989
4.332,0.07903
4.336,0.06369
4.34,0.02868
4.344,0.03683
4.348,0.04636
4.352,-0.00641
4.356,-0.01517
4.36,0.03147
4.364,0.01554
4.368,0.08769
4.372,-0.01344
4.376,0.00279
4.38,-0.00916
4.384,-0.02515
4.388,-0.04534
4.392,-0.03297
4.396,0.00076
4.4,-0.01574
4.404,0.00244
4.408,0.06229
4.412,0.02287
4.416,-0.05509
4.42,-0.06268
4.424,0.03074
4.428,-0.00324
4.432,-0.03826
4.436,-0.02322
4.44,0.01659
4.444,0.00639
4.448,-0.01606
4.452,0.02657
4.456,0.02788
4.46,0.01956
4.464,0.00109
4.468,-0.03263
4.472,0.02037
4.476,0.05383
4.48,0.05025
4.484,0.03792
4.488,0.06408
4.492,-0.00164
4.496,0.00175
4.5,0.06491
4.504,0.04338
4.508,0.02182
4.512,0.01138
4.516,0.06266
4.52,0.06797
4.524,0.07707
4.528,0.08452
4.532,0.06729
4.536,0.08414
4.54,0.0736
4.544,0.06965
4.548,0.13465
4.552,0.11794
4.556,0.04285
4.56,0.05393
4.564,0.04395
4.568,0.02297
4.572,0.00662
4.576,0.00543
4.58,-0.07178
4.584,0.06659
4.588,0.04364
4.592,0.03243
4.596,0.04621
4.6,0.03854
4.604,-0.00832
4.608,0.05902
4.612,0.03393
4.616,-0.00962
4.62,-0.02768
4.624,-0.01028
4.628,-0.02461
4.632,0.03076
4.636,0.07326
4.64,-0.00782
4.644,-0.07542
4.648,0.00609
4.652,-0.06985
4.656,-0.16142
4.66,-0.04959
4.664,-0.07683
4.668,0.04527
4.672,0.14976
4.676,0.41355
4.68,0.60123
4.684,0.8798
4.688,0.90298
4.692,0.9828
4.696,0.9429
4.7,0.77539
4.704,0.54233
4.708,0.32815
4.712,0.1535
4.716,-0.00185
4.72,-0.16187
4.724,-0.14753
4.728,-0.13293
4.732,-0.13385
4.736,-0.08597
4.74,-0.00606
4.744,-0.00407
4.748,0.0017
4.752,0.00082
4.756,0.02227
4.76,0.0055
4.764,-0.03002
4.768,-0.05372
4.772,-0.02488
4.776,-0.03645
4.78,0.01904
4.784,0.04141
4.788,0.03124
4.792,0.00922
4.796,-0.02176
4.8,0.03089
4.804,-0.00568
4.808,0.05665
4.812,-0.02203
4.816,0.0023
4.82,0.04509
4.824,0.03541
4.828,0.02563
4.832,0.00441
4.836,-0.02677
4.84,0.01262
4.844,0.03435
4.848,0.04574
4.852,0.04081
4.856,0.01193
4.86,0.00724
4.864,0.04198
4.868,0.01702
4.872,0.00807
4.876,0.04864
4.88,0.0372
4.884,0.06146
4.888,0.05613
4.892,0.0458
4.896,0.03071
4.9,0.14446
4.904,0.11944
4.908,0.15509
4.912,0.1283
4.916,0.11563
4.92,0.19867
4.924,0.17766
4.928,0.08584
4.932,0.20462
4.936,0.19348
4.94,0.21028
4.944,0.22209
4.948,0.18459
4.952,0.18846
4.956,0.13785
4.96,0.25588
4.964,0.26167
4.968,0.25331
4.972,0.25071
4.976,0.26708
4.98,0.2192
4.984,0.13946
4.988,0.31298
4.992,0.2352
4.996,0.22592
5.0,0.20311
5.004,0.11038
5.008,0.22624
5.012,0.1944
5.016,0.17295
5.02,0.14737
5.024,0.14238
5.028,0.15943
5.032,0.17093
5.036,0.1852
5.04,0.19952
5.044,0.17979
5.048,0.14498
5.052,0.14824
5.056,0.17134
5.06,0.1255
5.064,0.10525
5.068,0.16127
5.072,0.16039
5.076,0.16579
5.08,0.13978
5.084,0.08107
5.088,0.06649
5.092,0.10942
5.096,0.00392
5.1,-0.00328
5.104,-0.00174
5.108,0.05351
5.112,0.01423
5.116,0.10763
5.12,0.00843
5.124,-0.00763
5.128,0.00854
5.132,0.05246
5.136,0.05558
5.14,0.09358
5.144,-0.03329
5.148,0.03768
5.152,0.02827
5.156,-0.01517
5.16,0.02838
5.164,0.03785
5.168,0.00305
5.172,0.00308
5.176,0.08444
5.18,0.03463
5.184,-0.03463
5.188,-0.07527
5.192,-0.13935
5.196,-0.08497
5.2,0.01381
5.204,0.09351
5.208,0.28641
5.212,0.48863
5.216,0.74547
5.22,0.9222
5.224,1.00027
5.228,0.93625
5.232,0.87942
5.236,0.66895
5.24,0.49033
5.244,0.22727
5.248,0.0011
5.252,-0.03686
5.256,-0.19762
5.26,-0.14745
5.264,-0.12564
5.268,-0.16041
5.272,-0.03731
5.276,0.04905
5.28,0.03823
5.284,0.0297
5.288,0.07552
5.292,0.05836
5.296,0.04016
5.3,0.10418
5.304,0.00961
5.308,0.06679
5.312,0.02132
5.316,0.04523
5.32,-0.04318
5.324,0.03094
5.328,-0.02118
5.332,-0.04135
5.336,0.04929
5.34,-0.01266
5.344,-0.07507
5.348,-0.04262
5.352,0.06883
5.356,0.04919
5.36,-0.03096
5.364,0.08148
5.368,-0.0083
5.372,0.01882
5.376,0.0106
5.38,0.03633
5.384,0.04719
5.388,-0.01274
5.392,0.02573
5.396,0.03336
5.4,0.07978
5.404,0.04588
5.408,0.06369
5.412,0.08116
5.416,0.04024
5.42,0.0696
5.424,0.09173
5.428,0.07855
5.432,0.16716
5.436,0.02906
5.44,0.11822
5.444,0.11034
5.448,0.13083
5.452,0.17447
5.456,0.17809
5.46,0.09551
5.464,0.21295
5.468,0.16495
5.472,0.21822
5.476,0.25412
5.48,0.17553
5.484,0.21573
5.488,0.25435
5.492,0.26676
5.496,0.27233
5.5,0.25103
5.504,0.26636
5.508,0.26595
5.512,0.23403
5.516,0.21839
5.52,0.24259
5.524,0.22203
5.528,0.17788
5.532,0.25471
5.536,0.18043
5.54,0.1779
5.544,0.21809
5.548,0.21711
5.552,0.1666
5.556,0.20689
5.56,0.13996
5.564,0.12325
5.568,0.15674
5.572,0.08837
5.576,0.09097
5.58,0.02367
5.584,0.07901
5.588,0.06675
5.592,0.0916
5.596,0.02911
5.6,0.09548
5.604,0.17055
5.608,0.14229
5.612,0.15904
5.616,0.12875
5.62,0.11508
5.624,0.08314
5.628,0.15742
5.632,0.09348
5.636,0.10165
5.64,0.12595
5.644,0.0857
5.648,0.05545
5.652,0.05319
5.656,0.08908
5.66,0.07431
5.664,-0.00069
5.668,-0.0587
5.672,0.04265
5.676,0.05801
5.68,0.01693
5.684,0.01923
5.688,0.01839
5.692,0.01045
5.696,0.02419
5.7,0.02072
5.704,0.06608
5.708,0.04198
5.712,0.00666
5.716,-0.05917
5.72,0.02894
5.724,0.03367
5.728,-0.0078
5.732,0.07616
5.736,0.06122
5.74,-0.01399
5.744,-0.01733
5.748,-0.02391
5.752,-0.11682
5.756,-0.06259
5.76,0.01687
5.764,0.26577
5.768,0.42197
5.772,0.65115
5.776,0.88648
5.78,0.97793
5.784,0.99622
5.788,0.93677
5.792,0.73556
5.796,0.52189
5.8,0.24711
5.804,0.12
5.808,-0.04221
5.812,-0.10366
5.816,-0.0992
5.82,-0.12124
5.824,-0.07141
5.828,-0.00276
5.832,-0.0105
5.836,0.00547
5.84,0.03517
5.844,0.05194
5.848,-0.01217
5.852,0.01999
5.856,0.05163
5.86,0.06218
5.864,0.02145
5.868,0.03161
5.872,0.06517
5.876,0.05023
5.88,0.0781
5.884,0.03423
5.888,0.02118
5.892,0.04006
5.896,0.0187
5.9,0.03855
5.904,0.01367
5.908,0.05776
5.912,0.082
5.916,-0.01431
5.92,0.05305
5.924,0.02867
5.928,0.0574
5.932,-0.00827
5.936,0.03784
5.94,0.05522
5.944,0.09478
5.948,-0.00146
5.952,-0.00952
5.956,-0.004
5.96,0.04924
5.964,0.07465
5.968,0.06528
5.972,-0.02907
5.976,0.03366
5.98,0.01695
5.984,0.07399
5.988,0.01334
5.992,0.04442
5.996,0.10318
6.0,0.13801
6.004,0.13386
6.008,0.11486
6.012,0.15306
6.016,0.15603
6.02,0.17836
6.024,0.11932
6.028,0.19625
6.032,0.19424
6.036,0.193
6.04,0.21895
6.044,0.22047
6.048,0.18187
6.052,0.23287
6.056,0.22949
6.06,0.26176
6.064,0.17645
6.068,0.26188
6.072,0.20507
6.076,0.27981
6.08,0.23368
6.084,0.22823
6.088,0.21413
6.092,0.21198
6.096,0.17414
6.1,0.24335
6.104,0.21519
6.108,0.19581
6.112,0.20709
6.116,0.27117
6.12,0.24662
6.124,0.15567
6.128,0.23008
6.132,0.14826
6.136,0.14686
6.14,0.24176
6.144,0.14176
6.148,0.19245
6.152,0.08738
6.156,0.05173
6.16,0.05634
6.164,0.03722
6.168,0.10646
6.172,0.07852
6.176,0.08189
6.18,0.09197
6.184,0.03715
6.188,0.05866
6.192,0.00661
6.196,0.10904
6.2,0.07515
6.204,0.04235
6.208,-0.00743
6.212,-0.00376
6.216,0.0532
6.22,0.04233
6.224,0.0951
6.228,0.0203
6.232,0.00104
6.236,0.01294
6.24,-0.0132
6.244,-7e-05
6.248,0.02758
6.252,-0.03149
6.256,-0.10478
6.26,-0.05715
6.264,-0.01799
6.268,0.1038
6.272,0.295
6.276,0.53193
6.28,0.65934
6.284,0.88276
6.288,0.93311
6.292,1.04214
6.296,0.93415
6.3,0.76179
6.304,0.50841
6.308,0.26148
6.312,0.09316
6.316,-0.08089
6.32,-0.06355
6.324,-0.08237
6.328,-0.08304
6.332,-0.1169
6.336,-0.04652
6.34,-0.04659
6.344,0.017
6.348,0.08186
6.352,0.00913
6.356,0.06062
6.36,0.06425
6.364,-0.04639
6.368,0.06059
6.372,-0.06422
6.376,0.05781
6.38,0.00423
6.384,0.01784
6.388,-0.00786
6.392,0.03328
6.396,0.04333
6.4,0.09715
6.404,0.0731
6.408,-0.03087
6.412,-0.00249
6.416,-0.00193
6.42,-0.01769
6.424,-0.00673
6.428,-0.00145
6.432,0.02226
6.436,0.02696
6.44,0.00703
6.444,0.0458
6.448,0.05232
6.452,0.00973
6.456,0.03931
6.46,0.00558
6.464,0.01253
6.468,0.08395
6.472,0.0541
6.476,0.05534
6.48,0.01942
6.484,0.08156
6.488,0.09236
6.492,0.06388
6.496,0.1042
6.5,0.10462
6.504,0.10311
6.508,0.1378
6.512,0.0918
6.516,0.13043
6.52,0.15435
6.524,0.14331
6.528,0.18554
6.532,0.18611
6.536,0.17285
6.54,0.27552
6.544,0.17703
6.548,0.22698
6.552,0.32012
6.556,0.37489
6.56,0.31238
6.564,0.30098
6.568,0.26971
6.572,0.28015
6.576,0.36429
6.58,0.35441
6.584,0.41102
6.588,0.36262
6.592,0.3349
6.596,0.29563
6.6,0.28215
6.604,0.265
6.608,0.25156
6.612,0.23011
6.616,0.20705
6.62,0.18763
6.624,0.17073
6.628,0.08034
6.632,0.1101
6.636,0.10638
6.64,0.11145
6.644,0.07049
6.648,0.04689
6.652,0.06575
6.656,0.04113
6.66,0.07536
6.664,0.03657
6.668,0.01936
6.672,0.07774
6.676,0.01139
6.68,0.01101
6.684,0.00011
6.688,0.00999
6.692,0.0684
6.696,-0.01083
6.7,-0.00383
6.704,-0.05447
6.708,-0.06242
6.712,-0.07843
6.716,-0.12359
6.72,-0.14254
6.724,-0.01533
6.728,0.14298
6.732,0.27715
6.736,0.53664
6.74,0.68888
6.744,0.93951
6.748,1.03214
6.752,1.07309
6.756,0.86053
6.76,0.67746
6.764,0.47362
6.768,0.23951
6.772,0.02591
6.776,-0.09243
6.78,-0.09638
6.784,-0.1773
6.788,-0.15873
6.792,-0.06181
6.796,-0.01795
6.8,0.03375
6.804,-0.02404
6.808,-0.00069
6.812,0.05443
6.816,-0.00234
6.82,0.0347
6.824,0.02954
6.828,0.01085
6.832,0.08759
6.836,0.04643
6.84,0.05328
6.844,0.04977
6.848,0.03994
6.852,0.00798
6.856,0.04406
6.86,-0.00869
6.864,-0.00741
6.868,0.06063
6.872,0.00397
6.876,0.01483
6.88,0.04922
6.884,0.0379
6.888,0.02944
6.892,0.01921
6.896,0.02596
6.9,0.07094
6.904,0.01874
6.908,0.0279
6.912,0.02958
6.916,0.00145
6.92,-0.02485
6.924,0.01386
6.928,0.05708
6.932,0.02701
6.936,0.03982
6.94,-0.01613
6.944,0.04307
6.948,0.04811
6.952,0.06156
6.956,0.05102
6.96,0.12606
6.964,0.07157
6.968,0.02349
6.972,0.12085
6.976,0.11956
6.98,0.1575
6.984,0.14484
6.988,0.11517
6.992,0.20093
6.996,0.16525
7.0,0.18308
7.004,0.16089
7.008,0.20984
7.012,0.23456
7.016,0.20807
7.02,0.21487
7.024,0.18455
7.028,0.24557
7.032,0.21995
7.036,0.19078
7.04,0.30417
7.044,0.20842
7.048,0.25069
7.052,0.19672
7.056,0.17445
7.06,0.22689
7.064,0.16506
7.068,0.19442
7.072,0.15054
7.076,0.18547
7.08,0.10714
7.084,0.17077
7.088,0.08943
7.092,0.10461
7.096,0.02944
7.1,0.09434
7.104,0.05264
7.108,0.10958
7.112,0.02478
7.116,0.07602
7.12,0.02854
7.124,0.03252
7.128,0.03933
7.132,0.1013
7.136,0.05908
7.14,0.00539
7.144,0.06955
7.148,0.06804
7.152,0.00761
7.156,0.04555
7.16,-0.00263
7.164,0.0156
7.168,0.01269
7.172,0.03082
7.176,0.00904
7.18,-0.01298
7.184,0.0414
7.188,0.03286
7.192,-0.03856
7.196,-0.00253
7.2,0.02489
7.204,0.03527
7.208,0.01403
7.212,0.0607
7.216,0.00099
7.22,-0.00066
7.224,0.00449
7.228,-0.05789
7.232,0.03155
7.236,0.021
7.24,0.01542
7.244,0.05439
7.248,-0.01994
7.252,0.02244
7.256,0.09446
7.26,0.03754
7.264,0.10333
7.268,0.07781
7.272,0.14844
7.276,0.13801
7.28,0.09608
7.284,0.05695
7.288,0.14294
7.292,0.00805
7.296,0.08369
7.3,0.09101
7.304,0.05467
7.308,0.07446
7.312,0.05714
7.316,0.04137
7.32,0.04097
7.324,0.06688
7.328,0.0087
7.332,0.01943
7.336,0.00652
7.34,0.06605
7.344,0.01937
7.348,-0.00879
7.352,-0.00454
7.356,0.01137
7.36,0.03173
7.364,-0.05863
7.368,0.06738
7.372,0.04954
7.376,0.04734
7.38,-0.00035
7.384,0.02596
7.388,0.00973
7.392,-0.04079
7.396,0.01607
7.4,-0.05386
7.404,-0.07486
7.408,-0.10976
7.412,-0.05309
7.416,0.03745
7.42,0.2061
7.424,0.37139
7.428,0.67097
7.432,0.80594
7.436,0.96386
7.44,0.93655
7.444,0.94357
7.448,0.73229
7.452,0.58555
7.456,0.33022
7.46,0.07796
7.464,-0.0269
7.468,-0.13894
7.472,-0.16385
7.476,-0.1557
7.48,-0.08519
7.484,-0.06771
7.488,0.0497
7.492,-0.01971
7.496,-0.02862
7.5,-0.01254
7.504,-0.03343
7.508,-0.00024
7.512,0.03623
7.516,-0.00997
7.52,-0.01074
7.524,-0.00743
7.528,0.05963
7.532,0.00782
7.536,-0.04594
7.54,-0.00143
7.544,0.0034
7.548,-0.01918
7.552,-0.06771
7.556,-0.02129
7.56,-0.00112
7.564,0.0094
7.568,0.04091
7.572,-0.00242
7.576,-0.01932
7.58,-0.03328
7.584,0.0532
7.588,-0.05562
7.592,0.00936
7.596,-0.02992
7.6,-0.03085
7.604,0.02868
7.608,0.0493
7.612,-0.03206
7.616,0.00979
7.62,-0.02572
7.624,0.00244
7.628,0.00416
7.632,0.0823
7.636,0.01113
7.64,0.04782
7.644,0.08633
7.648,0.0787
7.652,0.08749
7.656,0.09653
7.66,0.1541
7.664,0.12695
7.668,0.11821
7.672,0.11823
7.676,0.15507
7.68,0.1489
7.684,0.16305
7.688,0.18451
7.692,0.20688
7.696,0.21861
7.7,0.20828
7.704,0.16874
7.708,0.26656
7.712,0.22597
7.716,0.19553
7.72,0.22301
7.724,0.25612
7.728,0.18245
7.732,0.2572
7.736,0.15959
7.74,0.27868
7.744,0.14541
7.748,0.18714
7.752,0.17321
7.756,0.11388
7.76,0.11854
7.764,0.14247
7.768,0.14641
7.772,0.10257
7.776,0.08577
7.78,0.04896
7.784,0.07789
7.788,0.08702
7.792,0.06791
7.796,0.0431
7.8,0.06454
7.804,0.08667
7.808,-0.01665
7.812,0.01711
7.816,0.00017
7.82,-0.01561
7.824,0.03069
7.828,-0.02353
7.832,-0.03908
7.836,0.02027
7.84,0.09012
7.844,0.0956
7.848,0.0022
7.852,-0.007
7.856,-0.03515
7.86,0.00641
7.864,0.02913
7.868,-0.00534
7.872,-0.01861
7.876,0.01761
7.88,-0.03485
7.884,-0.03469
7.888,-0.01995
7.892,0.0133
7.896,-0.00824
7.9,0.03948
7.904,-0.01712
7.908,-0.07541
7.912,-0.02021
7.916,-0.00092
7.92,0.01956
7.924,0.05194
7.928,-0.00789
7.932,-0.03294
7.936,0.00149
7.94,-0.01398
7.944,0.01441
7.948,0.07374
7.952,0.00087
7.956,0.03016
7.96,-0.01203
7.964,0.01249
7.968,0.00068
7.972,0.02862
7.976,-0.00873
7.98,-0.04224
7.984,-0.03553
7.988,0.00496
7.992,-0.04385
7.996,-0.04115
8.0,-0.062
8.004,-0.02159
8.008,0.03894
8.012,-0.04018
8.016,0.00032
8.02,0.09025
8.024,0.00039
8.028,-0.0307
8.032,0.01078
8.036,-0.02982
8.04,-0.02287
8.044,-0.0543
8.048,0.00074
8.052,0.01361
8.056,-0.0458
8.06,0.01012
8.064,-0.07101
8.068,-0.04685
8.072,-0.04406
8.076,-0.01719
8.08,-0.00664
8.084,0.01141
8.088,0.00658
8.092,0.03481
8.096,-0.07886
8.1,-0.02463
8.104,-0.02439
8.108,-0.07775
8.112,-0.03583
8.116,-0.01933
8.12,-0.04982
8.124,0.0346
8.128,-0.00924
8.132,0.03479
8.136,-0.0393
8.14,-0.01644
8.144,-0.07022
8.148,-0.02834
8.152,-0.02302
8.156,0.03899
8.16,0.04894
8.164,0.02298
8.168,-0.00543
8.172,0.0561
8.176,0.03484
8.18,0.07919
8.184,0.11084
8.188,0.05379
8.192,0.06784
8.196,0.09678
8.2,0.04839
8.204,0.03876
8.208,0.03319
8.212,0.05133
8.216,-0.00913
8.22,-0.04596
8.224,0.00276
8.228,0.00064
8.232,0.02975
8.236,0.03057
8.24,-0.02278
8.244,-0.0407
8.248,-0.0508
8.252,-0.02771
8.256,-0.01897
8.26,0.01803
8.264,-0.0629
8.268,-0.0269
8.272,-0.00482
8.276,-0.05597
8.28,-0.0481
8.284,0.03608
8.288,-0.00537
8.292,-0.00918
8.296,0.00321
8.3,0.01925
8.304,-0.04688
8.308,-0.12056
8.312,-0.07821
8.316,-0.10266
8.32,-0.12465
8.324,-0.0985
8.328,0.18082
8.332,0.27825
8.336,0.4928
8.34,0.71356
8.344,0.86618
8.348,0.95587
8.352,0.92576
8.356,0.79932
8.36,0.63249
8.364,0.39156
8.368,0.21333
8.372,-0.00397
8.376,-0.101
8.38,-0.15422
8.384,-0.20933
8.388,-0.1459
8.392,-0.1034
8.396,-0.0215
8.4,-0.04433
8.404,-0.05053
8.408,-0.07688
8.412,-0.03692
8.416,-0.02478
8.42,0.00951
8.424,-0.07285
8.428,-0.00829
8.432,0.00676
8.436,-0.00868
8.44,-0.06122
8.444,-0.03254
8.448,-0.01825
8.452,-0.04415
8.456,-0.01565
8.46,-0.0593
8.464,-0.03389
8.468,0.00642
8.472,-0.00848
8.476,-0.01575
8.48,-0.02422
8.484,-0.0644
8.488,-0.05459
8.492,0.04208
8.496,-0.04016
8.5,-0.09976
8.504,-0.04168
8.508,-0.05845
8.512,-0.04966
8.516,-0.01692
8.52,-0.03222
8.524,0.04003
8.528,-0.03735
8.532,-0.00488
8.536,-0.06037
8.54,-0.01058
8.544,0.02842
8.548,0.01362
8.552,0.09781
8.556,-0.0634
8.56,0.03461
8.564,0.06762
8.568,0.07553
8.572,0.08369
8.576,0.08154
8.58,0.02719
8.584,0.10429
8.588,0.18218
8.592,0.13511
8.596,0.17025
8.6,0.14487
8.604,0.15765
8.608,0.13345
8.612,0.21685
8.616,0.15953
8.62,0.19116
8.624,0.20063
8.628,0.13678
8.632,0.22741
8.636,0.13776
8.64,0.16629
8.644,0.20815
8.648,0.14589
8.652,0.21369
8.656,0.16749
8.66,0.08443
8.664,0.12733
8.668,0.17491
8.672,0.12132
8.676,0.06651
8.68,0.05664
8.684,0.11024
8.688,0.02213
8.692,0.05443
8.696,0.02369
8.7,-0.05356
8.704,0.02941
8.708,0.01458
8.712,0.03363
8.716,-0.00744
8.72,0.05284
8.724,-0.04087
8.728,-0.00718
8.732,-0.03991
8.736,-0.02097
8.74,-0.01397
8.744,0.00444
8.748,0.0411
8.752,0.00301
8.756,-0.02991
8.76,-0.0268
8.764,-0.0133
8.768,-0.01106
8.772,-0.02823
8.776,0.00103
8.78,0.01382
8.784,-0.01891
8.788,-0.01565
8.792,-0.01289
8.796,-0.03696
8.8,-0.05621
8.804,-0.07347
8.808,-0.00969
8.812,-0.00622
8.816,-0.03203
8.82,0.00499
8.824,-0.06993
8.828,-0.00141
8.832,0.00781
8.836,-0.04248
8.84,0.03959
8.844,-0.01892
8.848,-0.00826
8.852,-0.03857
8.856,-0.00338
8.86,0.01303
8.864,-0.01898
8.868,-0.04634
8.872,-0.02521
8.876,-0.06733
8.88,-0.02195
8.884,-0.06262
8.888,-0.01722
8.892,-0.00175
8.896,-0.10728
8.9,-0.04704
8.904,0.02054
8.908,-0.04639
8.912,-0.03724
8.916,0.03861
8.92,-0.0921
8.924,-0.05052
8.928,-0.02161
8.932,-0.00477
8.936,-0.01458
8.94,-0.03059
8.944,-0.0197
8.948,-0.04344
8.952,-0.07059
8.956,0.01397
8.96,-0.00701
8.964,-0.04476
8.968,-0.03383
8.972,-0.00611
8.976,-0.04019
8.98,-0.06598
8.984,-0.02307
8.988,0.01932
8.992,-0.08268
8.996,0.00735
9.0,-0.03299
9.004,0.06959
9.008,0.04158
9.012,0.08493
9.016,0.01569
9.02,0.12403
9.024,0.03052
9.028,0.07258
9.032,0.03937
9.036,0.00208
9.04,0.07743
9.044,0.04952
9.048,-0.00781
9.052,0.01769
9.056,-0.0041
9.06,-0.05249
9.064,-0.05388
9.068,-0.06379
9.072,-0.05715
9.076,-0.01027
9.08,-0.08479
9.084,-0.01455
9.088,-0.03406
9.092,0.03032
9.096,-0.08594
9.1,0.02204
9.104,-0.02591
9.108,-0.07989
9.112,0.0058
9.116,-0.01187
9.12,-0.06341
9.124,-0.01884
9.128,-0.03866
9.132,-0.10494
9.136,0.00835
9.14,-0.02667
9.144,-0.0899
9.148,-0.0886
9.152,-0.096
9.156,-0.11015
9.16,-0.219
9.164,-0.03428
9.168,-0.05498
9.172,0.24139
9.176,0.34013
9.18,0.64307
9.184,0.81662
9.188,0.98707
9.192,0.90527
9.196,0.84717
9.2,0.66124
9.204,0.52956
9.208,0.29887
9.212,0.12836
9.216,-0.07743
9.22,-0.24874
9.224,-0.19753
9.228,-0.22905
9.232,-0.14126
9.236,-0.00962
9.24,-0.07386
9.244,-0.06985
9.248,-0.05122
9.252,-0.07897
9.256,-0.04979
9.26,-0.09239
9.264,0.00052
9.268,-0.01004
9.272,-0.04562
9.276,-0.06107
9.28,-0.03375
9.284,-0.00896
9.288,0.01085
9.292,-0.02769
9.296,-0.00984
9.3,-0.02069
9.304,0.01319
9.308,-0.03915
9.312,-0.04359
9.316,-0.0122
9.32,-0.04364
9.324,0.03645
9.328,0.00823
9.332,0.00645
9.336,-0.04977
9.34,-0.01058
9.344,-0.01316
9.348,-0.01556
9.352,-0.00029
9.356,-0.0546
9.36,0.02208
9.364,-0.01412
9.368,0.02007
9.372,-0.03639
9.376,-0.01619
9.38,0.02138
9.384,0.00867
9.388,0.01085
9.392,0.08863
9.396,0.02966
9.4,0.06059
9.404,0.06822
9.408,0.05037
9.412,0.01552
9.416,0.08243
9.42,0.1574
9.424,0.10771
9.428,0.06372
9.432,0.0936
9.436,0.14248
9.44,0.14423
9.444,0.15623
9.448,0.18064
9.452,0.19463
9.456,0.2172
9.46,0.19345
9.464,0.20209
9.468,0.16541
9.472,0.20036
9.476,0.1639
9.48,0.20542
9.484,0.16937
9.488,0.13697
9.492,0.26527
9.496,0.17617
9.5,0.19639
9.504,0.18373
9.508,0.12675
9.512,0.1174
9.516,0.17733
9.52,0.1006
9.524,0.15516
9.528,0.12906
9.532,0.05084
9.536,0.09905
9.54,0.12702
9.544,0.12901
9.548,0.16684
9.552,0.14475
9.556,0.07604
9.56,0.07218
9.564,0.06644
9.568,0.065
9.572,0.01511
9.576,0.06264
9.58,0.0137
9.584,0.01657
9.588,0.00752
9.592,-0.0265
9.596,0.00073
9.6,-0.00292
9.604,-0.00531
9.608,-0.08193
9.612,0.0086
9.616,-0.05021
9.62,-0.05158
9.624,0.02303
9.628,-0.03705
9.632,-0.04528
9.636,-0.02579
9.64,0.0599
9.644,-0.06073
9.648,-0.07815
9.652,-0.01861
9.656,0.00257
9.66,0.01045
9.664,0.00528
9.668,0.02241
9.672,-0.04688
9.676,-0.14546
9.68,-0.184
9.684,-0.17382
9.688,-0.03273
9.692,0.08143
9.696,0.27615
9.7,0.52578
9.704,0.73916
9.708,0.91964
9.712,0.95077
9.716,0.90865
9.72,0.87976
9.724,0.6004
9.728,0.38567
9.732,0.18355
9.736,-0.04566
9.74,-0.08294
9.744,-0.20424
9.748,-0.21165
9.752,-0.18744
9.756,-0.13082
9.76,-0.11731
9.764,-0.05561
9.768,-0.07678
9.772,-0.05677
9.776,-0.05441
9.78,-0.03913
9.784,-0.04065
9.788,-0.00591
9.792,-0.06539
9.796,-0.00981
9.8,-0.00727
9.804,-0.02357
9.808,-0.04485
9.812,0.01047
9.816,-0.01827
9.82,-0.01279
9.824,-0.01167
9.828,-0.0238
9.832,-0.0073
9.836,-0.05448
9.84,-0.02598
9.844,-0.01724
9.848,-0.10275
9.852,-0.03376
9.856,-0.02783
9.86,0.01182
9.864,-0.02363
9.868,-0.06544
9.872,-0.0341
9.876,-0.0552
9.88,-0.08438
9.884,0.03414
9.888,-0.04391
9.892,-0.01455
9.896,-0.00041
9.9,-0.00822
9.904,-0.06041
9.908,0.0157
9.912,-0.00762
9.916,0.04304
9.92,0.07646
9.924,0.01416
9.928,0.07161
9.932,0.01874
9.936,0.16511
9.94,0.12718
9.944,0.07543
9.948,0.17825
9.952,0.16603
9.956,0.07246
9.96,0.10241
9.964,0.18099
9.968,0.21311
9.972,0.14001
9.976,0.17943
9.98,0.26567
9.984,0.15755
9.988,0.195
9.992,0.24357
9.996,0.17646
