t_seg,ecg_mV
0.0,0.02031
0.004,0.00294
0.008,0.03688
0.012,0.05123
0.016,0.00606
0.02,0.02205
0.024,0.0596
0.028,0.02805
0.032,0.04738
0.036,0.0784
0.04,0.01522
0.044,0.07279
0.048,-0.00487
0.052,-0.01984
0.056,0.0145
0.06,0.01375
0.064,0.06436
0.068,0.03801
0.072,0.08208
0.076,0.00223
0.08,-0.02027
0.084,0.0675
0.088,0.08919
0.092,0.11448
0.096,0.06608
0.1,0.16205
0.104,0.10309
0.108,0.02442
0.112,0.10536
0.116,0.11174
0.12,0.08004
0.124,0.1347
0.128,0.07067
0.132,0.09483
0.136,0.13398
0.14,0.0005
0.144,-0.03568
0.148,-0.00495
0.152,0.05789
0.156,0.00505
0.16,0.02123
0.164,0.06546
0.168,0.03365
0.172,0.06247
0.176,0.0055
0.18,0.06238
0.184,0.04784
0.188,0.01352
0.192,-0.00544
0.196,0.0129
0.2,0.03747
0.204,0.01689
0.208,0.06159
0.212,-0.02029
0.216,0.00451
0.22,0.108
0.224,-0.02268
0.228,-0.00419
0.232,-0.09573
0.236,-0.05831
0.24,-0.09992
0.244,-0.02448
0.248,0.1592
0.252,0.37329
0.256,0.65585
0.26,0.78441
0.264,0.94408
0.268,1.04087
0.272,0.9776
0.276,0.81092
0.28,0.73645
0.284,0.34605
0.288,0.16238
0.292,0.00767
0.296,-0.09809
0.3,-0.18364
0.304,-0.06483
0.308,-0.04761
0.312,-0.01986
0.316,0.02403
0.32,-0.01739
0.324,0.00463
0.328,0.04236
0.332,0.01532
0.336,0.01267
0.34,0.01714
0.344,-0.02055
0.348,-0.00352
0.352,-0.01524
0.356,-0.03532
0.36,0.06559
0.364,0.0606
0.368,0.00581
0.372,0.02807
0.376,0.05086
0.38,0.01764
0.384,0.0035
0.388,0.03117
0.392,0.048
0.396,0.11814
0.4,0.01525
0.404,0.0482
0.408,0.11589
0.412,0.15102
0.416,0.17888
0.42,0.11961
0.424,0.13356
0.428,0.09174
0.432,0.14362
0.436,0.1087
0.44,0.11163
0.444,0.18516
0.448,0.10502
0.452,0.08581
0.456,0.108
0.46,0.08579
0.464,0.08388
0.468,0.14265
0.472,0.10832
0.476,0.09266
0.48,0.10439
0.484,0.06936
0.488,0.1535
0.492,0.10872
0.496,0.15335
0.5,0.11077
0.504,0.12804
0.508,0.15298
0.512,0.20681
0.516,0.16161
0.52,0.23734
0.524,0.23174
0.528,0.20627
0.532,0.16108
0.536,0.24822
0.54,0.26721
0.544,0.26155
0.548,0.14624
0.552,0.14276
0.556,0.14941
0.56,0.11894
0.564,0.19289
0.568,0.35359
0.572,0.55426
0.576,0.82071
0.58,0.97211
0.584,1.11874
0.588,1.10167
0.592,1.14116
0.596,0.94709
0.6,0.75308
0.604,0.43072
0.608,0.2298
0.612,0.14559
0.616,-0.07445
0.62,-0.06588
0.624,-0.08957
0.628,-0.09852
0.632,-0.01243
0.636,-0.01085
0.64,0.03282
0.644,0.0735
0.648,0.03669
0.652,0.05944
0.656,-0.03612
0.66,0.00963
0.664,0.05667
0.668,0.05219
0.672,0.01525
0.676,0.01772
0.68,0.0518
0.684,0.02144
0.688,0.04763
0.692,0.08695
0.696,0.02534
0.7,0.02293
0.704,0.02317
0.708,-0.01449
0.712,0.0694
0.716,0.04388
0.72,0.0761
0.724,0.00641
0.728,0.0591
0.732,0.03775
0.736,0.03402
0.74,0.04044
0.744,0.04261
0.748,0.12467
0.752,0.08552
0.756,0.05305
0.76,0.04178
0.764,-0.00069
0.768,0.04746
0.772,0.09126
0.776,0.04699
0.78,0.04463
0.784,0.07235
0.788,0.03803
0.792,0.06891
0.796,0.04736
0.8,0.08288
0.804,0.09166
0.808,0.14013
0.812,0.15074
0.816,0.09184
0.82,0.20516
0.824,0.20069
0.828,0.19613
0.832,0.13803
0.836,0.1306
0.84,0.28205
0.844,0.23114
0.848,0.25776
0.852,0.23123
0.856,0.23903
0.86,0.31542
0.864,0.22018
0.868,0.27013
0.872,0.28415
0.876,0.23639
0.88,0.25735
0.884,0.27197
0.888,0.18006
0.892,0.23643
0.896,0.25364
0.9,0.18284
0.904,0.205
0.908,0.15505
0.912,0.17764
0.916,0.15861
0.92,0.1998
0.924,0.08241
0.928,0.08631
0.932,0.13512
0.936,0.08635
0.94,0.06896
0.944,0.07705
0.948,0.0761
0.952,0.1161
0.956,0.04236
0.96,0.06968
0.964,0.02266
0.968,0.03338
0.972,0.038
0.976,0.01838
0.98,0.07803
0.984,0.08692
0.988,0.05741
0.992,0.08712
0.996,0.03656
1.0,0.03709
1.004,0.07275
1.008,0.0435
1.012,0.04497
1.016,0.00674
1.02,0.02095
1.024,0.01072
1.028,0.05879
1.032,-0.05808
1.036,0.00452
1.04,0.00872
1.044,0.01278
1.048,0.00399
1.052,0.00795
1.056,0.10998
1.06,0.07778
1.064,0.00044
1.068,0.05134
1.072,0.01334
1.076,0.04383
1.08,0.01689
1.084,-0.00413
1.088,0.05446
1.092,0.06373
1.096,0.01829
1.1,0.054
1.104,0.00274
1.108,0.03679
1.112,0.02457
1.116,0.04422
1.12,0.05794
1.124,0.06775
1.128,0.06478
1.132,0.10709
1.136,0.1266
1.14,0.11444
1.144,0.16148
1.148,0.17724
1.152,0.15811
1.156,0.10999
1.16,0.03973
1.164,0.12947
1.168,0.051
1.172,0.09638
1.176,0.08438
1.18,7e-05
1.184,-0.0163
1.188,0.07184
1.192,-0.00668
1.196,0.08868
1.2,0.0819
1.204,0.04745
1.208,0.09442
1.212,-0.01183
1.216,-8e-05
1.22,0.04724
1.224,0.04393
1.228,-0.00657
1.232,0.02879
1.236,0.02901
1.24,-0.00824
1.244,-0.00937
1.248,-0.00753
1.252,-0.04037
1.256,-0.01181
1.26,0.06254
1.264,0.00898
1.268,-0.06164
1.272,-0.08833
1.276,-0.07119
1.28,0.06016
1.284,0.19206
1.288,0.34677
1.292,0.6388
1.296,0.73484
1.3,0.91758
1.304,1.08709
1.308,1.01263
1.312,0.8755
1.316,0.67558
1.32,0.5225
1.324,0.20227
1.328,0.01512
1.332,-0.02398
1.336,-0.15188
1.34,-0.16904
1.344,-0.1579
1.348,-0.07567
1.352,0.05598
1.356,0.02108
1.36,0.0402
1.364,-0.00656
1.368,0.06745
1.372,-0.02897
1.376,0.03378
1.38,0.08427
1.384,-0.00538
1.388,0.00208
1.392,-0.00804
1.396,-0.03107
1.4,0.02644
1.404,-0.0326
1.408,0.05832
1.412,0.03216
1.416,-0.01773
1.42,0.06339
1.424,0.05057
1.428,0.0638
1.432,-0.00327
1.436,0.01924
1.44,0.0159
1.444,0.02393
1.448,0.05581
1.452,0.08474
1.456,0.04302
1.46,0.03227
1.464,0.02226
1.468,0.05845
1.472,0.06325
1.476,-0.01327
1.48,0.04614
1.484,0.05217
1.488,0.0672
1.492,0.06923
1.496,0.07288
1.5,0.0658
1.504,0.10375
1.508,0.06151
1.512,0.12798
1.516,0.12301
1.52,0.10127
1.524,0.0986
1.528,0.12564
1.532,0.19336
1.536,0.14371
1.54,0.19375
1.544,0.17455
1.548,0.1624
1.552,0.27217
1.556,0.20834
1.56,0.1088
1.564,0.23129
1.568,0.27635
1.572,0.17597
1.576,0.20431
1.58,0.21647
1.584,0.2152
1.588,0.33978
1.592,0.24501
1.596,0.18342
1.6,0.2023
1.604,0.19288
1.608,0.23052
1.612,0.23818
1.616,0.27184
1.62,0.24013
1.624,0.2815
1.628,0.26121
1.632,0.30114
1.636,0.25351
1.64,0.20583
1.644,0.15999
1.648,0.19373
1.652,0.18041
1.656,0.19387
1.66,0.14773
1.664,0.13571
1.668,0.09478
1.672,0.08371
1.676,0.01296
1.68,0.02941
1.684,0.10648
1.688,0.01703
1.692,0.04857
1.696,0.0549
1.7,-0.02701
1.704,0.03588
1.708,-0.00114
1.712,0.00353
1.716,-0.01996
1.72,0.07116
1.724,0.08894
1.728,0.02692
1.732,0.0594
1.736,-0.02972
1.74,0.01037
1.744,0.06608
1.748,0.05672
1.752,0.00917
1.756,-0.05811
1.76,-0.06349
1.764,-0.08961
1.768,-0.05501
1.772,0.04143
1.776,0.11521
1.78,0.34667
1.784,0.53167
1.788,0.79407
1.792,0.95757
1.796,1.03564
1.8,1.00908
1.804,0.87062
1.808,0.66224
1.812,0.40039
1.816,0.2496
1.82,0.05457
1.824,-0.09741
1.828,-0.17776
1.832,-0.1513
1.836,-0.11342
1.84,-0.08637
1.844,-0.0386
1.848,-0.01312
1.852,0.00117
1.856,-0.00053
1.86,0.0437
1.864,0.0146
1.868,0.03777
1.872,-0.01778
1.876,0.01292
1.88,-0.02789
1.884,0.02181
1.888,0.00774
1.892,0.03509
1.896,0.03111
1.9,-0.00185
1.904,0.01105
1.908,-0.05785
1.912,0.01965
1.916,0.03219
1.92,0.03468
1.924,0.00709
1.928,0.05495
1.932,0.00132
1.936,0.01483
1.94,-0.01756
1.944,0.0006
1.948,0.05305
1.952,0.00445
1.956,0.03333
1.96,0.02606
1.964,0.02722
1.968,0.04975
1.972,0.04578
1.976,0.02258
1.98,0.02849
1.984,-0.0224
1.988,0.09215
1.992,0.05651
1.996,-0.0063
2.0,0.04932
2.004,0.05049
2.008,0.04765
2.012,0.09925
2.016,0.11742
2.02,0.03561
2.024,0.14015
2.028,0.14797
2.032,0.13621
2.036,0.19887
2.04,0.21639
2.044,0.16508
2.048,0.22247
2.052,0.27833
2.056,0.35128
2.06,0.24893
2.064,0.29703
2.068,0.38658
2.072,0.31502
2.076,0.34
2.08,0.35247
2.084,0.32821
2.088,0.26036
2.092,0.30716
2.096,0.25818
2.1,0.2486
2.104,0.24467
2.108,0.17094
2.112,0.13761
2.116,0.17203
2.12,0.23588
2.124,0.15798
2.128,0.12115
2.132,0.08718
2.136,0.07755
2.14,0.13491
2.144,0.02761
2.148,0.07572
2.152,0.04498
2.156,0.02412
2.16,0.06439
2.164,0.07843
2.168,0.04625
2.172,-0.00646
2.176,-0.01488
2.18,-0.05117
2.184,-0.01283
2.188,0.03261
2.192,0.03695
2.196,-0.01988
2.2,-0.03524
2.204,-0.08302
2.208,-0.06705
2.212,0.02819
2.216,0.17821
2.22,0.30795
2.224,0.5883
2.228,0.73172
2.232,0.88853
2.236,1.01995
2.24,0.98708
2.244,0.77519
2.248,0.61742
2.252,0.41941
2.256,0.19981
2.26,-0.00158
2.264,-0.15632
2.268,-0.13912
2.272,-0.15205
2.276,-0.09267
2.28,-0.07711
2.284,-0.05502
2.288,-0.01304
2.292,0.08602
2.296,0.00461
2.3,0.00366
2.304,0.06739
2.308,-0.01167
2.312,0.06757
2.316,0.04094
2.32,0.08237
2.324,-0.01166
2.328,0.08043
2.332,0.09246
2.336,0.14504
2.34,0.09672
2.344,0.06877
2.348,0.11585
2.352,0.11043
2.356,0.10343
2.36,0.06673
2.364,0.03007
2.368,0.0777
2.372,0.00779
2.376,0.02348
2.38,0.04995
2.384,0.03328
2.388,0.00404
2.392,0.0035
2.396,0.01657
2.4,0.01705
2.404,0.04851
2.408,0.01532
2.412,-0.01893
2.416,0.01514
2.42,0.02013
2.424,-0.0065
2.428,0.09232
2.432,0.08553
2.436,0.05887
2.44,0.0409
2.444,0.04516
2.448,0.05759
2.452,0.04617
2.456,-0.02397
2.46,0.05548
2.464,0.02173
2.468,0.00913
2.472,0.04397
2.476,0.17616
2.48,0.16762
2.484,0.34844
2.488,0.52346
2.492,0.83795
2.496,1.00736
2.5,1.12024
2.504,1.15074
2.508,1.13722
2.512,0.96778
2.516,0.76914
2.52,0.57744
2.524,0.32708
2.528,0.19983
2.532,0.0832
2.536,0.00398
2.54,0.12494
2.544,0.06891
2.548,0.16423
2.552,0.11035
2.556,0.19346
2.56,0.16465
2.564,0.16294
2.568,0.1572
2.572,0.10599
2.576,0.1741
2.58,0.19811
2.584,0.13719
2.588,0.11512
2.592,0.12748
2.596,0.15115
2.6,0.2254
2.604,0.09599
2.608,0.09425
2.612,0.08436
2.616,0.09638
2.62,-0.02004
2.624,0.00069
2.628,0.04172
2.632,0.05945
2.636,0.05032
2.64,0.01387
2.644,-0.05783
2.648,-0.00177
2.652,-0.00805
2.656,-0.05528
2.66,0.12868
2.664,-0.04304
2.668,-0.01703
2.672,0.02183
2.676,0.05564
2.68,-2e-05
2.684,0.04917
2.688,0.01394
2.692,0.07401
2.696,0.04531
2.7,0.03831
2.704,0.01324
2.708,0.06459
2.712,0.05384
2.716,-0.08181
2.72,-0.04628
2.724,-0.05075
2.728,0.10708
2.732,0.23158
2.736,0.38084
2.74,0.6416
2.744,0.83322
2.748,1.02548
2.752,1.16624
2.756,1.12201
2.76,1.07875
2.764,0.87492
2.768,0.64579
2.772,0.38056
2.776,0.25378
2.78,0.12959
2.784,0.14688
2.788,0.09736
2.792,0.08474
2.796,0.11361
2.8,0.16196
2.804,0.10395
2.808,0.22719
2.812,0.15477
2.816,0.24019
2.82,0.26498
2.824,0.26028
2.828,0.14267
2.832,0.22619
2.836,0.22812
2.84,0.17071
2.844,0.18701
2.848,0.18184
2.852,0.22822
2.856,0.07364
2.86,0.12364
2.864,0.11032
2.868,0.08213
2.872,0.03043
2.876,0.06659
2.88,0.00172
2.884,0.04836
2.888,0.04372
2.892,0.07615
2.896,-0.00476
2.9,-0.01276
2.904,0.04048
2.908,-0.00231
2.912,0.07353
2.916,-0.06259
2.92,0.00578
2.924,0.02043
2.928,0.05159
2.932,0.02426
2.936,0.02161
2.94,0.05851
2.944,-0.00918
2.948,0.01331
2.952,0.06227
2.956,0.01062
2.96,-0.00739
2.964,0.01902
2.968,-0.05429
2.972,-0.02885
2.976,-0.01933
2.98,0.03369
2.984,0.1708
2.988,0.25963
2.992,0.3753
2.996,0.54043
3.0,0.64557
3.004,0.62351
3.008,0.6293
3.012,0.55517
3.016,0.45765
3.02,0.34479
3.024,0.15946
3.028,0.11537
3.032,0.03226
3.036,0.08096
3.04,-0.03017
3.044,0.08191
3.048,0.16133
3.052,0.16959
3.056,0.15368
3.06,0.13701
3.064,0.13141
3.068,0.20728
3.072,0.12827
3.076,0.09519
3.08,0.15563
3.084,0.04962
3.088,0.08356
3.092,0.08192
3.096,0.07158
3.1,0.10454
3.104,0.01951
3.108,0.02223
3.112,0.07354
3.116,0.02704
3.12,0.15786
3.124,0.05142
3.128,0.13585
3.132,0.09457
3.136,0.10133
3.14,0.08452
3.144,0.04468
3.148,0.0912
3.152,0.05759
3.156,0.11395
3.16,-0.02843
3.164,0.06133
3.168,-0.00535
3.172,0.00142
3.176,0.02857
3.18,-0.05961
3.184,0.00732
3.188,-0.0162
3.192,-0.01644
3.196,0.00624
3.2,0.00177
3.204,0.04774
3.208,0.01126
3.212,0.01345
3.216,0.07476
3.22,0.06614
3.224,0.08401
3.228,0.11941
3.232,0.07776
3.236,0.10079
3.24,0.12421
3.244,0.16011
3.248,0.11657
3.252,0.17781
3.256,0.02728
3.26,0.0783
3.264,0.15179
3.268,0.18003
3.272,0.35008
3.276,0.56858
3.28,0.68007
3.284,0.97281
3.288,1.11272
3.292,1.20125
3.296,1.21611
3.3,1.03656
3.304,0.85028
3.308,0.55819
3.312,0.35997
3.316,0.19614
3.32,0.01141
3.324,0.03159
3.328,-0.0148
3.332,-0.07615
3.336,-0.00207
3.34,0.05067
3.344,-0.00089
3.348,0.04747
3.352,0.14617
3.356,-0.01506
3.36,0.04037
3.364,0.00243
3.368,0.02111
3.372,-0.01142
3.376,-0.02501
3.38,-0.03606
3.384,0.03929
3.388,0.00133
3.392,0.02151
3.396,-0.00364
3.4,0.01119
3.404,0.01424
3.408,-0.03126
3.412,-0.01057
3.416,-0.00135
3.42,-0.07829
3.424,-0.09696
3.428,-0.02548
3.432,0.01356
3.436,0.01727
3.44,-0.06737
3.444,0.03255
3.448,-0.06679
3.452,-0.07958
3.456,0.02966
3.46,-0.01783
3.464,0.02607
3.468,-0.03982
3.472,-0.00713
3.476,-0.03666
3.48,0.01652
3.484,0.0698
3.488,0.03805
3.492,0.05873
3.496,0.15762
3.5,0.10115
3.504,0.13351
3.508,0.17945
3.512,0.1114
3.516,0.21325
3.52,0.17246
3.524,0.22534
3.528,0.16556
3.532,0.23813
3.536,0.1849
3.54,0.10147
3.544,0.20437
3.548,0.1758
3.552,0.17458
3.556,0.29538
3.56,0.14464
3.564,0.17965
3.568,0.2662
3.572,0.14982
3.576,0.23747
3.58,0.18027
3.584,0.21508
3.588,0.09122
3.592,0.15172
3.596,0.138
3.6,0.20475
3.604,0.14051
3.608,0.17784
3.612,0.1374
3.616,0.12645
3.62,0.10045
3.624,0.09413
3.628,0.0552
3.632,0.03731
3.636,-0.02824
3.64,-0.11698
3.644,0.00345
3.648,0.0767
3.652,0.11917
3.656,0.31649
3.66,0.5782
3.664,0.81706
3.668,0.97413
3.672,0.98562
3.676,0.86517
3.68,0.74401
3.684,0.56232
3.688,0.3471
3.692,0.13886
3.696,-0.05467
3.7,-0.11759
3.704,-0.23136
3.708,-0.20648
3.712,-0.08716
3.716,-0.08791
3.72,-0.08537
3.724,-0.05569
3.728,-0.06673
3.732,0.00272
3.736,-0.09939
3.74,-0.02561
3.744,-0.02539
3.748,-0.06683
3.752,0.0027
3.756,-0.05504
3.76,-0.00833
3.764,-0.03043
3.768,0.05118
3.772,-0.02464
3.776,0.01015
3.78,0.04979
3.784,0.05018
3.788,0.05352
3.792,0.04593
3.796,0.06699
3.8,0.07978
3.804,0.15346
3.808,0.07623
3.812,0.06887
3.816,0.07103
3.82,0.02573
3.824,0.04077
3.828,-0.03694
3.832,0.00883
3.836,-0.0042
3.84,0.01848
3.844,0.01987
3.848,0.05616
3.852,-0.01234
3.856,0.01411
3.86,-0.01788
3.864,0.05607
3.868,-0.01934
3.872,0.00437
3.876,0.01403
3.88,0.06796
3.884,0.00763
3.888,0.09371
3.892,0.07407
3.896,0.0735
3.9,0.06447
3.904,0.02883
3.908,0.0529
3.912,0.19009
3.916,0.13421
3.92,0.09553
3.924,0.06423
3.928,0.06434
3.932,0.06119
3.936,0.12036
3.94,0.19511
3.944,0.3241
3.948,0.58806
3.952,0.79184
3.956,1.01589
3.96,1.12497
3.964,1.15792
3.968,1.14629
3.972,1.01798
3.976,0.67905
3.98,0.47341
3.984,0.33446
3.988,0.12444
3.992,-0.04463
3.996,-0.00923
4.0,-0.0891
4.004,-0.00407
4.008,-0.02156
4.012,0.00885
4.016,0.02269
4.02,0.0491
4.024,0.11327
4.028,0.05059
4.032,0.06186
4.036,0.00247
4.04,-0.01803
4.044,0.01228
4.048,0.04663
4.052,-0.00125
4.056,-0.07152
4.06,0.06894
4.064,-0.00634
4.068,-0.02433
4.072,-0.06908
4.076,-0.04827
4.08,-0.05468
4.084,-0.01609
4.088,-0.06108
4.092,-0.03597
4.096,-0.03574
4.1,-0.08333
4.104,-0.04267
4.108,0.02006
4.112,-0.03855
4.116,-0.01546
4.12,0.02219
4.124,0.03386
4.128,-0.10571
4.132,-0.01025
4.136,-0.04798
4.14,-0.01659
4.144,-0.0701
4.148,-0.03961
4.152,-0.06588
4.156,-0.04312
4.16,0.03322
4.164,-0.04274
4.168,0.00747
4.172,0.0722
4.176,0.08156
4.18,0.06144
4.184,0.11663
4.188,0.0549
4.192,0.07965
4.196,0.07831
4.2,0.12304
4.204,0.17144
4.208,0.15153
4.212,0.11763
4.216,0.14927
4.22,0.21367
4.224,0.11094
4.228,0.24715
4.232,0.17564
4.236,0.16059
4.24,0.16021
4.244,0.19365
4.248,0.20668
4.252,0.20062
4.256,0.15664
4.26,0.18472
4.264,0.12876
4.268,0.19707
4.272,0.15291
4.276,0.15225
4.28,0.18242
4.284,0.06407
4.288,0.0914
4.292,0.15354
4.296,0.04609
4.3,0.08938
4.304,0.03703
4.308,0.05935
4.312,0.00825
4.316,0.02203
4.32,0.0257
4.324,-0.05528
4.328,0.02474
4.332,-0.05197
4.336,-0.02582
4.34,-0.00296
4.344,0.04502
4.348,-0.01555
4.352,-0.02237
4.356,-0.00691
4.36,-0.01139
4.364,-0.00196
4.368,0.00544
4.372,0.01786
4.376,-0.02219
4.38,0.00114
4.384,0.02582
4.388,-0.05274
4.392,-0.00013
4.396,0.04181
4.4,-0.02098
4.404,-0.05716
4.408,-0.04235
4.412,-0.01483
4.416,-0.0588
4.42,-0.02379
4.424,-0.00354
4.428,-0.04049
4.432,-0.01328
4.436,-0.08154
4.44,-0.03277
4.444,-0.04636
4.448,-0.05504
4.452,-0.03459
4.456,-0.01962
4.46,-0.00444
4.464,-0.0436
4.468,0.07327
4.472,-0.05842
4.476,0.0084
4.48,0.03302
4.484,0.00925
4.488,0.01431
4.492,0.06192
4.496,0.08517
4.5,0.03257
4.504,0.07271
4.508,0.06945
4.512,0.10106
4.516,-0.00347
4.52,0.03553
4.524,0.03839
4.528,0.03944
4.532,-0.01364
4.536,-0.03264
4.54,-0.00639
4.544,0.0153
4.548,-0.04131
4.552,-0.07386
4.556,-0.0892
4.56,0.03374
4.564,-0.05128
4.568,0.00443
4.572,0.03477
4.576,0.01017
4.58,-0.07396
4.584,-0.01543
4.588,-0.01925
4.592,0.00852
4.596,-0.02105
4.6,0.00947
4.604,-0.09835
4.608,-0.06099
4.612,-0.02025
4.616,-0.05196
4.62,-0.05083
4.624,-0.13727
4.628,-0.15124
4.632,-0.14003
4.636,-0.12664
4.64,0.02238
4.644,0.09521
4.648,0.21896
4.652,0.34106
4.656,0.45273
4.66,0.50361
4.664,0.48848
4.668,0.47535
4.672,0.33869
4.676,0.2156
4.68,0.12418
4.684,-0.08041
4.688,-0.10717
4.692,-0.2285
4.696,-0.18155
4.7,-0.15133
4.704,-0.15057
4.708,-0.03248
4.712,-0.04383
4.716,-0.09259
4.72,-0.03201
4.724,-0.01017
4.728,-0.00597
4.732,-0.00873
4.736,-0.0094
4.74,0.02509
4.744,-0.02435
4.748,-0.04761
4.752,-0.0238
4.756,-0.03218
4.76,0.01335
4.764,-0.04499
4.768,-0.08062
4.772,-0.06395
4.776,0.00351
4.78,-0.13914
4.784,-0.01963
4.788,-0.03893
4.792,-0.05116
4.796,-0.00361
4.8,-0.01581
4.804,-0.02511
4.808,-0.02681
4.812,-0.03192
4.816,-0.01165
4.82,-0.05835
4.824,-0.04104
4.828,-0.04718
4.832,-0.01703
4.836,-0.05863
4.84,-0.04641
4.844,0.00084
4.848,-0.00769
4.852,0.0292
4.856,0.02327
4.86,0.00633
4.864,-0.03081
4.868,0.03594
4.872,-0.01694
4.876,0.01965
4.88,0.04129
4.884,0.04353
4.888,0.06726
4.892,0.06632
4.896,0.13606
4.9,0.0952
4.904,0.12076
4.908,0.17267
4.912,0.13732
4.916,0.15293
4.92,0.16176
4.924,0.21406
4.928,0.1861
4.932,0.25387
4.936,0.19916
4.94,0.19785
4.944,0.182
4.948,0.2124
4.952,0.18526
4.956,0.16567
4.96,0.22851
4.964,0.12329
4.968,0.16936
4.972,0.17238
4.976,0.10882
4.98,0.08985
4.984,0.14658
4.988,0.08536
4.992,0.12033
4.996,0.07251
5.0,0.02621
5.004,0.07359
5.008,0.03036
5.012,-0.0253
5.016,-0.04131
5.02,0.04712
5.024,-0.00706
5.028,0.01022
5.032,0.01775
5.036,-0.01695
5.04,-0.01106
5.044,0.04861
5.048,0.03621
5.052,-0.00783
5.056,-0.03936
5.06,0.00206
5.064,-0.04581
5.068,-0.021
5.072,-0.07114
5.076,-0.01502
5.08,-0.03717
5.084,-0.02401
5.088,-0.00767
5.092,-0.00652
5.096,-0.03124
5.1,-0.0775
5.104,-0.01488
5.108,-0.01016
5.112,-0.02231
5.116,0.04778
5.12,-0.07214
5.124,-0.00678
5.128,0.00607
5.132,-0.05336
5.136,-0.02524
5.14,0.00994
5.144,0.01122
5.148,-0.01231
5.152,-0.01087
5.156,-0.00716
5.16,-0.0475
5.164,-0.02023
5.168,0.01731
5.172,0.04975
5.176,0.10553
5.18,0.00515
5.184,0.01968
5.188,0.07784
5.192,0.06459
5.196,0.07458
5.2,0.0735
5.204,0.07022
5.208,0.06216
5.212,0.09547
5.216,0.07912
5.22,0.11913
5.224,0.05121
5.228,0.04292
5.232,0.00824
5.236,-0.00854
5.24,0.04567
5.244,-0.03467
5.248,-0.0199
5.252,-0.05591
5.256,0.00378
5.26,0.00221
5.264,0.01835
5.268,-0.06408
5.272,-0.01119
5.276,-0.04963
5.28,-0.01657
5.284,0.03492
5.288,-0.07309
5.292,0.00686
5.296,0.01722
5.3,-0.02773
5.304,-0.03797
5.308,-0.06569
5.312,-0.04611
5.316,-0.04221
5.32,-0.05717
5.324,-0.04168
5.328,-0.06902
5.332,-0.16598
5.336,-0.02707
5.34,0.14147
5.344,0.30239
5.348,0.50522
5.352,0.71765
5.356,0.95833
5.36,1.0174
5.364,0.96907
5.368,0.79895
5.372,0.6525
5.376,0.30997
5.38,0.08151
5.384,0.02435
5.388,-0.10497
5.392,-0.20003
5.396,-0.1991
5.4,-0.15059
5.404,-0.10215
5.408,-0.01275
5.412,-0.08836
5.416,0.02549
5.42,-0.01372
5.424,-0.01681
5.428,0.01483
5.432,0.01205
5.436,-0.00877
5.44,0.02229
5.444,0.01829
5.448,-0.00737
5.452,-0.02163
5.456,0.03281
5.46,-0.0206
5.464,-0.08994
5.468,0.00989
5.472,-0.02196
5.476,0.02719
5.48,0.01517
5.484,0.01236
5.488,-0.02853
5.492,0.05689
5.496,-0.04124
5.5,0.02375
5.504,0.00374
5.508,-0.01205
5.512,0.00247
5.516,0.04142
5.52,0.08992
5.524,0.09203
5.528,0.07068
5.532,0.07137
5.536,0.05609
5.54,0.06365
5.544,0.13895
5.548,0.07479
5.552,0.09064
5.556,0.0817
5.56,0.03586
5.564,0.04729
5.568,0.0841
5.572,0.06951
5.576,0.05681
5.58,0.06546
5.584,0.06542
5.588,0.11091
5.592,0.15948
5.596,0.0782
5.6,0.13099
5.604,0.12993
5.608,0.17504
5.612,0.2409
5.616,0.15736
5.62,0.26699
5.624,0.21296
5.628,0.23361
5.632,0.19069
5.636,0.1869
5.64,0.23726
5.644,0.20253
5.648,0.18689
5.652,0.20726
5.656,0.06624
5.66,0.02989
5.664,0.04926
5.668,0.01075
5.672,0.15791
5.676,0.24325
5.68,0.32014
5.684,0.55469
5.688,0.62958
5.692,0.78732
5.696,0.74899
5.7,0.77121
5.704,0.58494
5.708,0.41767
5.712,0.15439
5.716,0.05319
5.72,-0.03064
5.724,-0.14408
5.728,-0.1593
5.732,-0.11567
5.736,-0.1029
5.74,-0.0543
5.744,0.06397
5.748,0.02128
5.752,-0.01781
5.756,-0.00736
5.76,0.00529
5.764,0.04533
5.768,-0.04627
5.772,-0.00944
5.776,-0.01888
5.78,-0.01312
5.784,0.06368
5.788,-0.00877
5.792,-0.0296
5.796,-0.02935
5.8,0.05662
5.804,0.01854
5.808,-0.00702
5.812,0.03624
5.816,-0.01388
5.82,0.00299
5.824,-0.01009
5.828,0.02854
5.832,0.07068
5.836,-0.0117
5.84,-0.0258
5.844,-0.05744
5.848,0.02937
5.852,0.01511
5.856,0.00465
5.86,0.03507
5.864,0.03472
5.868,-0.0473
5.872,0.03158
5.876,0.00249
5.88,-0.03463
5.884,0.07068
5.888,0.01821
5.892,0.03349
5.896,0.0698
5.9,0.00968
5.904,0.08226
5.908,0.06282
5.912,0.12159
5.916,0.07639
5.92,0.09674
5.924,0.14797
5.928,0.13503
5.932,0.15816
5.936,0.08482
5.94,0.18746
5.944,0.18823
5.948,0.21255
5.952,0.23188
5.956,0.19891
5.96,0.18788
5.964,0.25956
5.968,0.28722
5.972,0.25244
5.976,0.27507
5.98,0.30694
5.984,0.34504
5.988,0.27594
5.992,0.3209
5.996,0.32879
6.0,0.29644
6.004,0.25477
6.008,0.27374
6.012,0.26685
6.016,0.18272
6.02,0.19032
6.024,0.14116
6.028,0.17721
6.032,0.1047
6.036,0.10067
6.04,0.08204
6.044,0.16375
6.048,0.03296
6.052,0.04595
6.056,0.05408
6.06,0.10898
6.064,0.03931
6.068,0.04949
6.072,0.02097
6.076,0.11909
6.08,0.00231
6.084,-0.02949
6.088,-0.00627
6.092,0.02394
6.096,0.03637
6.1,-0.03189
6.104,0.00461
6.108,-0.04671
6.112,-0.06885
6.116,-0.05934
6.12,-0.07304
6.124,-0.0698
6.128,0.04878
6.132,0.16346
6.136,0.43289
6.14,0.58865
6.144,0.84707
6.148,0.99605
6.152,1.05983
6.156,0.90276
6.16,0.80509
6.164,0.52615
6.168,0.27786
6.172,0.15264
6.176,-0.04896
6.18,-0.17194
6.184,-0.12525
6.188,-0.09093
6.192,-0.13004
6.196,-0.12165
6.2,-0.00208
6.204,-0.00133
6.208,0.02283
6.212,-0.03918
6.216,0.02498
6.22,0.00391
6.224,0.00892
6.228,0.02877
6.232,0.03305
6.236,0.05718
6.24,0.02425
6.244,0.08093
6.248,0.02921
6.252,0.06461
6.256,0.05272
6.26,0.0885
6.264,0.11397
6.268,0.12233
6.272,0.06828
6.276,0.13545
6.28,0.10512
6.284,0.06743
6.288,0.07944
6.292,0.05512
6.296,0.06177
6.3,0.07197
6.304,0.05886
6.308,0.04458
6.312,0.05175
6.316,0.0174
6.32,0.00783
6.324,-0.00597
6.328,-0.03466
6.332,0.03609
6.336,0.01415
6.34,-0.02044
6.344,0.04813
6.348,0.08152
6.352,0.11921
6.356,0.076
6.36,0.10177
6.364,0.09203
6.368,0.0771
6.372,0.04443
6.376,0.10069
6.38,0.08569
6.384,0.12272
6.388,0.18565
6.392,0.11908
6.396,0.0354
6.4,0.08762
6.404,0.10692
6.408,0.25466
6.412,0.4162
6.416,0.54773
6.42,0.74186
6.424,0.9911
6.428,1.07837
6.432,1.25103
6.436,1.20878
6.44,1.00459
6.444,0.87393
6.448,0.61199
6.452,0.36804
6.456,0.16556
6.46,0.1233
6.464,0.01544
6.468,0.00673
6.472,0.08546
6.476,0.03287
6.48,0.06468
6.484,0.17543
6.488,0.11143
6.492,0.14163
6.496,0.10277
6.5,0.14759
6.504,0.15146
6.508,0.08827
6.512,0.13221
6.516,0.11473
6.52,0.23054
6.524,0.11442
6.528,0.08895
6.532,0.11189
6.536,0.06159
6.54,0.10867
6.544,0.04228
6.548,0.10818
6.552,0.04394
6.556,0.01224
6.56,0.0545
6.564,0.05723
6.568,0.03615
6.572,0.08393
6.576,-0.00384
6.58,0.07733
6.584,0.01329
6.588,-0.01303
6.592,-0.01907
6.596,-0.00129
6.6,-0.02884
6.604,0.05806
6.608,0.03919
6.612,0.0184
6.616,0.05485
6.62,0.04986
6.624,0.04131
6.628,0.05811
6.632,0.09795
6.636,0.07593
6.64,0.02094
6.644,0.00684
6.648,-0.01018
6.652,0.0104
6.656,0.10821
6.66,0.19789
6.664,0.326
6.668,0.59449
6.672,0.80612
6.676,1.00109
6.68,1.20171
6.684,1.14447
6.688,1.11276
6.692,0.97172
6.696,0.72455
6.7,0.54722
6.704,0.30364
6.708,0.17765
6.712,0.13702
6.716,0.03671
6.72,0.09883
6.724,0.09011
6.728,0.12385
6.732,0.1901
6.736,0.19939
6.74,0.21596
6.744,0.19046
6.748,0.07622
6.752,0.12288
6.756,0.16337
6.76,0.1358
6.764,0.14004
6.768,0.1078
6.772,0.12018
6.776,0.08022
6.78,0.06356
6.784,0.0926
6.788,0.13251
6.792,0.10215
6.796,0.04397
6.8,0.03014
6.804,0.07248
6.808,-0.02199
6.812,0.02507
6.816,0.04626
6.82,0.05324
6.824,-0.01973
6.828,0.02012
6.832,0.00356
6.836,-0.01347
6.84,0.0133
6.844,0.03888
6.848,0.01222
6.852,0.0015
6.856,-0.00117
6.86,0.07033
6.864,0.00451
6.868,0.02575
6.872,-0.00645
6.876,0.03753
6.88,0.02814
6.884,0.10834
6.888,0.05544
6.892,0.0745
6.896,0.11984
6.9,0.19938
6.904,0.1059
6.908,0.19107
6.912,0.17962
6.916,0.19393
6.92,0.23663
6.924,0.27291
6.928,0.30657
6.932,0.33377
6.936,0.37335
6.94,0.32678
6.944,0.33842
6.948,0.32679
6.952,0.32969
6.956,0.29495
6.96,0.29101
6.964,0.28326
6.968,0.31056
6.972,0.30852
6.976,0.24916
6.98,0.19144
6.984,0.20607
6.988,0.2778
6.992,0.19012
6.996,0.26291
7.0,0.21893
7.004,0.16944
7.008,0.12447
7.012,0.15857
7.016,0.07706
7.02,0.13534
7.024,0.12342
7.028,0.07295
7.032,0.07664
7.036,0.07738
7.04,0.0871
7.044,0.13047
7.048,0.07008
7.052,0.0809
7.056,0.04024
7.06,0.03135
7.064,-0.00736
7.068,-0.1365
7.072,-0.11691
7.076,-0.03114
7.08,0.16945
7.084,0.22323
7.088,0.50663
7.092,0.69223
7.096,0.84431
7.1,0.97835
7.104,1.00097
7.108,0.94846
7.112,0.69311
7.116,0.46291
7.12,0.28614
7.124,0.09107
7.128,-0.08593
7.132,-0.13092
7.136,-0.11194
7.14,-0.08175
7.144,-0.06535
7.148,0.00801
7.152,0.03114
7.156,0.05554
7.16,0.05673
7.164,0.06844
7.168,0.09531
7.172,0.12752
7.176,0.0505
7.18,0.07587
7.184,0.0615
7.188,0.13531
7.192,0.10805
7.196,0.15826
7.2,0.15694
7.204,0.07609
7.208,0.20108
7.212,0.10181
7.216,0.04363
7.22,0.10958
7.224,0.10338
7.228,0.05507
7.232,0.0337
7.236,0.00033
7.24,0.01916
7.244,0.03139
7.248,0.0709
7.252,0.0118
7.256,0.01649
7.26,0.0158
7.264,0.05984
7.268,0.11039
7.272,0.08287
7.276,0.0104
7.28,-0.001
7.284,0.0391
7.288,-0.04042
7.292,0.06613
7.296,0.00981
7.3,0.04604
7.304,0.02446
7.308,0.03329
7.312,0.03786
7.316,0.05595
7.32,0.01722
7.324,0.00431
7.328,0.07198
7.332,0.17122
7.336,0.35429
7.34,0.42765
7.344,0.59699
7.348,0.70052
7.352,0.75387
7.356,0.67907
7.36,0.64044
7.364,0.61083
7.368,0.35239
7.372,0.26355
7.376,0.15827
7.38,0.12773
7.384,0.04186
7.388,0.07858
7.392,0.14829
7.396,0.1744
7.4,0.20432
7.404,0.2292
7.408,0.21881
7.412,0.18762
7.416,0.24838
7.42,0.20439
7.424,0.17107
7.428,0.16408
7.432,0.1935
7.436,0.20231
7.44,0.09869
7.444,0.11905
7.448,0.17333
7.452,0.03603
7.456,0.05927
7.46,0.05763
7.464,0.08357
7.468,0.07662
7.472,0.11611
7.476,0.03387
7.48,0.07877
7.484,0.06922
7.488,0.06464
7.492,0.03914
7.496,0.12956
7.5,0.08214
7.504,0.10794
7.508,0.12386
7.512,0.07295
7.516,0.08424
7.52,0.09782
7.524,0.12238
7.528,0.18366
7.532,0.15007
7.536,0.12889
7.54,0.11566
7.544,0.20654
7.548,0.07074
7.552,0.15977
7.556,0.12436
7.56,0.16049
7.564,0.06326
7.568,0.16638
7.572,0.15068
7.576,0.1161
7.58,0.18062
7.584,0.13276
7.588,0.15872
7.592,0.23437
7.596,0.17439
7.6,0.21037
7.604,0.25191
7.608,0.21945
7.612,0.24695
7.616,0.26644
7.62,0.22675
7.624,0.25577
7.628,0.21877
7.632,0.22885
7.636,0.16869
7.64,0.25955
7.644,0.2214
7.648,0.14082
7.652,0.11238
7.656,0.09708
7.66,0.21087
7.664,0.27753
7.668,0.40434
7.672,0.64507
7.676,0.85481
7.68,1.0394
7.684,1.14871
7.688,1.13108
7.692,1.02066
7.696,0.7704
7.7,0.59913
7.704,0.30206
7.708,0.12494
7.712,0.01486
7.716,-0.0107
7.72,-0.09356
7.724,-0.09039
7.728,-0.10581
7.732,0.01049
7.736,0.0614
7.74,-0.05527
7.744,0.08631
7.748,-0.02693
7.752,-0.03094
7.756,0.01981
7.76,0.02655
7.764,0.04384
7.768,0.06909
7.772,0.0379
7.776,0.02898
7.78,0.009
7.784,0.04609
7.788,0.00137
7.792,0.05794
7.796,0.00736
7.8,0.02552
7.804,0.02191
7.808,0.03346
7.812,0.05205
7.816,0.00953
7.82,-0.03015
7.824,0.06155
7.828,0.01007
7.832,0.01628
7.836,-0.01351
7.84,0.0833
7.844,0.03907
7.848,-0.06621
7.852,0.04741
7.856,0.00185
7.86,0.02594
7.864,0.01636
7.868,0.08814
7.872,0.13987
7.876,0.02514
7.88,0.06491
7.884,0.10497
7.888,0.10778
7.892,0.14224
7.896,0.0805
7.9,0.07785
7.904,0.15397
7.908,0.10982
7.912,0.13959
7.916,0.13464
7.92,0.19919
7.924,0.13645
7.928,0.13344
7.932,0.19233
7.936,0.25649
7.94,0.17599
7.944,0.25461
7.948,0.25421
7.952,0.25147
7.956,0.2693
7.96,0.26931
7.964,0.23969
7.968,0.28964
7.972,0.27655
7.976,0.31082
7.98,0.21451
7.984,0.15688
7.988,0.18491
7.992,0.19149
7.996,0.18271
8.0,0.18575
8.004,0.15401
8.008,0.13395
8.012,0.13784
8.016,0.16838
8.02,0.13288
8.024,0.13324
8.028,0.14385
8.032,0.09681
8.036,0.08589
8.04,0.05442
8.044,0.06219
8.048,0.09422
8.052,0.09519
8.056,0.09267
8.06,0.07845
8.064,0.07667
8.068,0.06688
8.072,0.07049
8.076,0.08152
8.08,0.08547
8.084,0.10932
8.088,0.0884
8.092,0.12585
8.096,0.17009
8.1,0.12246
8.104,0.05837
8.108,0.15634
8.112,0.07038
8.116,0.11555
8.12,0.10502
8.124,0.0309
8.128,0.06234
8.132,-0.02016
8.136,0.01842
8.14,0.08332
8.144,0.01287
8.148,0.0331
8.152,0.012
8.156,0.03978
8.16,-0.04458
8.164,0.02971
8.168,0.01738
8.172,0.07828
8.176,0.00774
8.18,0.03258
8.184,-0.05159
8.188,-0.05369
8.192,0.02359
8.196,0.01309
8.2,0.07305
8.204,-0.01533
8.208,0.02822
8.212,0.03488
8.216,-0.02914
8.22,-0.05789
8.224,-0.16138
8.228,-0.06031
8.232,0.07853
8.236,0.29431
8.24,0.39885
8.244,0.6598
8.248,0.89851
8.252,1.05534
8.256,1.03984
8.26,0.8892
8.264,0.7387
8.268,0.54178
8.272,0.31302
8.276,0.1369
8.28,-0.05875
8.284,-0.08552
8.288,-0.19654
8.292,-0.11942
8.296,-0.11229
8.3,-0.0936
8.304,-0.06534
8.308,0.08985
8.312,0.02425
8.316,-0.04597
8.32,0.06865
8.324,0.00955
8.328,0.05043
8.332,0.05714
8.336,-0.02711
8.34,-0.02479
8.344,0.03342
8.348,0.04222
8.352,-0.01964
8.356,0.04659
8.36,-0.02863
8.364,0.06983
8.368,0.06203
8.372,0.03199
8.376,0.03462
8.38,0.00755
8.384,0.05562
8.388,0.00452
8.392,0.06355
8.396,-0.0039
8.4,0.00805
8.404,0.00663
8.408,0.04679
8.412,0.03597
8.416,0.0235
8.42,0.17214
8.424,0.02002
8.428,0.00535
8.432,0.04164
8.436,0.05222
8.44,0.04086
8.444,0.04313
8.448,0.13592
8.452,0.04928
8.456,0.08533
8.46,0.11279
8.464,0.04332
8.468,0.09313
8.472,0.08177
8.476,0.10782
8.48,0.07442
8.484,0.1227
8.488,0.15191
8.492,0.13499
8.496,0.18274
8.5,0.20748
8.504,0.23386
8.508,0.21873
8.512,0.15143
8.516,0.19295
8.52,0.20732
8.524,0.21008
8.528,0.21248
8.532,0.21684
8.536,0.21479
8.54,0.25772
8.544,0.20349
8.548,0.24659
8.552,0.25534
8.556,0.29054
8.56,0.22762
8.564,0.21296
8.568,0.15439
8.572,0.19971
8.576,0.19079
8.58,0.13266
8.584,0.18242
8.588,0.14416
8.592,0.09689
8.596,0.1375
8.6,0.23274
8.604,0.18883
8.608,0.14294
8.612,0.16561
8.616,0.14191
8.62,0.12972
8.624,0.10166
8.628,0.1602
8.632,0.14021
8.636,0.10306
8.64,0.08661
8.644,0.07256
8.648,0.00923
8.652,0.01311
8.656,0.02701
8.66,0.05153
8.664,-0.01207
8.668,-0.01624
8.672,0.11421
8.676,-0.00899
8.68,0.00153
8.684,0.04698
8.688,-0.01796
8.692,0.02359
8.696,-0.0343
8.7,0.01373
8.704,0.07261
8.708,0.01278
8.712,-0.01723
8.716,-0.05173
8.72,0.04137
8.724,0.06229
8.728,0.02625
8.732,0.00876
8.736,-0.05056
8.74,-0.06207
8.744,-0.1345
8.748,-0.14684
8.752,-0.1054
8.756,0.13077
8.76,0.27363
8.764,0.50194
8.768,0.77387
8.772,0.96221
8.776,0.99156
8.78,0.98839
8.784,0.90175
8.788,0.69833
8.792,0.45526
8.796,0.19012
8.8,0.04844
8.804,-0.0899
8.808,-0.15472
8.812,-0.15922
8.816,-0.14395
8.82,-0.1088
8.824,-0.05297
8.828,-0.01419
8.832,-0.04701
8.836,-0.05115
8.84,-0.00737
8.844,0.03415
8.848,0.03172
8.852,-0.00323
8.856,0.02103
8.86,-0.02909
8.864,-0.06776
8.868,-0.0092
8.872,-0.0512
8.876,0.00813
8.88,0.00717
8.884,0.07084
8.888,-0.00673
8.892,0.03431
8.896,-0.00934
8.9,-0.02776
8.904,-0.05915
8.908,0.0066
8.912,0.03526
8.916,-0.04644
8.92,0.01443
8.924,-0.04472
8.928,0.07084
8.932,-0.03419
8.936,0.01378
8.94,-0.03445
8.944,-0.00308
8.948,0.03136
8.952,0.02814
8.956,0.0558
8.96,0.01222
8.964,0.0426
8.968,0.08874
8.972,-0.0096
8.976,0.0515
8.98,0.00988
8.984,0.12591
8.988,0.05277
8.992,0.08798
8.996,0.10167
9.0,0.10377
9.004,0.09785
9.008,0.16549
9.012,0.11394
9.016,0.15232
9.02,0.1793
9.024,0.18008
9.028,0.16272
9.032,0.22012
9.036,0.20196
9.04,0.22547
9.044,0.24324
9.048,0.20309
9.052,0.22164
9.056,0.18751
9.06,0.18278
9.064,0.2501
9.068,0.24126
9.072,0.18559
9.076,0.17325
9.08,0.17103
9.084,0.13022
9.088,0.15633
9.092,0.15458
9.096,0.10199
9.1,0.11864
9.104,0.11662
9.108,0.19025
9.112,0.16042
9.116,0.13741
9.12,0.16103
9.124,0.15602
9.128,0.09988
9.132,0.09391
9.136,0.17523
9.14,0.10213
9.144,0.18012
9.148,0.11865
9.152,0.13378
9.156,0.13088
9.16,0.14528
9.164,0.06933
9.168,0.05041
9.172,-0.00826
9.176,-0.04671
9.18,0.0666
9.184,0.00734
9.188,0.01145
9.192,0.07645
9.196,0.01541
9.2,0.02948
9.204,0.02756
9.208,-0.05084
9.212,0.03186
9.216,0.01971
9.22,0.00298
9.224,-0.03921
9.228,0.04106
9.232,0.01018
9.236,0.02013
9.24,0.0118
9.244,-0.08108
9.248,0.01925
9.252,0.05159
9.256,0.04766
9.26,-0.01521
9.264,0.00461
9.268,-0.00938
9.272,-0.09274
9.276,-0.13721
9.28,-0.09409
9.284,0.02599
9.288,0.04908
9.292,0.3266
9.296,0.55354
9.3,0.80151
9.304,0.93345
9.308,0.96968
9.312,0.93172
9.316,0.82905
9.32,0.66233
9.324,0.39914
9.328,0.16738
9.332,-0.08285
9.336,-0.0601
9.34,-0.19916
9.344,-0.18515
9.348,-0.15008
9.352,-0.09308
9.356,-0.08383
9.36,-0.05366
9.364,-0.01093
9.368,-0.02567
9.372,0.01599
9.376,0.0163
9.38,0.04933
9.384,-0.02431
9.388,-0.02999
9.392,0.00929
9.396,-0.05989
9.4,-0.04529
9.404,0.04684
9.408,-0.01715
9.412,-0.02168
9.416,-0.04461
9.42,-0.02926
9.424,0.04755
9.428,-0.05918
9.432,-0.00741
9.436,-0.02897
9.44,-0.06375
9.444,0.0124
9.448,-0.00792
9.452,0.03567
9.456,0.00602
9.46,0.03502
9.464,-0.00714
9.468,-0.03104
9.472,0.02943
9.476,-0.00469
9.48,0.00367
9.484,0.04374
9.488,-0.02465
9.492,0.04826
9.496,0.02618
9.5,-0.02824
9.504,0.05731
9.508,0.02459
9.512,0.06072
9.516,0.05423
9.52,0.06217
9.524,0.07118
9.528,-0.00978
9.532,0.05788
9.536,0.12509
9.54,0.15389
9.544,0.10109
9.548,0.1389
9.552,0.06882
9.556,0.17464
9.56,0.19627
9.564,0.15336
9.568,0.20817
9.572,0.24173
9.576,0.22615
9.58,0.23831
9.584,0.235
9.588,0.25358
9.592,0.32619
9.596,0.26059
9.6,0.30867
9.604,0.29397
9.608,0.27841
9.612,0.25009
9.616,0.27605
9.62,0.26829
9.624,0.2559
9.628,0.16429
9.632,0.18173
9.636,0.13035
9.64,0.09716
9.644,0.10756
9.648,0.05016
9.652,0.12728
9.656,0.11583
9.66,0.07157
9.664,0.05346
9.668,0.00827
9.672,-0.01888
9.676,-0.01917
9.68,0.0487
9.684,-0.00549
9.688,0.00573
9.692,-0.01775
9.696,-0.00072
9.7,-0.02533
9.704,0.00913
9.708,0.01479
9.712,-0.0515
9.716,-0.06207
9.72,-0.10214
9.724,-0.16257
9.728,-0.13094
9.732,-0.08022
9.736,0.04943
9.74,0.29866
9.744,0.44506
9.748,0.69355
9.752,0.88325
9.756,1.00088
9.76,0.94465
9.764,0.84066
9.768,0.73418
9.772,0.44748
9.776,0.19022
9.78,0.02386
9.784,-0.16105
9.788,-0.21978
9.792,-0.19813
9.796,-0.17917
9.8,-0.09474
9.804,-0.05512
9.808,-0.03113
9.812,-0.004
9.816,0.03381
9.82,-0.03984
9.824,-0.04447
9.828,0.0358
9.832,0.01614
9.836,-0.03804
9.84,9e-05
9.844,-0.06195
9.848,-0.02405
9.852,-0.0485
9.856,0.02296
9.86,-0.03932
9.864,0.01562
9.868,-0.03319
9.872,-0.04595
9.876,-0.0561
9.88,0.03869
9.884,-0.02272
9.888,-0.03189
9.892,0.01635
9.896,-0.02971
9.9,-0.01304
9.904,0.01501
9.908,-0.01808
9.912,-0.00888
9.916,0.00207
9.92,0.01287
9.924,-0.03567
9.928,-0.03959
9.932,0.00157
9.936,-0.01491
9.94,-0.06205
9.944,-0.00122
9.948,-0.01176
9.952,-0.00127
9.956,0.03181
9.96,0.01164
9.964,0.0488
9.968,0.0406
9.972,0.09125
9.976,0.0135
9.98,0.02457
9.984,0.06099
9.988,0.14183
9.992,0.13066
9.996,0.09113
