t_seg,ecg_mV
0.0,-0.01861
0.004,0.00567
0.008,-0.01859
0.012,-0.00881
0.016,-0.02384
0.02,-0.00629
0.024,-0.02999
0.028,-0.00588
0.032,-0.03057
0.036,-0.01645
0.04,0.01901
0.044,-0.0293
0.048,-0.01338
0.052,-0.01429
0.056,-0.00031
0.06,-0.01259
0.064,-0.04087
0.068,-0.01257
0.072,-0.03372
0.076,-0.03849
0.08,-0.02041
0.084,-0.02036
0.088,-0.02843
0.092,-0.00022
0.096,0.01416
0.1,-0.02658
0.104,0.00364
0.108,0.0079
0.112,-0.02291
0.116,-0.01699
0.12,0.00455
0.124,0.00609
0.128,-0.0263
0.132,-0.01749
0.136,-0.0258
0.14,-0.00207
0.144,-0.0197
0.148,-0.0022
0.152,-0.01497
0.156,-0.01393
0.16,-0.03411
0.164,0.00455
0.168,-0.04856
0.172,-0.01292
0.176,-0.01573
0.18,0.00167
0.184,0.00461
0.188,-0.01547
0.192,-0.007
0.196,-0.01469
0.2,0.00492
0.204,-0.00306
0.208,-0.02927
0.212,-0.02967
0.216,-0.01941
0.22,0.00499
0.224,-0.02282
0.228,-0.01466
0.232,-0.01225
0.236,-0.03552
0.24,0.01972
0.244,-0.02427
0.248,-0.01498
0.252,-0.00046
0.256,0.00593
0.26,-0.01846
0.264,0.01683
0.268,-0.02383
0.272,0.01379
0.276,-0.0141
0.28,0.00249
0.284,-0.0207
0.288,-0.0362
0.292,-0.02624
0.296,-0.01644
0.3,-0.01379
0.304,-0.01815
0.308,0.00729
0.312,-0.01346
0.316,-0.0262
0.32,-0.02082
0.324,-0.00439
0.328,-0.02843
0.332,-0.01887
0.336,-0.01463
0.34,-0.02508
0.344,-0.01384
0.348,-0.01711
0.352,-0.03956
0.356,0.0033
0.36,-0.02928
0.364,-0.03482
0.368,-0.01562
0.372,-0.02138
0.376,-0.01049
0.38,-0.02688
0.384,-0.00895
0.388,0.00641
0.392,-0.05329
0.396,-0.02986
0.4,-0.0163
0.404,-0.02143
0.408,-0.01368
0.412,-0.02572
0.416,-0.03276
0.42,-0.0305
0.424,-0.03835
0.428,-0.02919
0.432,-0.02903
0.436,-0.03157
0.44,-0.00719
0.444,-0.01915
0.448,-0.00586
0.452,-0.02116
0.456,-0.0449
0.46,-0.0073
0.464,-0.03049
0.468,-0.03116
0.472,-0.01212
0.476,-0.0052
0.48,-0.01629
0.484,-0.00142
0.488,-0.06164
0.492,-0.0206
0.496,-0.02407
0.5,-0.00095
0.504,-0.02144
0.508,-0.01612
0.512,-0.01566
0.516,-0.03957
0.52,-0.00925
0.524,-0.03355
0.528,-0.04298
0.532,-0.00556
0.536,0.00504
0.54,0.00553
0.544,-0.01748
0.548,-0.01161
0.552,-0.00109
0.556,-0.00482
0.56,-0.01053
0.564,-0.03118
0.568,-0.01239
0.572,-0.01373
0.576,0.00586
0.58,-0.01623
0.584,-0.03471
0.588,-0.00167
0.592,-0.0269
0.596,-0.02433
0.6,-0.02844
0.604,0.0035
0.608,-0.02734
0.612,-0.01897
0.616,-0.00628
0.62,-0.03277
0.624,-0.033
0.628,-0.01059
0.632,-0.01635
0.636,-0.02945
0.64,-0.02178
0.644,-0.03004
0.648,-0.01087
0.652,-0.03626
0.656,-0.02884
0.66,-0.03104
0.664,-0.01677
0.668,-0.01916
0.672,-0.01561
0.676,-0.00026
0.68,-0.02595
0.684,-0.00562
0.688,-0.00518
0.692,-0.01662
0.696,0.01067
0.7,-0.00626
0.704,0.03818
0.708,0.04301
0.712,0.05635
0.716,0.05702
0.72,0.03758
0.724,0.0696
0.728,0.09604
0.732,0.08148
0.736,0.06072
0.74,0.0657
0.744,0.04976
0.748,0.02363
0.752,0.03472
0.756,0.01794
0.76,0.01706
0.764,0.02622
0.768,-0.00881
0.772,-0.00873
0.776,-0.00361
0.78,-0.0177
0.784,-0.04005
0.788,-0.0223
0.792,-0.0115
0.796,-0.03273
0.8,-0.03952
0.804,-0.03141
0.808,0.00708
0.812,-0.03459
0.816,-0.08349
0.82,-0.0283
0.824,-0.02895
0.828,-0.03577
0.832,-0.02723
0.836,-0.02937
0.84,-0.02978
0.844,-0.04438
0.848,-0.09606
0.852,-0.11174
0.856,-0.16371
0.86,-0.11779
0.864,-0.07963
0.868,0.03887
0.872,0.22262
0.876,0.41837
0.88,0.63751
0.884,0.8165
0.888,0.97637
0.892,0.96449
0.896,0.86149
0.9,0.69201
0.904,0.4669
0.908,0.23439
0.912,0.02836
0.916,-0.09209
0.92,-0.17808
0.924,-0.16788
0.928,-0.21161
0.932,-0.14113
0.936,-0.0723
0.94,-0.06699
0.944,-0.05412
0.948,-0.02502
0.952,-0.04228
0.956,-0.02212
0.96,-0.03387
0.964,-0.04531
0.968,-0.02441
0.972,-0.02489
0.976,-0.01771
0.98,-0.02084
0.984,-0.02994
0.988,-0.00694
0.992,-0.02079
0.996,-0.00589
1.0,-0.05889
1.004,-0.02008
1.008,-0.02726
1.012,-0.02222
1.016,-0.00072
1.02,-0.02069
1.024,-0.04299
1.028,-0.03732
1.032,-0.01302
1.036,-0.02047
1.04,-0.01992
1.044,-0.02324
1.048,-0.02351
1.052,-0.02236
1.056,-0.03482
1.06,-0.00984
1.064,-0.04576
1.068,-0.0314
1.072,0.00258
1.076,-0.00326
1.08,0.00863
1.084,-0.0034
1.088,0.00548
1.092,0.01925
1.096,0.02105
1.1,0.05708
1.104,0.03113
1.108,0.04774
1.112,0.07408
1.116,0.05949
1.12,0.11175
1.124,0.10242
1.128,0.11007
1.132,0.15383
1.136,0.17128
1.14,0.12803
1.144,0.16594
1.148,0.1728
1.152,0.16313
1.156,0.20628
1.16,0.17754
1.164,0.1773
1.168,0.17302
1.172,0.20362
1.176,0.18087
1.18,0.21256
1.184,0.17645
1.188,0.19502
1.192,0.17436
1.196,0.15378
1.2,0.16588
1.204,0.12079
1.208,0.15448
1.212,0.11673
1.216,0.10685
1.22,0.0992
1.224,0.073
1.228,0.04638
1.232,0.05508
1.236,0.02592
1.24,0.02887
1.244,0.02402
1.248,0.01701
1.252,0.01108
1.256,0.01509
1.26,0.03068
1.264,0.0049
1.268,-0.01027
1.272,-0.01772
1.276,-0.02681
1.28,-0.02089
1.284,-0.02382
1.288,-0.01988
1.292,-0.02547
1.296,-0.01765
1.3,-0.02426
1.304,-0.01582
1.308,-0.03076
1.312,-0.03982
1.316,-0.05786
1.32,-0.02945
1.324,-0.00902
1.328,-0.03418
1.332,0.00525
1.336,-0.01201
1.34,-0.02725
1.344,-0.03471
1.348,-0.03074
1.352,-0.03055
1.356,-0.02241
1.36,-0.05633
1.364,-0.00545
1.368,-0.04599
1.372,-0.0244
1.376,-0.02644
1.38,-0.0297
1.384,-0.02002
1.388,-0.01057
1.392,-0.02309
1.396,-0.0286
1.4,-0.02562
1.404,-0.03722
1.408,-0.02333
1.412,-0.01423
1.416,-0.05026
1.42,-0.01007
1.424,-0.03922
1.428,-0.02664
1.432,-0.01203
1.436,-0.03071
1.44,-0.00701
1.444,-0.0476
1.448,-0.02508
1.452,-0.03811
1.456,-0.02589
1.46,-0.03017
1.464,-0.05531
1.468,-0.03228
1.472,-0.02653
1.476,-0.03995
1.48,-0.02743
1.484,-0.03375
1.488,-0.0533
1.492,-0.02294
1.496,-0.05015
1.5,-0.03994
1.504,-0.03117
1.508,-0.05859
1.512,-0.03101
1.516,-0.03315
1.52,-0.03252
1.524,-0.01698
1.528,-0.01511
1.532,-0.00825
1.536,-0.06298
1.54,-0.0431
1.544,-0.03182
1.548,-0.01979
1.552,-0.02131
1.556,-0.02226
1.56,-0.03987
1.564,-0.01946
1.568,-0.03108
1.572,-0.04317
1.576,-0.03206
1.58,-0.02777
1.584,-0.01809
1.588,-0.04463
1.592,-0.05045
1.596,-0.01836
1.6,-0.0471
1.604,-0.03461
1.608,-0.04264
1.612,-0.03974
1.616,-0.04396
1.62,-0.05234
1.624,-0.01679
1.628,-0.03376
1.632,-0.01046
1.636,-0.00424
1.64,-0.04707
1.644,-0.04656
1.648,-0.03225
1.652,-0.01176
1.656,-0.01152
1.66,-0.0287
1.664,-0.0515
1.668,-0.0204
1.672,-0.01556
1.676,-0.01769
1.68,-0.03974
1.684,-0.01739
1.688,-0.02611
1.692,-0.01061
1.696,0.00304
1.7,0.00702
1.704,0.00591
1.708,0.02741
1.712,0.02506
1.716,0.03417
1.72,0.0253
1.724,0.04633
1.728,0.0749
1.732,0.06462
1.736,0.09147
1.74,0.05713
1.744,0.05182
1.748,0.06851
1.752,0.01536
1.756,0.029
1.76,0.01422
1.764,0.00475
1.768,-0.00455
1.772,-0.00084
1.776,-0.0462
1.78,-0.05401
1.784,-0.02293
1.788,-0.03557
1.792,-0.04647
1.796,-0.04088
1.8,-0.00891
1.804,-0.04779
1.808,0.00126
1.812,-0.03599
1.816,-0.03348
1.82,-0.0214
1.824,-0.02944
1.828,-0.05544
1.832,-0.03134
1.836,-0.03755
1.84,-0.02576
1.844,-0.05004
1.848,-0.04769
1.852,-0.08057
1.856,-0.13633
1.86,-0.1303
1.864,-0.10211
1.868,-0.05769
1.872,0.06736
1.876,0.24482
1.88,0.45903
1.884,0.68902
1.888,0.87414
1.892,0.99184
1.896,0.96536
1.9,0.82411
1.904,0.66549
1.908,0.42481
1.912,0.1742
1.916,-0.00616
1.92,-0.11499
1.924,-0.17686
1.928,-0.19111
1.932,-0.16246
1.936,-0.13756
1.94,-0.0553
1.944,-0.04064
1.948,-0.03652
1.952,-0.03848
1.956,-0.03011
1.96,-0.02562
1.964,0.01155
1.968,-0.00932
1.972,-0.03754
1.976,-0.03077
1.98,-0.0262
1.984,-0.03775
1.988,-0.04241
1.992,-0.04622
1.996,-0.04801
2.0,-0.04402
2.004,0.00092
2.008,-0.04052
2.012,-0.02226
2.016,-0.04807
2.02,-0.03521
2.024,-0.03916
2.028,-0.02753
2.032,-0.03308
2.036,-0.01852
2.04,-0.02091
2.044,-0.0107
2.048,-0.02397
2.052,-0.01759
2.056,-0.02901
2.06,-0.02621
2.064,-0.03639
2.068,-0.02017
2.072,-0.01973
2.076,-0.0265
2.08,0.0015
2.084,0.02026
2.088,-0.00534
2.092,0.0099
2.096,0.03792
2.1,0.05593
2.104,0.06508
2.108,0.04868
2.112,0.0713
2.116,0.07132
2.12,0.09976
2.124,0.10043
2.128,0.10881
2.132,0.12102
2.136,0.13691
2.14,0.16065
2.144,0.16853
2.148,0.15979
2.152,0.18687
2.156,0.17019
2.16,0.20706
2.164,0.17797
2.168,0.19557
2.172,0.19929
2.176,0.19428
2.18,0.2024
2.184,0.19685
2.188,0.20213
2.192,0.18003
2.196,0.16093
2.2,0.1246
2.204,0.15451
2.208,0.13111
2.212,0.12012
2.216,0.137
2.22,0.09593
2.224,0.10595
2.228,0.09544
2.232,0.10899
2.236,0.08067
2.24,0.0502
2.244,0.03826
2.248,0.0162
2.252,0.02868
2.256,0.01907
2.26,0.02256
2.264,0.02576
2.268,0.01085
2.272,-0.00632
2.276,-0.03095
2.28,0.0046
2.284,0.00074
2.288,-0.00541
2.292,-0.00748
2.296,-0.03419
2.3,-0.01283
2.304,0.00396
2.308,-0.03745
2.312,-0.0154
2.316,0.00788
2.32,-0.02046
2.324,-0.00434
2.328,-0.01077
2.332,-0.0403
2.336,-0.0341
2.34,-0.04203
2.344,0.00262
2.348,0.00763
2.352,-0.01111
2.356,-0.01268
2.36,-0.03099
2.364,-0.01839
2.368,-0.04222
2.372,-0.00611
2.376,-0.00792
2.38,0.00571
2.384,-0.00279
2.388,-0.02256
2.392,-0.00717
2.396,-0.01879
2.4,-0.00628
2.404,-0.00669
2.408,-0.00775
2.412,-0.00151
2.416,-0.00379
2.42,-0.03895
2.424,-0.03893
2.428,-0.0003
2.432,-0.04272
2.436,-0.03857
2.44,-0.01645
2.444,0.00617
2.448,-0.00188
2.452,-0.00359
2.456,-0.02144
2.46,-0.00252
2.464,-0.01438
2.468,-0.02267
2.472,-0.00793
2.476,-0.03243
2.48,-0.00331
2.484,-0.03547
2.488,-0.02721
2.492,-0.02535
2.496,0.02763
2.5,0.00294
2.504,0.00037
2.508,-0.03287
2.512,-0.01324
2.516,-0.0057
2.52,-0.05617
2.524,-0.03201
2.528,0.01298
2.532,0.0003
2.536,-0.01348
2.54,-0.00553
2.544,-0.01546
2.548,0.00045
2.552,-0.02447
2.556,-0.02456
2.56,-0.00289
2.564,0.00528
2.568,-0.00742
2.572,0.00615
2.576,-0.00444
2.58,-0.03825
2.584,0.00093
2.588,0.00939
2.592,-0.0173
2.596,-0.01401
2.6,-0.01003
2.604,0.00345
2.608,-0.02757
2.612,-0.01695
2.616,-0.04092
2.62,-0.03945
2.624,-0.02796
2.628,-0.02954
2.632,0.00559
2.636,-0.01714
2.64,-0.00059
2.644,-0.00834
2.648,-0.03494
2.652,-0.00198
2.656,0.01012
2.66,-0.03261
2.664,-0.01373
2.668,-0.00507
2.672,-0.01551
2.676,-0.01916
2.68,-0.02957
2.684,-0.01784
2.688,0.02329
2.692,0.01642
2.696,0.00493
2.7,0.02029
2.704,0.0059
2.708,-0.01208
2.712,-0.01564
2.716,0.00455
2.72,0.01225
2.724,0.01636
2.728,0.0123
2.732,0.03936
2.736,0.06026
2.74,0.04261
2.744,0.06625
2.748,0.04808
2.752,0.12391
2.756,0.12715
2.76,0.08604
2.764,0.10122
2.768,0.06522
2.772,0.08903
2.776,0.08736
2.78,0.04718
2.784,0.05048
2.788,0.02851
2.792,0.02869
2.796,0.00167
2.8,-0.00609
2.804,0.00184
2.808,0.00522
2.812,-0.03374
2.816,-0.02486
2.82,-0.00931
2.824,0.00186
2.828,-6e-05
2.832,-0.02288
2.836,0.00284
2.84,-0.0125
2.844,0.02029
2.848,-0.01221
2.852,-0.01495
2.856,-0.01204
2.86,-0.02795
2.864,-0.0203
2.868,-0.00648
2.872,0.00763
2.876,-0.04699
2.88,-0.03276
2.884,-0.10216
2.888,-0.1035
2.892,-0.09748
2.896,0.00175
2.9,0.12314
2.904,0.33245
2.908,0.51889
2.912,0.74814
2.916,0.91187
2.92,0.98303
2.924,0.93749
2.928,0.82773
2.932,0.63823
2.936,0.36639
2.94,0.17308
2.944,-0.00925
2.948,-0.12199
2.952,-0.18251
2.956,-0.16691
2.96,-0.11191
2.964,-0.08506
2.968,-0.06552
2.972,-0.03025
2.976,-0.02608
2.98,0.00095
2.984,-0.01739
2.988,0.00503
2.992,-0.01627
2.996,0.00303
3.0,-8e-05
3.004,0.01966
3.008,0.00438
3.012,0.02291
3.016,-0.01839
3.02,0.0109
3.024,-0.00045
3.028,0.0142
3.032,-0.01379
3.036,-0.00241
3.04,0.00436
3.044,-0.0132
3.048,0.02529
3.052,0.00587
3.056,0.01059
3.06,0.03659
3.064,0.01441
3.068,0.01387
3.072,0.00736
3.076,-0.00019
3.08,0.01009
3.084,0.01646
3.088,0.00386
3.092,0.01936
3.096,0.00474
3.1,0.00657
3.104,0.03903
3.108,0.03198
3.112,0.0538
3.116,0.06303
3.12,0.06186
3.124,0.06461
3.128,0.07963
3.132,0.0775
3.136,0.07888
3.14,0.09229
3.144,0.12458
3.148,0.12967
3.152,0.12135
3.156,0.13993
3.16,0.14811
3.164,0.14714
3.168,0.16757
3.172,0.19879
3.176,0.17908
3.18,0.21108
3.184,0.20026
3.188,0.23288
3.192,0.24224
3.196,0.22288
3.2,0.23547
3.204,0.24166
3.208,0.19306
3.212,0.2029
3.216,0.22176
3.22,0.15949
3.224,0.1987
3.228,0.15459
3.232,0.17642
3.236,0.14979
3.24,0.15647
3.244,0.13388
3.248,0.1234
3.252,0.12373
3.256,0.11845
3.26,0.08531
3.264,0.06991
3.268,0.07152
3.272,0.05362
3.276,0.05848
3.28,0.04055
3.284,0.02804
3.288,0.05233
3.292,0.05937
3.296,0.01913
3.3,0.02334
3.304,0.03074
3.308,0.02375
3.312,0.0136
3.316,0.02991
3.32,0.00705
3.324,0.045
3.328,0.00448
3.332,0.01467
3.336,0.00451
3.34,0.00346
3.344,0.02913
3.348,0.02584
3.352,0.01415
3.356,0.00657
3.36,0.01909
3.364,0.02118
3.368,0.00768
3.372,-0.01611
3.376,-0.00193
3.38,0.02849
3.384,0.01341
3.388,-0.00712
3.392,0.01245
3.396,-0.00109
3.4,-0.00065
3.404,0.02261
3.408,0.00138
3.412,0.01164
3.416,0.01245
3.42,0.01501
3.424,0.01511
3.428,0.00322
3.432,0.02474
3.436,-0.00717
3.44,0.00517
3.444,0.01019
3.448,0.0225
3.452,0.02553
3.456,0.00497
3.46,0.03212
3.464,-0.01566
3.468,0.02378
3.472,0.02928
3.476,0.03501
3.48,-0.01603
3.484,0.00989
3.488,0.02664
3.492,0.02903
3.496,0.00901
3.5,0.00104
3.504,0.00836
3.508,-0.00537
3.512,0.01064
3.516,0.02809
3.52,-0.00399
3.524,0.00286
3.528,-0.02826
3.532,0.0194
3.536,0.02222
3.54,0.016
3.544,0.01653
3.548,0.01612
3.552,0.02014
3.556,0.02708
3.56,0.02562
3.564,0.01601
3.568,-0.00269
3.572,0.03756
3.576,0.01205
3.58,0.04509
3.584,0.00228
3.588,0.00952
3.592,0.02382
3.596,0.00538
3.6,0.00846
3.604,0.00576
3.608,0.01711
3.612,0.01642
3.616,0.00275
3.62,-0.02803
3.624,0.02548
3.628,0.02652
3.632,0.00236
3.636,-0.00433
3.64,0.05492
3.644,-0.00489
3.648,-0.01102
3.652,0.04805
3.656,0.00665
3.66,0.02701
3.664,0.01439
3.668,0.03763
3.672,0.02057
3.676,-0.00707
3.68,0.01923
3.684,0.01995
3.688,0.01046
3.692,0.03608
3.696,-0.01039
3.7,0.02761
3.704,0.01522
3.708,-0.01157
3.712,-0.0023
3.716,0.0444
3.72,0.01588
3.724,0.02893
3.728,0.01416
3.732,0.00896
3.736,0.01946
3.74,0.03374
3.744,0.0329
3.748,0.04186
3.752,0.01257
3.756,0.05562
3.76,0.01333
3.764,0.02137
3.768,0.05448
3.772,0.0742
3.776,0.05449
3.78,0.06359
3.784,0.11143
3.788,0.08747
3.792,0.10295
3.796,0.12731
3.8,0.12553
3.804,0.11271
3.808,0.10961
3.812,0.07294
3.816,0.08248
3.82,0.07425
3.824,0.04274
3.828,0.0308
3.832,0.05544
3.836,0.04277
3.84,0.04982
3.844,0.02757
3.848,0.02786
3.852,0.05306
3.856,0.00319
3.86,0.00226
3.864,0.06321
3.868,-0.00384
3.872,0.0044
3.876,0.02075
3.88,-0.00581
3.884,0.02301
3.888,0.01666
3.892,0.0157
3.896,0.05382
3.9,0.02353
3.904,-0.01089
3.908,0.01995
3.912,0.01163
3.916,-0.0129
3.92,-0.10543
3.924,-0.09389
3.928,-0.07767
3.932,0.0003
3.936,0.13545
3.94,0.32207
3.944,0.50212
3.948,0.73775
3.952,0.93362
3.956,1.04324
3.96,0.97186
3.964,0.88746
3.968,0.66346
3.972,0.40995
3.976,0.25155
3.98,0.04168
3.984,-0.07115
3.988,-0.14126
3.992,-0.16759
3.996,-0.08274
4.0,-0.05789
4.004,-0.01729
4.008,-0.00339
4.012,-0.00382
4.016,0.00576
4.02,0.02017
4.024,0.0132
4.028,0.03168
4.032,0.02793
4.036,0.02453
4.04,0.02404
4.044,0.00819
4.048,-0.00316
4.052,0.0072
4.056,0.0139
4.06,0.05552
4.064,0.01634
4.068,0.01115
4.072,0.0193
4.076,0.01784
4.08,0.05627
4.084,0.00556
4.088,0.02133
4.092,0.01573
4.096,0.02587
4.1,0.02239
4.104,0.02091
4.108,0.02004
4.112,0.06623
4.116,0.02653
4.12,0.03488
4.124,0.04265
4.128,0.0475
4.132,0.03423
4.136,0.05995
4.14,0.03634
4.144,0.03993
4.148,0.04914
4.152,0.05145
4.156,0.08632
4.16,0.06044
4.164,0.09719
4.168,0.07324
4.172,0.1326
4.176,0.10835
4.18,0.11727
4.184,0.1552
4.188,0.14207
4.192,0.1877
4.196,0.16527
4.2,0.18816
4.204,0.16669
4.208,0.2042
4.212,0.21402
4.216,0.21129
4.22,0.2254
4.224,0.23639
4.228,0.22652
4.232,0.26701
4.236,0.24551
4.24,0.2178
4.244,0.22784
4.248,0.21264
4.252,0.22697
4.256,0.23648
4.26,0.21211
4.264,0.20559
4.268,0.18395
4.272,0.20675
4.276,0.15219
4.28,0.19195
4.284,0.15327
4.288,0.16249
4.292,0.1383
4.296,0.1336
4.3,0.11397
4.304,0.11196
4.308,0.10579
4.312,0.07512
4.316,0.0855
4.32,0.05522
4.324,0.05773
4.328,0.04876
4.332,0.04816
4.336,0.0263
4.34,0.05351
4.344,0.06071
4.348,0.02878
4.352,0.03287
4.356,0.01894
4.36,0.04187
4.364,0.05267
4.368,0.04618
4.372,0.06878
4.376,0.02197
4.38,0.03422
4.384,0.0444
4.388,0.00568
4.392,0.02623
4.396,0.01329
4.4,0.03861
4.404,0.00427
4.408,0.03704
4.412,0.04816
4.416,0.0338
4.42,0.02915
4.424,0.03374
4.428,0.04325
4.432,0.05087
4.436,0.02375
4.44,0.00894
4.444,0.04251
4.448,0.03562
4.452,0.03309
4.456,0.02351
4.46,0.01858
4.464,0.02103
4.468,0.04198
4.472,0.03791
4.476,0.00484
4.48,0.04934
4.484,0.0366
4.488,0.02202
4.492,0.05461
4.496,0.02659
4.5,0.00452
4.504,0.04151
4.508,0.03927
4.512,0.05926
4.516,0.041
4.52,0.03893
4.524,0.02619
4.528,0.01135
4.532,0.00344
4.536,0.04576
4.54,0.01018
4.544,0.02002
4.548,0.02796
4.552,0.01576
4.556,0.05134
4.56,0.01147
4.564,0.03019
4.568,0.0473
4.572,0.01874
4.576,0.02158
4.58,0.02807
4.584,0.02026
4.588,0.05179
4.592,0.02874
4.596,0.03811
4.6,0.03099
4.604,0.07225
4.608,0.02527
4.612,0.0426
4.616,0.02851
4.62,0.0183
4.624,0.03716
4.628,0.00479
4.632,0.03571
4.636,0.02019
4.64,0.04098
4.644,0.02977
4.648,0.03664
4.652,0.04208
4.656,0.03518
4.66,0.02507
4.664,0.05629
4.668,0.03161
4.672,0.02559
4.676,0.0478
4.68,0.01359
4.684,0.02065
4.688,0.02936
4.692,0.00012
4.696,0.02702
4.7,0.04875
4.704,0.03373
4.708,0.03975
4.712,0.02113
4.716,0.04378
4.72,0.04977
4.724,0.06833
4.728,0.06212
4.732,0.06194
4.736,0.08872
4.74,0.11629
4.744,0.11734
4.748,0.11713
4.752,0.12262
4.756,0.11888
4.76,0.13167
4.764,0.09822
4.768,0.12795
4.772,0.11185
4.776,0.0806
4.78,0.08589
4.784,0.0335
4.788,0.07048
4.792,0.06784
4.796,0.04078
4.8,0.04903
4.804,0.02656
4.808,0.02505
4.812,0.02192
4.816,0.03536
4.82,0.05077
4.824,0.05004
4.828,0.03654
4.832,0.02305
4.836,0.02881
4.84,0.04712
4.844,0.01666
4.848,0.04172
4.852,0.05422
4.856,0.04532
4.86,0.0228
4.864,0.04365
4.868,0.00932
4.872,0.02733
4.876,-0.00498
4.88,-0.06455
4.884,-0.09197
4.888,-0.06995
4.892,0.0007
4.896,0.16514
4.9,0.34597
4.904,0.55373
4.908,0.78495
4.912,0.96513
4.916,1.02757
4.92,0.97045
4.924,0.89089
4.928,0.63571
4.932,0.41375
4.936,0.17007
4.94,0.04456
4.944,-0.06774
4.948,-0.11996
4.952,-0.12239
4.956,-0.09391
4.96,-0.04694
4.964,-0.04312
4.968,-0.00544
4.972,0.02117
4.976,0.04348
4.98,0.07131
4.984,0.00663
4.988,0.04717
4.992,0.03161
4.996,0.0222
5.0,0.03598
5.004,0.02769
5.008,0.01868
5.012,0.01812
5.016,0.02678
5.02,0.05617
5.024,0.04387
5.028,0.01349
5.032,0.01974
5.036,0.01799
5.04,0.02432
5.044,0.01283
5.048,0.03053
5.052,0.04276
5.056,0.03944
5.06,0.03562
5.064,0.02186
5.068,0.04106
5.072,0.02395
5.076,0.0296
5.08,0.05317
5.084,0.04377
5.088,0.08218
5.092,0.04614
5.096,0.04898
5.1,0.04509
5.104,0.07694
5.108,0.04361
5.112,0.06648
5.116,0.08025
5.12,0.08777
5.124,0.06384
5.128,0.12613
5.132,0.107
5.136,0.11309
5.14,0.10392
5.144,0.14717
5.148,0.16447
5.152,0.13918
5.156,0.17221
5.16,0.19058
5.164,0.18013
5.168,0.21436
5.172,0.21326
5.176,0.21124
5.18,0.21862
5.184,0.24311
5.188,0.21566
5.192,0.24984
5.196,0.24991
5.2,0.23304
5.204,0.25843
5.208,0.23701
5.212,0.25792
5.216,0.24275
5.22,0.20588
5.224,0.2081
5.228,0.19606
5.232,0.16821
5.236,0.18345
5.24,0.17506
5.244,0.16181
5.248,0.12972
5.252,0.13126
5.256,0.12728
5.26,0.11401
5.264,0.11144
5.268,0.09262
5.272,0.08453
5.276,0.09425
5.28,0.06635
5.284,0.09265
5.288,0.0861
5.292,0.05352
5.296,0.04147
5.3,0.04183
5.304,0.02124
5.308,0.05174
5.312,0.06189
5.316,0.01323
5.32,0.01371
5.324,0.03155
5.328,0.04363
5.332,0.03682
5.336,0.03632
5.34,0.0207
5.344,0.03497
5.348,0.03294
5.352,0.02848
5.356,0.01746
5.36,0.0263
5.364,0.03629
5.368,0.04481
5.372,0.04011
5.376,0.00601
5.38,0.02585
5.384,0.02397
5.388,0.01021
5.392,0.02677
5.396,0.01401
5.4,0.03796
5.404,0.01164
5.408,0.01421
5.412,0.02698
5.416,0.01788
5.42,0.01725
5.424,0.02225
5.428,0.01584
5.432,0.04361
5.436,0.00802
5.44,0.02602
5.444,0.0005
5.448,-0.00658
5.452,0.00746
5.456,0.02682
5.46,0.01636
5.464,0.02277
5.468,0.0385
5.472,0.02751
5.476,0.01696
5.48,0.02566
5.484,0.02917
5.488,0.00664
5.492,0.03125
5.496,0.0205
5.5,0.01931
5.504,0.02477
5.508,-0.00619
5.512,0.02971
5.516,-0.0197
5.52,0.03429
5.524,0.00438
5.528,0.00489
5.532,0.00995
5.536,0.04449
5.54,0.05542
5.544,0.0429
5.548,0.02192
5.552,0.05167
5.556,0.05222
5.56,0.0459
5.564,0.04979
5.568,0.10851
5.572,0.10107
5.576,0.08397
5.58,0.11335
5.584,0.12333
5.588,0.10041
5.592,0.13032
5.596,0.10917
5.6,0.09834
5.604,0.09905
5.608,0.07034
5.612,0.06063
5.616,0.05469
5.62,0.05732
5.624,0.02279
5.628,0.03917
5.632,0.02147
5.636,0.03063
5.64,0.01485
5.644,0.02951
5.648,-0.00999
5.652,-0.00422
5.656,0.02174
5.66,0.03538
5.664,0.06076
5.668,0.01882
5.672,0.00833
5.676,0.00449
5.68,0.02368
5.684,0.00813
5.688,0.00831
5.692,0.02826
5.696,-0.00693
5.7,0.01037
5.704,-0.02116
5.708,-0.06855
5.712,-0.08962
5.716,-0.09515
5.72,0.00429
5.724,0.0966
5.728,0.23976
5.732,0.4518
5.736,0.6732
5.74,0.87769
5.744,0.99446
5.748,1.02522
5.752,0.93975
5.756,0.7682
5.76,0.50994
5.764,0.27629
5.768,0.07615
5.772,-0.02101
5.776,-0.11098
5.78,-0.16589
5.784,-0.12725
5.788,-0.07006
5.792,-0.05074
5.796,-0.02067
5.8,0.00125
5.804,0.00341
5.808,0.03606
5.812,0.03278
5.816,-0.00037
5.82,-0.00412
5.824,0.00555
5.828,-0.00564
5.832,0.01719
5.836,0.01781
5.84,0.01177
5.844,0.01318
5.848,0.04095
5.852,-0.00126
5.856,0.0202
5.86,0.00561
5.864,0.01172
5.868,0.02688
5.872,0.03684
5.876,0.0516
5.88,0.00407
5.884,0.01201
5.888,0.01747
5.892,0.00577
5.896,0.01231
5.9,0.02045
5.904,0.01686
5.908,0.00665
5.912,0.01612
5.916,0.03958
5.92,0.01138
5.924,0.02423
5.928,0.03068
5.932,0.04325
5.936,0.03147
5.94,0.05039
5.944,0.05222
5.948,0.04652
5.952,0.05515
5.956,0.06386
5.96,0.11963
5.964,0.10195
5.968,0.10258
5.972,0.10977
5.976,0.12171
5.98,0.15264
5.984,0.1596
5.988,0.16305
5.992,0.1821
5.996,0.21011
6.0,0.15845
6.004,0.20651
6.008,0.20688
6.012,0.2077
6.016,0.22472
6.02,0.23122
6.024,0.20108
6.028,0.23489
6.032,0.23208
6.036,0.23775
6.04,0.22391
6.044,0.20529
6.048,0.18835
6.052,0.21807
6.056,0.19297
6.06,0.19063
6.064,0.16812
6.068,0.15864
6.072,0.13752
6.076,0.1151
6.08,0.10082
6.084,0.09718
6.088,0.09965
6.092,0.05758
6.096,0.09358
6.1,0.07688
6.104,0.07262
6.108,0.06816
6.112,0.04532
6.116,0.03761
6.12,0.05518
6.124,0.01507
6.128,0.01346
6.132,-0.01051
6.136,0.01024
6.14,0.01278
6.144,0.00345
6.148,0.00833
6.152,0.01245
6.156,0.02516
6.16,0.0112
6.164,0.03142
6.168,0.00784
6.172,0.0033
6.176,0.01222
6.18,0.03263
6.184,0.00851
6.188,0.01075
6.192,0.03593
6.196,0.01553
6.2,0.04337
6.204,0.01642
6.208,0.01497
6.212,-0.00118
6.216,0.00141
6.22,-0.03459
6.224,0.00181
6.228,0.02353
6.232,0.01803
6.236,0.0177
6.24,0.00762
6.244,0.02698
6.248,0.01319
6.252,0.01487
6.256,0.00236
6.26,0.02152
6.264,0.00257
6.268,0.00906
6.272,-0.00586
6.276,-0.00878
6.28,0.03854
6.284,-0.02395
6.288,0.00624
6.292,0.00615
6.296,0.01802
6.3,0.00436
6.304,0.01627
6.308,0.00893
6.312,-0.00716
6.316,0.01465
6.32,-0.01815
6.324,-0.0228
6.328,0.00274
6.332,0.01228
6.336,0.00354
6.34,0.01086
6.344,0.02774
6.348,-0.01399
6.352,-0.01551
6.356,-0.03812
6.36,0.0091
6.364,0.02283
6.368,0.0086
6.372,-0.02621
6.376,0.00421
6.38,0.01701
6.384,0.00878
6.388,-0.03264
6.392,-0.01431
6.396,0.01852
6.4,0.00429
6.404,-0.00096
6.408,-0.02018
6.412,0.00992
6.416,-0.01074
6.42,0.0217
6.424,0.00377
6.428,0.01042
6.432,0.01111
6.436,-0.02605
6.44,-0.0027
6.444,-0.00741
6.448,0.00047
6.452,0.00201
6.456,-0.00834
6.46,0.01426
6.464,0.00016
6.468,-0.02519
6.472,-0.00158
6.476,-0.00715
6.48,0.01386
6.484,-0.02429
6.488,0.01744
6.492,-0.00732
6.496,0.00972
6.5,0.01896
6.504,0.02013
6.508,0.03177
6.512,0.00318
6.516,0.03252
6.52,-0.00131
6.524,0.01232
6.528,0.04119
6.532,0.06933
6.536,0.05704
6.54,0.09326
6.544,0.09214
6.548,0.10009
6.552,0.09657
6.556,0.07294
6.56,0.09126
6.564,0.08718
6.568,0.08947
6.572,0.04185
6.576,0.03945
6.58,0.03548
6.584,0.02029
6.588,-0.00192
6.592,-0.00255
6.596,-0.00611
6.6,-0.01126
6.604,0.00845
6.608,-0.01509
6.612,-0.02619
6.616,-0.0441
6.62,-0.0079
6.624,-0.00427
6.628,-0.01215
6.632,0.00066
6.636,-0.01484
6.64,0.01869
6.644,0.00331
6.648,-0.0224
6.652,0.02708
6.656,0.00439
6.66,-0.00419
6.664,-0.0236
6.668,-0.03235
6.672,-0.05048
6.676,-0.0942
6.68,-0.1039
6.684,-0.10711
6.688,-0.02371
6.692,0.11347
6.696,0.30026
6.7,0.5211
6.704,0.71905
6.708,0.9017
6.712,0.98039
6.716,0.96128
6.72,0.84528
6.724,0.66016
6.728,0.42292
6.732,0.19994
6.736,0.00666
6.74,-0.09161
6.744,-0.18331
6.748,-0.18397
6.752,-0.14771
6.756,-0.09068
6.76,-0.04884
6.764,-0.04539
6.768,-0.05319
6.772,0.00511
6.776,-0.00961
6.78,-0.03757
6.784,0.00498
6.788,0.00706
6.792,-0.01362
6.796,-0.02685
6.8,-0.01442
6.804,-0.01616
6.808,-0.00688
6.812,-0.01594
6.816,-0.0031
6.82,0.02336
6.824,-0.01962
6.828,0.0045
6.832,-0.01278
6.836,-0.01749
6.84,-0.01585
6.844,-0.00866
6.848,-0.00597
6.852,0.01897
6.856,-0.01005
6.86,0.00851
6.864,-0.01286
6.868,-0.02664
6.872,-0.00456
6.876,-0.0132
6.88,0.00423
6.884,-0.03448
6.888,0.00472
6.892,0.01021
6.896,0.01678
6.9,-0.00042
6.904,0.01322
6.908,0.02473
6.912,0.05375
6.916,0.04562
6.92,0.04236
6.924,0.04442
6.928,0.0674
6.932,0.0379
6.936,0.09151
6.94,0.10199
6.944,0.0878
6.948,0.11411
6.952,0.10775
6.956,0.14703
6.96,0.14239
6.964,0.16774
6.968,0.19829
6.972,0.20069
6.976,0.17645
6.98,0.18435
6.984,0.19634
6.988,0.20804
6.992,0.19404
6.996,0.23229
7.0,0.17291
7.004,0.18551
7.008,0.15474
7.012,0.20725
7.016,0.18495
7.02,0.18163
7.024,0.17317
7.028,0.15715
7.032,0.16552
7.036,0.10533
7.04,0.07598
7.044,0.1052
7.048,0.07311
7.052,0.0829
7.056,0.09098
7.06,0.05481
7.064,0.07748
7.068,0.02649
7.072,0.06739
7.076,0.02962
7.08,0.0189
7.084,0.02319
7.088,0.02399
7.092,0.00915
7.096,-0.00556
7.1,0.00251
7.104,-0.01361
7.108,-0.02148
7.112,0.01184
7.116,-0.02687
7.12,-0.03076
7.124,-0.00873
7.128,-0.01196
7.132,-0.04612
7.136,-0.05188
7.14,-0.01647
7.144,-0.02173
7.148,-0.00577
7.152,-0.01644
7.156,0.00378
7.16,-0.02228
7.164,-0.03479
7.168,0.00223
7.172,-0.0124
7.176,-0.01144
7.18,-0.02635
7.184,-0.03602
7.188,-0.0294
7.192,-0.03726
7.196,-0.02266
7.2,-0.01002
7.204,-0.02846
7.208,-0.03066
7.212,0.00095
7.216,-0.02961
7.22,0.00649
7.224,-0.05132
7.228,-0.01034
7.232,-0.00865
7.236,-0.04407
7.24,-0.00921
7.244,-0.00871
7.248,-0.03082
7.252,-0.03305
7.256,-0.02026
7.26,0.00341
7.264,-0.02124
7.268,-0.03521
7.272,-0.02801
7.276,-0.01441
7.28,-0.00488
7.284,-0.0042
7.288,-0.03084
7.292,-0.00048
7.296,-0.00161
7.3,-0.00558
7.304,-0.06886
7.308,-0.00578
7.312,-0.03493
7.316,-0.00992
7.32,-0.04492
7.324,-0.01368
7.328,-0.03363
7.332,-0.05961
7.336,-0.01041
7.34,-0.05408
7.344,-0.02139
7.348,-0.02548
7.352,-0.03036
7.356,-0.0104
7.36,-0.01089
7.364,-0.01349
7.368,-0.03183
7.372,-0.03633
7.376,-0.03474
7.38,-0.05219
7.384,-0.04727
7.388,-0.0387
7.392,-0.01862
7.396,-0.05604
7.4,-0.02758
7.404,-0.02923
7.408,-0.05254
7.412,-0.02068
7.416,-0.008
7.42,-0.02821
7.424,-0.04116
7.428,-0.03924
7.432,-0.00772
7.436,-0.0318
7.44,-0.05038
7.444,-0.03356
7.448,-0.00625
7.452,-0.03597
7.456,-0.03295
7.46,-0.05292
7.464,-0.03195
7.468,-0.00775
7.472,-0.03447
7.476,-0.03355
7.48,-0.02124
7.484,-0.04294
7.488,-0.03518
7.492,-0.03124
7.496,-0.03734
7.5,-0.0027
7.504,-0.02586
7.508,-0.03412
7.512,-0.03702
7.516,-0.02434
7.52,-0.003
7.524,-0.02688
7.528,-0.02362
7.532,-0.03401
7.536,-0.01765
7.54,-0.00886
7.544,-0.01605
7.548,-0.03016
7.552,-0.0311
7.556,-0.03068
7.56,-0.06068
7.564,-0.04434
7.568,-0.01951
7.572,-0.01489
7.576,-0.04301
7.58,-0.02236
7.584,-0.0269
7.588,-0.00614
7.592,-0.01732
7.596,-0.00718
7.6,0.01269
7.604,0.0045
7.608,0.0082
7.612,0.03183
7.616,0.02968
7.62,0.03935
7.624,0.06582
7.628,0.06321
7.632,0.08561
7.636,0.05122
7.64,0.08213
7.644,0.04877
7.648,0.0482
7.652,0.03599
7.656,0.00478
7.66,0.00411
7.664,-0.00061
7.668,-0.00578
7.672,-0.01848
7.676,-0.03187
7.68,-0.02956
7.684,-0.01738
7.688,-0.01911
7.692,-0.04876
7.696,-0.02232
7.7,-0.03397
7.704,-0.01238
7.708,-0.02417
7.712,-0.02589
7.716,-0.03696
7.72,-0.01214
7.724,0.00661
7.728,-0.01785
7.732,-0.03018
7.736,-0.02965
7.74,-0.0353
7.744,-0.02257
7.748,-0.02639
7.752,-0.08257
7.756,-0.10875
7.76,-0.14363
7.764,-0.13656
7.768,-0.07314
7.772,0.04167
7.776,0.24796
7.78,0.46247
7.784,0.6791
7.788,0.86718
7.792,0.94082
7.796,0.94612
7.8,0.84435
7.804,0.64805
7.808,0.41369
7.812,0.19728
7.816,-0.01347
7.82,-0.11698
7.824,-0.17159
7.828,-0.21841
7.832,-0.15498
7.836,-0.12968
7.84,-0.07875
7.844,-0.05492
7.848,-0.03527
7.852,-0.06351
7.856,-0.02608
7.86,-0.02873
7.864,-0.02154
7.868,-0.04174
7.872,-0.01178
7.876,0.00117
7.88,-0.01078
7.884,-0.01276
7.888,-0.01803
7.892,-0.02241
7.896,-0.0488
7.9,-0.05239
7.904,-0.01969
7.908,-0.02028
7.912,-0.02509
7.916,-0.02684
7.92,-0.03838
7.924,-0.01129
7.928,-0.03283
7.932,-0.03237
7.936,-0.01777
7.94,-0.02238
7.944,-0.04784
7.948,-0.00683
7.952,-0.02902
7.956,-0.00322
7.96,-0.0134
7.964,-0.00575
7.968,-0.0473
7.972,-0.01626
7.976,-0.01733
7.98,-0.05619
7.984,0.01607
7.988,0.03985
7.992,0.02694
7.996,-0.00566
8.0,0.03388
8.004,0.03927
8.008,0.03962
8.012,0.07624
8.016,0.05478
8.02,0.06479
8.024,0.07773
8.028,0.09812
8.032,0.12832
8.036,0.12092
8.04,0.14372
8.044,0.15178
8.048,0.14461
8.052,0.14523
8.056,0.18356
8.06,0.19226
8.064,0.20953
8.068,0.19725
8.072,0.21645
8.076,0.19881
8.08,0.19408
8.084,0.1935
8.088,0.17079
8.092,0.17518
8.096,0.16871
8.1,0.15547
8.104,0.13159
8.108,0.12712
8.112,0.12272
8.116,0.08122
8.12,0.09835
8.124,0.10253
8.128,0.08919
8.132,0.07717
8.136,0.00658
8.14,0.05428
8.144,0.0599
8.148,0.01535
8.152,0.02388
8.156,0.01881
8.16,0.03128
8.164,-0.00505
8.168,-0.02067
8.172,-0.01139
8.176,0.00338
8.18,0.00128
8.184,0.01613
8.188,-0.01162
8.192,-0.05043
8.196,-0.00529
8.2,-0.01764
8.204,-0.01356
8.208,-0.03392
8.212,-0.00357
8.216,-0.04641
8.22,-0.02806
8.224,-0.04724
8.228,-0.0521
8.232,-0.01164
8.236,-0.00689
8.24,-0.01164
8.244,-0.04837
8.248,-0.05268
8.252,-0.00602
8.256,-0.03122
8.26,-0.01864
8.264,-0.03204
8.268,-0.02325
8.272,-0.0183
8.276,-0.01349
8.28,-0.0361
8.284,-0.04522
8.288,-7e-05
8.292,-0.03406
8.296,-0.01807
8.3,0.00895
8.304,-0.02549
8.308,-0.03569
8.312,-0.03418
8.316,-0.05565
8.32,-0.04259
8.324,-0.05376
8.328,-0.0281
8.332,-0.0219
8.336,-0.0021
8.34,-0.04682
8.344,-0.02308
8.348,-0.01399
8.352,-0.02059
8.356,-0.02511
8.36,-0.01427
8.364,-0.03662
8.368,-0.03102
8.372,-0.02948
8.376,-0.03142
8.38,-0.02634
8.384,-0.03265
8.388,-0.02162
8.392,-0.03205
8.396,-0.02128
8.4,-0.0261
8.404,-0.01774
8.408,-0.0336
8.412,-0.02716
8.416,-0.00802
8.42,-0.01769
8.424,-0.02442
8.428,-0.02669
8.432,-0.02071
8.436,-0.03783
8.44,-0.04447
8.444,-0.01659
8.448,-0.03746
8.452,-0.0317
8.456,-0.06075
8.46,-0.01928
8.464,-0.02375
8.468,-0.04669
8.472,-0.02619
8.476,-0.02345
8.48,-0.01897
8.484,0.0086
8.488,0.00414
8.492,0.01425
8.496,0.05767
8.5,0.02188
8.504,0.05741
8.508,0.07301
8.512,0.08637
8.516,0.07569
8.52,0.09689
8.524,0.05709
8.528,0.03361
8.532,0.02545
8.536,0.04067
8.54,-0.01958
8.544,0.00612
8.548,0.01039
8.552,-0.01388
8.556,-0.02626
8.56,0.0006
8.564,-0.02452
8.568,-0.04765
8.572,-0.02326
8.576,-0.02659
8.58,-0.02717
8.584,-0.04483
8.588,-0.01916
8.592,-0.02859
8.596,-0.03093
8.6,-0.04023
8.604,-0.01813
8.608,-0.02558
8.612,-0.01804
8.616,-0.03565
8.62,-0.04917
8.624,-0.03392
8.628,-0.03076
8.632,-0.04464
8.636,-0.08277
8.64,-0.1315
8.644,-0.11909
8.648,-0.07146
8.652,0.05601
8.656,0.19691
8.66,0.39292
8.664,0.61374
8.668,0.82824
8.672,0.93797
8.676,0.98278
8.68,0.88189
8.684,0.71926
8.688,0.48103
8.692,0.27494
8.696,0.07809
8.7,-0.0825
8.704,-0.16578
8.708,-0.18576
8.712,-0.15005
8.716,-0.16417
8.72,-0.11344
8.724,-0.07862
8.728,-0.05661
8.732,-0.05905
8.736,-0.00338
8.74,-0.01686
8.744,-0.02114
8.748,-0.04574
8.752,-0.04077
8.756,-0.03584
8.76,-0.0177
8.764,-0.01452
8.768,-0.03068
8.772,-0.02435
8.776,-0.03218
8.78,-0.03171
8.784,-0.03154
8.788,-0.043
8.792,-0.02548
8.796,-0.01715
8.8,-0.00822
8.804,0.00113
8.808,-0.03215
8.812,0.01736
8.816,-0.02213
8.82,0.0036
8.824,-0.01894
8.828,-0.00912
8.832,-0.01944
8.836,-0.00808
8.84,-0.00655
8.844,-0.03773
8.848,-0.03306
8.852,-0.01766
8.856,-0.00078
8.86,0.01902
8.864,0.01384
8.868,0.01292
8.872,0.0237
8.876,0.00719
8.88,0.03111
8.884,0.06262
8.888,0.04559
8.892,0.08688
8.896,0.08831
8.9,0.10237
8.904,0.09024
8.908,0.09465
8.912,0.10061
8.916,0.1602
8.92,0.13519
8.924,0.15964
8.928,0.15339
8.932,0.16695
8.936,0.1869
8.94,0.19274
8.944,0.17868
8.948,0.18488
8.952,0.20832
8.956,0.19853
8.96,0.20187
8.964,0.18234
8.968,0.19267
8.972,0.18942
8.976,0.17672
8.98,0.1819
8.984,0.15137
8.988,0.16903
8.992,0.13993
8.996,0.1441
9.0,0.09878
9.004,0.11078
9.008,0.09104
9.012,0.04472
9.016,0.05891
9.02,0.04679
9.024,0.02527
9.028,0.03778
9.032,0.02482
9.036,0.03018
9.04,0.059
9.044,-0.00572
9.048,0.01135
9.052,0.00104
9.056,0.0002
9.06,0.00529
9.064,-0.01701
9.068,0.00022
9.072,-0.01013
9.076,-0.03768
9.08,-0.0048
9.084,-0.03286
9.088,-0.00342
9.092,-0.00777
9.096,-0.01153
9.1,-0.02476
9.104,-0.00257
9.108,-0.01282
9.112,-0.01154
9.116,-0.00703
9.12,-0.02785
9.124,-0.04243
9.128,-0.02201
9.132,-0.03528
9.136,-0.00183
9.14,-0.03703
9.144,-0.01359
9.148,-0.01033
9.152,-0.02189
9.156,-0.00014
9.16,-0.01929
9.164,-0.02583
9.168,-0.03142
9.172,-0.01381
9.176,0.00954
9.18,-0.04977
9.184,-0.01778
9.188,-0.03018
9.192,0.022
9.196,0.00743
9.2,0.00546
9.204,-0.01099
9.208,-0.03084
9.212,-0.02515
9.216,-0.01386
9.22,0.01325
9.224,-0.00207
9.228,-0.01476
9.232,-0.02214
9.236,-0.01863
9.24,-0.03061
9.244,-0.01205
9.248,-0.02364
9.252,-0.01928
9.256,-0.01951
9.26,0.01022
9.264,-0.01344
9.268,-0.0006
9.272,0.0048
9.276,-0.02079
9.28,-0.0342
9.284,-0.0172
9.288,-0.0133
9.292,-0.01561
9.296,0.00523
9.3,-0.02101
9.304,-0.00491
9.308,-0.01476
9.312,0.00475
9.316,0.00247
9.32,-0.03261
9.324,-0.03149
9.328,-0.00257
9.332,-0.00173
9.336,-0.00432
9.34,-0.02009
9.344,-0.02093
9.348,-0.01
9.352,-0.02148
9.356,0.01502
9.36,-0.00436
9.364,-0.00484
9.368,-0.03937
9.372,-0.02607
9.376,0.02157
9.38,-0.01011
9.384,-0.00699
9.388,-0.01046
9.392,-0.00516
9.396,0.00111
9.4,-0.00426
9.404,-0.01317
9.408,0.00502
9.412,-0.01924
9.416,-0.00197
9.42,0.00251
9.424,-0.0303
9.428,-0.01735
9.432,0.00428
9.436,-0.03361
9.44,-0.02046
9.444,-0.01059
9.448,0.00989
9.452,0.04078
9.456,0.02422
9.46,0.04489
9.464,0.04629
9.468,0.05287
9.472,0.07846
9.476,0.07405
9.48,0.09305
9.484,0.09653
9.488,0.07932
9.492,0.07746
9.496,0.07475
9.5,0.06689
9.504,0.06195
9.508,0.0345
9.512,0.03214
9.516,0.02864
9.52,0.01292
9.524,-0.00897
9.528,-0.00345
9.532,-0.01386
9.536,0.00383
9.54,-0.0022
9.544,0.00752
9.548,-0.03736
9.552,-0.00896
9.556,-0.00142
9.56,0.01223
9.564,-0.02264
9.568,-0.02383
9.572,0.00812
9.576,0.01249
9.58,-0.00644
9.584,0.00316
9.588,0.01659
9.592,-0.00865
9.596,-0.02007
9.6,-0.041
9.604,-0.09492
9.608,-0.11402
9.612,-0.12441
9.616,-0.08233
9.62,0.03226
9.624,0.1766
9.628,0.41054
9.632,0.5936
9.636,0.81101
9.64,0.94795
9.644,0.98695
9.648,0.9102
9.652,0.76452
9.656,0.53752
9.66,0.30044
9.664,0.10872
9.668,-0.04678
9.672,-0.12801
9.676,-0.18813
9.68,-0.14931
9.684,-0.07769
9.688,-0.08823
9.692,-0.02365
9.696,-0.03891
9.7,-0.00291
9.704,0.01343
9.708,0.00427
9.712,-0.01117
9.716,0.00889
9.72,0.00702
9.724,-0.01739
9.728,-0.01747
9.732,0.01634
9.736,-0.00296
9.74,-0.02075
9.744,-0.02022
9.748,0.01214
9.752,-0.00736
9.756,-0.01279
9.76,0.00736
9.764,0.0062
9.768,-0.01839
9.772,0.01057
9.776,-0.00707
9.78,-0.00066
9.784,0.0092
9.788,-0.03673
9.792,0.02348
9.796,0.00178
9.8,0.02926
9.804,0.00132
9.808,0.01539
9.812,0.01875
9.816,0.00514
9.82,-0.00842
9.824,0.00871
9.828,0.02664
9.832,0.00352
9.836,0.03995
9.84,0.04388
9.844,0.03257
9.848,0.05802
9.852,0.05576
9.856,0.06672
9.86,0.0534
9.864,0.11164
9.868,0.11759
9.872,0.1049
9.876,0.1361
9.88,0.1431
9.884,0.1527
9.888,0.15429
9.892,0.16154
9.896,0.18267
9.9,0.2021
9.904,0.21077
9.908,0.22592
9.912,0.20607
9.916,0.18595
9.92,0.19349
9.924,0.1911
9.928,0.2204
9.932,0.20933
9.936,0.21453
9.94,0.23474
9.944,0.20523
9.948,0.18036
9.952,0.2033
9.956,0.15956
9.96,0.16217
9.964,0.12765
9.968,0.12349
9.972,0.09671
9.976,0.11309
9.98,0.10944
9.984,0.08109
9.988,0.07318
9.992,0.09295
9.996,0.07911
