t_seg,ecg_mV
0.0,0.03999
0.004,0.03147
0.008,-0.03093
0.012,0.04387
0.016,0.05401
0.02,0.09523
0.024,-0.01853
0.028,0.0637
0.032,0.08355
0.036,-0.00181
0.04,0.02412
0.044,0.02197
0.048,-0.01638
0.052,0.00567
0.056,0.0184
0.06,0.05949
0.064,0.07281
0.068,0.0406
0.072,0.04026
0.076,0.06523
0.08,0.03892
0.084,0.09713
0.088,0.01182
0.092,-0.00843
0.096,0.06323
0.1,-0.04259
0.104,0.04142
0.108,-0.05968
0.112,-0.041
0.116,-0.02103
0.12,0.04484
0.124,0.01108
0.128,0.05518
0.132,0.00554
0.136,0.03733
0.14,0.02526
0.144,0.08804
0.148,0.05247
0.152,-0.0604
0.156,0.0727
0.16,0.01245
0.164,0.04324
0.168,0.04956
0.172,-0.01929
0.176,0.07792
0.18,0.08211
0.184,0.01026
0.188,-0.01868
0.192,0.01926
0.196,0.0168
0.2,0.01364
0.204,0.10022
0.208,0.03737
0.212,-0.04182
0.216,0.10915
0.22,0.06528
0.224,-0.06132
0.228,0.02949
0.232,0.02587
0.236,0.02882
0.24,0.01754
0.244,0.06572
0.248,0.0374
0.252,0.03806
0.256,0.02026
0.26,0.05696
0.264,0.1082
0.268,0.01382
0.272,0.0325
0.276,0.04255
0.28,0.0051
0.284,0.01879
0.288,0.02159
0.292,-0.00281
0.296,0.00427
0.3,0.03268
0.304,0.01221
0.308,0.03233
0.312,0.0248
0.316,0.01272
0.32,0.00822
0.324,0.07599
0.328,0.07102
0.332,-0.05181
0.336,0.01696
0.34,0.04887
0.344,-0.00622
0.348,0.00319
0.352,0.00457
0.356,0.01922
0.36,0.04661
0.364,0.06488
0.368,0.01591
0.372,0.06752
0.376,0.01816
0.38,0.05044
0.384,0.01739
0.388,0.05511
0.392,0.0404
0.396,0.01069
0.4,0.01574
0.404,0.05437
0.408,0.06003
0.412,0.03117
0.416,-0.00354
0.42,0.01535
0.424,0.02454
0.428,0.03694
0.432,-0.05793
0.436,0.02227
0.44,0.11682
0.444,-0.01575
0.448,0.05723
0.452,0.03364
0.456,0.02007
0.46,0.02811
0.464,0.03119
0.468,0.10908
0.472,0.01391
0.476,0.13056
0.48,0.04525
0.484,0.07953
0.488,0.02787
0.492,0.00574
0.496,0.0201
0.5,0.0078
0.504,0.01961
0.508,0.05208
0.512,0.03342
0.516,-0.01624
0.52,0.02551
0.524,0.00731
0.528,-0.04883
0.532,0.09212
0.536,-0.01291
0.54,0.02859
0.544,0.06146
0.548,0.05386
0.552,0.06856
0.556,0.03968
0.56,0.00794
0.564,0.03838
0.568,0.02105
0.572,0.09385
0.576,-0.0132
0.58,0.07391
0.584,0.05712
0.588,0.10267
0.592,0.12073
0.596,0.0645
0.6,0.13797
0.604,0.1279
0.608,0.10967
0.612,0.14132
0.616,0.15959
0.62,0.14016
0.624,0.13335
0.628,0.02419
0.632,0.0259
0.636,0.09115
0.64,0.03296
0.644,0.02659
0.648,0.00184
0.652,0.02104
0.656,0.05681
0.66,0.02622
0.664,0.02236
0.668,0.08129
0.672,0.02063
0.676,0.03789
0.68,0.00374
0.684,0.04834
0.688,0.00226
0.692,0.04903
0.696,0.05618
0.7,-0.01498
0.704,0.01677
0.708,0.00453
0.712,0.05984
0.716,0.04285
0.72,0.01167
0.724,-0.04377
0.728,-0.09598
0.732,-0.12818
0.736,-0.12008
0.74,0.02796
0.744,0.18205
0.748,0.25875
0.752,0.52521
0.756,0.67918
0.76,0.8593
0.764,0.99801
0.768,1.06292
0.772,0.89483
0.776,0.72074
0.78,0.43226
0.784,0.19397
0.788,0.02421
0.792,0.01644
0.796,-0.10292
0.8,-0.09846
0.804,-0.16371
0.808,-0.02195
0.812,-0.09889
0.816,0.04601
0.82,-0.01977
0.824,0.02671
0.828,0.02173
0.832,0.01022
0.836,0.03087
0.84,0.07719
0.844,0.01714
0.848,0.03542
0.852,-0.01658
0.856,0.02308
0.86,0.02026
0.864,-0.03612
0.868,-0.02256
0.872,0.06015
0.876,0.06499
0.88,0.0182
0.884,0.07452
0.888,0.0222
0.892,0.02599
0.896,0.01179
0.9,-0.00959
0.904,0.04082
0.908,-0.01391
0.912,0.04662
0.916,0.04985
0.92,0.04563
0.924,0.04198
0.928,0.02837
0.932,0.09625
0.936,0.02261
0.94,0.04191
0.944,0.03752
0.948,0.01552
0.952,-0.0101
0.956,0.08864
0.96,0.06503
0.964,0.13587
0.968,0.07854
0.972,0.14131
0.976,0.09062
0.98,0.09562
0.984,0.1715
0.988,0.05844
0.992,0.10016
0.996,0.1343
1.0,0.16045
1.004,0.19399
1.008,0.1787
1.012,0.15397
1.016,0.22049
1.02,0.14433
1.024,0.23979
1.028,0.30308
1.032,0.29427
1.036,0.1938
1.04,0.2579
1.044,0.27925
1.048,0.26968
1.052,0.25538
1.056,0.21789
1.06,0.2087
1.064,0.20652
1.068,0.18061
1.072,0.21411
1.076,0.20595
1.08,0.22959
1.084,0.27234
1.088,0.11508
1.092,0.16486
1.096,0.19181
1.1,0.12782
1.104,0.14068
1.108,0.14697
1.112,0.06942
1.116,0.09401
1.12,0.10239
1.124,0.06415
1.128,0.08588
1.132,-0.01653
1.136,-0.01008
1.14,0.11121
1.144,0.07256
1.148,0.00277
1.152,0.03885
1.156,0.0661
1.16,0.04175
1.164,0.0217
1.168,0.03304
1.172,0.09306
1.176,-0.01627
1.18,0.09653
1.184,-0.03464
1.188,-0.01328
1.192,0.02997
1.196,-0.03238
1.2,-0.02301
1.204,-0.01867
1.208,-0.0117
1.212,0.04767
1.216,0.02346
1.22,-0.01292
1.224,0.07074
1.228,-0.00202
1.232,-0.03331
1.236,0.01494
1.24,0.0406
1.244,0.02863
1.248,-0.03351
1.252,0.01937
1.256,0.01318
1.26,0.02685
1.264,0.01842
1.268,-0.00051
1.272,0.01933
1.276,0.04654
1.28,0.01051
1.284,0.01048
1.288,0.02748
1.292,0.02807
1.296,-0.01797
1.3,0.04671
1.304,-0.00403
1.308,0.07357
1.312,0.01642
1.316,0.0146
1.32,-0.01503
1.324,0.03759
1.328,0.06668
1.332,0.02357
1.336,0.04524
1.34,-0.00945
1.344,0.05217
1.348,0.05571
1.352,0.09105
1.356,0.04245
1.36,-0.00961
1.364,0.02599
1.368,-0.02602
1.372,0.05559
1.376,-0.01678
1.38,-0.03732
1.384,-0.02659
1.388,0.04658
1.392,-0.00013
1.396,0.12777
1.4,0.00694
1.404,-0.00788
1.408,0.01386
1.412,0.03434
1.416,0.00731
1.42,-0.00851
1.424,0.01931
1.428,-0.03855
1.432,0.06233
1.436,0.0229
1.44,0.10684
1.444,0.02731
1.448,-0.00729
1.452,0.0258
1.456,0.08967
1.46,0.05158
1.464,0.11224
1.468,0.1042
1.472,0.09905
1.476,0.0932
1.48,0.01817
1.484,0.09292
1.488,0.09154
1.492,0.11369
1.496,0.07194
1.5,0.10526
1.504,0.05596
1.508,0.06032
1.512,-0.01243
1.516,0.03459
1.52,0.0447
1.524,0.04826
1.528,0.04102
1.532,0.02752
1.536,0.04791
1.54,-0.0146
1.544,0.01054
1.548,0.02998
1.552,0.02294
1.556,0.02631
1.56,0.03901
1.564,0.07596
1.568,0.02473
1.572,0.02156
1.576,0.01813
1.58,0.0478
1.584,0.01329
1.588,-0.00657
1.592,-0.02999
1.596,0.07497
1.6,-0.00386
1.604,-0.1233
1.608,-0.122
1.612,-0.1227
1.616,0.02056
1.62,0.12993
1.624,0.21821
1.628,0.42836
1.632,0.67194
1.636,0.80646
1.64,1.02607
1.644,0.95448
1.648,0.9149
1.652,0.70405
1.656,0.55892
1.66,0.29847
1.664,0.07499
1.668,-0.08164
1.672,-0.12089
1.676,-0.12635
1.68,-0.13325
1.684,-0.09842
1.688,-0.09648
1.692,-0.06494
1.696,-0.03384
1.7,0.00094
1.704,0.08881
1.708,-0.02139
1.712,0.05539
1.716,0.02349
1.72,-0.02631
1.724,0.0286
1.728,0.01761
1.732,-0.02351
1.736,0.01066
1.74,0.00722
1.744,0.02894
1.748,-0.02344
1.752,0.03873
1.756,-0.02956
1.76,0.08625
1.764,-0.04726
1.768,0.00825
1.772,0.03721
1.776,0.00573
1.78,-0.02099
1.784,0.00767
1.788,0.00805
1.792,-0.0317
1.796,0.03452
1.8,-0.04349
1.804,0.018
1.808,0.05984
1.812,0.01378
1.816,-0.00548
1.82,0.02693
1.824,0.04175
1.828,0.05499
1.832,0.03241
1.836,0.08746
1.84,0.07339
1.844,0.05948
1.848,0.04198
1.852,0.04369
1.856,0.04726
1.86,0.07155
1.864,0.13686
1.868,0.12655
1.872,0.14771
1.876,0.11078
1.88,0.16582
1.884,0.16414
1.888,0.1772
1.892,0.23531
1.896,0.12055
1.9,0.15735
1.904,0.32304
1.908,0.28822
1.912,0.2388
1.916,0.22141
1.92,0.22548
1.924,0.28449
1.928,0.38247
1.932,0.2246
1.936,0.31506
1.94,0.33245
1.944,0.24845
1.948,0.2568
1.952,0.23958
1.956,0.23059
1.96,0.22006
1.964,0.17806
1.968,0.14421
1.972,0.07393
1.976,0.06481
1.98,0.11243
1.984,0.07331
1.988,0.10393
1.992,0.09939
1.996,0.10257
2.0,0.01612
2.004,0.04891
2.008,0.0232
2.012,0.02952
2.016,0.01415
2.02,-0.02541
2.024,-0.02858
2.028,0.0478
2.032,0.02644
2.036,0.02183
2.04,0.00717
2.044,-0.01438
2.048,0.03525
2.052,-0.09901
2.056,-0.14133
2.06,-0.15986
2.064,-0.08165
2.068,0.01243
2.072,0.22386
2.076,0.37706
2.08,0.55396
2.084,0.83418
2.088,0.92617
2.092,0.98572
2.096,0.98772
2.1,0.84286
2.104,0.57402
2.108,0.30877
2.112,0.15656
2.116,-0.05098
2.12,-0.12777
2.124,-0.13724
2.128,-0.16185
2.132,-0.14067
2.136,-0.05943
2.14,-0.09742
2.144,0.02949
2.148,0.01185
2.152,0.06668
2.156,0.09517
2.16,0.02953
2.164,-0.00576
2.168,0.02218
2.172,0.00977
2.176,-0.04134
2.18,-0.00976
2.184,-0.04037
2.188,-0.03636
2.192,-0.03169
2.196,-0.034
2.2,0.02687
2.204,-0.089
2.208,-0.0448
2.212,0.0092
2.216,-0.03757
2.22,0.00959
2.224,-0.04674
2.228,-0.0133
2.232,-0.0112
2.236,-0.02293
2.24,0.04686
2.244,-0.03069
2.248,0.00145
2.252,-1e-05
2.256,0.00929
2.26,-0.0393
2.264,-0.0028
2.268,0.02773
2.272,0.02191
2.276,0.0589
2.28,0.00144
2.284,0.03481
2.288,0.0746
2.292,0.00189
2.296,0.07851
2.3,0.06599
2.304,-0.00644
2.308,0.06581
2.312,0.01741
2.316,0.11384
2.32,0.10038
2.324,0.12991
2.328,0.11651
2.332,0.14769
2.336,0.18804
2.34,0.20928
2.344,0.15181
2.348,0.16751
2.352,0.21864
2.356,0.26314
2.36,0.21302
2.364,0.11929
2.368,0.22033
2.372,0.25199
2.376,0.1303
2.38,0.19215
2.384,0.20194
2.388,0.14123
2.392,0.16058
2.396,0.20625
2.4,0.14387
2.404,0.15207
2.408,0.09759
2.412,0.10034
2.416,0.0732
2.42,0.09463
2.424,0.07967
2.428,0.06904
2.432,0.10986
2.436,0.0294
2.44,0.07428
2.444,0.04902
2.448,0.04457
2.452,0.03098
2.456,0.03201
2.46,0.01588
2.464,0.02964
2.468,-0.04473
2.472,-0.02128
2.476,0.02439
2.48,0.00192
2.484,0.02954
2.488,0.04208
2.492,0.11214
2.496,-0.00247
2.5,0.05417
2.504,0.13985
2.508,0.11292
2.512,0.09823
2.516,0.06777
2.52,0.0717
2.524,0.09566
2.528,0.03423
2.532,0.05749
2.536,-0.00146
2.54,0.01747
2.544,0.03677
2.548,-0.00772
2.552,-0.00278
2.556,0.06962
2.56,-0.01656
2.564,-0.0158
2.568,-0.0109
2.572,-0.02723
2.576,-0.05933
2.58,0.01882
2.584,0.02717
2.588,-0.02477
2.592,0.02047
2.596,-0.00174
2.6,-0.01355
2.604,0.00754
2.608,-0.06338
2.612,0.04674
2.616,-0.05658
2.62,0.02312
2.624,-0.045
2.628,-0.01655
2.632,0.00187
2.636,-0.08526
2.64,-0.17778
2.644,-0.1819
2.648,-0.10299
2.652,0.03001
2.656,0.09517
2.66,0.30381
2.664,0.58114
2.668,0.70442
2.672,0.9283
2.676,0.97913
2.68,0.96975
2.684,0.77558
2.688,0.57266
2.692,0.32445
2.696,0.1398
2.7,0.02703
2.704,-0.14331
2.708,-0.08969
2.712,-0.22362
2.716,-0.12799
2.72,-0.1084
2.724,-0.04733
2.728,-0.08204
2.732,0.00565
2.736,-0.11998
2.74,-0.01404
2.744,-0.04315
2.748,-0.02766
2.752,-0.01437
2.756,-0.02676
2.76,-0.02004
2.764,0.00119
2.768,-0.08247
2.772,0.05942
2.776,-0.05934
2.78,-0.03623
2.784,0.04455
2.788,0.03101
2.792,-0.0208
2.796,-0.02677
2.8,-0.04737
2.804,0.03443
2.808,-0.09245
2.812,-0.00399
2.816,-0.03429
2.82,-0.08185
2.824,-0.02233
2.828,-0.05297
2.832,0.01749
2.836,-0.00069
2.84,-0.01787
2.844,0.07743
2.848,0.00716
2.852,-0.01975
2.856,0.05224
2.86,-0.00595
2.864,0.0837
2.868,0.03191
2.872,0.07111
2.876,-0.00461
2.88,-0.00464
2.884,0.01636
2.888,-0.00858
2.892,0.07127
2.896,0.02999
2.9,0.06151
2.904,0.13446
2.908,0.08057
2.912,0.17065
2.916,0.1051
2.92,0.11028
2.924,0.15303
2.928,0.2002
2.932,0.17665
2.936,0.19609
2.94,0.20166
2.944,0.14838
2.948,0.21627
2.952,0.11301
2.956,0.23001
2.96,0.11861
2.964,0.12497
2.968,0.18651
2.972,0.0966
2.976,0.21131
2.98,0.19256
2.984,0.11738
2.988,0.10048
2.992,0.16615
2.996,0.1743
3.0,0.13853
3.004,0.0775
3.008,0.08764
3.012,0.07515
3.016,0.08782
3.02,0.08147
3.024,0.1064
3.028,-0.00511
3.032,0.04839
3.036,-0.04072
3.04,0.09
3.044,-0.01523
3.048,0.01271
3.052,-0.02484
3.056,0.03789
3.06,-0.05462
3.064,-0.05921
3.068,-0.02448
3.072,0.00152
3.076,-0.02202
3.08,-0.04063
3.084,0.02347
3.088,-0.05129
3.092,0.0253
3.096,0.00043
3.1,0.03651
3.104,0.02908
3.108,0.01786
3.112,0.00206
3.116,-0.0273
3.12,-0.0172
3.124,0.0007
3.128,-0.06158
3.132,0.05165
3.136,-0.01081
3.14,-0.06847
3.144,0.00392
3.148,-0.02535
3.152,-0.0132
3.156,-0.08024
3.16,-0.06976
3.164,-0.05224
3.168,-0.01173
3.172,-0.02107
3.176,-0.05121
3.18,0.01017
3.184,-0.02571
3.188,0.03026
3.192,0.01442
3.196,-0.05074
3.2,-0.01334
3.204,-0.02204
3.208,-0.03225
3.212,-0.01292
3.216,-0.08442
3.22,-0.04421
3.224,-0.03167
3.228,-0.06884
3.232,-0.03577
3.236,-0.03666
3.24,-7e-05
3.244,-0.03589
3.248,-0.02906
3.252,0.04054
3.256,-0.00989
3.26,-0.06508
3.264,-0.01337
3.268,0.00873
3.272,-0.07333
3.276,-0.00096
3.28,-0.07413
3.284,-0.04978
3.288,-0.05809
3.292,-0.09185
3.296,-0.03175
3.3,0.032
3.304,-0.07983
3.308,-0.02634
3.312,0.02069
3.316,-0.06978
3.32,-0.05905
3.324,0.00854
3.328,-0.00449
3.332,-0.04049
3.336,-0.05646
3.34,-0.00173
3.344,-0.06955
3.348,-0.10558
3.352,-0.05273
3.356,-0.00338
3.36,-0.0291
3.364,-0.01248
3.368,-0.0219
3.372,-0.00549
3.376,-0.05116
3.38,-0.00061
3.384,-0.05448
3.388,-0.05184
3.392,0.02113
3.396,-0.04554
3.4,-0.03558
3.404,-0.09596
3.408,-0.00666
3.412,-0.12525
3.416,-0.05286
3.42,-0.01633
3.424,-0.0831
3.428,-0.00629
3.432,-0.02646
3.436,-0.03712
3.44,-0.04284
3.444,0.0459
3.448,-0.04719
3.452,-0.02498
3.456,-0.0421
3.46,0.00562
3.464,-0.07413
3.468,-0.0592
3.472,-0.0438
3.476,-0.01404
3.48,-0.02404
3.484,0.02676
3.488,-0.07281
3.492,-0.05397
3.496,-0.04042
3.5,-0.03648
3.504,-0.01576
3.508,-0.03625
3.512,0.02087
3.516,0.0693
3.52,-0.03328
3.524,0.11048
3.528,0.05879
3.532,0.11184
3.536,0.04985
3.54,0.10448
3.544,0.05181
3.548,0.04947
3.552,0.0697
3.556,0.03156
3.56,-0.00621
3.564,0.06335
3.568,0.02059
3.572,-0.03057
3.576,-0.05129
3.58,-0.04093
3.584,-0.07
3.588,-0.05633
3.592,-0.07211
3.596,-0.09726
3.6,-0.04954
3.604,-0.02616
3.608,-0.0462
3.612,-0.04678
3.616,-0.0043
3.62,-0.01848
3.624,-3e-05
3.628,0.0304
3.632,-0.02611
3.636,-0.06238
3.64,-0.03511
3.644,-0.04222
3.648,-0.06262
3.652,-0.04505
3.656,-0.13546
3.66,-0.11131
3.664,-0.12783
3.668,-0.08421
3.672,0.10577
3.676,0.28222
3.68,0.47943
3.684,0.75191
3.688,0.88525
3.692,0.90407
3.696,0.95251
3.7,0.77896
3.704,0.55799
3.708,0.32747
3.712,0.1817
3.716,-0.04312
3.72,-0.14133
3.724,-0.19181
3.728,-0.16044
3.732,-0.14259
3.736,-0.10206
3.74,-0.08885
3.744,-0.05968
3.748,0.0344
3.752,-0.04815
3.756,0.09589
3.76,0.02252
3.764,0.02455
3.768,0.00919
3.772,0.09092
3.776,0.0579
3.78,0.01808
3.784,0.05559
3.788,0.05643
3.792,0.07083
3.796,0.08757
3.8,0.05871
3.804,-0.0233
3.808,-0.00798
3.812,0.02142
3.816,-0.01896
3.82,0.0312
3.824,0.07221
3.828,-0.0179
3.832,-0.0181
3.836,-0.03891
3.84,0.00677
3.844,-0.01959
3.848,-0.02991
3.852,0.08697
3.856,-0.00408
3.86,-0.06096
3.864,0.00536
3.868,-0.06786
3.872,-0.01218
3.876,0.03598
3.88,0.00942
3.884,-0.0154
3.888,-0.01798
3.892,-0.00348
3.896,0.01323
3.9,-0.04915
3.904,-0.03647
3.908,-0.01836
3.912,-0.00076
3.916,0.04865
3.92,0.14808
3.924,0.32092
3.928,0.55229
3.932,0.77071
3.936,0.99437
3.94,1.13125
3.944,1.14872
3.948,1.12008
3.952,0.88014
3.956,0.72561
3.96,0.43373
3.964,0.22547
3.968,0.12653
3.972,0.09834
3.976,0.01421
3.98,0.06045
3.984,0.0633
3.988,0.12211
3.992,0.09156
3.996,0.18872
4.0,0.13519
4.004,0.07389
4.008,0.17693
4.012,0.0837
4.016,0.11762
4.02,0.07323
4.024,0.10224
4.028,0.05489
4.032,0.03693
4.036,0.03055
4.04,0.02733
4.044,0.04041
4.048,0.04341
4.052,-0.02667
4.056,0.00785
4.06,0.01628
4.064,-0.02152
4.068,-0.03073
4.072,0.02682
4.076,-0.00946
4.08,0.00825
4.084,-0.00255
4.088,0.01304
4.092,0.00305
4.096,0.00216
4.1,-0.06582
4.104,-0.01317
4.108,-0.08426
4.112,-0.01469
4.116,-0.01999
4.12,-0.02635
4.124,-0.0023
4.128,0.00334
4.132,0.03584
4.136,0.01669
4.14,0.0085
4.144,0.01543
4.148,0.034
4.152,0.09377
4.156,0.0591
4.16,0.06685
4.164,0.07327
4.168,0.08139
4.172,0.04443
4.176,0.13841
4.18,0.09071
4.184,0.14798
4.188,0.17174
4.192,0.15125
4.196,0.2064
4.2,0.17109
4.204,0.18051
4.208,0.25152
4.212,0.20011
4.216,0.18448
4.22,0.21098
4.224,0.18368
4.228,0.15431
4.232,0.16663
4.236,0.17229
4.24,0.28213
4.244,0.19506
4.248,0.1149
4.252,0.19075
4.256,0.08093
4.26,0.17784
4.264,0.12043
4.268,0.1011
4.272,0.11104
4.276,0.0645
4.28,0.07703
4.284,0.04594
4.288,0.05057
4.292,0.05353
4.296,-0.00341
4.3,0.04853
4.304,-0.09782
4.308,0.02431
4.312,-0.01807
4.316,0.01362
4.32,0.00864
4.324,0.07347
4.328,0.00587
4.332,0.04941
4.336,0.02974
4.34,-0.05399
4.344,0.01825
4.348,0.01548
4.352,0.01033
4.356,-0.06022
4.36,-0.00471
4.364,-0.01893
4.368,-0.04525
4.372,-0.10455
4.376,-0.04105
4.38,-0.03744
4.384,-0.00428
4.388,-0.04138
4.392,-0.01698
4.396,0.03865
4.4,-0.04661
4.404,-0.05385
4.408,-0.0206
4.412,-0.00842
4.416,-0.04441
4.42,-0.03217
4.424,-0.07603
4.428,0.03295
4.432,0.00059
4.436,-0.0358
4.44,0.01953
4.444,-0.00493
4.448,-0.05229
4.452,-0.03774
4.456,-0.05928
4.46,0.05607
4.464,-0.01016
4.468,0.02543
4.472,-0.00203
4.476,-0.01423
4.48,-0.01682
4.484,-0.01334
4.488,-0.02089
4.492,-0.05439
4.496,-0.07118
4.5,0.0003
4.504,-0.03684
4.508,-0.04748
4.512,-0.03617
4.516,0.00989
4.52,0.00097
4.524,-0.07031
4.528,0.01441
4.532,-0.07283
4.536,-0.00342
4.54,0.0048
4.544,-0.02613
4.548,-0.03712
4.552,-0.08123
4.556,-0.03547
4.56,-0.01484
4.564,-0.01743
4.568,0.00241
4.572,-0.01619
4.576,-0.02894
4.58,-0.06808
4.584,-0.00595
4.588,-0.02867
4.592,-0.0091
4.596,0.01386
4.6,-0.01243
4.604,0.0894
4.608,-0.07034
4.612,0.01985
4.616,-0.02839
4.62,0.01347
4.624,-0.10369
4.628,-0.05718
4.632,-0.01963
4.636,-0.03508
4.64,0.04059
4.644,-0.04771
4.648,-0.03232
4.652,-0.02477
4.656,-0.0375
4.66,0.0089
4.664,-0.01005
4.668,-0.03838
4.672,-0.12434
4.676,-0.01084
4.68,0.00849
4.684,-0.04261
4.688,-0.00293
4.692,-0.0283
4.696,0.01094
4.7,-0.03392
4.704,0.02449
4.708,0.00193
4.712,-0.01428
4.716,-0.013
4.72,0.05034
4.724,-0.06463
4.728,-0.07642
4.732,-0.04342
4.736,0.04778
4.74,-0.08102
4.744,-0.01288
4.748,0.00309
4.752,-0.05801
4.756,-0.03632
4.76,0.03656
4.764,-0.00232
4.768,0.01186
4.772,-0.0355
4.776,0.01951
4.78,-0.04994
4.784,0.01648
4.788,-0.02047
4.792,0.01504
4.796,0.05967
4.8,0.00478
4.804,-0.05176
4.808,0.01923
4.812,-0.02928
4.816,0.04695
4.82,-0.10162
4.824,0.04095
4.828,0.13088
4.832,0.05915
4.836,-0.00977
4.84,-0.0307
4.844,0.03453
4.848,-0.0661
4.852,-0.00467
4.856,0.08735
4.86,0.04029
4.864,0.02667
4.868,0.10754
4.872,0.09846
4.876,0.09391
4.88,0.08643
4.884,0.04562
4.888,0.10464
4.892,0.03847
4.896,0.08006
4.9,0.0879
4.904,0.00571
4.908,-0.01098
4.912,0.03549
4.916,-0.01914
4.92,-0.04823
4.924,-0.00496
4.928,-0.03136
4.932,-0.0198
4.936,0.01101
4.94,-0.01039
4.944,0.00744
4.948,-0.04347
4.952,-0.0035
4.956,-0.00558
4.96,0.01734
4.964,0.03025
4.968,-0.01703
4.972,-0.00626
4.976,0.02162
4.98,0.00184
4.984,0.00189
4.988,-0.02902
4.992,-0.05143
4.996,-0.19638
5.0,-0.18439
5.004,-0.15319
5.008,0.00341
5.012,0.10558
5.016,0.25699
5.02,0.51361
5.024,0.71736
5.028,0.9264
5.032,1.03054
5.036,0.92354
5.04,0.87043
5.044,0.6829
5.048,0.35467
5.052,0.26508
5.056,0.11423
5.06,-0.08909
5.064,-0.15261
5.068,-0.12275
5.072,-0.14448
5.076,-0.06616
5.08,-0.04594
5.084,-0.01303
5.088,0.0033
5.092,0.00956
5.096,-0.0084
5.1,0.02277
5.104,-0.00044
5.108,-0.01584
5.112,0.01061
5.116,-0.00354
5.12,-0.02889
5.124,-0.06177
5.128,-0.05617
5.132,0.00907
5.136,-0.03867
5.14,-0.01066
5.144,0.05481
5.148,-0.05926
5.152,-0.05551
5.156,0.03511
5.16,0.0347
5.164,0.03731
5.168,-0.0819
5.172,0.05206
5.176,-0.03235
5.18,-0.00071
5.184,-0.06797
5.188,0.02442
5.192,-0.00384
5.196,-0.01482
5.2,0.01843
5.204,0.01186
5.208,-0.01486
5.212,0.04698
5.216,-0.00644
5.22,0.06663
5.224,0.04355
5.228,0.01093
5.232,0.03656
5.236,0.0358
5.24,0.05549
5.244,0.08468
5.248,0.09927
5.252,0.11083
5.256,0.11712
5.26,0.06506
5.264,0.1673
5.268,0.17466
5.272,0.23036
5.276,0.11761
5.28,0.12309
5.284,0.21756
5.288,0.232
5.292,0.21124
5.296,0.1619
5.3,0.2115
5.304,0.19704
5.308,0.25187
5.312,0.20646
5.316,0.19911
5.32,0.17043
5.324,0.21917
5.328,0.23049
5.332,0.1648
5.336,0.17044
5.34,0.18633
5.344,0.14087
5.348,0.16947
5.352,0.0948
5.356,0.12326
5.36,0.13073
5.364,0.14618
5.368,0.1317
5.372,0.06752
5.376,0.0385
5.38,0.08667
5.384,0.07128
5.388,0.0812
5.392,0.05719
5.396,0.06397
5.4,0.05851
5.404,0.03279
5.408,0.0963
5.412,0.06121
5.416,-0.0383
5.42,0.06367
5.424,-0.02878
5.428,-0.04062
5.432,0.0024
5.436,-0.00658
5.44,0.06148
5.444,0.0326
5.448,0.12768
5.452,0.08547
5.456,0.06819
5.46,0.12543
5.464,0.08956
5.468,0.05515
5.472,0.14541
5.476,0.08128
5.48,0.13568
5.484,0.03065
5.488,0.07374
5.492,0.04288
5.496,0.1005
5.5,0.07986
5.504,-0.02448
5.508,0.0347
5.512,0.01726
5.516,-0.01301
5.52,-0.07653
5.524,0.04533
5.528,0.01643
5.532,0.0282
5.536,-0.01884
5.54,0.0406
5.544,0.01682
5.548,-0.01622
5.552,-0.02164
5.556,0.04775
5.56,-0.03313
5.564,0.0598
5.568,0.05092
5.572,-0.02506
5.576,0.03628
5.58,0.01718
5.584,-0.01812
5.588,0.01609
5.592,-0.09777
5.596,-0.14305
5.6,-0.16076
5.604,-0.00993
5.608,0.1454
5.612,0.25027
5.616,0.51609
5.62,0.69004
5.624,0.85495
5.628,0.96934
5.632,1.01161
5.636,0.94226
5.64,0.7051
5.644,0.45688
5.648,0.27407
5.652,0.06049
5.656,-0.11899
5.66,-0.08038
5.664,-0.18489
5.668,-0.09658
5.672,-0.08927
5.676,-0.06277
5.68,-0.07728
5.684,0.02378
5.688,0.00489
5.692,-0.04025
5.696,0.01703
5.7,-0.01193
5.704,0.0222
5.708,0.02348
5.712,0.05644
5.716,0.04796
5.72,0.02322
5.724,-0.01127
5.728,-0.00579
5.732,0.04021
5.736,0.01302
5.74,0.00802
5.744,0.00235
5.748,0.00451
5.752,0.03786
5.756,0.01436
5.76,0.09296
5.764,-0.01957
5.768,-0.01739
5.772,-0.00272
5.776,-0.05137
5.78,0.05092
5.784,0.05904
5.788,0.03526
5.792,0.01465
5.796,0.03072
5.8,0.01197
5.804,0.0269
5.808,0.08634
5.812,0.00052
5.816,0.09807
5.82,0.06619
5.824,0.04572
5.828,0.02883
5.832,0.01918
5.836,0.11465
5.84,0.04728
5.844,0.07578
5.848,0.05997
5.852,0.09148
5.856,0.10916
5.86,0.14909
5.864,0.13159
5.868,0.10103
5.872,0.22877
5.876,0.17437
5.88,0.20282
5.884,0.19715
5.888,0.18901
5.892,0.24052
5.896,0.16561
5.9,0.24588
5.904,0.25429
5.908,0.23205
5.912,0.23651
5.916,0.26717
5.92,0.19469
5.924,0.20825
5.928,0.18426
5.932,0.22618
5.936,0.20789
5.94,0.15622
5.944,0.18977
5.948,0.14617
5.952,0.19614
5.956,0.10835
5.96,0.13597
5.964,0.13245
5.968,0.11683
5.972,0.09079
5.976,0.10951
5.98,0.11082
5.984,0.07921
5.988,0.07335
5.992,0.04949
5.996,0.01419
6.0,0.08401
6.004,0.04529
6.008,0.02574
6.012,-0.01639
6.016,0.0193
6.02,0.11671
6.024,0.03871
6.028,0.00996
6.032,0.03107
6.036,-0.02751
6.04,0.0736
6.044,0.06919
6.048,0.02457
6.052,0.03546
6.056,0.02008
6.06,0.08869
6.064,0.08467
6.068,0.04948
6.072,0.00808
6.076,0.01929
6.08,0.09675
6.084,0.02848
6.088,0.07343
6.092,0.05778
6.096,0.0925
6.1,0.08677
6.104,-0.01221
6.108,0.02084
6.112,0.01732
6.116,0.03186
6.12,0.07045
6.124,-0.08057
6.128,0.02255
6.132,0.01988
6.136,0.04987
6.14,0.06523
6.144,-0.01783
6.148,-0.00988
6.152,0.07973
6.156,0.02533
6.16,0.0028
6.164,0.0404
6.168,0.0218
6.172,0.00948
6.176,0.0144
6.18,0.10487
6.184,0.02246
6.188,-0.00506
6.192,-0.03008
6.196,0.00854
6.2,0.06535
6.204,0.04397
6.208,-0.00163
6.212,0.02854
6.216,0.01238
6.22,0.04095
6.224,0.03218
6.228,0.03969
6.232,0.0698
6.236,-0.04128
6.24,0.03381
6.244,0.03261
6.248,0.0513
6.252,0.01818
6.256,0.03757
6.26,0.01454
6.264,0.08718
6.268,0.05942
6.272,0.14788
6.276,0.0656
6.28,0.06273
6.284,0.05477
6.288,0.08256
6.292,0.08852
6.296,0.1217
6.3,0.08868
6.304,0.10308
6.308,0.16278
6.312,0.132
6.316,0.07392
6.32,0.14124
6.324,0.13365
6.328,-0.00507
6.332,0.03382
6.336,0.08724
6.34,0.03192
6.344,0.03043
6.348,0.02417
6.352,0.02157
6.356,-0.02056
6.36,0.0089
6.364,-0.05978
6.368,0.0019
6.372,-0.00445
6.376,-0.04008
6.38,0.03361
6.384,0.00213
6.388,0.03916
6.392,-0.00683
6.396,-0.02083
6.4,0.01139
6.404,-0.0316
6.408,-0.01513
6.412,0.07418
6.416,0.0527
6.42,0.02736
6.424,-0.05602
6.428,-0.09511
6.432,-0.08663
6.436,-0.01275
6.44,0.14615
6.444,0.26943
6.448,0.45546
6.452,0.66784
6.456,0.85445
6.46,0.98266
6.464,1.04504
6.468,0.92612
6.472,0.74056
6.476,0.49647
6.48,0.28914
6.484,0.04665
6.488,-0.01512
6.492,-0.14843
6.496,-0.19634
6.5,-0.113
6.504,-0.07904
6.508,0.02478
6.512,0.05632
6.516,0.08441
6.52,0.02438
6.524,-0.02087
6.528,0.11682
6.532,0.01748
6.536,0.02323
6.54,-0.01146
6.544,0.00836
6.548,0.00693
6.552,-0.02062
6.556,0.01549
6.56,0.07679
6.564,0.0863
6.568,0.05687
6.572,-0.00607
6.576,0.01129
6.58,0.01149
6.584,0.0392
6.588,0.00116
6.592,0.03847
6.596,0.08851
6.6,0.00184
6.604,-0.01119
6.608,0.02497
6.612,0.05719
6.616,0.02144
6.62,0.03034
6.624,0.07916
6.628,0.03133
6.632,0.07474
6.636,0.13003
6.64,0.10883
6.644,0.02095
6.648,0.01003
6.652,0.07725
6.656,0.03851
6.66,0.03377
6.664,0.01451
6.668,0.06851
6.672,0.14529
6.676,0.11731
6.68,0.16599
6.684,0.13648
6.688,0.16414
6.692,0.18964
6.696,0.17207
6.7,0.21744
6.704,0.21027
6.708,0.29089
6.712,0.20392
6.716,0.30549
6.72,0.32964
6.724,0.33618
6.728,0.33215
6.732,0.27727
6.736,0.38436
6.74,0.3138
6.744,0.38857
6.748,0.32903
6.752,0.30561
6.756,0.27456
6.76,0.34474
6.764,0.19948
6.768,0.23725
6.772,0.25798
6.776,0.20538
6.78,0.19183
6.784,0.17153
6.788,0.12878
6.792,0.15519
6.796,0.09382
6.8,0.12087
6.804,0.09234
6.808,0.07753
6.812,0.16012
6.816,0.10225
6.82,0.07722
6.824,0.05333
6.828,0.06825
6.832,0.02148
6.836,0.02401
6.84,0.06316
6.844,0.03008
6.848,0.0073
6.852,-0.00287
6.856,-0.0583
6.86,-0.06922
6.864,0.00201
6.868,0.27179
6.872,0.37666
6.876,0.58213
6.88,0.75738
6.884,0.92968
6.888,1.01862
6.892,0.94421
6.896,0.8574
6.9,0.66523
6.904,0.4051
6.908,0.29453
6.912,-0.02853
6.916,-0.02638
6.92,-0.13443
6.924,-0.02316
6.928,-0.11428
6.932,-0.06923
6.936,0.00658
6.94,0.02785
6.944,0.08458
6.948,-0.0021
6.952,0.01366
6.956,0.04086
6.96,0.02798
6.964,0.03208
6.968,0.05063
6.972,0.01245
6.976,0.00453
6.98,0.07044
6.984,0.00244
6.988,0.10763
6.992,0.01705
6.996,0.02685
7.0,-0.01299
7.004,0.01993
7.008,0.02477
7.012,0.09714
7.016,0.07067
7.02,0.07032
7.024,0.05387
7.028,0.0644
7.032,0.01551
7.036,0.02312
7.04,0.01897
7.044,0.03115
7.048,0.08243
7.052,-0.00071
7.056,0.04759
7.06,0.0997
7.064,0.06538
7.068,0.051
7.072,0.11173
7.076,0.0544
7.08,0.08113
7.084,0.01387
7.088,0.04109
7.092,0.06899
7.096,0.05034
7.1,0.07301
7.104,0.13507
7.108,0.1818
7.112,0.10653
7.116,0.154
7.12,0.20271
7.124,0.14972
7.128,0.12894
7.132,0.19509
7.136,0.22838
7.14,0.21713
7.144,0.1848
7.148,0.20427
7.152,0.23519
7.156,0.16407
7.16,0.29558
7.164,0.20054
7.168,0.28305
7.172,0.23803
7.176,0.27328
7.18,0.23812
7.184,0.18128
7.188,0.21805
7.192,0.24906
7.196,0.23717
7.2,0.21418
7.204,0.22198
7.208,0.13381
7.212,0.16931
7.216,0.19734
7.22,0.11871
7.224,0.11378
7.228,0.03722
7.232,0.14009
7.236,0.09549
7.24,0.10579
7.244,0.0278
7.248,0.04855
7.252,0.0905
7.256,0.08574
7.26,9e-05
7.264,0.03036
7.268,0.08524
7.272,0.01731
7.276,0.06253
7.28,0.09388
7.284,0.00905
7.288,0.0398
7.292,0.06581
7.296,-0.00969
7.3,-0.03047
7.304,0.03473
7.308,0.01434
7.312,-0.00067
7.316,0.07056
7.32,-0.00039
7.324,0.07062
7.328,-0.02751
7.332,0.05545
7.336,0.04171
7.34,-0.02862
7.344,-0.00412
7.348,0.05269
7.352,0.02512
7.356,0.00911
7.36,0.02426
7.364,0.05556
7.368,0.0237
7.372,0.03045
7.376,0.01614
7.38,-0.00305
7.384,0.00678
7.388,0.03419
7.392,0.02698
7.396,0.06482
7.4,0.07007
7.404,-0.01276
7.408,-0.03065
7.412,0.02925
7.416,0.00736
7.42,0.03054
7.424,0.05266
7.428,-0.00038
7.432,0.09596
7.436,0.07066
7.44,0.00399
7.444,-0.00966
7.448,0.05338
7.452,0.02938
7.456,0.00075
7.46,0.01659
7.464,0.05857
7.468,0.08059
7.472,-0.00482
7.476,0.0353
7.48,-0.03699
7.484,-0.01057
7.488,0.03906
7.492,0.11151
7.496,0.01718
7.5,0.11621
7.504,0.06678
7.508,0.10302
7.512,0.0825
7.516,0.04504
7.52,0.10277
7.524,0.11456
7.528,0.14456
7.532,0.14743
7.536,0.12434
7.54,0.11592
7.544,0.12035
7.548,0.1016
7.552,0.07155
7.556,0.1544
7.56,0.12693
7.564,0.03682
7.568,0.10124
7.572,0.07723
7.576,0.05998
7.58,0.00997
7.584,-0.05502
7.588,0.02344
7.592,0.01338
7.596,0.03317
7.6,0.03048
7.604,0.00087
7.608,0.10181
7.612,-0.01342
7.616,-0.02645
7.62,0.03648
7.624,0.09031
7.628,0.0391
7.632,0.01436
7.636,0.10048
7.64,0.04939
7.644,0.0307
7.648,-0.0235
7.652,0.04154
7.656,-0.02191
7.66,-0.08702
7.664,-0.01685
7.668,-0.08275
7.672,-0.07876
7.676,0.0392
7.68,0.12808
7.684,0.36118
7.688,0.57693
7.692,0.85249
7.696,1.01723
7.7,0.98984
7.704,0.95011
7.708,0.8081
7.712,0.67371
7.716,0.36617
7.72,0.19538
7.724,-0.0108
7.728,-0.06989
7.732,-0.16639
7.736,-0.123
7.74,-0.06903
7.744,-0.04222
7.748,-0.02078
7.752,-0.02511
7.756,-0.0523
7.76,0.01022
7.764,0.05943
7.768,0.03516
7.772,-0.06094
7.776,-0.00869
7.78,0.05477
7.784,0.0423
7.788,0.03744
7.792,0.01784
7.796,0.01408
7.8,0.00572
7.804,0.01527
7.808,-0.04723
7.812,0.0265
7.816,0.04764
7.82,0.09694
7.824,0.08255
7.828,0.11398
7.832,0.12918
7.836,0.1464
7.84,0.16175
7.844,0.17063
7.848,0.11663
7.852,0.14356
7.856,0.10977
7.86,0.10829
7.864,0.03785
7.868,0.08937
7.872,0.0976
7.876,0.05021
7.88,0.08965
7.884,0.07977
7.888,0.09753
7.892,0.03117
7.896,-0.00119
7.9,0.05935
7.904,0.02673
7.908,0.11391
7.912,0.05689
7.916,0.1035
7.92,0.0952
7.924,0.11261
7.928,0.13192
7.932,0.18627
7.936,0.17428
7.94,0.13805
7.944,0.19807
7.948,0.21371
7.952,0.17775
7.956,0.155
7.96,0.2664
7.964,0.22775
7.968,0.17526
7.972,0.09275
7.976,0.17551
7.98,0.14758
7.984,0.1958
7.988,0.38577
7.992,0.5349
7.996,0.73387
8.0,1.00774
8.004,1.0761
8.008,1.23328
8.012,1.16079
8.016,1.01104
8.02,0.79824
8.024,0.54383
8.028,0.367
8.032,0.11753
8.036,-0.02268
8.04,-0.05143
8.044,-0.02153
8.048,-0.06972
8.052,0.00589
8.056,0.08612
8.06,-0.01413
8.064,0.01687
8.068,0.06055
8.072,0.04413
8.076,0.07716
8.08,-0.02158
8.084,0.09893
8.088,0.06467
8.092,0.01881
8.096,0.06338
8.1,0.04035
8.104,-0.0155
8.108,0.01559
8.112,0.03443
8.116,-0.0203
8.12,0.06194
8.124,-0.00938
8.128,0.06057
8.132,0.0038
8.136,-0.02411
8.14,0.00289
8.144,0.0596
8.148,0.01226
8.152,0.05456
8.156,0.01347
8.16,0.01676
8.164,0.03195
8.168,0.05054
8.172,0.0118
8.176,-0.00182
8.18,0.09199
8.184,0.02222
8.188,-0.02031
8.192,0.05214
8.196,0.09479
8.2,0.02879
8.204,0.0299
8.208,0.07107
8.212,0.08299
8.216,0.11084
8.22,0.0971
8.224,0.03542
8.228,0.11294
8.232,0.11022
8.236,0.13917
8.24,0.10673
8.244,0.12729
8.248,0.15336
8.252,0.13146
8.256,0.21366
8.26,0.18993
8.264,0.24286
8.268,0.19594
8.272,0.22724
8.276,0.25097
8.28,0.21989
8.284,0.20831
8.288,0.1776
8.292,0.18719
8.296,0.19057
8.3,0.23888
8.304,0.20619
8.308,0.1789
8.312,0.2142
8.316,0.14526
8.32,0.15839
8.324,0.11184
8.328,0.22642
8.332,0.09356
8.336,0.16675
8.34,0.15684
8.344,0.10484
8.348,0.12236
8.352,0.08357
8.356,0.04504
8.36,0.08571
8.364,0.07736
8.368,0.04487
8.372,0.05649
8.376,0.01028
8.38,0.01365
8.384,0.01766
8.388,0.0378
8.392,-0.01768
8.396,0.04291
8.4,0.01185
8.404,0.01759
8.408,0.03662
8.412,0.03717
8.416,0.00102
8.42,0.04777
8.424,-0.00679
8.428,0.03641
8.432,0.02984
8.436,0.03416
8.44,0.01018
8.444,-0.01725
8.448,0.04802
8.452,-0.00549
8.456,0.0029
8.46,-0.01649
8.464,0.01449
8.468,-0.00826
8.472,-0.00857
8.476,-0.0086
8.48,0.04884
8.484,-0.03287
8.488,-0.00363
8.492,0.01815
8.496,-0.09436
8.5,0.00767
8.504,0.05959
8.508,0.02768
8.512,0.02
8.516,0.00789
8.52,-0.04555
8.524,0.01416
8.528,-0.06855
8.532,0.00495
8.536,0.00887
8.54,-0.00231
8.544,0.00818
8.548,-0.00552
8.552,-0.0311
8.556,-0.03512
8.56,-0.00102
8.564,6e-05
8.568,0.01018
8.572,0.02112
8.576,-0.04324
8.58,0.02497
8.584,0.06759
8.588,-0.00502
8.592,-0.01084
8.596,-0.03771
8.6,-0.01252
8.604,0.0619
8.608,-0.02308
8.612,0.01168
8.616,0.01212
8.62,-0.01191
8.624,-0.00366
8.628,0.02288
8.632,0.03795
8.636,0.04607
8.64,0.07419
8.644,0.03668
8.648,0.06563
8.652,0.07575
8.656,0.06351
8.66,0.00886
8.664,0.09062
8.668,0.12632
8.672,0.09992
8.676,0.00548
8.68,0.10996
8.684,0.08592
8.688,0.12056
8.692,0.14725
8.696,0.09363
8.7,0.03178
8.704,0.03191
8.708,0.02861
8.712,0.03306
8.716,0.0349
8.72,-0.01087
8.724,0.002
8.728,0.03327
8.732,-0.00785
8.736,-0.01722
8.74,-0.05134
8.744,-0.04162
8.748,-0.01059
8.752,0.01397
8.756,0.02671
8.76,-0.01268
8.764,-0.03738
8.768,0.03587
8.772,0.021
8.776,0.02963
8.78,-0.03366
8.784,-0.04884
8.788,-0.02034
8.792,-0.0225
8.796,-0.07637
8.8,-0.12226
8.804,-0.1178
8.808,-0.11893
8.812,-0.01488
8.816,0.0968
8.82,0.32276
8.824,0.48238
8.828,0.71156
8.832,0.94112
8.836,0.91743
8.84,0.99424
8.844,0.78994
8.848,0.62033
8.852,0.41958
8.856,0.22826
8.86,0.0397
8.864,-0.07494
8.868,-0.2037
8.872,-0.14969
8.876,-0.17475
8.88,-0.13683
8.884,-0.04054
8.888,-0.00491
8.892,-0.0454
8.896,-0.09577
8.9,0.01653
8.904,-0.03739
8.908,0.04794
8.912,0.0183
8.916,0.03724
8.92,-0.00168
8.924,-0.00945
8.928,-0.03481
8.932,-0.01894
8.936,0.04216
8.94,0.04298
8.944,-0.08026
8.948,0.00016
8.952,0.06524
8.956,-0.03818
8.96,-0.01406
8.964,-0.02127
8.968,-0.00212
8.972,-0.06744
8.976,-0.01512
8.98,-0.05713
8.984,-0.05773
8.988,-0.0204
8.992,-0.00097
8.996,-0.0131
9.0,-0.04458
9.004,0.02617
9.008,-0.01272
9.012,0.00848
9.016,-0.06232
9.02,-0.06112
9.024,-0.00991
9.028,-0.00856
9.032,0.09098
9.036,-0.00261
9.04,0.03303
9.044,0.0484
9.048,0.08051
9.052,0.01959
9.056,0.10941
9.06,0.08943
9.064,0.15518
9.068,0.06892
9.072,0.12735
9.076,0.13341
9.08,0.18092
9.084,0.18368
9.088,0.24077
9.092,0.18538
9.096,0.17572
9.1,0.16525
9.104,0.22456
9.108,0.19905
9.112,0.2877
9.116,0.21303
9.12,0.16077
9.124,0.19213
9.128,0.18598
9.132,0.20072
9.136,0.17928
9.14,0.15281
9.144,0.14234
9.148,0.17069
9.152,0.21332
9.156,0.07089
9.16,0.11074
9.164,0.05457
9.168,0.12779
9.172,0.10593
9.176,0.09802
9.18,0.01886
9.184,0.0276
9.188,0.05377
9.192,0.01162
9.196,0.04471
9.2,0.12949
9.204,0.09221
9.208,0.06359
9.212,0.10224
9.216,0.11565
9.22,0.08456
9.224,0.11543
9.228,0.05742
9.232,0.1098
9.236,0.06995
9.24,0.04675
9.244,0.09913
9.248,-0.01053
9.252,0.00035
9.256,0.03385
9.26,0.01963
9.264,-0.03514
9.268,0.02599
9.272,-0.00586
9.276,-0.02492
9.28,0.02968
9.284,-0.07341
9.288,-0.05147
9.292,0.01537
9.296,-0.02717
9.3,-0.03998
9.304,0.02183
9.308,-0.03828
9.312,0.01837
9.316,-0.04054
9.32,-0.02824
9.324,-0.00103
9.328,-0.03105
9.332,-0.0013
9.336,-0.04813
9.34,-0.09484
9.344,-0.05198
9.348,-0.09236
9.352,-0.14292
9.356,-0.16269
9.36,-0.04052
9.364,-0.00875
9.368,0.12651
9.372,0.40485
9.376,0.60635
9.38,0.83604
9.384,0.9191
9.388,1.00568
9.392,0.91739
9.396,0.73126
9.4,0.55226
9.404,0.29655
9.408,0.05642
9.412,-0.03289
9.416,-0.2017
9.42,-0.1803
9.424,-0.10691
9.428,-0.15032
9.432,-0.10522
9.436,-0.09227
9.44,-0.04227
9.444,0.03061
9.448,-0.06263
9.452,0.00515
9.456,-0.11967
9.46,0.05246
9.464,-0.06555
9.468,-0.00423
9.472,-0.00745
9.476,0.04171
9.48,0.01025
9.484,-0.01667
9.488,-0.04525
9.492,-0.04194
9.496,0.03734
9.5,-0.04486
9.504,0.00799
9.508,-7e-05
9.512,-0.04078
9.516,0.01739
9.52,-0.00584
9.524,0.00355
9.528,0.03423
9.532,-0.08298
9.536,-0.04155
9.54,-0.07576
9.544,0.01611
9.548,0.02224
9.552,0.00183
9.556,0.03525
9.56,-0.03926
9.564,0.04492
9.568,-0.01142
9.572,-0.02396
9.576,0.04761
9.58,0.01534
9.584,0.0757
9.588,0.01721
9.592,0.08921
9.596,0.05205
9.6,0.06967
9.604,0.00803
9.608,0.04962
9.612,0.10648
9.616,0.07669
9.62,0.05371
9.624,0.13542
9.628,0.12971
9.632,0.13563
9.636,0.14353
9.64,0.14425
9.644,0.21781
9.648,0.19964
9.652,0.19768
9.656,0.15411
9.66,0.1723
9.664,0.23809
9.668,0.26886
9.672,0.20628
9.676,0.12423
9.68,0.16453
9.684,0.2058
9.688,0.2032
9.692,0.16212
9.696,0.18318
9.7,0.17236
9.704,0.14533
9.708,0.12435
9.712,0.08073
9.716,0.0906
9.72,0.10594
9.724,0.11548
9.728,0.04861
9.732,0.0985
9.736,0.05001
9.74,0.04502
9.744,-0.01464
9.748,0.03804
9.752,-0.07257
9.756,0.02219
9.76,0.01271
9.764,-0.00587
9.768,-0.02206
9.772,-0.02079
9.776,0.01955
9.78,-0.00126
9.784,-0.01195
9.788,-0.02808
9.792,-0.06547
9.796,-8e-05
9.8,-0.0048
9.804,-0.02386
9.808,0.00116
9.812,-0.02821
9.816,-0.07145
9.82,-0.06887
9.824,-0.00586
9.828,-0.06623
9.832,-0.09832
9.836,-0.02404
9.84,-0.06432
9.844,-0.04211
9.848,-0.05086
9.852,-0.01623
9.856,-0.02066
9.86,-0.07897
9.864,-0.05698
9.868,-0.08307
9.872,-0.01642
9.876,0.00188
9.88,-0.03247
9.884,-0.01221
9.888,0.00666
9.892,-0.01248
9.896,0.00471
9.9,-0.00271
9.904,-0.01384
9.908,-0.00804
9.912,-0.07894
9.916,-0.02545
9.92,-0.05841
9.924,-0.03548
9.928,0.00225
9.932,-0.02834
9.936,-0.04222
9.94,-0.00315
9.944,-0.03625
9.948,-0.06302
9.952,-0.06341
9.956,-0.06674
9.96,-0.00356
9.964,-0.01625
9.968,-0.0858
9.972,-0.00934
9.976,-0.07305
9.98,-0.05805
9.984,-0.04223
9.988,-0.02958
9.992,-0.04488
9.996,0.01212
