t_seg,ecg_mV
0.0,0.00422
0.004,0.01858
0.008,-0.01516
0.012,-0.08746
0.016,-0.01581
0.02,-0.05814
0.024,-0.03101
0.028,-0.04985
0.032,-0.03457
0.036,-0.0719
0.04,-0.01746
0.044,-0.0247
0.048,-0.03915
0.052,-0.03437
0.056,-0.02624
0.06,-0.05963
0.064,-0.09717
0.068,-0.1882
0.072,-0.15553
0.076,-0.09606
0.08,0.08694
0.084,0.35521
0.088,0.59606
0.092,0.71694
0.096,0.88435
0.1,0.96383
0.104,0.90005
0.108,0.75837
0.112,0.59457
0.116,0.36903
0.12,0.19061
0.124,-0.02502
0.128,-0.13282
0.132,-0.20836
0.136,-0.20577
0.14,-0.15902
0.144,-0.08841
0.148,-0.06805
0.152,-0.05948
0.156,0.02004
0.16,-0.02279
0.164,-0.00884
0.168,-0.04452
0.172,-0.01216
0.176,0.02949
0.18,-0.02476
0.184,0.02448
0.188,0.00192
0.192,-0.02813
0.196,-0.07249
0.2,-0.02931
0.204,-0.09094
0.208,-0.08419
0.212,-0.03666
0.216,0.01956
0.22,0.02236
0.224,-0.01867
0.228,0.0495
0.232,-0.00806
0.236,-0.02084
0.24,-0.0059
0.244,-0.01064
0.248,-0.00394
0.252,0.01071
0.256,0.01299
0.26,-0.0211
0.264,-0.02605
0.268,-0.0104
0.272,0.01962
0.276,0.0152
0.28,0.00945
0.284,-0.01535
0.288,0.05623
0.292,-0.02401
0.296,0.0092
0.3,0.05756
0.304,0.03301
0.308,0.01078
0.312,0.0401
0.316,0.07154
0.32,0.11145
0.324,0.07996
0.328,0.09966
0.332,0.11368
0.336,0.1619
0.34,0.16601
0.344,0.14894
0.348,0.17826
0.352,0.19055
0.356,0.18835
0.36,0.19324
0.364,0.18857
0.368,0.28436
0.372,0.20876
0.376,0.2157
0.38,0.2106
0.384,0.25823
0.388,0.27382
0.392,0.18694
0.396,0.17955
0.4,0.17622
0.404,0.24186
0.408,0.18437
0.412,0.16127
0.416,0.16403
0.42,0.13855
0.424,0.13141
0.428,0.12959
0.432,0.08899
0.436,0.00363
0.44,0.07425
0.444,0.03943
0.448,0.00918
0.452,3e-05
0.456,0.06572
0.46,0.04927
0.464,0.01315
0.468,-0.01048
0.472,0.03284
0.476,-0.02806
0.48,0.02226
0.484,0.04884
0.488,-0.00811
0.492,-0.01248
0.496,0.00693
0.5,0.01887
0.504,0.04612
0.508,-0.05042
0.512,-0.00739
0.516,-0.04133
0.52,-0.00196
0.524,0.07163
0.528,0.02937
0.532,-0.01158
0.536,-0.09837
0.54,0.02688
0.544,-0.0207
0.548,0.03222
0.552,0.00093
0.556,0.00361
0.56,0.03744
0.564,0.05776
0.568,-0.03764
0.572,0.01054
0.576,0.04241
0.58,-0.01381
0.584,-0.07411
0.588,-0.00442
0.592,-0.03345
0.596,0.02572
0.6,-0.06267
0.604,0.05423
0.608,-0.04646
0.612,0.01327
0.616,0.04678
0.62,0.00745
0.624,-0.01158
0.628,-0.01751
0.632,0.0204
0.636,0.02146
0.64,-0.05767
0.644,0.01081
0.648,0.03162
0.652,0.03117
0.656,0.07713
0.66,0.06337
0.664,-0.01606
0.668,0.02536
0.672,0.1254
0.676,0.1055
0.68,0.11383
0.684,0.06892
0.688,0.0634
0.692,0.09084
0.696,0.1052
0.7,0.01895
0.704,0.03039
0.708,0.07064
0.712,0.00975
0.716,-0.02922
0.72,-0.02425
0.724,-0.08327
0.728,0.02495
0.732,-0.02334
0.736,-0.05373
0.74,0.00746
0.744,-0.06124
0.748,-0.02162
0.752,-0.00119
0.756,-0.03633
0.76,0.01004
0.764,0.11233
0.768,-0.04355
0.772,0.01802
0.776,-0.02997
0.78,0.02946
0.784,-0.00092
0.788,0.01388
0.792,-0.03217
0.796,-0.01015
0.8,-0.03698
0.804,-0.09621
0.808,-0.1152
0.812,-0.11217
0.816,-0.04415
0.82,0.02668
0.824,0.20693
0.828,0.44713
0.832,0.63396
0.836,0.79541
0.84,0.93906
0.844,0.94135
0.848,0.90349
0.852,0.69616
0.856,0.55999
0.86,0.3198
0.864,0.0912
0.868,-0.05639
0.872,-0.13059
0.876,-0.14371
0.88,-0.21
0.884,-0.06542
0.888,-0.03253
0.892,-0.0393
0.896,-0.0539
0.9,-0.06902
0.904,-0.01079
0.908,-0.03258
0.912,-0.00294
0.916,-0.00889
0.92,-0.06966
0.924,0.06256
0.928,-0.00825
0.932,0.02639
0.936,0.02362
0.94,0.03331
0.944,0.01757
0.948,-0.01568
0.952,0.03327
0.956,-0.03997
0.96,-0.00913
0.964,0.01451
0.968,0.03588
0.972,-0.03519
0.976,0.01165
0.98,-0.05465
0.984,-0.02029
0.988,-0.03063
0.992,0.03036
0.996,-0.02576
1.0,0.02297
1.004,0.0135
1.008,-0.01828
1.012,-0.02173
1.016,0.03362
1.02,0.03638
1.024,0.03622
1.028,-0.00389
1.032,0.03416
1.036,0.11391
1.04,0.00316
1.044,0.06534
1.048,0.09962
1.052,0.04661
1.056,0.14603
1.06,0.06729
1.064,0.14725
1.068,0.1736
1.072,0.1302
1.076,0.18819
1.08,0.13227
1.084,0.16984
1.088,0.14812
1.092,0.17629
1.096,0.23752
1.1,0.26196
1.104,0.17892
1.108,0.20002
1.112,0.2436
1.116,0.19121
1.12,0.19286
1.124,0.19824
1.128,0.20834
1.132,0.26349
1.136,0.16502
1.14,0.25204
1.144,0.26774
1.148,0.2502
1.152,0.13929
1.156,0.22197
1.16,0.2895
1.164,0.21405
1.168,0.25863
1.172,0.21382
1.176,0.19629
1.18,0.16815
1.184,0.2096
1.188,0.10129
1.192,0.18715
1.196,0.13286
1.2,0.17268
1.204,0.12521
1.208,0.10274
1.212,-0.01702
1.216,0.04098
1.22,0.06244
1.224,0.00355
1.228,-0.03452
1.232,-0.05786
1.236,0.00216
1.24,0.04086
1.244,0.00312
1.248,-0.02307
1.252,0.02259
1.256,-0.01279
1.26,0.00701
1.264,0.04546
1.268,-0.00091
1.272,0.03368
1.276,0.08721
1.28,0.03497
1.284,0.01502
1.288,0.00122
1.292,0.06404
1.296,0.03778
1.3,-0.00857
1.304,-0.08396
1.308,-0.09572
1.312,-0.15859
1.316,0.00185
1.32,0.12302
1.324,0.36235
1.328,0.51734
1.332,0.764
1.336,0.81462
1.34,1.04605
1.344,1.05255
1.348,0.88329
1.352,0.68187
1.356,0.38462
1.36,0.19509
1.364,0.02514
1.368,-0.05673
1.372,-0.16367
1.376,-0.13249
1.38,-0.02514
1.384,-0.03485
1.388,0.01178
1.392,-0.01556
1.396,0.05053
1.4,0.05417
1.404,-0.012
1.408,-0.00489
1.412,0.03654
1.416,0.04418
1.42,-0.00374
1.424,0.0171
1.428,0.02955
1.432,-0.07396
1.436,-0.07667
1.44,0.03539
1.444,-0.06302
1.448,0.12025
1.452,0.06238
1.456,0.08398
1.46,0.06024
1.464,0.0224
1.468,-0.01884
1.472,-0.07226
1.476,0.02367
1.48,-0.00301
1.484,-0.04375
1.488,-0.03878
1.492,-0.0198
1.496,-0.03891
1.5,0.04582
1.504,0.10373
1.508,0.00252
1.512,-0.00817
1.516,0.05861
1.52,0.07876
1.524,0.06033
1.528,0.06676
1.532,0.07598
1.536,0.08191
1.54,0.03045
1.544,0.04587
1.548,0.11523
1.552,0.16539
1.556,0.10179
1.56,0.1154
1.564,0.12202
1.568,0.24385
1.572,0.2189
1.576,0.14986
1.58,0.18605
1.584,0.29172
1.588,0.26854
1.592,0.27492
1.596,0.22737
1.6,0.29971
1.604,0.33453
1.608,0.27952
1.612,0.27928
1.616,0.23983
1.62,0.20192
1.624,0.17793
1.628,0.27849
1.632,0.24967
1.636,0.24493
1.64,0.19827
1.644,0.16701
1.648,0.16717
1.652,0.25363
1.656,0.26178
1.66,0.167
1.664,0.13977
1.668,0.09961
1.672,0.1406
1.676,0.14757
1.68,0.14099
1.684,0.09383
1.688,0.01571
1.692,0.06948
1.696,0.04448
1.7,0.08555
1.704,0.01195
1.708,-0.02977
1.712,-0.00474
1.716,-0.03785
1.72,0.03176
1.724,0.14967
1.728,0.36752
1.732,0.54912
1.736,0.78093
1.74,0.93667
1.744,1.02333
1.748,1.04222
1.752,0.83937
1.756,0.71212
1.76,0.3948
1.764,0.195
1.768,0.02466
1.772,-0.12376
1.776,-0.05324
1.78,-0.15458
1.784,-0.09522
1.788,-0.06849
1.792,-0.07519
1.796,-0.00043
1.8,0.01313
1.804,0.00326
1.808,-0.02126
1.812,0.02339
1.816,-0.00657
1.82,0.01708
1.824,0.02511
1.828,0.03111
1.832,0.09346
1.836,0.01536
1.84,-0.0096
1.844,0.06449
1.848,0.04254
1.852,0.02119
1.856,0.03548
1.86,0.04093
1.864,0.01329
1.868,-0.00905
1.872,0.01442
1.876,0.03228
1.88,0.05756
1.884,0.03707
1.888,-0.02344
1.892,0.07355
1.896,0.10676
1.9,-0.0115
1.904,0.00481
1.908,0.05917
1.912,-0.01256
1.916,0.12981
1.92,0.01397
1.924,0.00422
1.928,0.02445
1.932,0.05175
1.936,-0.01727
1.94,0.04961
1.944,0.01401
1.948,0.12468
1.952,0.14948
1.956,0.1377
1.96,0.10427
1.964,0.10684
1.968,0.21331
1.972,0.15862
1.976,0.15953
1.98,0.21163
1.984,0.18137
1.988,0.18143
1.992,0.23581
1.996,0.20672
2.0,0.21857
2.004,0.21683
2.008,0.27114
2.012,0.19488
2.016,0.2257
2.02,0.23463
2.024,0.18359
2.028,0.20852
2.032,0.2656
2.036,0.20892
2.04,0.24894
2.044,0.24321
2.048,0.2243
2.052,0.19572
2.056,0.13224
2.06,0.17611
2.064,0.12009
2.068,0.22655
2.072,0.15587
2.076,0.11769
2.08,0.14605
2.084,0.10107
2.088,0.15507
2.092,0.15029
2.096,0.06727
2.1,0.08315
2.104,0.08271
2.108,0.06241
2.112,0.07546
2.116,0.08592
2.12,0.03872
2.124,0.02975
2.128,0.03447
2.132,0.08813
2.136,0.01013
2.14,0.07746
2.144,0.05805
2.148,0.01968
2.152,0.00929
2.156,-0.01349
2.16,0.05115
2.164,0.02996
2.168,0.0393
2.172,0.02239
2.176,0.03331
2.18,0.03388
2.184,0.12128
2.188,0.03958
2.192,0.0016
2.196,0.08053
2.2,0.0118
2.204,0.08075
2.208,0.01555
2.212,0.02838
2.216,0.02922
2.22,0.09577
2.224,0.0522
2.228,0.00404
2.232,-0.00315
2.236,-0.02321
2.24,0.0254
2.244,0.06013
2.248,0.00161
2.252,0.07044
2.256,0.05396
2.26,0.03461
2.264,0.07647
2.268,0.0713
2.272,0.04501
2.276,0.09396
2.28,0.08995
2.284,0.10004
2.288,0.14227
2.292,0.0549
2.296,0.10876
2.3,0.14911
2.304,0.1369
2.308,0.10299
2.312,0.11949
2.316,0.054
2.32,0.06804
2.324,0.08305
2.328,0.05113
2.332,0.03094
2.336,0.04381
2.34,0.13121
2.344,0.07025
2.348,0.10225
2.352,0.02714
2.356,0.016
2.36,0.01217
2.364,-0.00928
2.368,0.05668
2.372,0.04504
2.376,0.03684
2.38,-0.03283
2.384,-0.04729
2.388,0.07519
2.392,0.01872
2.396,0.09306
2.4,0.10315
2.404,0.02206
2.408,-0.02923
2.412,0.02497
2.416,-0.04587
2.42,-0.03247
2.424,-0.12264
2.428,-0.1246
2.432,-0.00124
2.436,0.16001
2.44,0.13511
2.444,0.36541
2.448,0.395
2.452,0.49075
2.456,0.44127
2.46,0.45921
2.464,0.37294
2.468,0.37356
2.472,0.14745
2.476,0.01983
2.48,-0.11325
2.484,-0.15536
2.488,-0.1609
2.492,-0.13006
2.496,-0.07988
2.5,-0.02326
2.504,-0.03675
2.508,0.04838
2.512,0.0012
2.516,0.07106
2.52,0.06862
2.524,0.03925
2.528,0.0289
2.532,0.00082
2.536,0.02431
2.54,0.03244
2.544,0.05638
2.548,0.00506
2.552,0.00092
2.556,0.03001
2.56,0.0601
2.564,0.03398
2.568,0.0382
2.572,0.05488
2.576,0.04451
2.58,0.03444
2.584,0.06391
2.588,0.03275
2.592,0.06023
2.596,0.00312
2.6,0.01752
2.604,0.12763
2.608,-0.00168
2.612,0.04363
2.616,0.04309
2.62,0.004
2.624,0.08344
2.628,0.06509
2.632,0.04922
2.636,0.01033
2.64,0.02783
2.644,0.02072
2.648,0.09243
2.652,0.03594
2.656,0.09227
2.66,0.11587
2.664,0.12285
2.668,0.10865
2.672,0.19775
2.676,0.07929
2.68,0.09902
2.684,0.145
2.688,0.17303
2.692,0.18699
2.696,0.18986
2.7,0.16176
2.704,0.22472
2.708,0.18848
2.712,0.21883
2.716,0.19242
2.72,0.2081
2.724,0.26453
2.728,0.25017
2.732,0.26771
2.736,0.26277
2.74,0.257
2.744,0.28784
2.748,0.28117
2.752,0.23423
2.756,0.26029
2.76,0.22339
2.764,0.25629
2.768,0.20161
2.772,0.17053
2.776,0.13913
2.78,0.11311
2.784,0.18712
2.788,0.17872
2.792,0.1505
2.796,0.08354
2.8,0.12726
2.804,0.09282
2.808,0.06309
2.812,0.07724
2.816,0.0529
2.82,0.07153
2.824,0.09858
2.828,0.12126
2.832,0.06795
2.836,0.03681
2.84,0.04208
2.844,0.03613
2.848,0.04116
2.852,-0.03885
2.856,0.07451
2.86,-0.05618
2.864,0.06841
2.868,-0.022
2.872,0.02457
2.876,-0.02658
2.88,-0.01324
2.884,-0.0557
2.888,0.00909
2.892,0.00701
2.896,0.06355
2.9,0.04129
2.904,0.09975
2.908,0.05948
2.912,0.01795
2.916,0.0331
2.92,-0.03774
2.924,0.05181
2.928,0.02347
2.932,0.04571
2.936,0.05527
2.94,0.00222
2.944,0.01635
2.948,-0.00465
2.952,0.0068
2.956,0.03749
2.96,0.0447
2.964,0.08398
2.968,0.01764
2.972,0.02497
2.976,-0.0166
2.98,0.03485
2.984,-0.01523
2.988,0.07581
2.992,0.00993
2.996,-0.01562
3.0,-0.00891
3.004,0.03225
3.008,0.07344
3.012,0.02117
3.016,0.05766
3.02,0.07058
3.024,0.09257
3.028,0.09491
3.032,0.09664
3.036,0.13888
3.04,0.19278
3.044,0.10594
3.048,0.11369
3.052,0.16292
3.056,0.13902
3.06,0.12597
3.064,0.13728
3.068,0.11062
3.072,0.07111
3.076,0.07279
3.08,0.02623
3.084,0.09709
3.088,0.04666
3.092,0.0572
3.096,0.01026
3.1,-0.02503
3.104,0.11144
3.108,0.06235
3.112,0.03645
3.116,-0.06874
3.12,0.02118
3.124,0.05426
3.128,-0.00279
3.132,0.04067
3.136,0.03259
3.14,0.02397
3.144,0.01542
3.148,0.01871
3.152,-0.03972
3.156,0.00043
3.16,0.03269
3.164,-0.05103
3.168,-0.05461
3.172,-0.12713
3.176,-0.14789
3.18,-0.08121
3.184,0.07106
3.188,0.20799
3.192,0.36693
3.196,0.64289
3.2,0.75915
3.204,1.0439
3.208,1.01474
3.212,0.97305
3.216,0.76731
3.22,0.55239
3.224,0.38862
3.228,0.11215
3.232,-0.05017
3.236,-0.09487
3.24,-0.14933
3.244,-0.1398
3.248,-0.12498
3.252,-0.11184
3.256,-0.03293
3.26,0.02732
3.264,0.0133
3.268,-0.02577
3.272,0.04645
3.276,0.03859
3.28,0.04156
3.284,0.0043
3.288,0.01424
3.292,0.02572
3.296,0.06033
3.3,0.00698
3.304,-0.01659
3.308,0.00217
3.312,0.07491
3.316,0.10691
3.32,0.05403
3.324,0.00455
3.328,0.04697
3.332,0.05045
3.336,0.00124
3.34,0.02303
3.344,-0.04433
3.348,0.0403
3.352,0.01271
3.356,-0.02249
3.36,-0.01203
3.364,0.10398
3.368,0.06006
3.372,0.04445
3.376,-0.02316
3.38,-0.0012
3.384,-0.01656
3.388,0.09041
3.392,-0.00508
3.396,0.09807
3.4,0.04539
3.404,0.06664
3.408,0.04515
3.412,0.06597
3.416,0.07911
3.42,0.07886
3.424,0.06239
3.428,0.09922
3.432,0.13257
3.436,0.10526
3.44,0.12786
3.444,0.16773
3.448,0.15785
3.452,0.20302
3.456,0.09947
3.46,0.25067
3.464,0.14791
3.468,0.20901
3.472,0.25056
3.476,0.27392
3.48,0.23973
3.484,0.189
3.488,0.24674
3.492,0.24668
3.496,0.24364
3.5,0.22296
3.504,0.14899
3.508,0.30655
3.512,0.19016
3.516,0.23785
3.52,0.21939
3.524,0.15001
3.528,0.18806
3.532,0.14667
3.536,0.14144
3.54,0.14307
3.544,0.1117
3.548,0.09271
3.552,0.07563
3.556,0.08873
3.56,0.09348
3.564,0.0495
3.568,0.05032
3.572,0.0504
3.576,0.03584
3.58,0.03346
3.584,-0.01337
3.588,0.04133
3.592,0.05603
3.596,0.02136
3.6,0.04729
3.604,0.0355
3.608,0.03049
3.612,0.03431
3.616,-0.03108
3.62,0.0279
3.624,-0.01327
3.628,0.00848
3.632,0.02432
3.636,0.04139
3.64,-0.0092
3.644,0.03272
3.648,-0.0083
3.652,-0.00294
3.656,0.02143
3.66,-0.00761
3.664,0.07561
3.668,0.05247
3.672,-0.02817
3.676,0.08532
3.68,-0.0287
3.684,0.01782
3.688,0.04501
3.692,0.05175
3.696,-0.0072
3.7,-0.05558
3.704,-0.01569
3.708,-0.00804
3.712,-0.0694
3.716,0.04311
3.72,0.00553
3.724,0.00814
3.728,0.06659
3.732,0.04427
3.736,-0.00689
3.74,0.03276
3.744,-0.03484
3.748,0.00524
3.752,0.05621
3.756,-0.00213
3.76,-0.03051
3.764,0.0072
3.768,0.09609
3.772,0.00403
3.776,0.02809
3.78,0.07427
3.784,-0.03105
3.788,0.03502
3.792,0.05516
3.796,0.03827
3.8,-0.00408
3.804,-0.02202
3.808,0.03242
3.812,0.01296
3.816,-0.00702
3.82,-0.00575
3.824,-0.00589
3.828,-0.02007
3.832,0.005
3.836,-0.05384
3.84,-0.02729
3.844,0.00226
3.848,0.03733
3.852,-0.0367
3.856,0.00487
3.86,0.05935
3.864,0.07645
3.868,0.04789
3.872,0.00514
3.876,0.04722
3.88,0.07239
3.884,-0.02771
3.888,0.02655
3.892,0.06797
3.896,0.11853
3.9,0.11551
3.904,0.02436
3.908,0.09071
3.912,0.11807
3.916,0.08819
3.92,0.10212
3.924,0.11092
3.928,0.10293
3.932,0.0953
3.936,0.02613
3.94,0.03782
3.944,-0.0524
3.948,0.02995
3.952,0.00059
3.956,-0.03885
3.96,0.05676
3.964,0.04115
3.968,0.04317
3.972,0.0945
3.976,0.01367
3.98,0.05471
3.984,0.01514
3.988,0.02967
3.992,-0.04796
3.996,0.01
4.0,0.0173
4.004,-0.0239
4.008,0.05317
4.012,-0.01149
4.016,0.06993
4.02,-0.01612
4.024,0.01356
4.028,-0.09757
4.032,-0.05034
4.036,-0.05164
4.04,-0.13847
4.044,-0.02235
4.048,0.03057
4.052,0.20984
4.056,0.45771
4.06,0.60712
4.064,0.86656
4.068,0.91804
4.072,0.98904
4.076,0.95915
4.08,0.78373
4.084,0.59744
4.088,0.25877
4.092,0.10437
4.096,-0.01671
4.1,-0.18158
4.104,-0.13848
4.108,-0.18609
4.112,-0.09424
4.116,-0.047
4.12,-0.02201
4.124,0.02697
4.128,-0.00657
4.132,0.00654
4.136,0.04356
4.14,-0.0266
4.144,0.05092
4.148,-0.001
4.152,0.04857
4.156,0.0329
4.16,-0.02459
4.164,-0.04271
4.168,-0.01824
4.172,-0.01674
4.176,0.05658
4.18,-0.082
4.184,0.07122
4.188,0.00575
4.192,-0.02631
4.196,0.0696
4.2,-0.00941
4.204,0.03181
4.208,0.01307
4.212,-0.02113
4.216,0.01455
4.22,-0.01108
4.224,-0.03389
4.228,-0.00638
4.232,-0.02212
4.236,0.01799
4.24,0.0452
4.244,0.03052
4.248,-0.06815
4.252,0.0032
4.256,0.01717
4.26,0.03388
4.264,0.04849
4.268,0.01587
4.272,0.03653
4.276,0.05031
4.28,0.0791
4.284,0.07191
4.288,0.05915
4.292,0.13922
4.296,0.10157
4.3,0.06641
4.304,0.16073
4.308,0.12935
4.312,0.19113
4.316,0.14477
4.32,0.20397
4.324,0.17392
4.328,0.1544
4.332,0.16
4.336,0.18694
4.34,0.13606
4.344,0.26019
4.348,0.22373
4.352,0.17506
4.356,0.19768
4.36,0.18029
4.364,0.21628
4.368,0.20216
4.372,0.15472
4.376,0.26212
4.38,0.1297
4.384,0.14806
4.388,0.17156
4.392,0.14609
4.396,0.11007
4.4,0.09976
4.404,0.0636
4.408,0.11917
4.412,0.12127
4.416,0.10373
4.42,0.08991
4.424,0.02209
4.428,0.01501
4.432,0.03822
4.436,0.04369
4.44,0.02063
4.444,0.03077
4.448,0.08161
4.452,-0.01133
4.456,0.00816
4.46,0.00676
4.464,0.03689
4.468,-0.06839
4.472,0.01486
4.476,0.04418
4.48,0.03793
4.484,-0.08044
4.488,-0.04696
4.492,-0.03915
4.496,0.00126
4.5,-0.02455
4.504,0.06944
4.508,0.00885
4.512,0.02102
4.516,0.00585
4.52,0.00579
4.524,-0.00826
4.528,-0.03461
4.532,0.00444
4.536,0.01372
4.54,-0.00448
4.544,0.02575
4.548,-0.00744
4.552,-0.05303
4.556,-0.00195
4.56,-0.05933
4.564,-0.02506
4.568,0.01874
4.572,0.00561
4.576,-0.05336
4.58,-0.07877
4.584,-0.01054
4.588,0.00108
4.592,0.00104
4.596,-0.04738
4.6,0.01802
4.604,-0.02563
4.608,0.0465
4.612,0.02444
4.616,0.06307
4.62,-0.02344
4.624,-0.03129
4.628,0.00039
4.632,0.0498
4.636,0.02956
4.64,-0.01337
4.644,0.00459
4.648,-0.00635
4.652,-0.02267
4.656,-0.04591
4.66,0.00178
4.664,0.01551
4.668,-0.02763
4.672,-0.00097
4.676,0.01205
4.68,-0.02022
4.684,-0.03958
4.688,-0.03109
4.692,-0.01484
4.696,0.01105
4.7,-0.01863
4.704,0.05114
4.708,0.01692
4.712,-0.02301
4.716,0.01961
4.72,0.02564
4.724,0.03535
4.728,-0.02591
4.732,0.02888
4.736,-0.00784
4.74,0.01342
4.744,-0.00603
4.748,-0.02578
4.752,-0.06387
4.756,0.04225
4.76,-0.03955
4.764,-0.02568
4.768,-0.01572
4.772,-0.06795
4.776,-0.0124
4.78,-0.0689
4.784,0.00767
4.788,0.01757
4.792,0.00609
4.796,0.02591
4.8,-0.05991
4.804,-0.03063
4.808,0.01103
4.812,-0.00636
4.816,-0.02198
4.82,-0.02507
4.824,-0.04453
4.828,0.00911
4.832,-0.04371
4.836,-0.02237
4.84,-0.06845
4.844,0.04316
4.848,-0.02258
4.852,-0.03811
4.856,-0.03225
4.86,0.01633
4.864,-0.03891
4.868,0.00238
4.872,-0.03986
4.876,0.02404
4.88,-0.04834
4.884,-0.0495
4.888,0.01086
4.892,0.03191
4.896,0.02094
4.9,0.02045
4.904,-0.07291
4.908,-0.01655
4.912,0.01451
4.916,0.01851
4.92,-0.08373
4.924,-0.01909
4.928,-0.02597
4.932,-0.02728
4.936,-0.00704
4.94,-0.05583
4.944,-0.02305
4.948,-0.02339
4.952,0.03219
4.956,0.00957
4.96,-0.01091
4.964,-0.02096
4.968,0.00643
4.972,-0.00073
4.976,0.03157
4.98,0.01656
4.984,0.05971
4.988,0.05663
4.992,0.08053
4.996,0.14509
5.0,0.12289
5.004,0.12205
5.008,0.08265
5.012,0.06709
5.016,0.06233
5.02,0.07535
5.024,0.05541
5.028,0.01114
5.032,-0.0625
5.036,-0.05233
5.04,0.02038
5.044,-0.05306
5.048,-0.01469
5.052,0.00589
5.056,-0.00329
5.06,-0.00774
5.064,-0.02064
5.068,0.04614
5.072,-0.05208
5.076,0.03104
5.08,-0.07789
5.084,-0.02231
5.088,-0.03143
5.092,-0.02806
5.096,0.08294
5.1,-0.04336
5.104,-0.03145
5.108,-0.03145
5.112,-0.05067
5.116,-0.06917
5.12,-0.06663
5.124,-0.11261
5.128,-0.21276
5.132,-0.14325
5.136,-0.02769
5.14,0.11849
5.144,0.33976
5.148,0.51515
5.152,0.82042
5.156,0.87235
5.16,0.97569
5.164,0.98178
5.168,0.79876
5.172,0.58944
5.176,0.38364
5.18,0.11656
5.184,-0.03715
5.188,-0.18719
5.192,-0.10526
5.196,-0.15548
5.2,-0.19655
5.204,-0.12367
5.208,-0.12101
5.212,-0.08971
5.216,-0.06747
5.22,0.00146
5.224,-0.05142
5.228,-0.05492
5.232,-0.03278
5.236,-0.01255
5.24,-0.04423
5.244,0.03242
5.248,-0.02128
5.252,-0.06064
5.256,-0.07251
5.26,-0.02884
5.264,0.06394
5.268,-0.01114
5.272,0.01822
5.276,-0.04297
5.28,-0.03616
5.284,-0.03951
5.288,-0.05381
5.292,0.02452
5.296,-0.05446
5.3,-0.10454
5.304,0.10505
5.308,0.00729
5.312,-0.06355
5.316,-0.02774
5.32,-0.04017
5.324,0.01778
5.328,0.022
5.332,-0.00045
5.336,-0.01511
5.34,0.03147
5.344,0.02334
5.348,0.00142
5.352,0.00326
5.356,0.02492
5.36,0.07023
5.364,-0.03288
5.368,0.04149
5.372,0.0643
5.376,0.05916
5.38,0.05605
5.384,0.08021
5.388,0.09131
5.392,0.09569
5.396,0.08993
5.4,0.08545
5.404,0.09253
5.408,0.13494
5.412,0.10681
5.416,0.14855
5.42,0.20421
5.424,0.17737
5.428,0.14945
5.432,0.17368
5.436,0.16609
5.44,0.17828
5.444,0.16991
5.448,0.23334
5.452,0.26327
5.456,0.18749
5.46,0.10193
5.464,0.20123
5.468,0.19177
5.472,0.15853
5.476,0.13515
5.48,0.1342
5.484,0.09179
5.488,0.11042
5.492,0.11716
5.496,0.09148
5.5,0.06539
5.504,0.03423
5.508,0.04641
5.512,-0.00224
5.516,0.01655
5.52,-0.07845
5.524,0.0242
5.528,-0.02428
5.532,-0.02158
5.536,0.00643
5.54,0.0228
5.544,-0.06257
5.548,-0.00934
5.552,0.02517
5.556,-0.05179
5.56,0.04342
5.564,0.00215
5.568,-0.05836
5.572,-0.04692
5.576,-0.07554
5.58,0.00013
5.584,-7e-05
5.588,0.00916
5.592,-0.02626
5.596,-0.04432
5.6,0.01152
5.604,-0.09982
5.608,0.01101
5.612,-0.06028
5.616,-0.10006
5.62,-0.00926
5.624,0.02796
5.628,-0.0118
5.632,-0.05312
5.636,-0.07142
5.64,-0.01751
5.644,-0.01126
5.648,-0.03679
5.652,0.01191
5.656,-0.05669
5.66,0.00453
5.664,-0.04139
5.668,-0.08666
5.672,-0.05186
5.676,-0.0263
5.68,-0.03954
5.684,-0.06509
5.688,-0.06158
5.692,-0.0394
5.696,-0.04831
5.7,-0.02811
5.704,-0.04442
5.708,-0.00628
5.712,-0.08047
5.716,-0.04569
5.72,-0.08598
5.724,-0.00422
5.728,0.0172
5.732,-0.05581
5.736,-0.08522
5.74,-0.0026
5.744,0.02641
5.748,-0.04229
5.752,-0.04821
5.756,-0.01329
5.76,-0.00029
5.764,-0.06354
5.768,-0.03962
5.772,-0.04829
5.776,-0.02449
5.78,-0.0243
5.784,-0.09072
5.788,0.01663
5.792,-0.00312
5.796,0.02485
5.8,0.05899
5.804,0.05051
5.808,-0.07203
5.812,-0.02717
5.816,-0.08369
5.82,-0.0286
5.824,-0.05248
5.828,0.01304
5.832,-0.05087
5.836,-0.07828
5.84,0.01527
5.844,-0.04734
5.848,-0.08536
5.852,-0.06823
5.856,-0.05064
5.86,0.00237
5.864,0.00144
5.868,-0.07895
5.872,-0.01527
5.876,-0.01507
5.88,0.00405
5.884,0.0216
5.888,-0.02543
5.892,-0.00996
5.896,-0.09203
5.9,0.00427
5.904,-0.04729
5.908,-0.06215
5.912,-0.05988
5.916,-0.02664
5.92,-0.0592
5.924,-0.10207
5.928,-0.00793
5.932,0.03506
5.936,-0.00388
5.94,-0.04277
5.944,-0.04123
5.948,-0.05169
5.952,-0.07736
5.956,-0.06314
5.96,-0.03955
5.964,-0.03665
5.968,-0.00121
5.972,-0.01402
5.976,-0.06463
5.98,-0.00367
5.984,-0.06335
5.988,-0.05602
5.992,-0.12524
5.996,-0.00204
6.0,0.02998
6.004,-0.06826
6.008,0.02044
6.012,-0.05219
6.016,-0.01568
6.02,-0.09139
6.024,-0.0162
6.028,-0.08623
6.032,0.04235
6.036,-0.04232
6.04,0.0214
6.044,0.02015
6.048,0.01278
6.052,0.04824
6.056,-0.02004
6.06,0.05334
6.064,0.06531
6.068,0.16141
6.072,0.06909
6.076,0.05263
6.08,0.02736
6.084,0.09112
6.088,0.05144
6.092,-0.00565
6.096,0.04184
6.1,0.01484
6.104,0.01932
6.108,0.00601
6.112,-0.04558
6.116,0.02525
6.12,0.00435
6.124,-0.02675
6.128,-0.01074
6.132,-0.03756
6.136,-0.09143
6.14,-0.03
6.144,-0.0057
6.148,-0.01686
6.152,0.05312
6.156,-0.05946
6.16,-0.04134
6.164,-0.01796
6.168,-0.04146
6.172,-0.00085
6.176,-0.05838
6.18,-0.11076
6.184,-0.07054
6.188,-0.14253
6.192,-0.07041
6.196,-0.13945
6.2,-0.07394
6.204,0.10101
6.208,0.27508
6.212,0.48719
6.216,0.65785
6.22,0.90027
6.224,0.97824
6.228,0.98673
6.232,0.83505
6.236,0.68712
6.24,0.34495
6.244,0.19645
6.248,0.0042
6.252,-0.13755
6.256,-0.14968
6.26,-0.17366
6.264,-0.16565
6.268,-0.14575
6.272,-0.00585
6.276,-0.04224
6.28,-0.03749
6.284,-0.00532
6.288,0.01931
6.292,-0.05945
6.296,-0.12082
6.3,-0.06197
6.304,-0.03456
6.308,-0.02401
6.312,-0.04116
6.316,-0.03692
6.32,-0.02528
6.324,-0.04712
6.328,0.01321
6.332,-0.0513
6.336,-0.04403
6.34,-0.02745
6.344,0.00275
6.348,-0.01361
6.352,0.01646
6.356,-0.02417
6.36,-0.01261
6.364,-0.00616
6.368,0.01214
6.372,-0.02877
6.376,-0.06869
6.38,-0.00454
6.384,-0.04754
6.388,-0.06067
6.392,-0.05581
6.396,0.00676
6.4,0.01992
6.404,0.00999
6.408,-0.04486
6.412,0.05775
6.416,-0.01647
6.42,0.0501
6.424,-0.00346
6.428,0.07045
6.432,0.04603
6.436,0.07731
6.44,0.09071
6.444,0.10415
6.448,0.06527
6.452,0.09671
6.456,0.08566
6.46,0.14266
6.464,0.01113
6.468,0.13851
6.472,0.16495
6.476,0.14839
6.48,0.12621
6.484,0.15315
6.488,0.26974
6.492,0.1963
6.496,0.25474
6.5,0.20752
6.504,0.25608
6.508,0.22044
6.512,0.22772
6.516,0.31365
6.52,0.28869
6.524,0.26271
6.528,0.31176
6.532,0.18481
6.536,0.28663
6.54,0.25334
6.544,0.246
6.548,0.14992
6.552,0.15077
6.556,0.24563
6.56,0.14135
6.564,0.13741
6.568,0.03116
6.572,0.03849
6.576,0.02255
6.58,0.03411
6.584,-0.01196
6.588,-0.00978
6.592,0.04612
6.596,-0.02866
6.6,0.04968
6.604,0.01309
6.608,0.01335
6.612,-0.00874
6.616,0.00568
6.62,-0.05148
6.624,-0.04673
6.628,0.00317
6.632,-0.06138
6.636,-0.04403
6.64,-0.02906
6.644,-0.01565
6.648,-0.13293
6.652,-0.09418
6.656,-0.12239
6.66,-0.13248
6.664,-0.10176
6.668,0.02021
6.672,0.16928
6.676,0.3531
6.68,0.64049
6.684,0.82235
6.688,0.96158
6.692,0.96172
6.696,0.9318
6.7,0.72607
6.704,0.62102
6.708,0.37742
6.712,0.04254
6.716,-0.10515
6.72,-0.14268
6.724,-0.21794
6.728,-0.19977
6.732,-0.17096
6.736,-0.0081
6.74,-0.10564
6.744,0.00491
6.748,0.02684
6.752,-0.01543
6.756,-0.05918
6.76,-0.05106
6.764,-0.0575
6.768,-0.00971
6.772,-0.04566
6.776,-0.00087
6.78,-0.00777
6.784,-0.00411
6.788,-0.03391
6.792,-0.02317
6.796,0.03226
6.8,-0.06974
6.804,-0.02041
6.808,-0.05749
6.812,0.01915
6.816,-0.03101
6.82,-0.0123
6.824,0.03863
6.828,-0.02565
6.832,-0.04225
6.836,-0.00515
6.84,-0.00224
6.844,-0.00921
6.848,-0.04673
6.852,0.03418
6.856,-0.02158
6.86,0.05155
6.864,0.01623
6.868,-0.01272
6.872,0.00583
6.876,0.00884
6.88,0.02027
6.884,0.03932
6.888,0.05748
6.892,0.03684
6.896,0.00948
6.9,0.02499
6.904,0.06212
6.908,0.04901
6.912,0.04485
6.916,0.09001
6.92,0.1003
6.924,0.11411
6.928,0.11746
6.932,0.09768
6.936,0.16278
6.94,0.15262
6.944,0.24169
6.948,0.2652
6.952,0.28686
6.956,0.30703
6.96,0.18664
6.964,0.31682
6.968,0.25543
6.972,0.3706
6.976,0.30216
6.98,0.30518
6.984,0.20748
6.988,0.26671
6.992,0.23149
6.996,0.10935
7.0,0.21147
7.004,0.23535
7.008,0.13787
7.012,0.17976
7.016,0.14106
7.02,0.13785
7.024,0.16223
7.028,0.15321
7.032,0.10766
7.036,0.12676
7.04,0.04575
7.044,0.09694
7.048,-0.00692
7.052,0.055
7.056,-0.01054
7.06,0.02016
7.064,0.02999
7.068,0.00739
7.072,0.01029
7.076,-0.09447
7.08,-0.0155
7.084,-0.03906
7.088,-0.11873
7.092,-0.14061
7.096,-0.09886
7.1,-0.05159
7.104,0.20863
7.108,0.36406
7.112,0.56392
7.116,0.73113
7.12,0.90524
7.124,1.03232
7.128,0.9516
7.132,0.83184
7.136,0.65016
7.14,0.34922
7.144,0.12524
7.148,-0.03817
7.152,-0.13548
7.156,-0.18736
7.16,-0.13712
7.164,-0.12427
7.168,-0.10929
7.172,-0.07522
7.176,-0.04831
7.18,0.04382
7.184,-0.02439
7.188,0.05856
7.192,0.00964
7.196,-0.01356
7.2,-0.00368
7.204,-0.00079
7.208,-0.06288
7.212,0.02888
7.216,-0.12739
7.22,-0.02683
7.224,0.03792
7.228,-0.00483
7.232,-0.00339
7.236,-0.03177
7.24,0.0314
7.244,0.02532
7.248,0.00924
7.252,0.01657
7.256,0.02984
7.26,-0.02817
7.264,0.02372
7.268,-0.03494
7.272,-0.03537
7.276,-0.01317
7.28,-0.03347
7.284,-0.04506
7.288,0.03962
7.292,0.01809
7.296,0.01998
7.3,0.04412
7.304,0.00243
7.308,0.05063
7.312,-0.05767
7.316,0.03551
7.32,-0.01681
7.324,0.0037
7.328,0.01352
7.332,0.07149
7.336,-0.04098
7.34,0.0491
7.344,0.06778
7.348,0.07054
7.352,0.13082
7.356,0.0831
7.36,0.11115
7.364,0.17785
7.368,0.18459
7.372,0.16485
7.376,0.18895
7.38,0.18167
7.384,0.21376
7.388,0.19483
7.392,0.23853
7.396,0.25899
7.4,0.21415
7.404,0.22753
7.408,0.22272
7.412,0.19218
7.416,0.20529
7.42,0.15478
7.424,0.17841
7.428,0.14596
7.432,0.0951
7.436,0.13841
7.44,0.19095
7.444,0.17446
7.448,0.17038
7.452,0.11423
7.456,0.15547
7.46,0.03108
7.464,0.09966
7.468,0.13495
7.472,0.05263
7.476,0.11319
7.48,0.03717
7.484,0.05329
7.488,0.07263
7.492,0.06101
7.496,0.02676
7.5,0.01503
7.504,0.06013
7.508,0.09785
7.512,-0.00722
7.516,0.03334
7.52,0.04903
7.524,0.02437
7.528,0.03556
7.532,-0.00759
7.536,0.0147
7.54,0.02563
7.544,0.00128
7.548,0.01323
7.552,0.03644
7.556,0.01401
7.56,0.00063
7.564,0.06704
7.568,0.00968
7.572,0.05656
7.576,0.00763
7.58,0.0039
7.584,0.00788
7.588,0.07531
7.592,-0.02014
7.596,-0.03218
7.6,0.00434
7.604,-0.03258
7.608,0.03788
7.612,-0.00737
7.616,-0.024
7.62,0.01736
7.624,0.03683
7.628,-0.0185
7.632,0.01073
7.636,0.02034
7.64,-0.01746
7.644,-0.05998
7.648,0.02573
7.652,-0.06262
7.656,-0.01738
7.66,0.0137
7.664,0.01218
7.668,0.01099
7.672,-0.01543
7.676,-0.01823
7.68,-0.00245
7.684,0.03523
7.688,0.0014
7.692,0.00527
7.696,-0.05609
7.7,0.03759
7.704,0.04597
7.708,5e-05
7.712,-0.0018
7.716,0.02197
7.72,-0.01928
7.724,0.05182
7.728,-0.01152
7.732,0.0388
7.736,0.00034
7.74,-0.01712
7.744,-0.02126
7.748,-0.02474
7.752,-0.00754
7.756,-0.02769
7.76,0.03933
7.764,0.01171
7.768,0.02597
7.772,0.08573
7.776,-0.00358
7.78,0.03398
7.784,0.10139
7.788,0.03366
7.792,0.07748
7.796,0.01627
7.8,0.041
7.804,0.0812
7.808,0.07359
7.812,0.08521
7.816,0.17205
7.82,0.05019
7.824,0.09687
7.828,0.07793
7.832,0.09981
7.836,0.11304
7.84,0.10119
7.844,0.10545
7.848,0.03308
7.852,-0.05617
7.856,0.02838
7.86,0.0348
7.864,0.03436
7.868,-0.05586
7.872,-0.00115
7.876,-0.0687
7.88,0.0082
7.884,-0.04946
7.888,-0.0151
7.892,0.08147
7.896,-0.03816
7.9,0.0699
7.904,0.00432
7.908,0.02205
7.912,0.02458
7.916,0.09988
7.92,0.09834
7.924,-0.00951
7.928,-0.02594
7.932,-0.01779
7.936,-0.03934
7.94,-0.0484
7.944,-0.10195
7.948,-0.11048
7.952,-0.0254
7.956,0.09455
7.96,0.24476
7.964,0.44163
7.968,0.72102
7.972,0.89838
7.976,1.02458
7.98,0.97211
7.984,0.92553
7.988,0.69648
7.992,0.46068
7.996,0.24734
8.0,0.03136
8.004,-0.02537
8.008,-0.14596
8.012,-0.1026
8.016,-0.12807
8.02,-0.07277
8.024,-0.04889
8.028,-0.03092
8.032,0.03744
8.036,0.0222
8.04,-0.00245
8.044,-0.02921
8.048,0.04617
8.052,0.04711
8.056,0.04492
8.06,0.04275
8.064,0.04018
8.068,0.00044
8.072,0.04328
8.076,0.01633
8.08,0.05247
8.084,-0.00384
8.088,0.00586
8.092,-0.011
8.096,0.00789
8.1,-0.02907
8.104,-0.01773
8.108,0.05957
8.112,0.00684
8.116,0.03195
8.12,-0.01991
8.124,0.01124
8.128,0.05664
8.132,0.06015
8.136,-0.01966
8.14,-0.01261
8.144,-0.00997
8.148,-0.04341
8.152,0.01672
8.156,0.07776
8.16,-0.02046
8.164,0.10599
8.168,0.05147
8.172,0.00168
8.176,0.05929
8.18,-0.00138
8.184,0.05734
8.188,0.05485
8.192,0.11105
8.196,0.1245
8.2,0.09651
8.204,0.1396
8.208,0.14358
8.212,0.11839
8.216,0.11512
8.22,0.13874
8.224,0.19651
8.228,0.174
8.232,0.16229
8.236,0.23828
8.24,0.1764
8.244,0.19159
8.248,0.27467
8.252,0.24225
8.256,0.24376
8.26,0.23741
8.264,0.22166
8.268,0.25157
8.272,0.18754
8.276,0.29807
8.28,0.27898
8.284,0.14345
8.288,0.18868
8.292,0.20609
8.296,0.14572
8.3,0.21013
8.304,0.13573
8.308,0.18207
8.312,0.13793
8.316,0.05825
8.32,0.08131
8.324,0.02585
8.328,0.05617
8.332,0.07327
8.336,0.06176
8.34,0.05279
8.344,0.08551
8.348,0.05412
8.352,0.0361
8.356,0.06086
8.36,-0.01406
8.364,0.05295
8.368,0.05473
8.372,0.05148
8.376,0.02778
8.38,-0.04472
8.384,0.0626
8.388,0.0622
8.392,-0.01023
8.396,0.03578
8.4,-0.02957
8.404,0.03435
8.408,0.0517
8.412,-0.01398
8.416,0.00202
8.42,0.0597
8.424,0.00531
8.428,-0.00936
8.432,0.0264
8.436,-0.01809
8.44,-0.02174
8.444,0.00806
8.448,0.01137
8.452,-0.0629
8.456,0.06152
8.46,-0.01693
8.464,0.07552
8.468,-0.00689
8.472,0.03979
8.476,-0.0217
8.48,-0.00977
8.484,0.0578
8.488,0.03072
8.492,0.0153
8.496,0.07505
8.5,0.02173
8.504,0.07726
8.508,-0.01414
8.512,0.04363
8.516,0.0223
8.52,0.08212
8.524,0.06869
8.528,0.07526
8.532,0.08455
8.536,0.09136
8.54,0.10711
8.544,0.10777
8.548,0.09982
8.552,0.0619
8.556,0.09683
8.56,0.02686
8.564,0.15591
8.568,0.09883
8.572,0.06317
8.576,0.04733
8.58,0.04975
8.584,0.05714
8.588,-0.01437
8.592,0.04819
8.596,0.07178
8.6,0.02771
8.604,0.02877
8.608,0.00604
8.612,0.01157
8.616,0.04398
8.62,0.04479
8.624,0.05974
8.628,0.02711
8.632,0.07662
8.636,-0.03907
8.64,-0.02427
8.644,0.01749
8.648,0.06175
8.652,-0.04482
8.656,0.00862
8.66,-0.01102
8.664,-0.08039
8.668,-0.04123
8.672,-0.07806
8.676,-0.03799
8.68,0.10389
8.684,0.2966
8.688,0.53637
8.692,0.79969
8.696,0.89658
8.7,0.98937
8.704,0.98955
8.708,0.93722
8.712,0.70595
8.716,0.49119
8.72,0.22315
8.724,0.05823
8.728,-0.09485
8.732,-0.15855
8.736,-0.12269
8.74,-0.08523
8.744,-0.0643
8.748,-0.02937
8.752,-0.05502
8.756,0.08161
8.76,0.00816
8.764,0.05731
8.768,-0.02227
8.772,-0.02706
8.776,0.07086
8.78,0.05052
8.784,0.01827
8.788,0.05391
8.792,-0.00174
8.796,0.04598
8.8,0.05852
8.804,0.02721
8.808,-0.04277
8.812,0.08475
8.816,0.01411
8.82,0.02645
8.824,-0.00101
8.828,0.0349
8.832,0.03583
8.836,0.06725
8.84,0.02781
8.844,0.02762
8.848,0.02237
8.852,-0.00276
8.856,-0.00225
8.86,0.00209
8.864,0.03397
8.868,0.02281
8.872,0.07059
8.876,-0.00138
8.88,0.07197
8.884,0.10207
8.888,0.03229
8.892,0.05901
8.896,0.02606
8.9,-0.02896
8.904,0.08919
8.908,0.05024
8.912,0.09941
8.916,0.11139
8.92,0.05859
8.924,0.17322
8.928,0.11769
8.932,0.14211
8.936,0.16791
8.94,0.20679
8.944,0.24804
8.948,0.26678
8.952,0.27863
8.956,0.33207
8.96,0.33032
8.964,0.30148
8.968,0.34237
8.972,0.30425
8.976,0.32313
8.98,0.29824
8.984,0.28047
8.988,0.256
8.992,0.27721
8.996,0.27328
9.0,0.20136
9.004,0.25893
9.008,0.24428
9.012,0.20846
9.016,0.1761
9.02,0.13233
9.024,0.14801
9.028,0.18107
9.032,0.13672
9.036,0.09586
9.04,0.14271
9.044,0.0869
9.048,0.07287
9.052,0.0843
9.056,0.08292
9.06,0.08053
9.064,0.07714
9.068,0.02336
9.072,0.07429
9.076,0.03497
9.08,0.06733
9.084,-0.06947
9.088,-0.05343
9.092,-0.11257
9.096,-0.12527
9.1,-0.00649
9.104,0.13639
9.108,0.2235
9.112,0.4094
9.116,0.41978
9.12,0.46565
9.124,0.56442
9.128,0.52317
9.132,0.42756
9.136,0.42113
9.14,0.1645
9.144,0.08934
9.148,-0.07079
9.152,-0.13407
9.156,-0.14635
9.16,-0.11792
9.164,-0.06885
9.168,-0.00553
9.172,-0.00284
9.176,-0.03448
9.18,0.06393
9.184,0.01466
9.188,0.07987
9.192,-0.00326
9.196,-0.00875
9.2,0.11033
9.204,0.02002
9.208,0.02959
9.212,0.03991
9.216,0.01204
9.22,-0.00038
9.224,0.03829
9.228,0.03009
9.232,0.1159
9.236,-0.00029
9.24,0.01217
9.244,0.03568
9.248,0.03172
9.252,0.00655
9.256,-0.01585
9.26,0.07567
9.264,0.0175
9.268,0.00239
9.272,0.01104
9.276,0.0787
9.28,0.04473
9.284,-0.05924
9.288,0.01811
9.292,-0.02642
9.296,0.06785
9.3,0.05306
9.304,0.01799
9.308,0.06374
9.312,0.05658
9.316,0.01461
9.32,0.04551
9.324,0.09314
9.328,0.10793
9.332,0.09431
9.336,0.08341
9.34,0.10823
9.344,0.10393
9.348,0.12198
9.352,0.14976
9.356,0.21512
9.36,0.19259
9.364,0.25628
9.368,0.21575
9.372,0.15726
9.376,0.26618
9.38,0.2147
9.384,0.25697
9.388,0.2405
9.392,0.26675
9.396,0.24577
9.4,0.26421
9.404,0.27867
9.408,0.19965
9.412,0.224
9.416,0.27783
9.42,0.21872
9.424,0.20064
9.428,0.23221
9.432,0.22289
9.436,0.16872
9.44,0.20892
9.444,0.13129
9.448,0.1699
9.452,0.23881
9.456,0.14272
9.46,0.11988
9.464,0.12063
9.468,0.12158
9.472,0.0913
9.476,0.08346
9.48,0.08821
9.484,0.09794
9.488,0.05175
9.492,0.08732
9.496,0.01126
9.5,0.03048
9.504,0.10399
9.508,-0.01517
9.512,-0.023
9.516,0.01357
9.52,0.04055
9.524,0.02387
9.528,-0.03638
9.532,0.05994
9.536,0.01368
9.54,0.02515
9.544,0.05974
9.548,0.01533
9.552,0.03678
9.556,0.00085
9.56,0.04968
9.564,0.07978
9.568,0.02512
9.572,0.02792
9.576,0.02936
9.58,0.04857
9.584,0.05809
9.588,0.09305
9.592,-0.00982
9.596,0.02989
9.6,0.03427
9.604,0.05387
9.608,0.09389
9.612,0.05381
9.616,-0.00803
9.62,-0.02988
9.624,0.07371
9.628,0.11708
9.632,0.0126
9.636,0.04971
9.64,0.05042
9.644,0.03025
9.648,-0.01151
9.652,0.03503
9.656,0.00014
9.66,0.04655
9.664,0.05722
9.668,0.07969
9.672,0.03472
9.676,0.0161
9.68,0.05081
9.684,-0.01766
9.688,0.07572
9.692,0.03978
9.696,0.04766
9.7,0.05429
9.704,0.01522
9.708,0.06104
9.712,0.07189
9.716,0.03886
9.72,0.08541
9.724,0.04353
9.728,0.09974
9.732,0.04155
9.736,0.02643
9.74,0.03805
9.744,0.12779
9.748,0.05685
9.752,0.0993
9.756,0.08057
9.76,0.07314
9.764,0.10367
9.768,0.12598
9.772,0.16223
9.776,0.16191
9.78,0.07768
9.784,0.15976
9.788,0.136
9.792,0.06747
9.796,0.07755
9.8,0.04957
9.804,-0.00556
9.808,0.13026
9.812,0.05338
9.816,-0.01598
9.82,0.01811
9.824,0.02603
9.828,-0.06509
9.832,-0.04979
9.836,0.01707
9.84,0.00233
9.844,-0.02878
9.848,0.01058
9.852,0.02585
9.856,0.02232
9.86,0.07535
9.864,-0.02551
9.868,0.0833
9.872,0.01229
9.876,0.0208
9.88,0.04358
9.884,0.00649
9.888,0.00361
9.892,-0.04377
9.896,-0.06945
9.9,-0.05359
9.904,-0.10113
9.908,-0.02275
9.912,0.06864
9.916,0.20107
9.92,0.52956
9.924,0.66458
9.928,0.91884
9.932,1.07826
9.936,1.01816
9.94,0.91547
9.944,0.74803
9.948,0.51775
9.952,0.2745
9.956,0.08307
9.96,0.00645
9.964,-0.12927
9.968,-0.16991
9.972,-0.10781
9.976,-0.09594
9.98,0.00965
9.984,-0.05066
9.988,-0.01869
9.992,-0.04046
9.996,0.06395
