t_seg,ecg_mV
0.0,0.0657
0.004,0.06743
0.008,0.07272
0.012,0.07738
0.016,0.06845
0.02,0.08234
0.024,0.04235
0.028,0.05771
0.032,0.02938
0.036,0.03504
0.04,0.01681
0.044,0.01164
0.048,0.01862
0.052,-0.00176
0.056,-0.00947
0.06,-0.02448
0.064,-0.02934
0.068,-0.03181
0.072,-0.04554
0.076,-0.03599
0.08,-0.01452
0.084,-0.02504
0.088,-0.02797
0.092,-0.03404
0.096,-0.01297
0.1,-0.00234
0.104,-0.02035
0.108,0.0113
0.112,-0.02621
0.116,-0.03814
0.12,-0.01592
0.124,-0.06632
0.128,-0.07704
0.132,-0.12924
0.136,-0.14018
0.14,-0.11219
0.144,-0.06642
0.148,0.07708
0.152,0.27404
0.156,0.47966
0.16,0.68383
0.164,0.86801
0.168,0.96382
0.172,0.97011
0.176,0.86966
0.18,0.67024
0.184,0.40879
0.188,0.18508
0.192,0.03371
0.196,-0.11129
0.2,-0.17104
0.204,-0.18581
0.208,-0.17387
0.212,-0.11283
0.216,-0.09473
0.22,-0.08139
0.224,-0.06865
0.228,-0.05547
0.232,-0.00661
0.236,-0.02382
0.24,-0.02303
0.244,-0.02776
0.248,-0.03081
0.252,-0.02175
0.256,-0.02032
0.26,0.00044
0.264,-0.02692
0.268,-0.03825
0.272,-0.04905
0.276,-0.02025
0.28,-0.03488
0.284,-0.02818
0.288,-0.01364
0.292,-0.02327
0.296,-0.03339
0.3,-0.02524
0.304,-0.02588
0.308,0.00016
0.312,-0.01941
0.316,-0.01608
0.32,-0.0285
0.324,-0.04923
0.328,-0.02612
0.332,-0.00993
0.336,-0.02473
0.34,-0.00696
0.344,0.00282
0.348,-0.02548
0.352,-0.02223
0.356,-0.01579
0.36,0.00284
0.364,0.00935
0.368,0.02757
0.372,0.03716
0.376,0.05009
0.38,0.05867
0.384,0.03553
0.388,0.07636
0.392,0.06549
0.396,0.07716
0.4,0.09057
0.404,0.11888
0.408,0.10773
0.412,0.12386
0.416,0.1618
0.42,0.14393
0.424,0.16118
0.428,0.18461
0.432,0.16947
0.436,0.19276
0.44,0.19365
0.444,0.19875
0.448,0.16524
0.452,0.206
0.456,0.22681
0.46,0.21328
0.464,0.18866
0.468,0.1778
0.472,0.15299
0.476,0.16816
0.48,0.14917
0.484,0.13115
0.488,0.12377
0.492,0.14605
0.496,0.11522
0.5,0.1048
0.504,0.0824
0.508,0.06505
0.512,0.03223
0.516,0.04694
0.52,0.04173
0.524,0.03091
0.528,0.03851
0.532,-2e-05
0.536,0.03002
0.54,-0.01088
0.544,-0.02162
0.548,-0.00405
0.552,-0.00742
0.556,-0.00691
0.56,-0.03449
0.564,-0.04268
0.568,-0.01063
0.572,0.0078
0.576,-0.03004
0.58,-0.01907
0.584,-0.0406
0.588,-0.04422
0.592,0.00156
0.596,-0.00759
0.6,-0.02818
0.604,-0.03526
0.608,-0.0221
0.612,-0.02101
0.616,-0.0234
0.62,-0.03866
0.624,-0.02285
0.628,-0.02476
0.632,-0.02777
0.636,-0.00617
0.64,-0.04023
0.644,-0.02833
0.648,-0.02497
0.652,-0.03451
0.656,-0.00945
0.66,-0.01688
0.664,-0.00782
0.668,-0.04276
0.672,-0.02625
0.676,-0.01881
0.68,-0.02266
0.684,-0.02908
0.688,-0.026
0.692,-0.03824
0.696,-0.00395
0.7,-0.04231
0.704,-0.04565
0.708,-0.01799
0.712,-0.0304
0.716,-0.01312
0.72,-0.02996
0.724,-0.00317
0.728,-0.02217
0.732,-0.0422
0.736,-0.02256
0.74,-0.02859
0.744,0.02096
0.748,-0.01443
0.752,-0.00159
0.756,0.00724
0.76,0.03108
0.764,0.06261
0.768,0.04694
0.772,0.07626
0.776,0.05457
0.78,0.07597
0.784,0.04251
0.788,0.05684
0.792,0.08203
0.796,0.05951
0.8,0.04004
0.804,0.00387
0.808,0.01185
0.812,0.02945
0.816,-0.01693
0.82,-0.02768
0.824,0.00079
0.828,-0.03415
0.832,-0.05723
0.836,-0.02325
0.84,-0.01974
0.844,-0.02837
0.848,-0.03109
0.852,-0.02639
0.856,-0.03814
0.86,-0.04878
0.864,-0.01036
0.868,-0.02854
0.872,-0.01147
0.876,-0.07064
0.88,-0.01606
0.884,-0.0317
0.888,-0.02861
0.892,-0.03094
0.896,-0.07594
0.9,-0.05458
0.904,-0.10881
0.908,-0.13168
0.912,-0.13322
0.916,-0.05498
0.92,0.0616
0.924,0.21261
0.928,0.43101
0.932,0.66822
0.936,0.83528
0.94,0.96588
0.944,0.95404
0.948,0.85794
0.952,0.69748
0.956,0.44009
0.96,0.22147
0.964,0.04087
0.968,-0.11746
0.972,-0.16665
0.976,-0.15959
0.98,-0.16093
0.984,-0.1164
0.988,-0.10079
0.992,-0.05992
0.996,-0.05338
1.0,-0.04563
1.004,-0.07724
1.008,-0.02312
1.012,-0.03715
1.016,-0.0189
1.02,-0.02112
1.024,-0.03971
1.028,-0.02512
1.032,-0.01553
1.036,-0.02319
1.04,-0.02538
1.044,-0.05452
1.048,-0.05066
1.052,-0.02205
1.056,-0.05154
1.06,-0.03
1.064,-0.03311
1.068,-0.01286
1.072,-0.00188
1.076,-0.04049
1.08,0.00015
1.084,-0.0429
1.088,-0.0404
1.092,-0.01731
1.096,-0.02481
1.1,-0.01714
1.104,-0.01051
1.108,-0.01266
1.112,-0.02632
1.116,-0.04501
1.12,-0.00299
1.124,-0.03753
1.128,-0.00745
1.132,0.00783
1.136,0.00676
1.14,-0.00997
1.144,0.01197
1.148,0.01093
1.152,0.02559
1.156,0.05759
1.16,0.05331
1.164,0.08205
1.168,0.07024
1.172,0.06985
1.176,0.08851
1.18,0.15301
1.184,0.15495
1.188,0.14143
1.192,0.15301
1.196,0.14898
1.2,0.1757
1.204,0.17166
1.208,0.17243
1.212,0.18963
1.216,0.22282
1.22,0.18848
1.224,0.20451
1.228,0.18832
1.232,0.19288
1.236,0.16603
1.24,0.18883
1.244,0.15594
1.248,0.16593
1.252,0.12765
1.256,0.13363
1.26,0.12068
1.264,0.09858
1.268,0.0913
1.272,0.07999
1.276,0.08389
1.28,0.04569
1.284,0.07736
1.288,0.06943
1.292,0.04429
1.296,0.0103
1.3,0.00556
1.304,0.0222
1.308,0.05033
1.312,0.00595
1.316,0.00308
1.32,-0.02853
1.324,-0.02851
1.328,-0.02157
1.332,-0.00465
1.336,-0.03472
1.34,-0.00776
1.344,-0.05995
1.348,-0.04476
1.352,-0.02619
1.356,-0.0155
1.36,-0.03829
1.364,-0.01173
1.368,-0.01596
1.372,-0.00694
1.376,-0.00206
1.38,-0.03315
1.384,-0.0272
1.388,-0.02577
1.392,0.00664
1.396,-0.00749
1.4,-0.013
1.404,-0.02508
1.408,-0.03384
1.412,-0.02678
1.416,-0.02941
1.42,-0.01651
1.424,0.02683
1.428,-0.01152
1.432,-0.02466
1.436,-0.05764
1.44,-0.02003
1.444,-0.02963
1.448,0.00928
1.452,-0.01774
1.456,-0.00844
1.46,0.03689
1.464,0.05585
1.468,0.03423
1.472,0.05258
1.476,0.07695
1.48,0.06993
1.484,0.07296
1.488,0.07865
1.492,0.07841
1.496,0.06176
1.5,0.03602
1.504,0.04724
1.508,0.03919
1.512,0.01524
1.516,-0.00519
1.52,0.01031
1.524,-0.01054
1.528,0.00131
1.532,-0.00387
1.536,-0.02153
1.54,-0.02237
1.544,-0.03357
1.548,-0.02727
1.552,-0.01978
1.556,-0.0297
1.56,-0.0157
1.564,-0.03769
1.568,-0.04301
1.572,-0.02576
1.576,-0.01555
1.58,-0.01759
1.584,-0.01179
1.588,-0.0192
1.592,-0.02419
1.596,-0.02958
1.6,-0.01822
1.604,-0.05076
1.608,-0.07712
1.612,-0.1177
1.616,-0.1549
1.62,-0.08802
1.624,0.03518
1.628,0.20066
1.632,0.43635
1.636,0.62241
1.64,0.83919
1.644,0.94302
1.648,0.98598
1.652,0.89567
1.656,0.68979
1.66,0.45575
1.664,0.23623
1.668,0.04738
1.672,-0.06476
1.676,-0.16886
1.68,-0.21438
1.684,-0.12897
1.688,-0.12482
1.692,-0.08625
1.696,-0.06161
1.7,-0.03318
1.704,-0.02889
1.708,-0.03666
1.712,-0.05977
1.716,-0.03658
1.72,-0.03308
1.724,-0.00351
1.728,-0.01709
1.732,-0.02956
1.736,-0.0214
1.74,-0.01821
1.744,-0.02603
1.748,-0.01264
1.752,-0.0274
1.756,-0.04432
1.76,-0.00994
1.764,-0.03656
1.768,-0.04229
1.772,-0.02685
1.776,-0.03307
1.78,-0.02111
1.784,-0.0008
1.788,-0.0278
1.792,-0.03507
1.796,-0.02863
1.8,-0.00947
1.804,-0.02323
1.808,-0.03195
1.812,-0.00725
1.816,-0.02213
1.82,-0.02452
1.824,0.00563
1.828,0.00195
1.832,0.00476
1.836,0.01857
1.84,0.02253
1.844,0.03328
1.848,0.03131
1.852,0.08937
1.856,0.03955
1.86,0.05526
1.864,0.03911
1.868,0.08947
1.872,0.08518
1.876,0.12204
1.88,0.10108
1.884,0.13555
1.888,0.1181
1.892,0.13926
1.896,0.1447
1.9,0.18098
1.904,0.16366
1.908,0.19217
1.912,0.18315
1.916,0.18283
1.92,0.18771
1.924,0.19402
1.928,0.16726
1.932,0.16345
1.936,0.20847
1.94,0.17745
1.944,0.191
1.948,0.17239
1.952,0.16802
1.956,0.15198
1.96,0.13243
1.964,0.1507
1.968,0.14768
1.972,0.12834
1.976,0.09317
1.98,0.07991
1.984,0.08889
1.988,0.10607
1.992,0.04529
1.996,0.05109
2.0,0.04762
2.004,0.04006
2.008,0.02672
2.012,0.01528
2.016,0.01608
2.02,0.00997
2.024,0.02257
2.028,-0.01138
2.032,0.0073
2.036,0.0108
2.04,-0.01069
2.044,-0.01105
2.048,-0.00527
2.052,-0.03648
2.056,-0.00491
2.06,-0.01756
2.064,-0.04136
2.068,-0.01091
2.072,-0.02424
2.076,-0.01067
2.08,-0.00052
2.084,-0.00649
2.088,-0.02304
2.092,-0.01898
2.096,0.00187
2.1,-0.0321
2.104,0.00381
2.108,-0.03074
2.112,-0.02407
2.116,-0.00106
2.12,-0.01666
2.124,0.01157
2.128,-0.01653
2.132,-0.04293
2.136,-0.00498
2.14,-0.0104
2.144,-0.01717
2.148,-0.04081
2.152,0.00256
2.156,0.00193
2.16,-0.02815
2.164,-0.01194
2.168,-0.01644
2.172,-0.03573
2.176,-0.04608
2.18,-0.02443
2.184,-0.01095
2.188,0.01603
2.192,-0.00755
2.196,-0.02737
2.2,-0.00741
2.204,-0.02377
2.208,-0.00467
2.212,-0.03942
2.216,0.00179
2.22,0.01271
2.224,0.01911
2.228,0.02801
2.232,-0.00122
2.236,0.00373
2.24,0.00795
2.244,0.00846
2.248,0.01553
2.252,0.00639
2.256,0.04673
2.26,0.08403
2.264,0.04865
2.268,0.0736
2.272,0.07558
2.276,0.11967
2.28,0.06538
2.284,0.10291
2.288,0.07364
2.292,0.05391
2.296,0.04968
2.3,0.03967
2.304,0.02737
2.308,0.01321
2.312,0.04735
2.316,0.01242
2.32,-0.01588
2.324,0.00055
2.328,0.01798
2.332,-0.00872
2.336,0.03149
2.34,-0.00155
2.344,-0.00366
2.348,-0.04909
2.352,-0.00311
2.356,-0.01554
2.36,-0.02824
2.364,-0.01216
2.368,-0.02396
2.372,-0.02947
2.376,-0.01565
2.38,0.00163
2.384,0.01375
2.388,-0.03097
2.392,-0.03926
2.396,-0.05369
2.4,-0.0692
2.404,-0.11056
2.408,-0.10399
2.412,-0.02186
2.416,0.12052
2.42,0.27901
2.424,0.49609
2.428,0.7158
2.432,0.90023
2.436,1.01111
2.44,0.97293
2.444,0.81577
2.448,0.60006
2.452,0.41664
2.456,0.1963
2.46,-0.0196
2.464,-0.12753
2.468,-0.17146
2.472,-0.19227
2.476,-0.15335
2.48,-0.10358
2.484,-0.06466
2.488,0.0051
2.492,-0.00166
2.496,-0.04148
2.5,-0.01251
2.504,0.00461
2.508,-0.00547
2.512,-0.01607
2.516,-0.02349
2.52,-0.02701
2.524,-0.02921
2.528,8e-05
2.532,-0.00379
2.536,0.01067
2.54,0.01436
2.544,0.0095
2.548,-0.00304
2.552,-0.0211
2.556,0.01396
2.56,0.01531
2.564,-0.02196
2.568,-0.0251
2.572,-0.00467
2.576,-0.01551
2.58,-0.03179
2.584,-0.00826
2.588,0.00544
2.592,0.01939
2.596,0.0093
2.6,-0.00084
2.604,0.02574
2.608,-0.0237
2.612,0.01764
2.616,0.00045
2.62,0.02713
2.624,0.03251
2.628,0.02946
2.632,0.03223
2.636,0.03762
2.64,0.05813
2.644,0.06375
2.648,0.06356
2.652,0.09329
2.656,0.07931
2.66,0.11224
2.664,0.10762
2.668,0.12241
2.672,0.14035
2.676,0.14658
2.68,0.14759
2.684,0.17144
2.688,0.18462
2.692,0.16383
2.696,0.1686
2.7,0.19056
2.704,0.23709
2.708,0.1983
2.712,0.24789
2.716,0.24375
2.72,0.19206
2.724,0.21818
2.728,0.20248
2.732,0.22
2.736,0.1877
2.74,0.19911
2.744,0.18504
2.748,0.17735
2.752,0.16053
2.756,0.15844
2.76,0.15399
2.764,0.12859
2.768,0.13479
2.772,0.13281
2.776,0.08132
2.78,0.08866
2.784,0.05277
2.788,0.07919
2.792,0.04667
2.796,0.01696
2.8,0.05633
2.804,0.05748
2.808,0.03715
2.812,0.02641
2.816,0.03853
2.82,0.02209
2.824,0.00231
2.828,0.01055
2.832,0.00877
2.836,0.02537
2.84,0.00187
2.844,-0.02369
2.848,-0.00095
2.852,0.01375
2.856,-0.00466
2.86,0.01392
2.864,0.00075
2.868,0.00473
2.872,0.01128
2.876,0.00179
2.88,0.00654
2.884,0.00647
2.888,0.0005
2.892,-0.00963
2.896,0.02741
2.9,0.02641
2.904,-0.00128
2.908,0.01851
2.912,-1e-05
2.916,-0.00819
2.92,-0.01652
2.924,-0.02162
2.928,-0.00405
2.932,0.01171
2.936,0.01065
2.94,0.01591
2.944,0.00951
2.948,-0.01073
2.952,-0.00646
2.956,0.03228
2.96,0.03167
2.964,0.04674
2.968,0.05988
2.972,0.04314
2.976,0.06758
2.98,0.08818
2.984,0.08019
2.988,0.09547
2.992,0.11417
2.996,0.11802
3.0,0.11873
3.004,0.08761
3.008,0.06426
3.012,0.09043
3.016,0.06824
3.02,0.06659
3.024,0.03787
3.028,0.05398
3.032,0.02141
3.036,0.0347
3.04,0.02948
3.044,0.02319
3.048,0.01223
3.052,0.00271
3.056,0.0156
3.06,0.00792
3.064,0.00125
3.068,0.00374
3.072,0.04127
3.076,0.00297
3.08,0.0225
3.084,0.0182
3.088,0.01048
3.092,0.01647
3.096,0.01078
3.1,0.01698
3.104,0.01213
3.108,-0.02653
3.112,-0.03647
3.116,-0.04499
3.12,-0.10709
3.124,-0.09668
3.128,-0.0773
3.132,0.01859
3.136,0.20206
3.14,0.40741
3.144,0.62925
3.148,0.81526
3.152,0.95298
3.156,1.01638
3.16,0.92787
3.164,0.78
3.168,0.58771
3.172,0.3246
3.176,0.12554
3.18,-0.02381
3.184,-0.11362
3.188,-0.17534
3.192,-0.14436
3.196,-0.10915
3.2,-0.06442
3.204,-0.03399
3.208,-0.01409
3.212,0.01859
3.216,0.00266
3.22,-0.00402
3.224,0.00333
3.228,0.02889
3.232,0.05246
3.236,-0.00117
3.24,0.03252
3.244,0.02512
3.248,0.00263
3.252,0.01478
3.256,0.0082
3.26,0.0108
3.264,0.02038
3.268,0.01762
3.272,0.03402
3.276,0.0032
3.28,0.00812
3.284,0.01101
3.288,0.04331
3.292,0.02182
3.296,0.02996
3.3,0.01873
3.304,0.02055
3.308,0.00884
3.312,0.02473
3.316,0.03193
3.32,0.01301
3.324,0.01793
3.328,0.0149
3.332,0.03768
3.336,0.02256
3.34,0.0111
3.344,0.02302
3.348,0.01381
3.352,0.05951
3.356,0.06054
3.36,0.06955
3.364,0.06712
3.368,0.10334
3.372,0.10373
3.376,0.11058
3.38,0.13311
3.384,0.151
3.388,0.14521
3.392,0.19851
3.396,0.17235
3.4,0.18554
3.404,0.22296
3.408,0.21223
3.412,0.22442
3.416,0.22158
3.42,0.2338
3.424,0.21412
3.428,0.24354
3.432,0.25365
3.436,0.24795
3.44,0.22526
3.444,0.24697
3.448,0.23354
3.452,0.19863
3.456,0.23236
3.46,0.20968
3.464,0.20767
3.468,0.1887
3.472,0.15786
3.476,0.15012
3.48,0.13764
3.484,0.1511
3.488,0.14353
3.492,0.14177
3.496,0.1253
3.5,0.07529
3.504,0.09246
3.508,0.08639
3.512,0.05327
3.516,0.06149
3.52,0.05261
3.524,0.07234
3.528,0.04672
3.532,0.06109
3.536,0.02938
3.54,0.02653
3.544,0.04363
3.548,0.02167
3.552,0.03744
3.556,-0.00255
3.56,0.02822
3.564,0.00496
3.568,0.04848
3.572,0.06069
3.576,0.03168
3.58,0.02006
3.584,0.02047
3.588,0.03916
3.592,0.01208
3.596,0.01397
3.6,0.03531
3.604,0.04304
3.608,-0.00044
3.612,0.01157
3.616,0.00351
3.62,0.01326
3.624,0.03693
3.628,0.01171
3.632,0.04172
3.636,0.0158
3.64,0.01997
3.644,0.01496
3.648,0.03183
3.652,0.03017
3.656,0.02227
3.66,0.02006
3.664,0.01886
3.668,0.03138
3.672,0.03487
3.676,0.02219
3.68,0.03599
3.684,0.03732
3.688,0.03697
3.692,0.02055
3.696,0.00713
3.7,0.0321
3.704,0.01831
3.708,0.03857
3.712,-0.00018
3.716,0.01406
3.72,0.05817
3.724,0.03342
3.728,0.02184
3.732,0.01396
3.736,0.0421
3.74,0.01562
3.744,0.01397
3.748,0.03255
3.752,-0.00849
3.756,0.00792
3.76,0.01537
3.764,0.05243
3.768,0.04023
3.772,0.03069
3.776,0.06619
3.78,0.02572
3.784,0.05799
3.788,0.08714
3.792,0.07985
3.796,0.11435
3.8,0.12379
3.804,0.11997
3.808,0.12811
3.812,0.13829
3.816,0.14245
3.82,0.11161
3.824,0.11442
3.828,0.07374
3.832,0.07257
3.836,0.05543
3.84,0.05526
3.844,0.04563
3.848,0.02919
3.852,0.03374
3.856,0.00872
3.86,0.04114
3.864,0.03455
3.868,0.06365
3.872,0.02871
3.876,0.04754
3.88,0.02708
3.884,0.02097
3.888,0.03353
3.892,0.02496
3.896,0.02704
3.9,0.03559
3.904,0.03562
3.908,0.00508
3.912,0.01517
3.916,0.05957
3.92,0.04146
3.924,0.00295
3.928,-0.02418
3.932,-0.05673
3.936,-0.08572
3.94,-0.08794
3.944,-0.04231
3.948,0.08244
3.952,0.20576
3.956,0.42587
3.96,0.64776
3.964,0.85076
3.968,0.96415
3.972,1.03131
3.976,0.96665
3.98,0.78238
3.984,0.55861
3.988,0.34073
3.992,0.15096
3.996,-0.01029
4.0,-0.08421
4.004,-0.13974
4.008,-0.12136
4.012,-0.04748
4.016,-0.02589
4.02,-0.01594
4.024,-0.00039
4.028,0.0005
4.032,0.04565
4.036,0.02146
4.04,0.02544
4.044,0.02457
4.048,0.04978
4.052,0.0196
4.056,0.03179
4.06,0.04036
4.064,0.03553
4.068,0.04041
4.072,0.02002
4.076,0.01789
4.08,0.03153
4.084,0.04702
4.088,0.03101
4.092,0.04008
4.096,0.04586
4.1,-0.00956
4.104,0.06254
4.108,0.03417
4.112,0.03103
4.116,-0.00903
4.12,0.02651
4.124,0.05819
4.128,0.04626
4.132,0.0432
4.136,0.02892
4.14,0.03797
4.144,0.0378
4.148,0.01988
4.152,0.03689
4.156,0.06003
4.16,0.05927
4.164,0.04767
4.168,0.07598
4.172,0.0732
4.176,0.10031
4.18,0.07717
4.184,0.09151
4.188,0.08291
4.192,0.10675
4.196,0.16137
4.2,0.14755
4.204,0.1693
4.208,0.18487
4.212,0.15519
4.216,0.20001
4.22,0.1883
4.224,0.2344
4.228,0.20875
4.232,0.22686
4.236,0.23607
4.24,0.22994
4.244,0.21723
4.248,0.26947
4.252,0.25778
4.256,0.23959
4.26,0.26963
4.264,0.25727
4.268,0.21132
4.272,0.23415
4.276,0.21925
4.28,0.23874
4.284,0.2048
4.288,0.16322
4.292,0.1591
4.296,0.16161
4.3,0.16618
4.304,0.14033
4.308,0.13969
4.312,0.11861
4.316,0.11013
4.32,0.11954
4.324,0.07214
4.328,0.06491
4.332,0.05604
4.336,0.04257
4.34,0.04938
4.344,0.05789
4.348,0.03594
4.352,0.05003
4.356,0.06846
4.36,0.04616
4.364,0.0545
4.368,0.03379
4.372,0.03762
4.376,0.00741
4.38,0.0016
4.384,0.00631
4.388,0.03834
4.392,0.04066
4.396,0.01745
4.4,0.02333
4.404,0.04878
4.408,0.03588
4.412,0.05117
4.416,0.01215
4.42,0.03559
4.424,-0.00906
4.428,0.04087
4.432,0.04368
4.436,0.00396
4.44,0.00618
4.444,0.01514
4.448,0.02724
4.452,0.02836
4.456,0.02527
4.46,0.03352
4.464,0.03822
4.468,0.02517
4.472,0.05069
4.476,0.03993
4.48,0.01267
4.484,0.0159
4.488,0.04254
4.492,0.05003
4.496,0.03696
4.5,0.01884
4.504,0.02154
4.508,0.00503
4.512,0.04087
4.516,0.02665
4.52,0.04842
4.524,0.04584
4.528,0.06272
4.532,0.06098
4.536,0.06999
4.54,0.07242
4.544,0.12608
4.548,0.11107
4.552,0.10326
4.556,0.12097
4.56,0.11727
4.564,0.13659
4.568,0.13679
4.572,0.0921
4.576,0.11132
4.58,0.09962
4.584,0.10898
4.588,0.0748
4.592,0.07364
4.596,0.06505
4.6,0.07797
4.604,0.05724
4.608,0.02483
4.612,0.04516
4.616,0.02655
4.62,0.02028
4.624,0.02154
4.628,0.02905
4.632,0.0518
4.636,0.00378
4.64,0.009
4.644,0.034
4.648,0.03321
4.652,0.00308
4.656,0.03761
4.66,0.03928
4.664,0.03768
4.668,0.01864
4.672,0.01315
4.676,0.01559
4.68,0.01043
4.684,-0.03451
4.688,-0.05733
4.692,-0.07818
4.696,-0.0622
4.7,0.02028
4.704,0.15784
4.708,0.36578
4.712,0.55908
4.716,0.81163
4.72,0.9073
4.724,1.0089
4.728,0.98073
4.732,0.84656
4.736,0.60613
4.74,0.42109
4.744,0.19615
4.748,0.00316
4.752,-0.08482
4.756,-0.14584
4.76,-0.12641
4.764,-0.12314
4.768,-0.06041
4.772,-0.00429
4.776,-0.00248
4.78,0.01324
4.784,0.02316
4.788,0.03315
4.792,0.04674
4.796,0.02555
4.8,0.01912
4.804,0.01459
4.808,0.01238
4.812,0.03486
4.816,0.02792
4.82,-0.01139
4.824,0.00085
4.828,0.05151
4.832,0.03054
4.836,0.02301
4.84,0.01125
4.844,0.03115
4.848,0.01574
4.852,0.02968
4.856,-0.01695
4.86,0.03403
4.864,0.05511
4.868,0.00801
4.872,-0.00095
4.876,0.01567
4.88,0.03396
4.884,0.04643
4.888,0.03743
4.892,0.04242
4.896,0.02649
4.9,0.0747
4.904,0.04606
4.908,0.03947
4.912,0.04931
4.916,0.05345
4.92,0.07648
4.924,0.06388
4.928,0.03643
4.932,0.06806
4.936,0.1089
4.94,0.08988
4.944,0.0799
4.948,0.1075
4.952,0.11824
4.956,0.15886
4.96,0.17631
4.964,0.17494
4.968,0.18386
4.972,0.18237
4.976,0.22769
4.98,0.22771
4.984,0.24781
4.988,0.20096
4.992,0.22395
4.996,0.23241
5.0,0.23734
5.004,0.25872
5.008,0.25848
5.012,0.23252
5.016,0.23244
5.02,0.2307
5.024,0.21412
5.028,0.25261
5.032,0.20629
5.036,0.19948
5.04,0.21091
5.044,0.17551
5.048,0.16822
5.052,0.17577
5.056,0.16119
5.06,0.13818
5.064,0.18171
5.068,0.15019
5.072,0.18729
5.076,0.15829
5.08,0.17513
5.084,0.18275
5.088,0.17008
5.092,0.17301
5.096,0.14212
5.1,0.12986
5.104,0.13123
5.108,0.11522
5.112,0.10192
5.116,0.07247
5.12,0.04925
5.124,0.05878
5.128,0.06298
5.132,0.04477
5.136,0.01661
5.14,0.05259
5.144,0.02175
5.148,0.02293
5.152,0.02481
5.156,0.03834
5.16,0.03184
5.164,0.04773
5.168,0.03008
5.172,0.02767
5.176,0.03218
5.18,0.04479
5.184,0.01803
5.188,-0.0032
5.192,0.04625
5.196,0.02937
5.2,0.03516
5.204,-0.02598
5.208,-0.03725
5.212,-0.09321
5.216,-0.13611
5.22,-0.03677
5.224,0.05989
5.228,0.20781
5.232,0.44178
5.236,0.63714
5.24,0.85035
5.244,1.00534
5.248,1.03618
5.252,0.94357
5.256,0.77102
5.26,0.56186
5.264,0.33744
5.268,0.11637
5.272,-0.04552
5.276,-0.12751
5.28,-0.14072
5.284,-0.11741
5.288,-0.08664
5.292,-0.03504
5.296,-0.01985
5.3,0.02485
5.304,0.02948
5.308,0.00017
5.312,0.02075
5.316,0.0285
5.32,-0.0048
5.324,0.00209
5.328,0.03181
5.332,0.00434
5.336,0.00416
5.34,0.016
5.344,0.01114
5.348,-0.00685
5.352,0.01059
5.356,0.02022
5.36,0.003
5.364,0.00886
5.368,0.0272
5.372,0.01109
5.376,0.03583
5.38,0.01849
5.384,0.00717
5.388,0.0174
5.392,0.00838
5.396,0.02026
5.4,0.03376
5.404,0.01368
5.408,0.01202
5.412,0.01136
5.416,0.02456
5.42,0.05351
5.424,0.06386
5.428,0.02937
5.432,0.01394
5.436,0.04576
5.44,0.06116
5.444,0.0549
5.448,0.08861
5.452,0.05406
5.456,0.07762
5.46,0.08569
5.464,0.11123
5.468,0.08332
5.472,0.09308
5.476,0.1594
5.48,0.1323
5.484,0.15248
5.488,0.17252
5.492,0.16674
5.496,0.18313
5.5,0.23457
5.504,0.22824
5.508,0.23629
5.512,0.18674
5.516,0.23561
5.52,0.2373
5.524,0.21189
5.528,0.21565
5.532,0.22125
5.536,0.22614
5.54,0.25273
5.544,0.25595
5.548,0.22774
5.552,0.18656
5.556,0.17909
5.56,0.17712
5.564,0.20032
5.568,0.15741
5.572,0.11801
5.576,0.15121
5.58,0.11319
5.584,0.13559
5.588,0.08985
5.592,0.08566
5.596,0.07365
5.6,0.09144
5.604,0.03851
5.608,0.05494
5.612,0.05182
5.616,0.03314
5.62,0.04097
5.624,0.04359
5.628,0.00314
5.632,0.04094
5.636,-0.01477
5.64,0.04677
5.644,0.01614
5.648,0.04567
5.652,0.0109
5.656,0.02175
5.66,0.01236
5.664,0.01127
5.668,-0.01594
5.672,0.015
5.676,0.02239
5.68,0.00938
5.684,0.00927
5.688,0.01961
5.692,0.00665
5.696,-0.01272
5.7,0.01026
5.704,0.00263
5.708,0.01637
5.712,0.00794
5.716,0.00527
5.72,0.01279
5.724,0.01181
5.728,0.01976
5.732,0.01501
5.736,0.02345
5.74,0.01025
5.744,0.01175
5.748,0.00855
5.752,0.0098
5.756,0.00781
5.76,-0.00622
5.764,-0.00874
5.768,0.00824
5.772,0.00873
5.776,0.0071
5.78,-0.0023
5.784,-0.01064
5.788,-0.00586
5.792,0.03532
5.796,-0.02853
5.8,0.02025
5.804,0.03576
5.808,0.01138
5.812,-0.02627
5.816,0.01832
5.82,0.00799
5.824,-0.00314
5.828,0.01393
5.832,-0.00408
5.836,0.02232
5.84,-0.00616
5.844,0.01657
5.848,0.04142
5.852,0.02975
5.856,0.03031
5.86,0.06008
5.864,0.01818
5.868,0.06912
5.872,0.08971
5.876,0.08068
5.88,0.10023
5.884,0.09711
5.888,0.09904
5.892,0.11963
5.896,0.11436
5.9,0.07362
5.904,0.10309
5.908,0.07212
5.912,0.04877
5.916,0.04631
5.92,0.04035
5.924,0.03378
5.928,0.03974
5.932,0.00696
5.936,0.02943
5.94,-0.00715
5.944,0.00853
5.948,0.01069
5.952,0.00646
5.956,0.00341
5.96,0.00964
5.964,0.00495
5.968,0.00444
5.972,0.00901
5.976,-0.00435
5.98,0.00924
5.984,-0.00719
5.988,0.00084
5.992,0.00628
5.996,0.01375
6.0,0.00046
6.004,-0.02149
6.008,-0.04988
6.012,-0.09273
6.016,-0.1246
6.02,-0.0847
6.024,-0.01855
6.028,0.12522
6.032,0.32272
6.036,0.51511
6.04,0.727
6.044,0.92929
6.048,0.98566
6.052,0.98457
6.056,0.86318
6.06,0.62732
6.064,0.42555
6.068,0.18177
6.072,0.00201
6.076,-0.11896
6.08,-0.1622
6.084,-0.16534
6.088,-0.13331
6.092,-0.0754
6.096,-0.03739
6.1,-0.00936
6.104,-0.00436
6.108,-0.00887
6.112,-0.00211
6.116,-0.00656
6.12,-0.0386
6.124,0.02641
6.128,-0.00671
6.132,0.00444
6.136,0.00349
6.14,0.01087
6.144,0.0166
6.148,0.00103
6.152,0.00357
6.156,0.00706
6.16,-0.03268
6.164,-0.0005
6.168,0.00579
6.172,0.00406
6.176,-0.02411
6.18,-0.00187
6.184,-0.00131
6.188,0.00412
6.192,-0.00053
6.196,0.01476
6.2,-0.00824
6.204,0.00876
6.208,0.01924
6.212,0.00454
6.216,0.01584
6.22,0.00371
6.224,0.03636
6.228,0.021
6.232,0.02965
6.236,0.01213
6.24,0.04133
6.244,0.04607
6.248,0.05766
6.252,0.05212
6.256,0.05156
6.26,0.07437
6.264,0.06883
6.268,0.06041
6.272,0.1
6.276,0.07261
6.28,0.10094
6.284,0.10611
6.288,0.13011
6.292,0.18624
6.296,0.19252
6.3,0.18141
6.304,0.1943
6.308,0.16867
6.312,0.21271
6.316,0.21313
6.32,0.19703
6.324,0.17885
6.328,0.21707
6.332,0.22306
6.336,0.21607
6.34,0.21008
6.344,0.22116
6.348,0.19871
6.352,0.1833
6.356,0.17055
6.36,0.18659
6.364,0.1536
6.368,0.14769
6.372,0.11426
6.376,0.11633
6.38,0.10575
6.384,0.10472
6.388,0.09579
6.392,0.09021
6.396,0.05577
6.4,0.07496
6.404,0.0582
6.408,0.02794
6.412,0.01093
6.416,0.03842
6.42,0.02658
6.424,0.01856
6.428,0.02737
6.432,0.02239
6.436,0.01405
6.44,0.00147
6.444,-0.02505
6.448,0.01551
6.452,0.00998
6.456,-0.00226
6.46,0.00081
6.464,-0.01522
6.468,0.02093
6.472,0.00644
6.476,-0.01713
6.48,-0.02372
6.484,-0.04045
6.488,-0.00543
6.492,-0.0215
6.496,0.00355
6.5,-0.00974
6.504,-0.01685
6.508,-0.00104
6.512,-0.01402
6.516,0.02436
6.52,-0.05006
6.524,-0.01242
6.528,-0.01061
6.532,-0.04008
6.536,-0.03168
6.54,-0.01236
6.544,0.00802
6.548,-0.0198
6.552,0.00716
6.556,-0.00451
6.56,-0.01324
6.564,-0.01386
6.568,-0.00132
6.572,-0.01835
6.576,-0.00715
6.58,-0.03986
6.584,-0.04804
6.588,0.0059
6.592,-0.03593
6.596,-0.00853
6.6,-0.03641
6.604,-0.01051
6.608,-0.02225
6.612,-0.01642
6.616,-0.00707
6.62,-0.0102
6.624,-0.01909
6.628,-0.03757
6.632,-0.00812
6.636,-0.00647
6.64,-0.02688
6.644,-0.01653
6.648,-0.01335
6.652,-0.01169
6.656,-0.00328
6.66,0.01791
6.664,-0.02363
6.668,-0.02229
6.672,0.00486
6.676,-0.01439
6.68,-0.01615
6.684,0.03143
6.688,0.00464
6.692,0.05177
6.696,0.05635
6.7,0.05467
6.704,0.07341
6.708,0.07371
6.712,0.10746
6.716,0.09292
6.72,0.07215
6.724,0.07043
6.728,0.08432
6.732,0.04133
6.736,0.05331
6.74,-0.01248
6.744,0.0128
6.748,-0.00645
6.752,-0.01691
6.756,-0.01123
6.76,-0.0236
6.764,-0.00696
6.768,-0.00853
6.772,-0.01026
6.776,-0.02945
6.78,-0.04387
6.784,-0.00566
6.788,-0.03124
6.792,-0.02403
6.796,-0.04221
6.8,-0.00982
6.804,-0.05393
6.808,-0.03883
6.812,-0.02263
6.816,-0.01181
6.82,-0.00072
6.824,-0.02996
6.828,-0.02056
6.832,-0.06991
6.836,-0.09145
6.84,-0.15923
6.844,-0.14012
6.848,-0.07382
6.852,0.07626
6.856,0.24595
6.86,0.455
6.864,0.64726
6.868,0.85416
6.872,0.96482
6.876,0.97867
6.88,0.87498
6.884,0.66393
6.888,0.41757
6.892,0.22619
6.896,0.02152
6.9,-0.10253
6.904,-0.17551
6.908,-0.17503
6.912,-0.14974
6.916,-0.10903
6.92,-0.10331
6.924,-0.03537
6.928,-0.01593
6.932,-0.0328
6.936,-0.00777
6.94,-0.0181
6.944,-0.01039
6.948,-0.02636
6.952,0.01594
6.956,-0.04088
6.96,-0.0039
6.964,0.00199
6.968,-0.0008
6.972,-0.02521
6.976,-0.02442
6.98,-0.04306
6.984,-0.01776
6.988,-0.0253
6.992,-0.01688
6.996,-0.01721
7.0,-0.00685
7.004,-0.04686
7.008,0.00227
7.012,-0.03124
7.016,-0.02512
7.02,-0.00983
7.024,-0.04006
7.028,0.00458
7.032,-0.04275
7.036,-0.01023
7.04,-0.01588
7.044,-0.02137
7.048,-0.01662
7.052,-0.03355
7.056,-0.01639
7.06,-0.00439
7.064,-0.00067
7.068,0.00959
7.072,0.03028
7.076,0.00612
7.08,0.02944
7.084,0.02786
7.088,0.06821
7.092,0.04312
7.096,0.04594
7.1,0.07929
7.104,0.11362
7.108,0.09721
7.112,0.12554
7.116,0.12939
7.12,0.12535
7.124,0.12928
7.128,0.15736
7.132,0.19204
7.136,0.19354
7.14,0.20291
7.144,0.16365
7.148,0.19968
7.152,0.18518
7.156,0.17542
7.16,0.1907
7.164,0.19992
7.168,0.16374
7.172,0.20182
7.176,0.15997
7.18,0.17229
7.184,0.13001
7.188,0.15467
7.192,0.16069
7.196,0.11836
7.2,0.10627
7.204,0.10453
7.208,0.08129
7.212,0.0561
7.216,0.06519
7.22,0.03933
7.224,0.05055
7.228,0.03225
7.232,0.0381
7.236,0.00211
7.24,-0.00357
7.244,-0.00321
7.248,-0.02222
7.252,-0.00826
7.256,0.0086
7.26,-0.02219
7.264,-0.03875
7.268,-0.02176
7.272,-0.03402
7.276,-0.03453
7.28,-0.03363
7.284,-0.02233
7.288,-0.03062
7.292,-0.02359
7.296,-0.0208
7.3,-0.02868
7.304,-0.0032
7.308,-0.03823
7.312,-0.03346
7.316,-0.04008
7.32,-0.03888
7.324,-0.03198
7.328,-0.03502
7.332,-0.00378
7.336,0.0014
7.34,-0.02194
7.344,-0.04258
7.348,0.00555
7.352,-0.01925
7.356,-0.02734
7.36,-0.03492
7.364,-0.01995
7.368,-0.03934
7.372,-0.0176
7.376,-0.04212
7.38,0.01322
7.384,-0.03945
7.388,-0.03695
7.392,-0.01527
7.396,-0.05165
7.4,-0.03672
7.404,-0.03474
7.408,-0.01305
7.412,-0.02859
7.416,-0.04796
7.42,-0.02843
7.424,-0.03742
7.428,-0.04717
7.432,-0.03167
7.436,-0.04157
7.44,-0.03014
7.444,-0.02071
7.448,-0.0012
7.452,-0.0439
7.456,-0.02073
7.46,-0.01539
7.464,-0.02472
7.468,-0.02913
7.472,-0.04365
7.476,-0.02723
7.48,0.00182
7.484,-0.00345
7.488,0.00697
7.492,0.0165
7.496,0.01794
7.5,0.03867
7.504,0.00592
7.508,0.03074
7.512,0.09125
7.516,0.07265
7.52,0.0995
7.524,0.10306
7.528,0.07457
7.532,0.0712
7.536,0.06283
7.54,0.05673
7.544,0.03778
7.548,-0.01017
7.552,0.00305
7.556,-0.02512
7.56,-0.01024
7.564,0.00748
7.568,-0.01337
7.572,-0.01986
7.576,-0.02881
7.58,-0.02549
7.584,-0.01904
7.588,-0.02862
7.592,-0.02183
7.596,-0.02112
7.6,-0.02483
7.604,-0.03226
7.608,0.00646
7.612,-0.01774
7.616,-0.02343
7.62,-0.05212
7.624,0.00087
7.628,-0.01288
7.632,-0.02193
7.636,-0.04234
7.64,-0.04199
7.644,-0.10168
7.648,-0.1729
7.652,-0.13271
7.656,-0.08944
7.66,0.02541
7.664,0.21165
7.668,0.37752
7.672,0.60874
7.676,0.84065
7.68,0.96645
7.684,0.95166
7.688,0.84889
7.692,0.68817
7.696,0.47506
7.7,0.25024
7.704,0.04485
7.708,-0.09711
7.712,-0.16754
7.716,-0.18672
7.72,-0.14642
7.724,-0.12373
7.728,-0.11496
7.732,-0.0923
7.736,-0.0275
7.74,-0.0207
7.744,-0.02423
7.748,-0.03925
7.752,-0.02652
7.756,-0.01286
7.76,-0.03463
7.764,-0.05645
7.768,-0.00859
7.772,-0.03942
7.776,-0.03394
7.78,-0.01154
7.784,-0.01318
7.788,-0.02822
7.792,-0.03075
7.796,-0.02637
7.8,-0.00835
7.804,-0.04479
7.808,-0.01719
7.812,-0.02297
7.816,-0.02032
7.82,-0.02442
7.824,-0.02145
7.828,-0.00774
7.832,-0.01544
7.836,-0.03642
7.84,-0.01425
7.844,-0.01222
7.848,-0.03853
7.852,-0.03141
7.856,-0.0225
7.86,0.02294
7.864,-0.03142
7.868,-0.0183
7.872,0.02044
7.876,0.03394
7.88,0.02251
7.884,-0.02932
7.888,0.0314
7.892,0.04212
7.896,0.05428
7.9,0.03294
7.904,0.04232
7.908,0.06265
7.912,0.09525
7.916,0.06899
7.92,0.09945
7.924,0.13482
7.928,0.11308
7.932,0.15905
7.936,0.12877
7.94,0.16877
7.944,0.17176
7.948,0.21068
7.952,0.22542
7.956,0.18757
7.96,0.20609
7.964,0.17583
7.968,0.18457
7.972,0.20411
7.976,0.16849
7.98,0.15484
7.984,0.1724
7.988,0.16818
7.992,0.13041
7.996,0.15004
8.0,0.12104
8.004,0.09501
8.008,0.14559
8.012,0.07422
8.016,0.07705
8.02,0.04776
8.024,0.07423
8.028,0.06586
8.032,0.06952
8.036,0.02963
8.04,0.03502
8.044,0.02821
8.048,0.00308
8.052,0.00423
8.056,0.00843
8.06,-0.00919
8.064,-0.013
8.068,-0.02398
8.072,-0.0224
8.076,-0.02801
8.08,-0.03535
8.084,-0.04173
8.088,-0.02965
8.092,-0.03582
8.096,-0.0515
8.1,-0.04884
8.104,-0.01856
8.108,-0.04529
8.112,-0.04093
8.116,-0.04557
8.12,-0.02286
8.124,-0.03194
8.128,-0.02377
8.132,-0.02628
8.136,-0.02311
8.14,-0.02821
8.144,-0.03262
8.148,-0.02532
8.152,-0.0327
8.156,-0.0423
8.16,-0.03681
8.164,-0.03458
8.168,-0.02596
8.172,-0.00025
8.176,-0.02945
8.18,-0.00605
8.184,-0.02098
8.188,-0.02709
8.192,-0.04623
8.196,-0.02341
8.2,-0.038
8.204,-0.04119
8.208,-0.05542
8.212,-0.04989
8.216,-0.03841
8.22,-0.01478
8.224,-0.03725
8.228,-0.04398
8.232,-0.02403
8.236,-0.02905
8.24,-0.03025
8.244,-0.03069
8.248,-0.01571
8.252,-0.00858
8.256,-0.01189
8.26,-0.03957
8.264,-0.00354
8.268,-0.04257
8.272,-0.02017
8.276,-0.03523
8.28,-0.01666
8.284,0.01675
8.288,0.03809
8.292,0.02551
8.296,0.0111
8.3,0.03916
8.304,0.05589
8.308,0.05047
8.312,0.10503
8.316,0.05351
8.32,0.06514
8.324,0.05055
8.328,0.06281
8.332,0.02047
8.336,0.02733
8.34,0.02983
8.344,0.01548
8.348,-0.0189
8.352,-0.02152
8.356,-0.03311
8.36,-0.00125
8.364,-0.04052
8.368,-0.05134
8.372,-0.05643
8.376,-0.03805
8.38,0.00136
8.384,-0.04066
8.388,0.00791
8.392,-0.04246
8.396,-0.05044
8.4,-0.02434
8.404,0.00199
8.408,-0.01529
8.412,-0.02236
8.416,-0.02488
8.42,-0.01283
8.424,-0.00509
8.428,-0.04018
8.432,-0.06076
8.436,-0.09629
8.44,-0.13196
8.444,-0.17243
8.448,-0.09273
8.452,0.03582
8.456,0.2253
8.46,0.39047
8.464,0.63786
8.468,0.81599
8.472,0.94915
8.476,0.99387
8.48,0.88799
8.484,0.70636
8.488,0.47281
8.492,0.26299
8.496,0.03971
8.5,-0.11182
8.504,-0.15689
8.508,-0.19535
8.512,-0.15439
8.516,-0.0973
8.52,-0.08439
8.524,-0.04011
8.528,-0.05142
8.532,-0.04883
8.536,-0.01569
8.54,-0.00783
8.544,0.00414
8.548,-0.0192
8.552,-0.01933
8.556,-0.02865
8.56,-0.01079
8.564,-0.00975
8.568,0.0145
8.572,-0.03009
8.576,-0.01335
8.58,-0.02937
8.584,-0.02678
8.588,-0.00216
8.592,-0.02857
8.596,-0.02786
8.6,-0.03055
8.604,0.00872
8.608,0.01161
8.612,-0.00233
8.616,-0.01563
8.62,-0.018
8.624,-0.00633
8.628,-0.0127
8.632,-0.00511
8.636,-0.01261
8.64,-0.00644
8.644,0.0041
8.648,0.00891
8.652,0.00746
8.656,0.00164
8.66,-0.01221
8.664,0.01681
8.668,0.02157
8.672,0.02199
8.676,-0.00175
8.68,0.0376
8.684,0.04966
8.688,0.02399
8.692,0.08039
8.696,0.0804
8.7,0.10188
8.704,0.08189
8.708,0.09484
8.712,0.14246
8.716,0.14458
8.72,0.16496
8.724,0.14222
8.728,0.14796
8.732,0.19342
8.736,0.2095
8.74,0.20319
8.744,0.19457
8.748,0.19319
8.752,0.19897
8.756,0.20938
8.76,0.17778
8.764,0.19968
8.768,0.19534
8.772,0.18372
8.776,0.1776
8.78,0.17278
8.784,0.18467
8.788,0.16018
8.792,0.14277
8.796,0.12228
8.8,0.11791
8.804,0.09628
8.808,0.07537
8.812,0.0643
8.816,0.09543
8.82,0.06841
8.824,0.04304
8.828,0.03185
8.832,0.05586
8.836,0.04176
8.84,0.00188
8.844,0.04376
8.848,0.01784
8.852,0.0308
8.856,0.02357
8.86,-0.00146
8.864,-0.02538
8.868,-0.01825
8.872,-0.0201
8.876,0.02785
8.88,-0.01288
8.884,-0.01481
8.888,0.00294
8.892,-0.01304
8.896,0.00159
8.9,-0.04873
8.904,0.02037
8.908,-0.02361
8.912,-0.01002
8.916,-0.03596
8.92,-0.02754
8.924,-0.0364
8.928,0.00738
8.932,-0.03879
8.936,-0.00963
8.94,-0.00206
8.944,0.00031
8.948,-0.03509
8.952,0.00945
8.956,-0.04615
8.96,-0.00903
8.964,-0.02752
8.968,-0.02442
8.972,-0.00942
8.976,-0.03307
8.98,0.00183
8.984,-0.00889
8.988,-0.02202
8.992,-0.02357
8.996,-0.00127
9.0,-0.02019
9.004,-0.05185
9.008,-0.01081
9.012,-0.03924
9.016,-0.01606
9.02,-0.01075
9.024,-0.01833
9.028,0.00517
9.032,0.0152
9.036,0.00759
9.04,-0.00439
9.044,0.01179
9.048,-0.00444
9.052,-0.00425
9.056,-0.01852
9.06,-0.0263
9.064,0.00274
9.068,-0.01479
9.072,0.00348
9.076,-0.0378
9.08,-0.02421
9.084,0.00906
9.088,0.00759
9.092,-0.00532
9.096,0.02662
9.1,0.01296
9.104,0.05103
9.108,0.05794
9.112,0.05283
9.116,0.09519
9.12,0.08197
9.124,0.07954
9.128,0.09079
9.132,0.07877
9.136,0.05897
9.14,0.04689
9.144,0.04692
9.148,0.05119
9.152,0.03495
9.156,0.03829
9.16,0.01425
9.164,0.00996
9.168,-0.01607
9.172,0.00711
9.176,-0.00702
9.18,0.0065
9.184,-0.0069
9.188,0.00487
9.192,-0.02071
9.196,-0.01414
9.2,0.01612
9.204,-0.00271
9.208,0.00148
9.212,-0.00822
9.216,-0.00536
9.22,-0.00622
9.224,0.01123
9.228,-0.0248
9.232,0.0047
9.236,-0.00834
9.24,-0.0331
9.244,-0.07121
9.248,-0.10568
9.252,-0.11932
9.256,-0.09471
9.26,-0.01077
9.264,0.15445
9.268,0.3653
9.272,0.55709
9.276,0.7638
9.28,0.93008
9.284,0.9724
9.288,0.96636
9.292,0.81165
9.296,0.59763
9.3,0.37176
9.304,0.15946
9.308,-0.02625
9.312,-0.12992
9.316,-0.16073
9.32,-0.1614
9.324,-0.1441
9.328,-0.06865
9.332,-0.05455
9.336,-0.03185
9.34,-0.00308
9.344,-0.00016
9.348,0.01424
9.352,0.02823
9.356,-0.00759
9.36,-0.01731
9.364,-0.02696
9.368,0.00145
9.372,-0.0103
9.376,0.02862
9.38,0.02105
9.384,0.00495
9.388,-0.00018
9.392,0.00724
9.396,-0.02243
9.4,-0.02464
9.404,0.00649
9.408,0.02193
9.412,0.00757
9.416,0.00423
9.42,-0.02744
9.424,0.01457
9.428,-0.01138
9.432,0.03857
9.436,0.01422
9.44,0.00944
9.444,0.01238
9.448,-0.00314
9.452,0.00357
9.456,0.03496
9.46,0.00451
9.464,0.01488
9.468,0.00157
9.472,0.02827
9.476,0.04298
9.48,0.02375
9.484,0.03609
9.488,0.07849
9.492,0.06682
9.496,0.05996
9.5,0.09329
9.504,0.08908
9.508,0.12335
9.512,0.1231
9.516,0.12916
9.52,0.12309
9.524,0.16081
9.528,0.17125
9.532,0.18038
9.536,0.20445
9.54,0.19547
9.544,0.19925
9.548,0.22513
9.552,0.22239
9.556,0.20164
9.56,0.22755
9.564,0.21388
9.568,0.24847
9.572,0.21174
9.576,0.23987
9.58,0.20894
9.584,0.19528
9.588,0.21513
9.592,0.17798
9.596,0.19563
9.6,0.17802
9.604,0.17852
9.608,0.13343
9.612,0.13158
9.616,0.12874
9.62,0.11239
9.624,0.09877
9.628,0.08477
9.632,0.05962
9.636,0.07639
9.64,0.0424
9.644,0.06392
9.648,0.04104
9.652,0.06974
9.656,0.04335
9.66,0.02977
9.664,0.01488
9.668,0.01189
9.672,0.01218
9.676,0.02511
9.68,0.0148
9.684,-0.00748
9.688,0.02748
9.692,0.03728
9.696,0.01496
9.7,0.03198
9.704,0.02763
9.708,0.02459
9.712,0.01118
9.716,0.0374
9.72,0.02282
9.724,0.04291
9.728,0.0091
9.732,-0.0028
9.736,0.00248
9.74,0.00539
9.744,0.00174
9.748,0.0095
9.752,0.00571
9.756,-0.00067
9.76,-0.01858
9.764,0.02267
9.768,0.01363
9.772,0.02559
9.776,0.01414
9.78,-0.0164
9.784,-0.00234
9.788,0.01048
9.792,-0.01124
9.796,-0.00689
9.8,0.02056
9.804,-0.01253
9.808,0.01359
9.812,-0.00199
9.816,0.0278
9.82,0.01332
9.824,-0.0083
9.828,-0.00994
9.832,-0.00514
9.836,0.04279
9.84,0.0142
9.844,0.01861
9.848,0.0043
9.852,0.01142
9.856,0.00668
9.86,0.01501
9.864,0.03986
9.868,0.02494
9.872,0.03621
9.876,0.00606
9.88,0.01699
9.884,0.01099
9.888,0.01365
9.892,0.04377
9.896,0.00908
9.9,-0.00323
9.904,0.02436
9.908,0.01831
9.912,0.00829
9.916,0.01673
9.92,0.00973
9.924,0.00818
9.928,0.03495
9.932,-0.00526
9.936,-0.00742
9.94,0.01112
9.944,0.03288
9.948,-0.00877
9.952,0.0025
9.956,0.01631
9.96,-0.00161
9.964,-0.0064
9.968,0.01622
9.972,0.01491
9.976,-0.00061
9.98,0.0096
9.984,0.02631
9.988,0.02977
9.992,-0.00424
9.996,-0.00369
