t_seg,ecg_mV
0.0,0.02847
0.004,0.02057
0.008,0.01767
0.012,0.02581
0.016,0.04366
0.02,0.00593
0.024,0.03201
0.028,0.00816
0.032,0.00261
0.036,0.00519
0.04,0.00413
0.044,0.03656
0.048,0.02699
0.052,0.02391
0.056,0.04228
0.06,0.0249
0.064,0.02162
0.068,0.01603
0.072,-0.01005
0.076,0.02174
0.08,0.00901
0.084,0.01704
0.088,-0.00743
0.092,0.03734
0.096,0.02783
0.1,0.01704
0.104,0.01948
0.108,0.0408
0.112,0.02961
0.116,-0.00655
0.12,-0.00107
0.124,0.01972
0.128,0.01888
0.132,0.04024
0.136,0.01336
0.14,0.0526
0.144,0.02862
0.148,0.02665
0.152,0.00733
0.156,0.02245
0.16,0.00615
0.164,0.0254
0.168,0.01455
0.172,0.01333
0.176,0.01321
0.18,0.01629
0.184,0.00806
0.188,0.02177
0.192,0.01618
0.196,0.02635
0.2,0.01122
0.204,0.01913
0.208,0.01569
0.212,0.03323
0.216,0.04258
0.22,0.0255
0.224,-0.01016
0.228,0.03291
0.232,0.00615
0.236,-0.00055
0.24,0.0197
0.244,0.02628
0.248,0.03367
0.252,0.00679
0.256,0.04412
0.26,0.01102
0.264,0.00139
0.268,0.02386
0.272,0.02298
0.276,0.00222
0.28,0.00979
0.284,0.0458
0.288,0.06043
0.292,0.00826
0.296,0.03929
0.3,0.014
0.304,0.03039
0.308,0.01607
0.312,0.0343
0.316,0.0438
0.32,0.03309
0.324,0.03466
0.328,0.03139
0.332,0.06101
0.336,0.07187
0.34,0.09237
0.344,0.11006
0.348,0.08417
0.352,0.1039
0.356,0.14546
0.36,0.11481
0.364,0.10216
0.368,0.15934
0.372,0.08504
0.376,0.08916
0.38,0.10206
0.384,0.05965
0.388,0.07913
0.392,0.04219
0.396,0.04234
0.4,0.07605
0.404,0.02987
0.408,0.01957
0.412,-0.00097
0.416,0.01431
0.42,0.03441
0.424,0.03694
0.428,0.01711
0.432,0.04986
0.436,0.00457
0.44,0.04479
0.444,0.02765
0.448,0.01493
0.452,0.01366
0.456,0.03369
0.46,0.00796
0.464,0.01584
0.468,0.01884
0.472,-0.00621
0.476,-0.01203
0.48,-0.02441
0.484,-0.06696
0.488,-0.0662
0.492,-0.06131
0.496,0.07167
0.5,0.1984
0.504,0.39104
0.508,0.64582
0.512,0.80212
0.516,0.94933
0.52,1.00931
0.524,0.96994
0.528,0.80952
0.532,0.56727
0.536,0.31389
0.54,0.13565
0.544,-0.00959
0.548,-0.1129
0.552,-0.14907
0.556,-0.12994
0.56,-0.08915
0.564,-0.06519
0.568,-0.02438
0.572,0.00474
0.576,0.01157
0.58,0.02309
0.584,0.01839
0.588,-0.01324
0.592,0.00985
0.596,0.013
0.6,0.02755
0.604,0.01973
0.608,0.04755
0.612,0.03983
0.616,0.02272
0.62,0.0159
0.624,0.03642
0.628,0.01894
0.632,-0.00187
0.636,0.00598
0.64,0.02864
0.644,0.01912
0.648,0.03567
0.652,0.03355
0.656,0.0207
0.66,0.02661
0.664,0.02524
0.668,0.01137
0.672,0.02867
0.676,0.0077
0.68,0.01082
0.684,0.03547
0.688,0.03796
0.692,0.05949
0.696,0.02021
0.7,0.0364
0.704,0.0318
0.708,0.04484
0.712,0.05124
0.716,0.0606
0.72,0.0794
0.724,0.07513
0.728,0.10007
0.732,0.10341
0.736,0.11105
0.74,0.13544
0.744,0.12473
0.748,0.14441
0.752,0.15062
0.756,0.14311
0.76,0.16007
0.764,0.1716
0.768,0.19054
0.772,0.18727
0.776,0.19672
0.78,0.23352
0.784,0.1928
0.788,0.2512
0.792,0.24479
0.796,0.25667
0.8,0.26752
0.804,0.21659
0.808,0.2506
0.812,0.24893
0.816,0.25217
0.82,0.23504
0.824,0.22098
0.828,0.21318
0.832,0.19353
0.836,0.17508
0.84,0.1706
0.844,0.17739
0.848,0.12769
0.852,0.13269
0.856,0.12673
0.86,0.1112
0.864,0.0997
0.868,0.06972
0.872,0.08018
0.876,0.07684
0.88,0.05162
0.884,0.0787
0.888,0.05452
0.892,0.04999
0.896,0.06619
0.9,0.0425
0.904,0.03607
0.908,0.06899
0.912,0.02619
0.916,0.04721
0.92,0.04269
0.924,0.02267
0.928,0.01855
0.932,0.02945
0.936,0.03181
0.94,0.02521
0.944,0.04743
0.948,0.02958
0.952,0.03507
0.956,0.01004
0.96,0.03326
0.964,0.01927
0.968,0.04321
0.972,0.01582
0.976,0.01971
0.98,0.03673
0.984,0.01855
0.988,0.03968
0.992,0.04438
0.996,0.01742
1.0,0.03227
1.004,0.0347
1.008,0.03138
1.012,0.06331
1.016,0.01684
1.02,0.03894
1.024,0.02485
1.028,0.038
1.032,0.04147
1.036,0.04221
1.04,0.02283
1.044,0.01704
1.048,0.01885
1.052,0.04875
1.056,-0.0074
1.06,0.02296
1.064,0.01787
1.068,0.03594
1.072,0.03971
1.076,0.0422
1.08,0.05036
1.084,0.01675
1.088,0.02339
1.092,0.02083
1.096,0.02481
1.1,0.02791
1.104,0.04017
1.108,0.06119
1.112,0.07141
1.116,0.02176
1.12,0.02133
1.124,0.00964
1.128,0.0372
1.132,0.06128
1.136,0.00189
1.14,-0.00163
1.144,0.03977
1.148,0.03036
1.152,0.04123
1.156,0.01173
1.16,0.01937
1.164,0.03314
1.168,0.04054
1.172,0.02507
1.176,0.0273
1.18,0.0188
1.184,0.03869
1.188,0.04095
1.192,0.03075
1.196,0.02376
1.2,0.03378
1.204,0.0306
1.208,0.01567
1.212,0.03155
1.216,0.02366
1.22,0.01519
1.224,0.0235
1.228,0.03338
1.232,0.01908
1.236,0.00422
1.24,0.01618
1.244,0.05737
1.248,0.03352
1.252,0.03613
1.256,0.03917
1.26,0.06554
1.264,0.02604
1.268,0.02653
1.272,0.02983
1.276,0.02539
1.28,0.03686
1.284,0.01295
1.288,0.0183
1.292,0.02087
1.296,0.05323
1.3,0.0486
1.304,0.00816
1.308,0.00434
1.312,0.03124
1.316,0.04064
1.32,0.0302
1.324,0.00317
1.328,0.02701
1.332,0.04306
1.336,0.03488
1.34,0.045
1.344,-0.00184
1.348,0.03836
1.352,0.04306
1.356,0.01491
1.36,0.04169
1.364,0.01009
1.368,0.00485
1.372,0.05718
1.376,0.04445
1.38,0.03001
1.384,0.04637
1.388,0.03133
1.392,0.04917
1.396,0.04954
1.4,0.02834
1.404,0.03279
1.408,0.00613
1.412,0.02458
1.416,0.01822
1.42,0.03991
1.424,0.05345
1.428,0.02669
1.432,0.01194
1.436,0.02431
1.44,0.03205
1.444,0.054
1.448,0.02676
1.452,0.0432
1.456,0.04009
1.46,0.01889
1.464,0.03524
1.468,0.01959
1.472,0.01955
1.476,0.02022
1.48,0.02143
1.484,0.02696
1.488,0.0263
1.492,0.00764
1.496,0.01299
1.5,0.04743
1.504,0.0178
1.508,0.0487
1.512,0.02435
1.516,0.00855
1.52,0.01023
1.524,0.03525
1.528,0.00968
1.532,0.01084
1.536,0.03656
1.54,0.04833
1.544,0.00178
1.548,0.01225
1.552,0.01419
1.556,0.04931
1.56,0.01958
1.564,0.00499
1.568,0.02566
1.572,0.01598
1.576,0.03929
1.58,0.02149
1.584,0.01893
1.588,0.02641
1.592,0.01855
1.596,0.0491
1.6,0.04305
1.604,0.0852
1.608,0.08126
1.612,0.08987
1.616,0.08931
1.62,0.11137
1.624,0.10991
1.628,0.1314
1.632,0.133
1.636,0.14171
1.64,0.12682
1.644,0.10985
1.648,0.11147
1.652,0.10126
1.656,0.06318
1.66,0.10359
1.664,0.05117
1.668,0.0879
1.672,0.04603
1.676,0.03753
1.68,0.0581
1.684,0.05582
1.688,0.0245
1.692,0.00804
1.696,0.03022
1.7,0.02733
1.704,0.03555
1.708,0.03746
1.712,0.01142
1.716,0.02683
1.72,0.03398
1.724,0.01621
1.728,0.02766
1.732,0.02683
1.736,0.01302
1.74,0.02803
1.744,-0.00217
1.748,0.02834
1.752,-0.00697
1.756,-0.0565
1.76,-0.07761
1.764,-0.09255
1.768,-0.01111
1.772,0.09303
1.776,0.28775
1.78,0.45758
1.784,0.70462
1.788,0.87896
1.792,1.02045
1.796,0.99452
1.8,0.90775
1.804,0.70266
1.808,0.46758
1.812,0.2626
1.816,0.06957
1.82,-0.06196
1.824,-0.13028
1.828,-0.18013
1.832,-0.11883
1.836,-0.09947
1.84,-0.00658
1.844,-0.00719
1.848,-0.003
1.852,0.00484
1.856,0.03091
1.86,-0.01268
1.864,0.01997
1.868,0.05166
1.872,0.01201
1.876,0.04521
1.88,0.00568
1.884,0.01768
1.888,0.03081
1.892,0.02095
1.896,0.02224
1.9,0.0032
1.904,0.00971
1.908,0.01873
1.912,0.01708
1.916,0.05125
1.92,0.03213
1.924,0.0231
1.928,0.02647
1.932,0.02214
1.936,0.01896
1.94,0.04962
1.944,0.0367
1.948,0.02492
1.952,0.02731
1.956,0.04519
1.96,0.02795
1.964,0.01913
1.968,0.04775
1.972,0.05123
1.976,0.06329
1.98,0.02959
1.984,0.04617
1.988,0.0743
1.992,0.04603
1.996,0.05594
2.0,0.06612
2.004,0.10813
2.008,0.09596
2.012,0.12624
2.016,0.13127
2.02,0.12932
2.024,0.12436
2.028,0.11934
2.032,0.14529
2.036,0.17971
2.04,0.1748
2.044,0.18274
2.048,0.18587
2.052,0.21295
2.056,0.22291
2.06,0.20922
2.064,0.25632
2.068,0.23576
2.072,0.2431
2.076,0.26574
2.08,0.26131
2.084,0.26055
2.088,0.24048
2.092,0.22866
2.096,0.22337
2.1,0.19213
2.104,0.19443
2.108,0.18833
2.112,0.15347
2.116,0.17761
2.12,0.16964
2.124,0.13913
2.128,0.16512
2.132,0.11791
2.136,0.10104
2.14,0.08375
2.144,0.08274
2.148,0.04912
2.152,0.0608
2.156,0.04668
2.16,0.03403
2.164,0.03679
2.168,0.0646
2.172,0.03945
2.176,0.00811
2.18,0.01822
2.184,0.05395
2.188,0.00913
2.192,0.01165
2.196,0.04673
2.2,0.04838
2.204,0.0377
2.208,0.0026
2.212,0.01886
2.216,-0.0011
2.22,0.01998
2.224,0.00202
2.228,0.02077
2.232,0.02396
2.236,0.00691
2.24,0.00613
2.244,0.01306
2.248,0.01107
2.252,0.02489
2.256,0.02184
2.26,0.02787
2.264,0.02933
2.268,-0.00786
2.272,0.01143
2.276,-0.00628
2.28,0.01781
2.284,-0.00054
2.288,-0.00709
2.292,-0.00771
2.296,0.01051
2.3,0.02135
2.304,0.00107
2.308,-0.00715
2.312,0.01179
2.316,0.03588
2.32,0.01579
2.324,0.02637
2.328,-0.01975
2.332,0.00899
2.336,0.00694
2.34,-0.00535
2.344,0.01435
2.348,0.04901
2.352,0.01105
2.356,0.00947
2.36,0.00932
2.364,0.01917
2.368,-0.0022
2.372,-0.00207
2.376,0.0059
2.38,0.01119
2.384,-0.01015
2.388,0.01216
2.392,0.00666
2.396,0.03904
2.4,0.02901
2.404,0.03435
2.408,0.01093
2.412,0.01977
2.416,0.03161
2.42,0.01704
2.424,0.0189
2.428,0.00266
2.432,0.00692
2.436,-0.00706
2.44,0.00367
2.444,0.01442
2.448,-0.00566
2.452,0.00883
2.456,-0.01912
2.46,0.02791
2.464,-0.00025
2.468,-0.01209
2.472,-0.01414
2.476,0.02016
2.48,0.02414
2.484,-0.00911
2.488,0.00727
2.492,-0.01005
2.496,0.01765
2.5,0.02313
2.504,0.00896
2.508,-0.01086
2.512,0.00782
2.516,-0.00998
2.52,-0.00316
2.524,0.00852
2.528,0.02287
2.532,0.00184
2.536,0.00623
2.54,-0.01372
2.544,0.00261
2.548,0.02127
2.552,0.00351
2.556,-0.00273
2.56,-0.02121
2.564,-0.00592
2.568,0.04661
2.572,0.00861
2.576,-0.01354
2.58,0.02545
2.584,0.00852
2.588,0.03688
2.592,-0.02098
2.596,0.01788
2.6,0.00859
2.604,-0.00341
2.608,0.01515
2.612,-0.01411
2.616,0.02781
2.62,-0.0289
2.624,0.00022
2.628,0.01848
2.632,-0.00992
2.636,0.00093
2.64,0.0064
2.644,0.01103
2.648,0.02244
2.652,0.00923
2.656,0.00348
2.66,-0.00473
2.664,0.00347
2.668,0.01254
2.672,0.00991
2.676,-0.0012
2.68,0.01291
2.684,-0.01521
2.688,-0.00202
2.692,0.00197
2.696,-0.00949
2.7,-0.0145
2.704,0.00688
2.708,0.02479
2.712,0.01163
2.716,0.00078
2.72,-0.00447
2.724,-0.00302
2.728,0.01881
2.732,0.01338
2.736,0.02325
2.74,-0.01845
2.744,0.00194
2.748,-0.00158
2.752,0.02755
2.756,-0.03138
2.76,-0.01549
2.764,-0.00447
2.768,0.01162
2.772,-0.00972
2.776,-0.01151
2.78,0.00908
2.784,-0.02173
2.788,-0.00542
2.792,0.00368
2.796,0.0071
2.8,0.01386
2.804,-0.01963
2.808,-0.01673
2.812,-0.01985
2.816,0.01492
2.82,-0.00208
2.824,0.0108
2.828,0.00448
2.832,-0.01272
2.836,-0.00648
2.84,0.00292
2.844,-0.00037
2.848,0.00691
2.852,0.00418
2.856,0.00416
2.86,0.00557
2.864,0.03124
2.868,-0.00878
2.872,-0.02782
2.876,0.02631
2.88,0.02733
2.884,-0.01738
2.888,0.00933
2.892,0.03035
2.896,0.0398
2.9,0.03204
2.904,0.04847
2.908,0.05292
2.912,0.09627
2.916,0.10457
2.92,0.08397
2.924,0.10152
2.928,0.12047
2.932,0.08103
2.936,0.06464
2.94,0.05778
2.944,0.05895
2.948,0.0397
2.952,0.04072
2.956,0.01968
2.96,0.01245
2.964,-0.01037
2.968,0.02235
2.972,0.01388
2.976,0.02231
2.98,-0.02389
2.984,-0.02715
2.988,0.00122
2.992,0.00756
2.996,-0.02543
3.0,-0.02041
3.004,-0.02255
3.008,-0.01487
3.012,-0.00629
3.016,0.00472
3.02,-0.00147
3.024,0.00622
3.028,-0.01414
3.032,0.0073
3.036,-0.0406
3.04,-0.04547
3.044,-0.10337
3.048,-0.09035
3.052,-0.13211
3.056,-0.07196
3.06,0.02885
3.064,0.17662
3.068,0.39377
3.072,0.57115
3.076,0.80088
3.08,0.91031
3.084,0.97978
3.088,0.9524
3.092,0.76723
3.096,0.54919
3.1,0.32889
3.104,0.12894
3.108,-0.04068
3.112,-0.12028
3.116,-0.14438
3.12,-0.15419
3.124,-0.12708
3.128,-0.08755
3.132,-0.02461
3.136,-0.00448
3.14,-0.00553
3.144,-0.01231
3.148,0.01724
3.152,-0.0268
3.156,0.00827
3.16,-0.03607
3.164,-0.01381
3.168,-0.0145
3.172,-0.02209
3.176,0.02528
3.18,-0.02877
3.184,-0.03596
3.188,-0.012
3.192,0.00173
3.196,-0.00667
3.2,0.01633
3.204,-0.02083
3.208,-0.00749
3.212,0.0052
3.216,-0.01597
3.22,0.00267
3.224,-0.00897
3.228,-0.01947
3.232,-0.01015
3.236,-0.03462
3.24,-0.03021
3.244,-0.00525
3.248,-0.02305
3.252,-0.00592
3.256,-0.01464
3.26,-0.00936
3.264,0.00971
3.268,-5e-05
3.272,0.00812
3.276,0.01493
3.28,0.02307
3.284,0.01622
3.288,0.02825
3.292,0.04326
3.296,0.0678
3.3,0.05116
3.304,0.07619
3.308,0.08252
3.312,0.09272
3.316,0.11848
3.32,0.10692
3.324,0.11853
3.328,0.11089
3.332,0.16715
3.336,0.16092
3.34,0.16203
3.344,0.17743
3.348,0.195
3.352,0.21394
3.356,0.21565
3.36,0.20092
3.364,0.19378
3.368,0.18771
3.372,0.16236
3.376,0.19007
3.38,0.19497
3.384,0.17361
3.388,0.17198
3.392,0.17674
3.396,0.14782
3.4,0.14659
3.404,0.14273
3.408,0.11603
3.412,0.09531
3.416,0.10638
3.42,0.07954
3.424,0.08466
3.428,0.05446
3.432,0.03716
3.436,0.04675
3.44,0.01221
3.444,0.03344
3.448,0.03545
3.452,0.00783
3.456,-0.0012
3.46,0.00473
3.464,0.01129
3.468,-0.01377
3.472,0.00707
3.476,-0.00117
3.48,0.0123
3.484,-0.01508
3.488,-0.03031
3.492,0.00255
3.496,-0.00396
3.5,-0.02133
3.504,-0.04002
3.508,-0.01414
3.512,-0.00469
3.516,-0.04863
3.52,-0.01578
3.524,-0.03277
3.528,-0.02747
3.532,-0.03251
3.536,-0.0324
3.54,-0.01639
3.544,-0.04643
3.548,-0.03904
3.552,-0.00822
3.556,-0.00621
3.56,-0.01582
3.564,0.00064
3.568,-0.02476
3.572,-0.01941
3.576,0.0025
3.58,-0.02728
3.584,0.01403
3.588,-0.04686
3.592,-0.03959
3.596,-0.02785
3.6,-0.02189
3.604,-0.01424
3.608,-0.02423
3.612,-0.03214
3.616,-0.03379
3.62,-0.02855
3.624,-0.01598
3.628,-0.01124
3.632,-0.03976
3.636,-0.01778
3.64,-0.0086
3.644,-0.0554
3.648,0.00206
3.652,-0.01473
3.656,-0.04182
3.66,-0.01043
3.664,-0.01523
3.668,-0.01569
3.672,-0.03147
3.676,-0.03274
3.68,-0.0181
3.684,-0.01961
3.688,-0.0327
3.692,-0.03051
3.696,-0.02699
3.7,-0.02672
3.704,-0.00487
3.708,-0.00478
3.712,-0.02955
3.716,-0.03445
3.72,-0.02517
3.724,-0.02602
3.728,-0.0527
3.732,-0.01894
3.736,-0.01406
3.74,-0.02638
3.744,-0.02223
3.748,-0.01665
3.752,-0.02471
3.756,-0.01808
3.76,-0.04477
3.764,-0.01002
3.768,0.0191
3.772,-0.01344
3.776,-0.03243
3.78,-0.03114
3.784,0.00051
3.788,-0.01916
3.792,-0.02955
3.796,-0.00888
3.8,-0.02255
3.804,-0.02061
3.808,-0.01659
3.812,-0.02633
3.816,-0.03447
3.82,-0.04888
3.824,-0.02404
3.828,-0.00819
3.832,-0.04286
3.836,-0.02105
3.84,-0.02645
3.844,-0.00886
3.848,-0.04
3.852,-0.01217
3.856,-0.04257
3.86,-0.02487
3.864,-0.04942
3.868,-0.02955
3.872,-0.01987
3.876,-0.01639
3.88,-0.00727
3.884,-0.02952
3.888,-0.04428
3.892,-0.01166
3.896,-0.02499
3.9,-0.00429
3.904,-0.04214
3.908,-0.03698
3.912,-0.02818
3.916,-0.01442
3.92,-0.03555
3.924,-0.0052
3.928,-0.03013
3.932,-0.02287
3.936,-0.03261
3.94,-0.04757
3.944,-0.02556
3.948,-0.03379
3.952,-0.02729
3.956,-0.04662
3.96,-0.03344
3.964,0.01133
3.968,-0.00393
3.972,0.03557
3.976,0.00485
3.98,0.06658
3.984,0.03995
3.988,0.04598
3.992,0.06307
3.996,0.06462
4.0,0.08551
4.004,0.05796
4.008,0.04374
4.012,0.02167
4.016,0.05459
4.02,0.03636
4.024,0.02265
4.028,-0.01471
4.032,0.00167
4.036,0.00547
4.04,-0.00102
4.044,-0.02674
4.048,-0.01303
4.052,-0.02933
4.056,-0.04046
4.06,-0.02001
4.064,-0.02977
4.068,-0.0504
4.072,-0.03126
4.076,-0.03139
4.08,-0.0322
4.084,-0.03495
4.088,-0.01441
4.092,-0.02332
4.096,-0.02388
4.1,-0.06079
4.104,-0.03822
4.108,-0.06898
4.112,-0.05521
4.116,-0.09184
4.12,-0.13321
4.124,-0.15158
4.128,-0.12188
4.132,-0.05869
4.136,0.11213
4.14,0.29687
4.144,0.52146
4.148,0.73143
4.152,0.91063
4.156,1.00789
4.16,0.92048
4.164,0.77997
4.168,0.58368
4.172,0.36561
4.176,0.12619
4.18,-0.05043
4.184,-0.16379
4.188,-0.18231
4.192,-0.20397
4.196,-0.12438
4.2,-0.10622
4.204,-0.09204
4.208,-0.04928
4.212,0.00055
4.216,-0.02759
4.22,-0.00258
4.224,-0.02952
4.228,-0.02821
4.232,-0.03159
4.236,-0.04614
4.24,-0.05703
4.244,-0.04973
4.248,-0.01663
4.252,-0.0552
4.256,-0.02338
4.26,-0.00588
4.264,-0.03421
4.268,-0.03895
4.272,-0.03597
4.276,-0.03735
4.28,-0.05354
4.284,-0.05035
4.288,-0.02708
4.292,-0.05033
4.296,-0.02424
4.3,-0.01649
4.304,-0.04156
4.308,-0.03616
4.312,-0.01761
4.316,-0.02501
4.32,-0.05194
4.324,-0.02429
4.328,-0.02519
4.332,-0.02619
4.336,-0.01051
4.34,-0.03395
4.344,-0.00024
4.348,-0.02394
4.352,0.00448
4.356,0.0024
4.36,0.00985
4.364,0.05175
4.368,0.04023
4.372,0.05808
4.376,0.05746
4.38,0.04255
4.384,0.08458
4.388,0.10805
4.392,0.10784
4.396,0.117
4.4,0.13892
4.404,0.1158
4.408,0.14854
4.412,0.11177
4.416,0.18016
4.42,0.15394
4.424,0.20362
4.428,0.18229
4.432,0.18961
4.436,0.19939
4.44,0.1787
4.444,0.22488
4.448,0.1547
4.452,0.17496
4.456,0.156
4.46,0.16258
4.464,0.1706
4.468,0.13189
4.472,0.1315
4.476,0.13747
4.48,0.09906
4.484,0.10042
4.488,0.07504
4.492,0.07363
4.496,0.04003
4.5,0.05848
4.504,0.04696
4.508,0.00651
4.512,0.02735
4.516,0.0213
4.52,0.00271
4.524,0.02255
4.528,-0.00012
4.532,-0.00902
4.536,0.00409
4.54,-0.0136
4.544,-0.04199
4.548,-0.0251
4.552,-0.03318
4.556,-0.00063
4.56,-0.03602
4.564,-0.00815
4.568,-0.03091
4.572,0.00241
4.576,-0.03062
4.58,-0.04436
4.584,-0.03914
4.588,0.00552
4.592,-0.01694
4.596,-0.02417
4.6,-0.0719
4.604,-0.02035
4.608,-0.02801
4.612,-0.02269
4.616,-0.03346
4.62,-0.02877
4.624,-0.03635
4.628,-0.03
4.632,-0.03791
4.636,-0.0446
4.64,-0.04537
4.644,-0.03978
4.648,-0.02387
4.652,-0.01119
4.656,-0.04368
4.66,-0.03995
4.664,-0.0362
4.668,-0.02593
4.672,-0.04523
4.676,-0.02897
4.68,-0.0211
4.684,-0.02713
4.688,-0.04824
4.692,0.02816
4.696,-0.04344
4.7,-0.02215
4.704,-0.0396
4.708,-0.04926
4.712,-0.00962
4.716,-0.00939
4.72,-0.0104
4.724,-0.0106
4.728,-0.04375
4.732,-0.00988
4.736,-0.00661
4.74,-0.02032
4.744,-0.04261
4.748,-0.02119
4.752,-0.03419
4.756,-0.04252
4.76,-0.02831
4.764,-0.04919
4.768,-0.02584
4.772,-0.04965
4.776,-0.03354
4.78,-0.0395
4.784,-0.01786
4.788,-0.02708
4.792,-0.02877
4.796,-0.03084
4.8,-0.02652
4.804,-0.03841
4.808,-0.05713
4.812,-0.01965
4.816,-0.03551
4.82,-0.03685
4.824,-0.01212
4.828,-0.0172
4.832,-0.01
4.836,-0.03926
4.84,-0.03044
4.844,-0.02466
4.848,-0.039
4.852,-0.04896
4.856,-0.0542
4.86,-0.01728
4.864,0.00451
4.868,-0.01376
4.872,-0.02634
4.876,-0.04679
4.88,-0.0132
4.884,-0.02604
4.888,-0.04652
4.892,-0.02674
4.896,-0.02391
4.9,-0.07115
4.904,-0.0465
4.908,-0.02578
4.912,0.01773
4.916,-0.01455
4.92,0.00783
4.924,0.00739
4.928,0.01257
4.932,0.04298
4.936,0.03844
4.94,0.05256
4.944,0.066
4.948,0.09019
4.952,0.06142
4.956,0.07828
4.96,0.06156
4.964,0.03431
4.968,0.02253
4.972,0.019
4.976,-0.00497
4.98,-0.00092
4.984,-0.01547
4.988,0.00786
4.992,-0.00589
4.996,-0.02209
5.0,0.01083
5.004,0.00463
5.008,0.00593
5.012,-0.02218
5.016,-0.03883
5.02,-0.04384
5.024,-0.04052
5.028,-0.05036
5.032,-0.00819
5.036,-0.0156
5.04,0.00431
5.044,-0.01948
5.048,-0.04488
5.052,-0.01511
5.056,-0.02787
5.06,-0.01999
5.064,-0.02858
5.068,-0.08613
5.072,-0.11424
5.076,-0.13982
5.08,-0.12034
5.084,-0.06786
5.088,0.09121
5.092,0.26619
5.096,0.48544
5.1,0.69977
5.104,0.83959
5.108,0.97413
5.112,0.995
5.116,0.84806
5.12,0.64052
5.124,0.41948
5.128,0.19779
5.132,-0.00397
5.136,-0.11489
5.14,-0.16189
5.144,-0.21165
5.148,-0.16592
5.152,-0.09251
5.156,-0.06199
5.16,-0.03806
5.164,-0.04515
5.168,-0.0173
5.172,-0.01579
5.176,-0.04608
5.18,-0.04054
5.184,-0.00465
5.188,0.0053
5.192,-0.02572
5.196,-0.05033
5.2,-0.03559
5.204,0.00207
5.208,-0.02757
5.212,-0.05355
5.216,-0.01016
5.22,-0.03015
5.224,-0.0042
5.228,-0.00479
5.232,-0.00257
5.236,-0.02949
5.24,-0.02281
5.244,-0.02898
5.248,-0.02232
5.252,-0.02913
5.256,-0.01345
5.26,-0.00356
5.264,-0.00386
5.268,-0.00607
5.272,0.01298
5.276,-0.02378
5.28,-0.03774
5.284,-0.01307
5.288,-0.01011
5.292,-0.03604
5.296,-0.02092
5.3,0.01725
5.304,-0.00644
5.308,0.04733
5.312,0.03672
5.316,0.0697
5.32,0.03608
5.324,0.05037
5.328,0.06032
5.332,0.07325
5.336,0.0838
5.34,0.0847
5.344,0.11447
5.348,0.13172
5.352,0.14992
5.356,0.14563
5.36,0.16268
5.364,0.1603
5.368,0.18199
5.372,0.17589
5.376,0.1823
5.38,0.17209
5.384,0.19147
5.388,0.20513
5.392,0.188
5.396,0.19895
5.4,0.18092
5.404,0.18757
5.408,0.18469
5.412,0.17377
5.416,0.19409
5.42,0.16306
5.424,0.15925
5.428,0.13501
5.432,0.12924
5.436,0.09798
5.44,0.10676
5.444,0.09508
5.448,0.05923
5.452,0.07045
5.456,0.04053
5.46,0.06089
5.464,0.03802
5.468,0.0332
5.472,0.02439
5.476,0.01887
5.48,-0.00403
5.484,0.00124
5.488,-0.00964
5.492,0.00646
5.496,0.02786
5.5,0.00587
5.504,-0.01887
5.508,0.00568
5.512,-0.0009
5.516,-0.01783
5.52,-0.00923
5.524,0.00402
5.528,-0.00713
5.532,-0.00231
5.536,-0.04333
5.54,-0.00742
5.544,-0.02273
5.548,-0.01287
5.552,0.02153
5.556,-0.02886
5.56,-0.02258
5.564,-0.0109
5.568,-0.05028
5.572,-0.0403
5.576,-0.00632
5.58,-0.01666
5.584,-0.00334
5.588,-0.02796
5.592,-0.01516
5.596,-0.02049
5.6,-0.02152
5.604,-0.00435
5.608,-0.02222
5.612,-0.00624
5.616,-0.01346
5.62,0.00895
5.624,-0.00684
5.628,-0.03663
5.632,-0.01534
5.636,-0.01361
5.64,-0.05165
5.644,-0.00361
5.648,-0.00057
5.652,0.01095
5.656,-0.014
5.66,-0.01142
5.664,0.01619
5.668,-0.04286
5.672,-0.01353
5.676,-0.00374
5.68,-0.00845
5.684,-0.02864
5.688,-0.01256
5.692,0.00695
5.696,0.01261
5.7,-0.01296
5.704,0.00434
5.708,-0.03498
5.712,-0.00938
5.716,-0.00067
5.72,-0.02081
5.724,-0.01828
5.728,-0.0124
5.732,-0.00062
5.736,-0.01535
5.74,-0.01704
5.744,-0.01604
5.748,-0.02028
5.752,-0.0227
5.756,0.01494
5.76,-0.01347
5.764,-0.00646
5.768,-0.0303
5.772,-0.00694
5.776,-0.02986
5.78,-0.01384
5.784,0.00425
5.788,-0.00897
5.792,0.0185
5.796,0.01263
5.8,-0.02034
5.804,0.03008
5.808,-0.02104
5.812,0.00362
5.816,0.00236
5.82,-0.01381
5.824,-0.00221
5.828,0.00358
5.832,-0.01091
5.836,-0.01637
5.84,-0.0179
5.844,-0.00838
5.848,0.03174
5.852,0.00424
5.856,-0.00046
5.86,0.00043
5.864,-0.00336
5.868,-0.00627
5.872,0.00732
5.876,-0.01077
5.88,-0.0205
5.884,-0.02105
5.888,0.01213
5.892,-0.0142
5.896,-0.02069
5.9,-0.00689
5.904,-0.00182
5.908,-0.05069
5.912,0.01445
5.916,0.01617
5.92,0.01982
5.924,0.03919
5.928,-0.00039
5.932,0.04969
5.936,0.05327
5.94,0.08244
5.944,0.09292
5.948,0.08928
5.952,0.07743
5.956,0.10699
5.96,0.08083
5.964,0.10002
5.968,0.06044
5.972,0.04487
5.976,0.03617
5.98,0.03064
5.984,0.04031
5.988,0.06421
5.992,0.00532
5.996,0.00466
6.0,0.00993
6.004,-0.01527
6.008,-0.00342
6.012,-0.01012
6.016,-0.01521
6.02,0.01891
6.024,0.00139
6.028,0.02054
6.032,-0.03074
6.036,-0.00178
6.04,0.0188
6.044,-0.00971
6.048,-0.01823
6.052,-0.02208
6.056,-0.02797
6.06,-0.01566
6.064,-0.02033
6.068,-0.01181
6.072,-0.04649
6.076,-0.10829
6.08,-0.13641
6.084,-0.0868
6.088,0.01459
6.092,0.17222
6.096,0.3791
6.1,0.59068
6.104,0.78498
6.108,0.94581
6.112,0.99763
6.116,0.93354
6.12,0.83109
6.124,0.60442
6.128,0.36748
6.132,0.15893
6.136,-0.03103
6.14,-0.09357
6.144,-0.14888
6.148,-0.16848
6.152,-0.10382
6.156,-0.07799
6.16,-0.01665
6.164,-0.00365
6.168,-0.0024
6.172,-0.02007
6.176,-0.01333
6.18,0.01727
6.184,-0.01728
6.188,-0.01423
6.192,-0.00864
6.196,0.00901
6.2,0.01961
6.204,0.01747
6.208,0.00051
6.212,-0.00608
6.216,0.03254
6.22,-0.03619
6.224,-0.00217
6.228,-0.01569
6.232,-0.02352
6.236,0.0104
6.24,-0.00317
6.244,0.01611
6.248,-0.00198
6.252,-0.01565
6.256,0.02397
6.26,0.01591
6.264,0.00146
6.268,0.00934
6.272,0.00256
6.276,0.01496
6.28,0.04449
6.284,0.00972
6.288,0.03602
6.292,0.00879
6.296,0.05197
6.3,0.00534
6.304,0.015
6.308,0.02993
6.312,0.05517
6.316,0.07619
6.32,0.09837
6.324,0.08488
6.328,0.09241
6.332,0.12037
6.336,0.12405
6.34,0.15244
6.344,0.13486
6.348,0.14446
6.352,0.17452
6.356,0.17116
6.36,0.1699
6.364,0.17563
6.368,0.21971
6.372,0.17127
6.376,0.1961
6.38,0.21223
6.384,0.20949
6.388,0.2282
6.392,0.24902
6.396,0.22084
6.4,0.21471
6.404,0.21543
6.408,0.22494
6.412,0.18507
6.416,0.20352
6.42,0.18882
6.424,0.18434
6.428,0.18196
6.432,0.16711
6.436,0.14387
6.44,0.15688
6.444,0.12024
6.448,0.09488
6.452,0.09787
6.456,0.08312
6.46,0.08944
6.464,0.0962
6.468,0.04429
6.472,0.05429
6.476,0.03925
6.48,0.06746
6.484,0.03536
6.488,0.02672
6.492,0.03069
6.496,0.0462
6.5,0.01307
6.504,-0.00342
6.508,-0.0052
6.512,-0.01589
6.516,0.01414
6.52,0.04534
6.524,0.03428
6.528,0.01376
6.532,-0.00768
6.536,0.01501
6.54,0.00336
6.544,0.03411
6.548,0.02213
6.552,0.02143
6.556,0.01285
6.56,0.01399
6.564,0.02872
6.568,0.03402
6.572,-0.02434
6.576,-0.00119
6.58,0.00401
6.584,0.01752
6.588,-0.04392
6.592,0.01491
6.596,0.02711
6.6,0.01395
6.604,0.00606
6.608,-0.00362
6.612,0.0442
6.616,0.01235
6.62,0.00251
6.624,-0.0185
6.628,0.00434
6.632,0.01933
6.636,0.01419
6.64,-0.00266
6.644,0.02125
6.648,0.00869
6.652,0.00781
6.656,0.01169
6.66,0.04076
6.664,0.00445
6.668,0.03191
6.672,0.01415
6.676,0.01374
6.68,0.01138
6.684,0.00853
6.688,0.02883
6.692,0.00264
6.696,0.04157
6.7,0.00775
6.704,0.02318
6.708,0.00851
6.712,0.01789
6.716,-0.00834
6.72,0.02139
6.724,0.00987
6.728,-0.01413
6.732,0.02659
6.736,0.03456
6.74,0.03188
6.744,0.02076
6.748,0.02199
6.752,0.03829
6.756,0.0018
6.76,0.03919
6.764,0.02243
6.768,0.01735
6.772,0.01033
6.776,0.02261
6.78,-0.00236
6.784,-0.00353
6.788,0.02128
6.792,0.0214
6.796,0.02836
6.8,-0.00657
6.804,0.01793
6.808,0.00963
6.812,0.02136
6.816,0.01762
6.82,-0.00262
6.824,0.02506
6.828,0.02397
6.832,0.02
6.836,0.00633
6.84,0.00083
6.844,0.01605
6.848,0.00688
6.852,0.02715
6.856,0.0144
6.86,0.01981
6.864,0.0198
6.868,0.03954
6.872,0.0293
6.876,0.00353
6.88,0.02287
6.884,0.04625
6.888,0.03712
6.892,0.03677
6.896,0.00305
6.9,0.00938
6.904,0.03242
6.908,0.02211
6.912,0.03022
6.916,0.05138
6.92,0.04152
6.924,0.03462
6.928,0.00266
6.932,0.01705
6.936,0.04636
6.94,0.02189
6.944,0.03357
6.948,-0.00194
6.952,-0.01035
6.956,0.01642
6.96,0.00468
6.964,0.02286
6.968,0.0026
6.972,0.02215
6.976,0.00203
6.98,0.02128
6.984,0.02931
6.988,0.02179
6.992,0.00012
6.996,0.02369
7.0,0.0123
7.004,0.00614
7.008,-0.00077
7.012,0.00297
7.016,0.04378
7.02,0.01639
7.024,0.00312
7.028,0.0215
7.032,0.02983
7.036,0.04008
7.04,0.02489
7.044,0.03591
7.048,0.0385
7.052,0.06227
7.056,0.06359
7.06,0.09784
7.064,0.06782
7.068,0.10807
7.072,0.09048
7.076,0.10366
7.08,0.12342
7.084,0.11904
7.088,0.16439
7.092,0.12008
7.096,0.1081
7.1,0.11245
7.104,0.07572
7.108,0.09521
7.112,0.0422
7.116,0.05209
7.12,0.03459
7.124,0.02669
7.128,0.00808
7.132,0.01095
7.136,0.03412
7.14,0.03792
7.144,0.04707
7.148,0.04041
7.152,0.01073
7.156,0.04413
7.16,0.01458
7.164,0.01467
7.168,0.03301
7.172,0.02766
7.176,0.01138
7.18,0.02962
7.184,0.01686
7.188,0.0249
7.192,0.00867
7.196,0.02484
7.2,-0.01928
7.204,-0.01429
7.208,-0.05603
7.212,-0.09086
7.216,-0.05213
7.22,0.01933
7.224,0.15396
7.228,0.35532
7.232,0.55428
7.236,0.77672
7.24,0.9403
7.244,1.02135
7.248,0.99856
7.252,0.85982
7.256,0.66531
7.26,0.43452
7.264,0.21023
7.268,0.02054
7.272,-0.08658
7.276,-0.14935
7.28,-0.13926
7.284,-0.09634
7.288,-0.06562
7.292,-0.03109
7.296,-0.00206
7.3,0.02411
7.304,0.04578
7.308,0.02916
7.312,0.00908
7.316,0.00789
7.32,0.01287
7.324,0.05282
7.328,0.03765
7.332,0.02567
7.336,0.02702
7.34,0.00894
7.344,-0.01889
7.348,0.03161
7.352,0.00761
7.356,0.04674
7.36,0.00056
7.364,0.03876
7.368,0.05303
7.372,0.03422
7.376,0.01171
7.38,0.0528
7.384,0.02316
7.388,0.03957
7.392,0.03915
7.396,0.03958
7.4,0.03368
7.404,0.05141
7.408,0.00861
7.412,0.04472
7.416,0.03734
7.42,0.04533
7.424,0.06359
7.428,0.06375
7.432,0.02779
7.436,0.10857
7.44,0.08454
7.444,0.06832
7.448,0.05116
7.452,0.08056
7.456,0.11207
7.46,0.12093
7.464,0.13409
7.468,0.11421
7.472,0.13448
7.476,0.16543
7.48,0.17027
7.484,0.16395
7.488,0.21384
7.492,0.21797
7.496,0.21219
7.5,0.2196
7.504,0.22303
7.508,0.24015
7.512,0.2307
7.516,0.24047
7.52,0.23727
7.524,0.23412
7.528,0.25345
7.532,0.252
7.536,0.26509
7.54,0.21901
7.544,0.22854
7.548,0.21526
7.552,0.20322
7.556,0.20029
7.56,0.20717
7.564,0.16787
7.568,0.16903
7.572,0.16761
7.576,0.17872
7.58,0.15712
7.584,0.11938
7.588,0.11086
7.592,0.09446
7.596,0.0921
7.6,0.09913
7.604,0.06103
7.608,0.06261
7.612,0.06016
7.616,0.03463
7.62,0.07166
7.624,0.05719
7.628,0.03817
7.632,0.01667
7.636,0.05312
7.64,0.05073
7.644,0.03048
7.648,0.03364
7.652,0.01748
7.656,0.02699
7.66,0.03066
7.664,0.01923
7.668,0.03797
7.672,0.00841
7.676,0.04494
7.68,0.04999
7.684,0.00139
7.688,0.01372
7.692,0.04788
7.696,0.0197
7.7,0.0507
7.704,0.03797
7.708,0.02989
7.712,0.06458
7.716,0.02646
7.72,0.01478
7.724,0.0249
7.728,0.04665
7.732,0.04021
7.736,0.02953
7.74,0.01098
7.744,0.02934
7.748,0.02539
7.752,0.04856
7.756,0.03916
7.76,0.03244
7.764,0.02592
7.768,0.04992
7.772,0.02336
7.776,0.01598
7.78,0.0237
7.784,0.05528
7.788,0.03884
7.792,-0.00519
7.796,0.04477
7.8,0.00037
7.804,0.03507
7.808,0.02418
7.812,0.04429
7.816,0.03256
7.82,0.00779
7.824,0.02645
7.828,0.01902
7.832,0.03411
7.836,0.01973
7.84,0.01583
7.844,0.04123
7.848,0.02088
7.852,0.03295
7.856,0.05237
7.86,0.00828
7.864,0.0367
7.868,0.01205
7.872,0.00018
7.876,0.031
7.88,0.03505
7.884,0.04077
7.888,0.02856
7.892,0.0546
7.896,0.01603
7.9,0.04872
7.904,0.04603
7.908,0.02302
7.912,0.02513
7.916,0.00817
7.92,0.02403
7.924,0.05691
7.928,0.02329
7.932,0.02158
7.936,0.00624
7.94,0.02917
7.944,0.02824
7.948,0.01695
7.952,0.0516
7.956,0.03826
7.96,0.01209
7.964,0.04932
7.968,0.0194
7.972,0.00111
7.976,0.03448
7.98,0.02817
7.984,0.02582
7.988,0.01386
7.992,0.04352
7.996,0.04376
8.0,0.04752
8.004,0.03628
8.008,0.03075
8.012,0.02462
8.016,0.02633
8.02,0.02323
8.024,0.03071
8.028,0.03542
8.032,0.00852
8.036,0.04038
8.04,0.00911
8.044,0.03267
8.048,0.02603
8.052,0.04617
8.056,0.04608
8.06,0.03995
8.064,0.03718
8.068,0.0367
8.072,0.0248
8.076,0.00379
8.08,0.04072
8.084,0.07066
8.088,0.01125
8.092,0.02454
8.096,0.02316
8.1,0.01595
8.104,0.03296
8.108,0.03619
8.112,0.04173
8.116,0.03699
8.12,0.03639
8.124,0.03123
8.128,0.02769
8.132,0.01122
8.136,0.03896
8.14,0.02974
8.144,0.02507
8.148,0.06802
8.152,0.019
8.156,0.03267
8.16,0.01292
8.164,0.04353
8.168,0.0193
8.172,0.04273
8.176,0.02073
8.18,0.0069
8.184,0.03433
8.188,0.0235
8.192,0.00943
8.196,0.0345
8.2,0.04601
8.204,0.04017
8.208,0.03814
8.212,0.03596
8.216,0.02491
8.22,0.03272
8.224,0.00873
8.228,0.00521
8.232,0.02661
8.236,0.02504
8.24,0.0229
8.244,0.01478
8.248,0.04371
8.252,0.01345
8.256,0.02994
8.26,0.02183
8.264,0.03815
8.268,0.02644
8.272,0.02021
8.276,0.05012
8.28,0.00464
8.284,0.02072
8.288,0.02559
8.292,0.03255
8.296,0.01094
8.3,0.04148
8.304,0.02934
8.308,0.01691
8.312,0.01316
8.316,0.00943
8.32,0.02012
8.324,0.03671
8.328,0.02058
8.332,0.0387
8.336,0.04297
8.34,0.02336
8.344,0.01029
8.348,0.05454
8.352,0.0318
8.356,0.04787
8.36,0.03902
8.364,0.05595
8.368,0.05766
8.372,0.06496
8.376,0.10996
8.38,0.11481
8.384,0.10756
8.388,0.15214
8.392,0.11612
8.396,0.12935
8.4,0.12919
8.404,0.10446
8.408,0.08002
8.412,0.07619
8.416,0.09689
8.42,0.07038
8.424,0.02947
8.428,0.0184
8.432,0.04005
8.436,0.04991
8.44,0.03978
8.444,0.03552
8.448,0.03428
8.452,0.02906
8.456,0.02258
8.46,0.01894
8.464,0.00116
8.468,0.05362
8.472,0.01167
8.476,0.02789
8.48,0.02288
8.484,0.01457
8.488,0.04211
8.492,0.04569
8.496,-0.00102
8.5,-0.0162
8.504,-0.01811
8.508,-0.03757
8.512,-0.04069
8.516,-0.0956
8.52,-0.09469
8.524,-0.00528
8.528,0.14271
8.532,0.30578
8.536,0.5353
8.54,0.77051
8.544,0.9301
8.548,0.99334
8.552,0.98307
8.556,0.87289
8.56,0.64246
8.564,0.43693
8.568,0.23099
8.572,0.05845
8.576,-0.07317
8.58,-0.1244
8.584,-0.16354
8.588,-0.12783
8.592,-0.05288
8.596,-0.03
8.6,0.00677
8.604,0.01574
8.608,0.04925
8.612,0.00752
8.616,0.03761
8.62,0.01583
8.624,0.01596
8.628,0.02421
8.632,0.03373
8.636,0.01553
8.64,0.05059
8.644,0.01487
8.648,0.02612
8.652,0.01593
8.656,0.04799
8.66,0.01606
8.664,0.01276
8.668,0.02492
8.672,0.02216
8.676,0.0228
8.68,0.0348
8.684,0.03591
8.688,0.01879
8.692,-0.01102
8.696,0.02716
8.7,0.01488
8.704,0.0203
8.708,0.02749
8.712,0.03174
8.716,0.03644
8.72,0.05558
8.724,0.03886
8.728,0.02933
8.732,0.04137
8.736,0.04157
8.74,0.05401
8.744,0.06029
8.748,0.04104
8.752,0.05331
8.756,0.06401
8.76,0.08493
8.764,0.11437
8.768,0.11532
8.772,0.09672
8.776,0.12751
8.78,0.15455
8.784,0.12996
8.788,0.16512
8.792,0.18842
8.796,0.17481
8.8,0.20315
8.804,0.21988
8.808,0.21779
8.812,0.20914
8.816,0.241
8.82,0.23853
8.824,0.25526
8.828,0.25016
8.832,0.25215
8.836,0.21879
8.84,0.23259
8.844,0.22452
8.848,0.24951
8.852,0.18392
8.856,0.19411
8.86,0.19099
8.864,0.19241
8.868,0.18369
8.872,0.15919
8.876,0.14875
8.88,0.13182
8.884,0.13077
8.888,0.10788
8.892,0.10524
8.896,0.09088
8.9,0.07444
8.904,0.05043
8.908,0.0605
8.912,0.0822
8.916,0.05078
8.92,0.0403
8.924,0.03207
8.928,0.04376
8.932,0.01475
8.936,0.02569
8.94,0.03452
8.944,0.02942
8.948,0.0264
8.952,0.03423
8.956,0.01348
8.96,-0.01994
8.964,-0.00423
8.968,0.03345
8.972,0.00844
8.976,0.01873
8.98,0.00937
8.984,3e-05
8.988,0.00937
8.992,0.04121
8.996,0.02273
9.0,0.00306
9.004,0.01994
9.008,-0.00633
9.012,0.00536
9.016,-0.00176
9.02,0.01547
9.024,-0.01278
9.028,-0.00388
9.032,0.01066
9.036,0.01035
9.04,-0.02544
9.044,-0.01028
9.048,0.01803
9.052,0.00196
9.056,0.02079
9.06,0.01133
9.064,0.0172
9.068,-0.00667
9.072,0.02906
9.076,0.02215
9.08,0.01297
9.084,0.02271
9.088,0.00086
9.092,0.01542
9.096,0.02677
9.1,-0.01622
9.104,0.03258
9.108,0.02675
9.112,-0.00343
9.116,-0.00291
9.12,0.03663
9.124,-0.00937
9.128,0.00668
9.132,0.02508
9.136,0.01915
9.14,0.03235
9.144,-0.00866
9.148,-0.01337
9.152,0.00796
9.156,0.03101
9.16,-0.005
9.164,0.02015
9.168,0.02346
9.172,-0.01059
9.176,-0.00876
9.18,0.00315
9.184,0.00938
9.188,0.00971
9.192,0.02818
9.196,-0.01199
9.2,-0.00303
9.204,0.0277
9.208,0.01301
9.212,0.01353
9.216,0.01713
9.22,0.01259
9.224,-0.0084
9.228,0.00119
9.232,0.0262
9.236,-0.00289
9.24,-0.00022
9.244,-0.01018
9.248,0.00233
9.252,0.00552
9.256,0.00736
9.26,0.00244
9.264,-0.0163
9.268,-0.00771
9.272,0.01293
9.276,0.00372
9.28,-0.00776
9.284,-0.00207
9.288,-0.03388
9.292,0.0012
9.296,0.01981
9.3,-0.0058
9.304,-0.00075
9.308,-0.01978
9.312,-0.00885
9.316,0.00953
9.32,0.01157
9.324,0.00634
9.328,0.01561
9.332,0.02764
9.336,0.00494
9.34,-0.01607
9.344,0.03165
9.348,0.00159
9.352,0.00201
9.356,0.00679
9.36,0.03014
9.364,0.01086
9.368,0.0061
9.372,-0.02997
9.376,-0.01436
9.38,0.00618
9.384,-0.00828
9.388,0.02213
9.392,-0.00097
9.396,-0.00362
9.4,0.0016
9.404,0.03228
9.408,0.01138
9.412,-0.01333
9.416,0.00908
9.42,-0.00099
9.424,0.00619
9.428,0.00973
9.432,0.00696
9.436,0.01244
9.44,-0.00748
9.444,0.00236
9.448,0.00115
9.452,0.01402
9.456,-0.00362
9.46,0.00959
9.464,-0.01097
9.468,-0.01125
9.472,-0.01366
9.476,0.01352
9.48,0.01013
9.484,-0.03293
9.488,0.00852
9.492,0.02074
9.496,0.00197
9.5,-0.01024
9.504,-0.00241
9.508,0.01151
9.512,-0.00051
9.516,0.00682
9.52,0.01255
9.524,0.00404
9.528,0.0179
9.532,0.00295
9.536,0.01067
9.54,0.00199
9.544,0.0062
9.548,0.00607
9.552,-0.01699
9.556,0.00746
9.56,-0.00512
9.564,-0.00709
9.568,0.01157
9.572,0.01695
9.576,-0.01121
9.58,-0.00058
9.584,-0.02078
9.588,0.01106
9.592,0.00332
9.596,0.03057
9.6,0.03271
9.604,0.0485
9.608,0.06962
9.612,0.08605
9.616,0.09152
9.62,0.105
9.624,0.09453
9.628,0.10653
9.632,0.10146
9.636,0.07098
9.64,0.06154
9.644,0.08313
9.648,0.03175
9.652,0.05152
9.656,0.01044
9.66,-0.01006
9.664,-0.00902
9.668,-0.00784
9.672,0.0031
9.676,-0.0022
9.68,0.00759
9.684,0.00442
9.688,-0.01545
9.692,-0.01855
9.696,-0.00653
9.7,-0.01912
9.704,-0.02526
9.708,-0.01454
9.712,0.0028
9.716,0.00851
9.72,-0.01765
9.724,-0.0004
9.728,-0.03542
9.732,-0.01202
9.736,0.00551
9.74,-0.0467
9.744,-0.0708
9.748,-0.10552
9.752,-0.1381
9.756,-0.08544
9.76,0.00735
9.764,0.20365
9.768,0.41069
9.772,0.62316
9.776,0.76522
9.78,0.9502
9.784,1.00175
9.788,0.94126
9.792,0.76945
9.796,0.52663
9.8,0.31864
9.804,0.09583
9.808,-0.04973
9.812,-0.15002
9.816,-0.17612
9.82,-0.15259
9.824,-0.13625
9.828,-0.10229
9.832,-0.0385
9.836,0.00635
9.84,-0.03242
9.844,-0.00487
9.848,-0.00324
9.852,-0.01241
9.856,-0.03246
9.86,-0.04072
9.864,-0.01228
9.868,-0.00509
9.872,-6e-05
9.876,0.00569
9.88,-0.01745
9.884,-0.01634
9.888,0.02312
9.892,-0.02367
9.896,-0.02213
9.9,-0.01228
9.904,-0.03102
9.908,0.00126
9.912,-0.02802
9.916,0.0021
9.92,0.00267
9.924,-0.01203
9.928,-0.01323
9.932,-0.00352
9.936,-0.02024
9.94,0.0059
9.944,0.00609
9.948,-0.00167
9.952,0.02128
9.956,0.00454
9.96,-0.01815
9.964,0.0092
9.968,-0.01154
9.972,0.01105
9.976,0.01541
9.98,4e-05
9.984,0.03826
9.988,0.04283
9.992,0.06836
9.996,0.08401
