t_seg,ecg_mV
0.0,-0.00212
0.004,0.04595
0.008,0.0656
0.012,0.03601
0.016,0.05918
0.02,0.06802
0.024,0.09832
0.028,0.09101
0.032,0.10715
0.036,0.14672
0.04,0.09973
0.044,0.1064
0.048,0.10005
0.052,0.1076
0.056,0.07735
0.06,0.05161
0.064,0.04663
0.068,0.0272
0.072,0.03079
0.076,0.04343
0.08,0.0107
0.084,-0.02632
0.088,0.00066
0.092,-0.0131
0.096,0.01491
0.1,0.02414
0.104,0.00104
0.108,0.01257
0.112,-0.00248
0.116,-0.00735
0.12,-0.00157
0.124,0.00031
0.128,0.03175
0.132,0.0164
0.136,0.01255
0.14,0.00081
0.144,0.01393
0.148,0.02409
0.152,-0.00856
0.156,-0.04479
0.16,-0.09433
0.164,-0.15053
0.168,-0.09668
0.172,-0.01103
0.176,0.12802
0.18,0.32514
0.184,0.50364
0.188,0.70438
0.192,0.93286
0.196,0.99836
0.2,0.98662
0.204,0.86938
0.208,0.65851
0.212,0.43699
0.216,0.17144
0.22,0.02307
0.224,-0.07943
0.228,-0.17559
0.232,-0.14541
0.236,-0.12547
0.24,-0.0604
0.244,-0.04084
0.248,0.00336
0.252,-0.01815
0.256,0.01873
0.26,0.00375
0.264,0.00099
0.268,0.00264
0.272,0.0056
0.276,-0.02231
0.28,0.00538
0.284,-0.01587
0.288,0.0109
0.292,0.01069
0.296,-0.01095
0.3,0.00788
0.304,-0.00699
0.308,-0.0092
0.312,0.0228
0.316,0.02703
0.32,0.02406
0.324,-0.0039
0.328,0.02321
0.332,-0.01336
0.336,-0.00333
0.34,0.02125
0.344,0.0104
0.348,0.01458
0.352,0.03645
0.356,-0.01725
0.36,-0.00937
0.364,0.03155
0.368,-0.00558
0.372,0.01568
0.376,0.00423
0.38,0.00176
0.384,0.05833
0.388,0.03886
0.392,0.04032
0.396,0.05865
0.4,0.04872
0.404,0.09378
0.408,0.0586
0.412,0.07941
0.416,0.08119
0.42,0.10243
0.424,0.13477
0.428,0.10343
0.432,0.1305
0.436,0.13297
0.44,0.13349
0.444,0.18731
0.448,0.18547
0.452,0.20547
0.456,0.17685
0.46,0.20419
0.464,0.23303
0.468,0.20712
0.472,0.20954
0.476,0.22793
0.48,0.2253
0.484,0.21609
0.488,0.20089
0.492,0.18648
0.496,0.19027
0.5,0.17598
0.504,0.16934
0.508,0.2069
0.512,0.19681
0.516,0.1579
0.52,0.14303
0.524,0.12671
0.528,0.14054
0.532,0.10405
0.536,0.10556
0.54,0.08633
0.544,0.09835
0.548,0.05574
0.552,0.04559
0.556,0.05077
0.56,0.05827
0.564,0.04042
0.568,0.04421
0.572,0.01576
0.576,0.03158
0.58,-0.00638
0.584,0.02678
0.588,-0.0248
0.592,0.01853
0.596,0.01023
0.6,0.02957
0.604,0.00656
0.608,-0.00577
0.612,-0.00575
0.616,0.00062
0.62,-0.01795
0.624,0.01683
0.628,0.01505
0.632,-0.00605
0.636,-0.0046
0.64,0.01162
0.644,-0.01469
0.648,0.02307
0.652,-0.00531
0.656,-0.0243
0.66,-0.01435
0.664,-0.03834
0.668,0.00848
0.672,-0.00455
0.676,-0.00686
0.68,0.01272
0.684,-0.00564
0.688,0.0118
0.692,-0.0025
0.696,0.0004
0.7,-0.0048
0.704,0.01097
0.708,0.0205
0.712,-0.00091
0.716,-0.00499
0.72,0.01595
0.724,-0.01894
0.728,-0.00812
0.732,-0.02237
0.736,-0.00966
0.74,-5e-05
0.744,-0.01749
0.748,-0.03576
0.752,0.008
0.756,0.01363
0.76,-0.00388
0.764,-0.0017
0.768,-0.01171
0.772,0.00355
0.776,-0.00103
0.78,0.02009
0.784,0.03796
0.788,0.03769
0.792,0.05851
0.796,0.04414
0.8,0.04848
0.804,0.05683
0.808,0.08191
0.812,0.05823
0.816,0.0906
0.82,0.09799
0.824,0.08251
0.828,0.08732
0.832,0.05948
0.836,0.08788
0.84,0.0406
0.844,0.05412
0.848,0.00669
0.852,0.06474
0.856,0.01917
0.86,0.00337
0.864,-0.00195
0.868,0.00865
0.872,0.01006
0.876,0.00311
0.88,-0.01138
0.884,-0.00801
0.888,0.00249
0.892,-0.03558
0.896,-0.00662
0.9,-0.02386
0.904,-0.01324
0.908,-0.01023
0.912,0.00225
0.916,-0.0136
0.92,0.00996
0.924,-0.00557
0.928,-0.02152
0.932,-0.04224
0.936,-0.05909
0.94,-0.0821
0.944,-0.11675
0.948,-0.14023
0.952,-0.08429
0.956,0.03267
0.96,0.22721
0.964,0.42718
0.968,0.63793
0.972,0.8074
0.976,0.96582
0.98,0.99061
0.984,0.8782
0.988,0.70306
0.992,0.4939
0.996,0.25882
1.0,0.08003
1.004,-0.0739
1.008,-0.18989
1.012,-0.19041
1.016,-0.17124
1.02,-0.11466
1.024,-0.07474
1.028,-0.05614
1.032,-0.05193
1.036,-0.00127
1.04,-0.02195
1.044,-0.02401
1.048,-0.00629
1.052,-0.01128
1.056,0.00895
1.06,-0.0249
1.064,-0.01918
1.068,-0.01931
1.072,0.00779
1.076,-0.00956
1.08,-0.01615
1.084,-0.02165
1.088,-0.02701
1.092,0.00582
1.096,-0.01862
1.1,-0.02854
1.104,0.00608
1.108,0.01516
1.112,-0.02333
1.116,-0.02227
1.12,-0.01041
1.124,-0.03536
1.128,-0.01253
1.132,-0.01043
1.136,-0.01249
1.14,-0.00406
1.144,0.01232
1.148,-0.00809
1.152,-0.0104
1.156,0.0054
1.16,0.00285
1.164,0.03141
1.168,-0.00522
1.172,0.01226
1.176,0.02645
1.18,0.03131
1.184,0.07426
1.188,0.06456
1.192,0.04961
1.196,0.07067
1.2,0.04916
1.204,0.10391
1.208,0.09212
1.212,0.13131
1.216,0.10165
1.22,0.10903
1.224,0.13351
1.228,0.13138
1.232,0.16001
1.236,0.16238
1.24,0.19585
1.244,0.19518
1.248,0.18311
1.252,0.20999
1.256,0.21831
1.26,0.176
1.264,0.24666
1.268,0.20845
1.272,0.18086
1.276,0.20649
1.28,0.18169
1.284,0.14236
1.288,0.1614
1.292,0.18312
1.296,0.13187
1.3,0.12302
1.304,0.12303
1.308,0.10524
1.312,0.09498
1.316,0.07881
1.32,0.05528
1.324,0.06557
1.328,0.05896
1.332,0.02667
1.336,0.03746
1.34,0.02961
1.344,0.00509
1.348,0.0125
1.352,0.00263
1.356,-0.00242
1.36,0.02223
1.364,-0.02735
1.368,-0.02247
1.372,-0.00781
1.376,-0.01689
1.38,-0.02396
1.384,-0.03576
1.388,-0.02959
1.392,-0.03246
1.396,-0.04336
1.4,-0.02648
1.404,-0.03641
1.408,-0.04715
1.412,-0.0502
1.416,-0.00038
1.42,-0.01217
1.424,-0.02296
1.428,-0.02693
1.432,-0.00833
1.436,-0.0193
1.44,-0.02037
1.444,-0.03614
1.448,-0.02122
1.452,-0.02323
1.456,-0.01529
1.46,-0.01588
1.464,-0.01964
1.468,-0.02256
1.472,-0.02311
1.476,0.00348
1.48,-0.0082
1.484,-0.0264
1.488,0.01428
1.492,0.00514
1.496,0.03324
1.5,0.0196
1.504,0.06928
1.508,0.07159
1.512,0.06936
1.516,0.09828
1.52,0.09548
1.524,0.09472
1.528,0.05915
1.532,0.04771
1.536,0.0624
1.54,0.02256
1.544,0.01518
1.548,0.01436
1.552,0.02671
1.556,-0.00517
1.56,-0.00763
1.564,0.00366
1.568,-0.04331
1.572,-0.01677
1.576,-0.02157
1.58,-0.02845
1.584,-0.01666
1.588,6e-05
1.592,-0.01864
1.596,-0.00614
1.6,-0.06651
1.604,-0.03433
1.608,-0.04557
1.612,-0.03493
1.616,-0.01925
1.62,-0.02322
1.624,-0.01715
1.628,-0.03646
1.632,-0.04465
1.636,-0.07119
1.64,-0.10174
1.644,-0.14096
1.648,-0.14968
1.652,-0.10729
1.656,0.01663
1.66,0.17292
1.664,0.38851
1.668,0.5921
1.672,0.79199
1.676,0.95138
1.68,1.00501
1.684,0.89076
1.688,0.70404
1.692,0.47104
1.696,0.27224
1.7,0.08369
1.704,-0.08353
1.708,-0.16854
1.712,-0.20062
1.716,-0.1852
1.72,-0.12498
1.724,-0.07901
1.728,-0.10352
1.732,-0.02841
1.736,-0.04902
1.74,-0.00921
1.744,-0.02032
1.748,-0.03536
1.752,-0.02072
1.756,-0.03865
1.76,-0.04523
1.764,-0.02437
1.768,-0.0057
1.772,-0.03467
1.776,-0.02399
1.78,-0.02714
1.784,-0.02135
1.788,-0.04769
1.792,-0.01673
1.796,-0.01141
1.8,-0.00926
1.804,-0.01775
1.808,-0.01926
1.812,-0.02947
1.816,-0.01018
1.82,-0.03703
1.824,-0.0031
1.828,-0.01353
1.832,-0.02032
1.836,-0.035
1.84,-0.02253
1.844,-0.00341
1.848,-0.0058
1.852,-0.01559
1.856,-0.02903
1.86,-0.0002
1.864,0.01707
1.868,-0.00196
1.872,0.03299
1.876,-0.01002
1.88,0.01644
1.884,0.03948
1.888,0.04293
1.892,0.04069
1.896,0.06661
1.9,0.06531
1.904,0.06281
1.908,0.05265
1.912,0.09946
1.916,0.08517
1.92,0.11284
1.924,0.12537
1.928,0.16136
1.932,0.1396
1.936,0.17553
1.94,0.13493
1.944,0.16999
1.948,0.15048
1.952,0.21782
1.956,0.18791
1.96,0.18459
1.964,0.18067
1.968,0.1868
1.972,0.18157
1.976,0.18968
1.98,0.17346
1.984,0.16571
1.988,0.13969
1.992,0.11905
1.996,0.12451
2.0,0.12153
2.004,0.11081
2.008,0.09963
2.012,0.10329
2.016,0.08491
2.02,0.08339
2.024,0.04722
2.028,0.06708
2.032,-0.01105
2.036,0.0286
2.04,0.0192
2.044,0.0384
2.048,0.01391
2.052,0.00081
2.056,-0.01233
2.06,-0.01165
2.064,-0.01476
2.068,-0.00141
2.072,-0.04398
2.076,0.00058
2.08,-0.01379
2.084,-0.03342
2.088,-0.01652
2.092,-0.02068
2.096,-0.04746
2.1,-0.00981
2.104,-0.02048
2.108,-0.01569
2.112,-0.01784
2.116,-0.03821
2.12,-0.01885
2.124,-0.02325
2.128,-0.02727
2.132,-0.04182
2.136,-0.02751
2.14,-0.03501
2.144,0.01287
2.148,-0.01463
2.152,-0.01418
2.156,0.00808
2.16,0.00601
2.164,0.03194
2.168,0.01899
2.172,0.05536
2.176,0.07327
2.18,0.07287
2.184,0.08042
2.188,0.0806
2.192,0.11321
2.196,0.06714
2.2,0.07446
2.204,0.05472
2.208,0.02912
2.212,0.0192
2.216,0.00406
2.22,0.01976
2.224,0.02472
2.228,-0.01694
2.232,-0.03234
2.236,-0.01844
2.24,-0.01145
2.244,-0.0194
2.248,-0.06319
2.252,-0.01147
2.256,-0.0307
2.26,-0.01855
2.264,-0.03443
2.268,-0.02544
2.272,-0.02474
2.276,-0.056
2.28,-0.01425
2.284,-0.01487
2.288,-0.04334
2.292,-0.04354
2.296,-0.0344
2.3,-0.03003
2.304,-0.04173
2.308,-0.08461
2.312,-0.10498
2.316,-0.15457
2.32,-0.11848
2.324,-0.02306
2.328,0.10093
2.332,0.28367
2.336,0.46925
2.34,0.7088
2.344,0.8881
2.348,0.98681
2.352,0.93559
2.356,0.80562
2.36,0.60335
2.364,0.38371
2.368,0.14147
2.372,-0.0267
2.376,-0.13217
2.38,-0.19314
2.384,-0.17207
2.388,-0.15271
2.392,-0.13545
2.396,-0.09584
2.4,-0.06331
2.404,-0.04367
2.408,-0.02599
2.412,-0.02092
2.416,-0.02313
2.42,-0.02854
2.424,-0.01895
2.428,-0.0478
2.432,-0.0394
2.436,0.01188
2.44,-0.01018
2.444,-0.04119
2.448,-0.03082
2.452,-0.00888
2.456,-0.0111
2.46,-0.00551
2.464,-0.03556
2.468,-0.02192
2.472,-0.00479
2.476,-0.02604
2.48,-0.00743
2.484,-0.02598
2.488,-0.03773
2.492,-0.06353
2.496,-0.01438
2.5,-0.04312
2.504,-0.02246
2.508,-0.02321
2.512,-0.01485
2.516,-0.01632
2.52,-0.00819
2.524,-0.01766
2.528,-0.01355
2.532,0.01207
2.536,0.0021
2.54,-0.00779
2.544,0.01058
2.548,0.00613
2.552,0.01352
2.556,0.04597
2.56,0.04567
2.564,0.04847
2.568,0.07732
2.572,0.0805
2.576,0.0847
2.58,0.07392
2.584,0.11997
2.588,0.09845
2.592,0.12709
2.596,0.16002
2.6,0.13586
2.604,0.15632
2.608,0.1875
2.612,0.17393
2.616,0.16331
2.62,0.17856
2.624,0.20806
2.628,0.21019
2.632,0.1797
2.636,0.19402
2.64,0.16972
2.644,0.20192
2.648,0.15133
2.652,0.19102
2.656,0.18749
2.66,0.13845
2.664,0.14095
2.668,0.11169
2.672,0.12529
2.676,0.11269
2.68,0.09321
2.684,0.08024
2.688,0.07719
2.692,0.05216
2.696,0.06818
2.7,0.05614
2.704,0.03237
2.708,0.03435
2.712,0.02298
2.716,0.02214
2.72,0.01255
2.724,0.02524
2.728,0.0071
2.732,-0.04837
2.736,-0.01295
2.74,-0.01779
2.744,-0.03894
2.748,0.00693
2.752,0.012
2.756,-0.00924
2.76,-0.01528
2.764,-0.00739
2.768,-0.03066
2.772,-0.03233
2.776,-0.02509
2.78,-0.04439
2.784,-0.03584
2.788,-0.03219
2.792,-0.04126
2.796,-0.00855
2.8,-0.03225
2.804,-0.03747
2.808,-0.01076
2.812,-0.03424
2.816,-0.02134
2.82,-0.01091
2.824,-0.0186
2.828,-0.03467
2.832,-0.01785
2.836,-0.02628
2.84,-0.05235
2.844,-0.0205
2.848,-0.01609
2.852,-0.03248
2.856,-0.00192
2.86,-0.01295
2.864,-0.00408
2.868,-0.03967
2.872,-0.01376
2.876,-0.01277
2.88,-0.04016
2.884,-0.00263
2.888,-0.05355
2.892,0.00371
2.896,-0.04263
2.9,-0.0118
2.904,-0.04299
2.908,-0.03676
2.912,-0.05544
2.916,-0.01856
2.92,-0.01838
2.924,-0.01656
2.928,0.0002
2.932,-0.00803
2.936,-0.0104
2.94,-0.02685
2.944,-0.04797
2.948,-0.02341
2.952,-0.02482
2.956,-0.00229
2.96,0.03351
2.964,0.0021
2.968,0.01313
2.972,0.05436
2.976,0.07925
2.98,0.06911
2.984,0.08911
2.988,0.06124
2.992,0.05986
2.996,0.07019
3.0,0.06517
3.004,0.05734
3.008,0.03321
3.012,0.04039
3.016,0.00718
3.02,-0.01658
3.024,0.01738
3.028,0.0114
3.032,0.00854
3.036,0.01874
3.04,-0.03166
3.044,-0.0357
3.048,-0.01211
3.052,-0.00058
3.056,-0.0169
3.06,-0.0219
3.064,-0.03362
3.068,-0.00283
3.072,-0.05989
3.076,-0.02854
3.08,-0.01563
3.084,-0.01915
3.088,-0.02519
3.092,-0.03521
3.096,-0.02356
3.1,-0.01921
3.104,-0.0221
3.108,-0.05622
3.112,-0.10886
3.116,-0.12991
3.12,-0.1305
3.124,-0.06401
3.128,0.06768
3.132,0.26473
3.136,0.45119
3.14,0.65978
3.144,0.85643
3.148,0.94035
3.152,1.0066
3.156,0.86469
3.16,0.67695
3.164,0.4379
3.168,0.22322
3.172,0.04422
3.176,-0.09608
3.18,-0.17918
3.184,-0.18397
3.188,-0.1549
3.192,-0.12617
3.196,-0.09232
3.2,-0.03606
3.204,-0.02305
3.208,-0.02872
3.212,-0.02111
3.216,-0.0211
3.22,-0.028
3.224,-0.03023
3.228,-0.03189
3.232,-0.02241
3.236,-0.01348
3.24,-0.02614
3.244,-0.0269
3.248,-0.03771
3.252,-0.02928
3.256,-0.03502
3.26,-0.0205
3.264,-0.02556
3.268,-0.02003
3.272,-0.01257
3.276,0.01403
3.28,-0.01992
3.284,0.0041
3.288,-0.02628
3.292,-0.01311
3.296,-0.02399
3.3,-0.01554
3.304,0.00394
3.308,-0.01168
3.312,-0.01448
3.316,0.00333
3.32,0.02851
3.324,0.01664
3.328,0.01634
3.332,0.00873
3.336,0.03377
3.34,0.01153
3.344,0.02019
3.348,-0.00472
3.352,0.02724
3.356,0.08132
3.36,0.03434
3.364,0.06324
3.368,0.03198
3.372,0.10789
3.376,0.11584
3.38,0.09101
3.384,0.13674
3.388,0.11776
3.392,0.15332
3.396,0.17625
3.4,0.17444
3.404,0.18356
3.408,0.16734
3.412,0.19932
3.416,0.2012
3.42,0.20569
3.424,0.22122
3.428,0.20398
3.432,0.21462
3.436,0.20527
3.44,0.2001
3.444,0.18808
3.448,0.183
3.452,0.17516
3.456,0.15926
3.46,0.17761
3.464,0.14901
3.468,0.16123
3.472,0.1282
3.476,0.11
3.48,0.08107
3.484,0.13038
3.488,0.06925
3.492,0.08376
3.496,0.04307
3.5,0.04285
3.504,0.0553
3.508,0.02952
3.512,0.03501
3.516,0.02801
3.52,0.01931
3.524,0.02465
3.528,-0.01726
3.532,-0.00698
3.536,0.02645
3.54,0.00028
3.544,0.0149
3.548,-0.00983
3.552,-0.01035
3.556,-0.02495
3.56,-0.00013
3.564,-0.04904
3.568,-0.01153
3.572,-0.00699
3.576,-0.01405
3.58,-0.00045
3.584,-0.0178
3.588,-0.00018
3.592,0.00128
3.596,-0.00635
3.6,-0.03492
3.604,0.00879
3.608,-0.04578
3.612,-0.00096
3.616,0.0357
3.62,0.00464
3.624,0.0124
3.628,-0.00741
3.632,-0.01619
3.636,-0.02559
3.64,-0.02101
3.644,0.00475
3.648,-0.03175
3.652,-0.0103
3.656,-0.01245
3.66,-0.01294
3.664,-0.00606
3.668,-0.01243
3.672,0.00331
3.676,-0.01878
3.68,0.00472
3.684,0.02184
3.688,0.00914
3.692,0.00104
3.696,0.02579
3.7,0.01273
3.704,0.01019
3.708,0.02321
3.712,0.00988
3.716,0.02909
3.72,0.00667
3.724,0.04005
3.728,0.00863
3.732,0.02894
3.736,0.02848
3.74,0.04616
3.744,0.06181
3.748,0.08861
3.752,0.10868
3.756,0.09197
3.76,0.10092
3.764,0.06774
3.768,0.09735
3.772,0.09139
3.776,0.08021
3.78,0.0811
3.784,0.06152
3.788,0.0593
3.792,0.02531
3.796,0.0222
3.8,0.02214
3.804,0.03468
3.808,-0.0021
3.812,-0.01274
3.816,0.01006
3.82,-0.00396
3.824,-0.00369
3.828,0.01083
3.832,0.01412
3.836,-0.00273
3.84,0.02244
3.844,-0.03463
3.848,-0.01389
3.852,0.00882
3.856,0.00102
3.86,0.00217
3.864,0.01503
3.868,0.00659
3.872,-0.012
3.876,-0.0361
3.88,-0.04594
3.884,-0.07035
3.888,-0.13597
3.892,-0.07836
3.896,-0.00663
3.9,0.14516
3.904,0.33469
3.908,0.53867
3.912,0.76968
3.916,0.92369
3.92,1.00682
3.924,0.98144
3.928,0.81178
3.932,0.63689
3.936,0.41617
3.94,0.19372
3.944,0.00741
3.948,-0.10106
3.952,-0.13635
3.956,-0.15651
3.96,-0.13549
3.964,-0.06601
3.968,-0.06289
3.972,0.0126
3.976,-0.02395
3.98,-0.00991
3.984,-0.00251
3.988,0.02143
3.992,0.02611
3.996,-0.00109
4.0,0.0022
4.004,-0.00017
4.008,-0.01609
4.012,0.02295
4.016,-0.01742
4.02,0.00889
4.024,-0.0087
4.028,0.00421
4.032,0.01654
4.036,-0.01064
4.04,0.01923
4.044,0.00924
4.048,0.00783
4.052,-0.00473
4.056,0.00487
4.06,-0.0003
4.064,0.01919
4.068,0.03804
4.072,0.0078
4.076,0.02595
4.08,-0.0066
4.084,0.04848
4.088,0.01735
4.092,0.01667
4.096,0.02837
4.1,0.05186
4.104,0.00743
4.108,0.03927
4.112,0.03383
4.116,0.04949
4.12,0.03929
4.124,0.07597
4.128,0.0489
4.132,0.0872
4.136,0.07493
4.14,0.11737
4.144,0.10718
4.148,0.11888
4.152,0.12159
4.156,0.17348
4.16,0.13686
4.164,0.153
4.168,0.20626
4.172,0.19081
4.176,0.16188
4.18,0.22909
4.184,0.21002
4.188,0.22129
4.192,0.2152
4.196,0.25198
4.2,0.22839
4.204,0.2518
4.208,0.22863
4.212,0.2407
4.216,0.23346
4.22,0.1901
4.224,0.21834
4.228,0.20916
4.232,0.17656
4.236,0.19022
4.24,0.15739
4.244,0.15213
4.248,0.13196
4.252,0.1031
4.256,0.10367
4.26,0.08954
4.264,0.10545
4.268,0.09409
4.272,0.09552
4.276,0.06916
4.28,0.0593
4.284,0.03092
4.288,0.02983
4.292,0.06061
4.296,0.05358
4.3,0.02107
4.304,0.0218
4.308,-0.00845
4.312,0.01235
4.316,0.02725
4.32,0.03433
4.324,0.00208
4.328,0.02906
4.332,-0.00828
4.336,-0.00484
4.34,0.02524
4.344,-0.01088
4.348,0.00642
4.352,-0.00731
4.356,0.02332
4.36,0.00854
4.364,0.01443
4.368,0.01411
4.372,0.00924
4.376,0.02657
4.38,0.01141
4.384,0.03915
4.388,0.01842
4.392,0.05291
4.396,0.0139
4.4,0.03927
4.404,0.01668
4.408,0.01545
4.412,0.05509
4.416,0.00244
4.42,0.01711
4.424,0.00285
4.428,-0.00785
4.432,0.0357
4.436,0.00492
4.44,0.03366
4.444,-0.00763
4.448,0.05473
4.452,0.0225
4.456,0.02712
4.46,0.02057
4.464,0.02051
4.468,0.01149
4.472,-0.00399
4.476,0.01023
4.48,0.03176
4.484,0.01602
4.488,0.02152
4.492,0.03122
4.496,0.01897
4.5,0.03021
4.504,0.06472
4.508,0.02486
4.512,0.02426
4.516,0.06354
4.52,0.0484
4.524,0.05079
4.528,0.07405
4.532,0.09995
4.536,0.12312
4.54,0.13144
4.544,0.11122
4.548,0.12441
4.552,0.10938
4.556,0.10256
4.56,0.10107
4.564,0.08381
4.568,0.07408
4.572,0.05257
4.576,0.0655
4.58,0.09774
4.584,0.05109
4.588,0.03565
4.592,0.03504
4.596,0.033
4.6,0.01864
4.604,0.02281
4.608,0.03584
4.612,0.04122
4.616,0.02121
4.62,0.03074
4.624,0.02463
4.628,0.02524
4.632,0.01263
4.636,0.0252
4.64,0.00953
4.644,0.03101
4.648,0.02626
4.652,0.02439
4.656,0.02046
4.66,-0.00882
4.664,-0.00074
4.668,-0.07236
4.672,-0.0671
4.676,-0.09267
4.68,-0.02517
4.684,0.0858
4.688,0.27028
4.692,0.44298
4.696,0.6724
4.7,0.89688
4.704,0.9884
4.708,1.02673
4.712,0.92232
4.716,0.7358
4.72,0.52918
4.724,0.28142
4.728,0.10544
4.732,-0.04929
4.736,-0.13859
4.74,-0.13922
4.744,-0.1178
4.748,-0.08029
4.752,-0.02574
4.756,0.00447
4.76,0.00277
4.764,0.03495
4.768,0.01476
4.772,0.04406
4.776,0.0058
4.78,0.03645
4.784,0.0122
4.788,0.02102
4.792,0.00449
4.796,0.02471
4.8,0.02473
4.804,0.0369
4.808,0.02325
4.812,0.01176
4.816,0.0279
4.82,0.03759
4.824,0.0133
4.828,0.04081
4.832,0.02142
4.836,0.02857
4.84,0.02745
4.844,0.0333
4.848,0.0384
4.852,0.02213
4.856,0.01927
4.86,0.02645
4.864,0.01716
4.868,0.03309
4.872,0.04852
4.876,0.05189
4.88,0.03098
4.884,0.03681
4.888,0.06321
4.892,0.03549
4.896,0.04558
4.9,0.08221
4.904,0.06566
4.908,0.09072
4.912,0.09771
4.916,0.12152
4.92,0.11077
4.924,0.08732
4.928,0.11475
4.932,0.11217
4.936,0.11871
4.94,0.14601
4.944,0.18693
4.948,0.17755
4.952,0.1813
4.956,0.22098
4.96,0.23421
4.964,0.21754
4.968,0.22517
4.972,0.23438
4.976,0.24066
4.98,0.22977
4.984,0.25941
4.988,0.23758
4.992,0.23312
4.996,0.23518
5.0,0.24086
5.004,0.2157
5.008,0.20707
5.012,0.23043
5.016,0.22431
5.02,0.21281
5.024,0.15476
5.028,0.21199
5.032,0.16988
5.036,0.15241
5.04,0.13714
5.044,0.13086
5.048,0.14476
5.052,0.09044
5.056,0.10384
5.06,0.11067
5.064,0.07245
5.068,0.08256
5.072,0.04986
5.076,0.07882
5.08,0.04267
5.084,0.07196
5.088,0.01667
5.092,0.04398
5.096,0.07252
5.1,0.08532
5.104,0.09669
5.108,0.10727
5.112,0.09733
5.116,0.11924
5.12,0.09908
5.124,0.14217
5.128,0.11961
5.132,0.12825
5.136,0.14439
5.14,0.10922
5.144,0.09779
5.148,0.1159
5.152,0.07408
5.156,0.04887
5.16,0.06244
5.164,0.06392
5.168,0.04435
5.172,0.04326
5.176,0.03938
5.18,0.03148
5.184,0.02981
5.188,0.03289
5.192,0.032
5.196,0.01203
5.2,0.03694
5.204,0.01976
5.208,0.05039
5.212,0.00991
5.216,0.03497
5.22,0.03146
5.224,0.01748
5.228,0.0218
5.232,0.00849
5.236,0.02204
5.24,0.02711
5.244,0.02304
5.248,-0.0202
5.252,-0.03986
5.256,-0.08696
5.26,-0.09964
5.264,-0.01813
5.268,0.06406
5.272,0.26977
5.276,0.4702
5.28,0.6814
5.284,0.89206
5.288,1.00266
5.292,1.01088
5.296,0.92049
5.3,0.76798
5.304,0.57739
5.308,0.30152
5.312,0.12022
5.316,-0.04532
5.32,-0.09116
5.324,-0.14778
5.328,-0.10506
5.332,-0.0915
5.336,-0.02625
5.34,-0.01436
5.344,0.01165
5.348,0.03477
5.352,-0.0011
5.356,0.03376
5.36,0.01645
5.364,0.0276
5.368,0.01849
5.372,0.04505
5.376,0.03256
5.38,0.00973
5.384,0.01381
5.388,0.01807
5.392,0.04419
5.396,0.00507
5.4,0.00527
5.404,0.0326
5.408,0.01101
5.412,0.02702
5.416,0.04124
5.42,0.02914
5.424,0.03642
5.428,0.01493
5.432,0.03633
5.436,0.04497
5.44,0.03013
5.444,0.03266
5.448,0.06617
5.452,0.00857
5.456,-0.00659
5.46,0.0363
5.464,0.04188
5.468,0.06352
5.472,0.06963
5.476,0.04311
5.48,0.06849
5.484,0.07804
5.488,0.08008
5.492,0.0888
5.496,0.06852
5.5,0.12386
5.504,0.08816
5.508,0.12501
5.512,0.1196
5.516,0.14136
5.52,0.16819
5.524,0.16621
5.528,0.16053
5.532,0.1651
5.536,0.19433
5.54,0.20128
5.544,0.20855
5.548,0.23811
5.552,0.24582
5.556,0.26084
5.56,0.26711
5.564,0.2358
5.568,0.23322
5.572,0.25797
5.576,0.24129
5.58,0.25757
5.584,0.26554
5.588,0.22723
5.592,0.23464
5.596,0.19186
5.6,0.20831
5.604,0.20778
5.608,0.20535
5.612,0.17537
5.616,0.20207
5.62,0.18058
5.624,0.15636
5.628,0.14697
5.632,0.12468
5.636,0.14917
5.64,0.13502
5.644,0.15449
5.648,0.15978
5.652,0.12383
5.656,0.14679
5.66,0.15152
5.664,0.1632
5.668,0.14812
5.672,0.15132
5.676,0.14201
5.68,0.11315
5.684,0.09467
5.688,0.0966
5.692,0.07773
5.696,0.05926
5.7,0.04529
5.704,0.0426
5.708,0.06276
5.712,0.04965
5.716,0.01631
5.72,0.00373
5.724,0.05372
5.728,0.01283
5.732,-0.01086
5.736,0.02066
5.74,0.04312
5.744,0.01687
5.748,0.05132
5.752,0.02274
5.756,0.03646
5.76,0.041
5.764,0.03113
5.768,0.03089
5.772,0.02503
5.776,0.01407
5.78,0.03095
5.784,-0.00405
5.788,-0.04642
5.792,-0.08475
5.796,-0.0468
5.8,-0.01076
5.804,0.15362
5.808,0.33663
5.812,0.52296
5.816,0.78037
5.82,0.93955
5.824,1.00443
5.828,0.99014
5.832,0.88982
5.836,0.67522
5.84,0.46923
5.844,0.22506
5.848,0.06427
5.852,-0.08758
5.856,-0.11975
5.86,-0.14801
5.864,-0.11252
5.868,-0.03878
5.872,-0.03092
5.876,0.01459
5.88,-0.00707
5.884,0.03202
5.888,0.00284
5.892,0.0327
5.896,0.01366
5.9,0.04459
5.904,0.03349
5.908,0.01419
5.912,0.00409
5.916,0.05952
5.92,-0.00412
5.924,0.03289
5.928,0.0378
5.932,0.0337
5.936,0.04551
5.94,0.01476
5.944,-0.00059
5.948,0.05212
5.952,0.03875
5.956,0.02026
5.96,0.02178
5.964,0.02597
5.968,0.02974
5.972,0.02309
5.976,0.0401
5.98,0.04501
5.984,0.04219
5.988,0.02522
5.992,0.03293
5.996,0.04931
6.0,0.02045
6.004,0.05178
6.008,0.01685
6.012,0.04166
6.016,0.07007
6.02,0.06496
6.024,0.06315
6.028,0.0768
6.032,0.10244
6.036,0.10244
6.04,0.11086
6.044,0.13467
6.048,0.12436
6.052,0.13575
6.056,0.10944
6.06,0.15273
6.064,0.19276
6.068,0.15029
6.072,0.19362
6.076,0.20975
6.08,0.1944
6.084,0.21115
6.088,0.24943
6.092,0.21151
6.096,0.20976
6.1,0.26389
6.104,0.23939
6.108,0.24235
6.112,0.22583
6.116,0.2406
6.12,0.22236
6.124,0.22763
6.128,0.21926
6.132,0.19774
6.136,0.19614
6.14,0.18964
6.144,0.15102
6.148,0.18908
6.152,0.13336
6.156,0.14254
6.16,0.1262
6.164,0.09066
6.168,0.11487
6.172,0.10918
6.176,0.0862
6.18,0.07793
6.184,0.0796
6.188,0.06558
6.192,0.0607
6.196,0.0412
6.2,0.03547
6.204,0.04015
6.208,0.04246
6.212,0.03255
6.216,0.01526
6.22,0.01829
6.224,0.0486
6.228,0.04093
6.232,0.00481
6.236,-0.00179
6.24,0.0313
6.244,0.01118
6.248,0.00965
6.252,0.00507
6.256,0.01882
6.26,0.01034
6.264,-0.00564
6.268,0.03126
6.272,0.03699
6.276,-0.00942
6.28,0.00827
6.284,0.01993
6.288,0.04727
6.292,0.03733
6.296,0.01418
6.3,0.00964
6.304,0.03692
6.308,0.04327
6.312,0.0282
6.316,0.01464
6.32,-0.00208
6.324,0.01237
6.328,0.00841
6.332,0.02036
6.336,0.02354
6.34,-0.00757
6.344,0.00034
6.348,0.01273
6.352,0.02062
6.356,0.00227
6.36,0.04514
6.364,0.00447
6.368,-0.00639
6.372,0.03817
6.376,0.02299
6.38,-0.01979
6.384,0.02238
6.388,0.01167
6.392,0.01262
6.396,-0.0112
6.4,0.03364
6.404,0.01788
6.408,0.00346
6.412,0.01313
6.416,0.013
6.42,0.03307
6.424,0.043
6.428,0.02734
6.432,0.06347
6.436,0.05931
6.44,0.09344
6.444,0.07729
6.448,0.07925
6.452,0.14515
6.456,0.12323
6.46,0.11357
6.464,0.12115
6.468,0.09187
6.472,0.1037
6.476,0.08702
6.48,0.06614
6.484,0.05283
6.488,0.04229
6.492,0.02255
6.496,0.05937
6.5,0.02388
6.504,0.01424
6.508,0.02497
6.512,0.0084
6.516,0.00783
6.52,0.02616
6.524,0.00813
6.528,0.01648
6.532,0.03621
6.536,0.01919
6.54,0.02581
6.544,0.01115
6.548,0.00497
6.552,0.04655
6.556,-0.00099
6.56,0.015
6.564,-0.01186
6.568,0.0175
6.572,-0.01855
6.576,-0.03766
6.58,-0.05478
6.584,-0.05992
6.588,-0.09011
6.592,-0.05035
6.596,0.02525
6.6,0.19521
6.604,0.37924
6.608,0.63079
6.612,0.81238
6.616,0.97149
6.62,1.00739
6.624,0.93572
6.628,0.77859
6.632,0.60693
6.636,0.34163
6.64,0.12784
6.644,0.00401
6.648,-0.10658
6.652,-0.17172
6.656,-0.15001
6.66,-0.09038
6.664,-0.05306
6.668,-0.02366
6.672,0.008
6.676,0.03569
6.68,-0.00085
6.684,-0.02006
6.688,0.00685
6.692,0.0186
6.696,0.00272
6.7,0.01363
6.704,0.00714
6.708,0.00489
6.712,0.00184
6.716,-0.01064
6.72,0.01206
6.724,0.00796
6.728,0.04118
6.732,-0.01879
6.736,-0.00626
6.74,0.02913
6.744,0.01476
6.748,0.01954
6.752,0.01064
6.756,-0.0056
6.76,0.03822
6.764,0.02613
6.768,0.04697
6.772,0.0275
6.776,-0.01744
6.78,0.01264
6.784,0.01887
6.788,0.02988
6.792,0.02205
6.796,-0.00212
6.8,0.04529
6.804,0.05473
6.808,0.0311
6.812,0.02145
6.816,0.0417
6.82,0.01991
6.824,0.08193
6.828,0.08393
6.832,0.05469
6.836,0.1162
6.84,0.11427
6.844,0.13047
6.848,0.13176
6.852,0.12493
6.856,0.15353
6.86,0.15611
6.864,0.17202
6.868,0.18995
6.872,0.1861
6.876,0.19839
6.88,0.21163
6.884,0.19017
6.888,0.20595
6.892,0.21561
6.896,0.21697
6.9,0.22841
6.904,0.20804
6.908,0.24814
6.912,0.25682
6.916,0.18457
6.92,0.20691
6.924,0.19595
6.928,0.19787
6.932,0.1792
6.936,0.18735
6.94,0.13043
6.944,0.14762
6.948,0.14916
6.952,0.11801
6.956,0.09404
6.96,0.0999
6.964,0.06179
6.968,0.06569
6.972,0.07043
6.976,0.053
6.98,0.04111
6.984,0.0486
6.988,0.0474
6.992,0.00462
6.996,0.05958
7.0,0.03925
7.004,0.01213
7.008,0.03464
7.012,0.02164
7.016,0.00578
7.02,0.03321
7.024,0.01606
7.028,0.0326
7.032,0.0292
7.036,0.00502
7.04,0.00212
7.044,0.01828
7.048,0.01888
7.052,0.01579
7.056,0.0297
7.06,0.0217
7.064,0.02489
7.068,0.05604
7.072,0.03582
7.076,0.05373
7.08,0.07347
7.084,0.09132
7.088,0.08508
7.092,0.11356
7.096,0.09508
7.1,0.09445
7.104,0.08925
7.108,0.08005
7.112,0.08487
7.116,0.05795
7.12,0.04413
7.124,0.01248
7.128,-0.01079
7.132,0.00631
7.136,0.00569
7.14,0.01001
7.144,-0.01522
7.148,-0.00028
7.152,-0.03187
7.156,-0.01943
7.16,0.00591
7.164,-0.01015
7.168,-0.01005
7.172,0.00016
7.176,0.00582
7.18,-0.01254
7.184,-0.02164
7.188,-0.01525
7.192,-0.00393
7.196,-0.0184
7.2,-0.00161
7.204,0.0057
7.208,-0.0161
7.212,-0.02581
7.216,-0.09608
7.22,-0.11851
7.224,-0.08669
7.228,-0.02609
7.232,0.1164
7.236,0.29083
7.24,0.50764
7.244,0.70097
7.248,0.89225
7.252,0.98725
7.256,0.97218
7.26,0.84634
7.264,0.64813
7.268,0.43634
7.272,0.19069
7.276,0.03615
7.28,-0.11286
7.284,-0.17608
7.288,-0.18258
7.292,-0.10552
7.296,-0.10962
7.3,-0.02992
7.304,-0.03065
7.308,-0.02714
7.312,-0.02021
7.316,0.00537
7.32,-0.01391
7.324,-0.00563
7.328,-0.00975
7.332,-0.01326
7.336,-0.01726
7.34,0.00124
7.344,0.01843
7.348,0.01402
7.352,-0.00553
7.356,-0.0047
7.36,-0.01238
7.364,0.0105
7.368,0.00375
7.372,-0.02488
7.376,0.00552
7.38,-0.01172
7.384,0.00146
7.388,-0.02502
7.392,-0.01266
7.396,-0.01634
7.4,0.00347
7.404,-0.02346
7.408,-0.02012
7.412,-0.01274
7.416,0.01637
7.42,-0.0117
7.424,0.02929
7.428,0.02507
7.432,0.01485
7.436,0.03398
7.44,-0.00822
7.444,0.03513
7.448,0.04275
7.452,0.04023
7.456,0.00783
7.46,0.05343
7.464,0.08054
7.468,0.06377
7.472,0.07006
7.476,0.07891
7.48,0.11257
7.484,0.09706
7.488,0.11238
7.492,0.11873
7.496,0.13229
7.5,0.14692
7.504,0.14922
7.508,0.17142
7.512,0.19179
7.516,0.18753
7.52,0.19301
7.524,0.20086
7.528,0.18339
7.532,0.20806
7.536,0.19382
7.54,0.21359
7.544,0.19483
7.548,0.20001
7.552,0.16574
7.556,0.1886
7.56,0.16439
7.564,0.16008
7.568,0.16311
7.572,0.13425
7.576,0.15121
7.58,0.09146
7.584,0.12646
7.588,0.08796
7.592,0.08479
7.596,0.06086
7.6,0.07073
7.604,0.04033
7.608,0.0546
7.612,0.03378
7.616,0.00755
7.62,0.00695
7.624,0.00262
7.628,0.01521
7.632,0.01587
7.636,0.02153
7.64,-0.0015
7.644,0.0133
7.648,0.00647
7.652,0.01894
7.656,0.00691
7.66,-0.01986
7.664,-0.03347
7.668,0.00094
7.672,-0.0053
7.676,-0.01477
7.68,-0.00196
7.684,-0.0237
7.688,-0.00629
7.692,-0.02231
7.696,-0.01377
7.7,0.00354
7.704,-0.02348
7.708,-0.03742
7.712,-0.02641
7.716,0.00236
7.72,-0.03621
7.724,-0.00666
7.728,-0.02316
7.732,0.00572
7.736,-0.02349
7.74,-0.01724
7.744,-0.0066
7.748,-0.00235
7.752,0.0043
7.756,0.03703
7.76,0.04459
7.764,0.04202
7.768,0.0327
7.772,0.05642
7.776,0.0631
7.78,0.04976
7.784,0.0807
7.788,0.11182
7.792,0.08129
7.796,0.07828
7.8,0.04741
7.804,0.03624
7.808,0.04928
7.812,0.01835
7.816,0.01816
7.82,0.02562
7.824,0.00958
7.828,-0.00796
7.832,-0.02889
7.836,-0.01414
7.84,-0.04164
7.844,-0.02276
7.848,-0.00882
7.852,-0.02874
7.856,-0.00884
7.86,-0.02826
7.864,0.00387
7.868,-0.03199
7.872,-0.03254
7.876,-0.04336
7.88,-0.03172
7.884,-0.0361
7.888,-0.01031
7.892,-0.00087
7.896,-0.02901
7.9,-0.03868
7.904,-0.07986
7.908,-0.12164
7.912,-0.1428
7.916,-0.13585
7.92,-0.06939
7.924,0.09887
7.928,0.29555
7.932,0.4963
7.936,0.70484
7.94,0.86854
7.944,0.97973
7.948,0.95939
7.952,0.82672
7.956,0.64868
7.96,0.40721
7.964,0.18654
7.968,0.01138
7.972,-0.12813
7.976,-0.20286
7.98,-0.18213
7.984,-0.1732
7.988,-0.11589
7.992,-0.09421
7.996,-0.04609
8.0,-0.03827
8.004,-0.02986
8.008,-0.00946
8.012,-0.01826
8.016,-0.02129
8.02,-0.02586
8.024,0.00587
8.028,-0.01038
8.032,-0.00743
8.036,-0.016
8.04,-0.02711
8.044,-0.03198
8.048,-0.05904
8.052,-0.04259
8.056,-0.02443
8.06,-0.02916
8.064,-0.03607
8.068,-0.04903
8.072,-0.03424
8.076,-0.03898
8.08,-0.01039
8.084,0.00267
8.088,-0.00546
8.092,-0.04907
8.096,-0.01692
8.1,-0.01783
8.104,-0.00834
8.108,-0.00299
8.112,-0.03629
8.116,-0.02387
8.12,-0.04155
8.124,0.01422
8.128,0.015
8.132,0.00429
8.136,0.02333
8.14,0.03024
8.144,0.02369
8.148,0.03543
8.152,0.01475
8.156,0.04258
8.16,0.04004
8.164,0.04792
8.168,0.06822
8.172,0.07033
8.176,0.11723
8.18,0.0988
8.184,0.13426
8.188,0.13775
8.192,0.16545
8.196,0.15104
8.2,0.16241
8.204,0.16034
8.208,0.21015
8.212,0.18442
8.216,0.18224
8.22,0.18772
8.224,0.2173
8.228,0.22797
8.232,0.17921
8.236,0.19376
8.24,0.16509
8.244,0.1921
8.248,0.1461
8.252,0.13945
8.256,0.1513
8.26,0.14678
8.264,0.10185
8.268,0.09626
8.272,0.08411
8.276,0.0946
8.28,0.07594
8.284,0.07827
8.288,0.06872
8.292,0.04159
8.296,0.05307
8.3,0.03036
8.304,0.02881
8.308,-0.0295
8.312,0.03275
8.316,0.01337
8.32,-0.01238
8.324,-0.01235
8.328,-0.00127
8.332,-0.01844
8.336,0.01361
8.34,-0.03168
8.344,-0.0176
8.348,-0.01387
8.352,-0.03414
8.356,-0.01333
8.36,-0.04351
8.364,0.0048
8.368,-0.0348
8.372,-0.01068
8.376,-0.0152
8.38,-0.04704
8.384,-0.02888
8.388,-0.00722
8.392,-0.04521
8.396,-0.01514
8.4,-0.02595
8.404,-0.04853
8.408,-0.02468
8.412,-0.03522
8.416,-0.03184
8.42,-0.05874
8.424,-0.04516
8.428,-0.02858
8.432,-0.03905
8.436,-0.04842
8.44,-0.01433
8.444,-0.03263
8.448,-0.02573
8.452,-0.02174
8.456,-0.0178
8.46,-0.03032
8.464,-0.03529
8.468,-0.04037
8.472,-0.05496
8.476,-0.02393
8.48,-0.03282
8.484,-0.03075
8.488,-0.02674
8.492,-0.00758
8.496,-0.03095
8.5,-0.03279
8.504,-0.03952
8.508,-0.03753
8.512,-0.01791
8.516,-0.02233
8.52,-0.03623
8.524,0.02726
8.528,-0.00974
8.532,-0.00454
8.536,-0.00106
8.54,-0.01852
8.544,0.01556
8.548,-0.00252
8.552,0.02798
8.556,0.02053
8.56,0.04492
8.564,0.07331
8.568,0.03685
8.572,0.07097
8.576,0.0807
8.58,0.06771
8.584,0.06949
8.588,0.06599
8.592,0.05968
8.596,0.01267
8.6,0.01665
8.604,0.02017
8.608,0.02267
8.612,-0.01066
8.616,0.00072
8.62,-0.02213
8.624,-0.05168
8.628,-0.04162
8.632,-0.04046
8.636,-0.04163
8.64,-0.00422
8.644,-0.03149
8.648,-0.02322
8.652,-0.02018
8.656,-0.04816
8.66,-0.03711
8.664,-0.03928
8.668,-0.03472
8.672,-0.01912
8.676,-0.01337
8.68,-0.00878
8.684,-0.02687
8.688,-0.04211
8.692,-0.04786
8.696,-0.09183
8.7,-0.14525
8.704,-0.12214
8.708,-0.10628
8.712,0.01164
8.716,0.13777
8.72,0.31236
8.724,0.56365
8.728,0.72568
8.732,0.91257
8.736,0.9843
8.74,0.91079
8.744,0.74963
8.748,0.57426
8.752,0.31071
8.756,0.11482
8.76,-0.04936
8.764,-0.15728
8.768,-0.21684
8.772,-0.21429
8.776,-0.17134
8.78,-0.10783
8.784,-0.06052
8.788,-0.02675
8.792,-0.00949
8.796,-0.03825
8.8,-0.00971
8.804,-0.0476
8.808,-0.02378
8.812,-0.02765
8.816,-0.01805
8.82,-0.02223
8.824,-0.04038
8.828,-0.04804
8.832,-0.00773
8.836,-0.01251
8.84,-0.03297
8.844,-0.00522
8.848,-0.02667
8.852,-0.01516
8.856,-0.0391
8.86,-0.01377
8.864,-0.0853
8.868,-0.04404
8.872,-0.02227
8.876,-0.02514
8.88,-0.01918
8.884,-0.01273
8.888,-0.02851
8.892,-0.03664
8.896,-0.01739
8.9,-0.02218
8.904,-0.00253
8.908,-0.01496
8.912,-0.02049
8.916,-0.02774
8.92,-0.00213
8.924,-0.01028
8.928,-0.01233
8.932,-0.00303
8.936,-0.0053
8.94,-0.00303
8.944,0.03619
8.948,0.04072
8.952,0.04831
8.956,0.0659
8.96,0.08443
8.964,0.09179
8.968,0.07975
8.972,0.10539
8.976,0.12664
8.98,0.13628
8.984,0.12782
8.988,0.15124
8.992,0.1575
8.996,0.16113
9.0,0.19922
9.004,0.20162
9.008,0.17809
9.012,0.22048
9.016,0.19014
9.02,0.18908
9.024,0.18449
9.028,0.17753
9.032,0.19176
9.036,0.14593
9.04,0.18066
9.044,0.14419
9.048,0.1701
9.052,0.14866
9.056,0.11928
9.06,0.10544
9.064,0.11645
9.068,0.09783
9.072,0.06044
9.076,0.07194
9.08,0.02924
9.084,0.04226
9.088,0.04603
9.092,0.01379
9.096,0.01668
9.1,0.00286
9.104,0.01353
9.108,-0.00644
9.112,-0.03282
9.116,-0.02169
9.12,-0.01311
9.124,-0.00747
9.128,-0.0036
9.132,-0.0077
9.136,-0.01504
9.14,-0.02794
9.144,-0.03771
9.148,-0.03752
9.152,0.01267
9.156,-0.03744
9.16,-0.03509
9.164,-0.03264
9.168,-0.05128
9.172,-0.04056
9.176,-0.02177
9.18,-0.00825
9.184,-0.03966
9.188,-0.02505
9.192,-0.02168
9.196,-0.02757
9.2,-0.01767
9.204,-0.05895
9.208,-0.01722
9.212,-0.03716
9.216,-0.04535
9.22,-0.01026
9.224,-0.05717
9.228,-0.04927
9.232,-0.02399
9.236,-0.05215
9.24,-0.02201
9.244,-0.01187
9.248,-0.02053
9.252,0.01745
9.256,0.00212
9.26,-0.02551
9.264,-0.00844
9.268,0.0294
9.272,0.02945
9.276,0.02611
9.28,0.0337
9.284,0.0313
9.288,0.05143
9.292,0.04855
9.296,0.082
9.3,0.0824
9.304,0.06575
9.308,0.06966
9.312,0.0837
9.316,0.02773
9.32,0.01498
9.324,0.03052
9.328,-0.01108
9.332,0.0045
9.336,-0.03559
9.34,-0.02276
9.344,-0.02756
9.348,-0.03937
9.352,-0.02717
9.356,-0.02635
9.36,-0.02323
9.364,-0.03198
9.368,-0.02939
9.372,-0.016
9.376,-0.02107
9.38,-0.01777
9.384,-0.02985
9.388,-0.02097
9.392,-0.04124
9.396,-0.02067
9.4,-0.04875
9.404,-0.03496
9.408,-0.03658
9.412,-0.05705
9.416,-0.11373
9.42,-0.13647
9.424,-0.14441
9.428,-0.10178
9.432,0.0447
9.436,0.22963
9.44,0.43584
9.444,0.62848
9.448,0.85342
9.452,0.92908
9.456,0.97663
9.46,0.87707
9.464,0.68541
9.468,0.45833
9.472,0.24453
9.476,0.05448
9.48,-0.099
9.484,-0.18423
9.488,-0.1895
9.492,-0.1801
9.496,-0.09469
9.5,-0.07238
9.504,-0.0802
9.508,-0.04754
9.512,-0.04036
9.516,-0.02187
9.52,-0.06
9.524,-0.01718
9.528,-0.01569
9.532,-0.03218
9.536,-0.04784
9.54,-0.01334
9.544,-0.03216
9.548,-0.04446
9.552,-0.02567
9.556,-0.04138
9.56,-0.00945
9.564,-0.00727
9.568,-0.00864
9.572,0.00288
9.576,-0.03837
9.58,-0.0081
9.584,-0.04174
9.588,-0.00797
9.592,-0.02614
9.596,-0.02084
9.6,-0.03246
9.604,-0.02131
9.608,-0.05441
9.612,-0.03737
9.616,-0.03449
9.62,-0.0265
9.624,-0.02264
9.628,-0.0054
9.632,0.01902
9.636,-0.02029
9.64,0.00378
9.644,0.01433
9.648,0.03724
9.652,0.00173
9.656,0.03338
9.66,0.04391
9.664,0.04758
9.668,0.05517
9.672,0.04243
9.676,0.07028
9.68,0.07037
9.684,0.08189
9.688,0.11145
9.692,0.08087
9.696,0.1417
9.7,0.14845
9.704,0.16307
9.708,0.17985
9.712,0.17991
9.716,0.17182
9.72,0.16441
9.724,0.19795
9.728,0.19614
9.732,0.19443
9.736,0.21255
9.74,0.20284
9.744,0.20536
9.748,0.20906
9.752,0.16668
9.756,0.18456
9.76,0.16707
9.764,0.16572
9.768,0.11644
9.772,0.1496
9.776,0.11372
9.78,0.13418
9.784,0.08243
9.788,0.10919
9.792,0.08409
9.796,0.07443
9.8,0.06797
9.804,0.04298
9.808,0.01058
9.812,0.02323
9.816,0.02805
9.82,0.00516
9.824,-0.00102
9.828,-0.01344
9.832,0.01117
9.836,0.01429
9.84,0.00395
9.844,-0.01972
9.848,-0.00731
9.852,0.00964
9.856,-0.01584
9.86,-0.02134
9.864,0.01691
9.868,-0.0234
9.872,-0.0006
9.876,0.00117
9.88,0.01238
9.884,0.01374
9.888,-0.0205
9.892,-0.00957
9.896,-0.02629
9.9,-0.01561
9.904,0.01579
9.908,-0.0345
9.912,0.00616
9.916,0.00094
9.92,-0.02072
9.924,-0.00462
9.928,-0.02547
9.932,-0.0034
9.936,-0.01109
9.94,0.00251
9.944,-0.00835
9.948,-0.01172
9.952,-0.03965
9.956,0.00152
9.96,-0.02548
9.964,0.02203
9.968,0.00143
9.972,-0.03636
9.976,-0.02915
9.98,-0.00272
9.984,-0.01319
9.988,-0.01445
9.992,-0.00724
9.996,-0.03559
