t_seg,ecg_mV
0.0,-0.02607
0.004,0.00431
0.008,-0.00153
0.012,0.01512
0.016,0.01283
0.02,0.03693
0.024,0.03628
0.028,0.03974
0.032,0.03102
0.036,0.03547
0.04,0.03021
0.044,0.01622
0.048,0.02795
0.052,0.02487
0.056,0.00823
0.06,0.01344
0.064,0.00657
0.068,0.0287
0.072,-0.00337
0.076,0.00738
0.08,0.03267
0.084,0.00804
0.088,0.04321
0.092,0.02438
0.096,-0.01437
0.1,-0.01631
0.104,0.02929
0.108,0.00801
0.112,-0.00079
0.116,0.01408
0.12,0.03363
0.124,0.0101
0.128,-0.00487
0.132,0.02911
0.136,-0.0032
0.14,-0.00194
0.144,0.03853
0.148,0.01663
0.152,-0.00346
0.156,-0.00023
0.16,0.01892
0.164,0.01962
0.168,-0.03477
0.172,0.02953
0.176,-0.0096
0.18,0.00495
0.184,0.01334
0.188,-0.00246
0.192,0.00718
0.196,0.00964
0.2,0.00953
0.204,-0.01338
0.208,-0.02403
0.212,0.02485
0.216,0.02589
0.22,0.02142
0.224,0.00818
0.228,0.00364
0.232,-0.01268
0.236,0.02462
0.24,0.00725
0.244,-0.00996
0.248,-0.0163
0.252,-0.01397
0.256,-0.00561
0.26,0.04311
0.264,-0.01505
0.268,-0.01875
0.272,0.00601
0.276,0.00685
0.28,0.0104
0.284,0.01386
0.288,0.0111
0.292,0.00067
0.296,0.00431
0.3,-0.00688
0.304,-0.00752
0.308,-0.00543
0.312,0.00404
0.316,-0.00976
0.32,-0.0115
0.324,-0.00967
0.328,0.00575
0.332,0.01191
0.336,-0.02001
0.34,0.0019
0.344,-0.01642
0.348,-0.00476
0.352,-0.00246
0.356,0.00919
0.36,0.00233
0.364,0.00748
0.368,-0.02072
0.372,0.00293
0.376,-0.003
0.38,0.01165
0.384,0.00259
0.388,0.01086
0.392,-0.00104
0.396,0.02217
0.4,0.01811
0.404,0.02018
0.408,0.0621
0.412,0.03115
0.416,0.0787
0.42,0.08852
0.424,0.07699
0.428,0.08249
0.432,0.11311
0.436,0.09295
0.44,0.102
0.444,0.07804
0.448,0.09028
0.452,0.07832
0.456,0.04697
0.46,0.01789
0.464,0.03874
0.468,0.01506
0.472,0.02993
0.476,0.00225
0.48,0.00049
0.484,0.01407
0.488,0.00275
0.492,0.01549
0.496,0.01691
0.5,0.03062
0.504,0.02142
0.508,-0.00227
0.512,-0.0098
0.516,0.00255
0.52,0.01188
0.524,-0.00344
0.528,0.00429
0.532,0.01101
0.536,0.01214
0.54,-0.00379
0.544,0.02837
0.548,-0.00609
0.552,-0.03295
0.556,-0.08831
0.56,-0.10488
0.564,-0.11392
0.568,-0.07768
0.572,0.00503
0.576,0.17827
0.58,0.39401
0.584,0.5703
0.588,0.78786
0.592,0.95995
0.596,0.98076
0.6,0.95407
0.604,0.80401
0.608,0.58313
0.612,0.30597
0.616,0.12471
0.62,-0.03906
0.624,-0.11132
0.628,-0.1873
0.632,-0.16
0.636,-0.12518
0.64,-0.05739
0.644,-0.05635
0.648,-0.00755
0.652,-0.01167
0.656,-0.01445
0.66,-0.02015
0.664,-0.03306
0.668,0.00805
0.672,-0.02291
0.676,-0.00236
0.68,-0.02252
0.684,0.01197
0.688,-0.014
0.692,0.03719
0.696,-0.02003
0.7,-0.01594
0.704,-0.02674
0.708,-0.01866
0.712,-0.01151
0.716,-0.02409
0.72,-0.00886
0.724,0.01503
0.728,-0.02633
0.732,-0.01361
0.736,-0.02689
0.74,0.01843
0.744,-0.0036
0.748,-0.00654
0.752,0.00263
0.756,-0.0039
0.76,-0.00969
0.764,-0.02135
0.768,-0.01392
0.772,0.00601
0.776,0.00534
0.78,-0.01001
0.784,0.00806
0.788,0.04364
0.792,0.01094
0.796,0.03163
0.8,0.02569
0.804,0.06486
0.808,0.0519
0.812,0.07852
0.816,0.06503
0.82,0.08299
0.824,0.09901
0.828,0.1323
0.832,0.1072
0.836,0.13541
0.84,0.13775
0.844,0.15296
0.848,0.17313
0.852,0.17099
0.856,0.17373
0.86,0.17488
0.864,0.19467
0.868,0.19137
0.872,0.21494
0.876,0.22754
0.88,0.21995
0.884,0.18227
0.888,0.22613
0.892,0.20143
0.896,0.16664
0.9,0.16155
0.904,0.1768
0.908,0.1772
0.912,0.12069
0.916,0.12497
0.92,0.11489
0.924,0.09669
0.928,0.10527
0.932,0.07246
0.936,0.07613
0.94,0.0652
0.944,0.0644
0.948,0.02899
0.952,0.0404
0.956,0.0267
0.96,0.01836
0.964,-0.00034
0.968,0.03821
0.972,-0.01071
0.976,-0.02751
0.98,0.02634
0.984,0.01698
0.988,-0.02177
0.992,-0.01301
0.996,-0.00793
1.0,0.01337
1.004,-0.0214
1.008,-0.00024
1.012,0.00361
1.016,-0.00429
1.02,0.014
1.024,-0.03203
1.028,-0.01296
1.032,-0.01038
1.036,-0.01513
1.04,0.0088
1.044,0.00864
1.048,-0.01156
1.052,-0.0352
1.056,-0.01545
1.06,-0.00641
1.064,-0.03005
1.068,-0.04724
1.072,-0.01058
1.076,-0.02315
1.08,-0.02965
1.084,-0.03271
1.088,-0.01676
1.092,-0.0451
1.096,-0.00419
1.1,-0.01962
1.104,-0.02065
1.108,-0.02159
1.112,0.00276
1.116,-0.01077
1.12,-0.00969
1.124,0.00639
1.128,-0.00705
1.132,-0.02109
1.136,-0.01913
1.14,-0.03132
1.144,-0.04654
1.148,-0.03496
1.152,-0.03274
1.156,-0.03581
1.16,-0.02965
1.164,-0.0124
1.168,-0.0038
1.172,-0.02183
1.176,-0.034
1.18,-0.02161
1.184,-0.01671
1.188,-0.0402
1.192,-0.01706
1.196,-0.03429
1.2,-0.01264
1.204,-0.02099
1.208,-0.02267
1.212,-0.03858
1.216,-0.0278
1.22,-0.02003
1.224,-0.01772
1.228,-0.03646
1.232,-0.02601
1.236,-0.02443
1.24,-0.00147
1.244,-0.01933
1.248,-0.01695
1.252,-0.00772
1.256,-0.04495
1.26,-0.00165
1.264,-0.00554
1.268,-0.02162
1.272,-0.02649
1.276,-0.00405
1.28,-0.01095
1.284,-0.02034
1.288,-0.0135
1.292,-0.0079
1.296,-0.00437
1.3,-0.04387
1.304,-0.03165
1.308,-0.03353
1.312,-0.00864
1.316,-0.01607
1.32,0.00107
1.324,-0.01751
1.328,-0.00585
1.332,0.03517
1.336,0.02535
1.34,0.01667
1.344,0.0602
1.348,0.06549
1.352,0.07475
1.356,0.0483
1.36,0.06833
1.364,0.07739
1.368,0.06575
1.372,0.04041
1.376,0.04195
1.38,0.05343
1.384,0.03329
1.388,0.01516
1.392,-0.00371
1.396,0.00676
1.4,-0.02206
1.404,-0.03523
1.408,-0.00679
1.412,-0.01883
1.416,-0.03874
1.42,-0.03667
1.424,-0.00615
1.428,-0.03633
1.432,-0.0217
1.436,-0.01751
1.44,-0.0223
1.444,-0.01684
1.448,-0.01687
1.452,-0.01507
1.456,-0.01177
1.46,-0.01376
1.464,-0.03611
1.468,-0.01884
1.472,-0.04689
1.476,-0.04355
1.48,-0.09182
1.484,-0.12369
1.488,-0.16489
1.492,-0.07539
1.496,0.04101
1.5,0.20302
1.504,0.36768
1.508,0.58162
1.512,0.77127
1.516,0.93287
1.52,0.97791
1.524,0.9061
1.528,0.71402
1.532,0.49812
1.536,0.28537
1.54,0.05439
1.544,-0.09103
1.548,-0.16183
1.552,-0.20113
1.556,-0.19286
1.56,-0.11922
1.564,-0.09789
1.568,-0.07194
1.572,-0.04579
1.576,-0.04732
1.58,-0.04442
1.584,-0.01143
1.588,-0.01271
1.592,-0.04672
1.596,-0.02752
1.6,-0.0555
1.604,-0.03454
1.608,-0.04404
1.612,-0.02879
1.616,-0.0219
1.62,-0.04192
1.624,-0.06217
1.628,-0.03491
1.632,-0.01034
1.636,-0.00792
1.64,-0.01574
1.644,-0.00862
1.648,-0.00736
1.652,-0.04166
1.656,-0.04073
1.66,-0.02619
1.664,-0.02143
1.668,-0.01134
1.672,-0.01463
1.676,0.00244
1.68,0.02482
1.684,-0.0275
1.688,-0.03889
1.692,-0.00322
1.696,-0.00048
1.7,-0.01883
1.704,0.01202
1.708,-0.00667
1.712,0.01005
1.716,0.00988
1.72,0.00767
1.724,0.01467
1.728,0.04006
1.732,0.02184
1.736,0.06329
1.74,0.06487
1.744,0.05912
1.748,0.05879
1.752,0.11786
1.756,0.11432
1.76,0.11432
1.764,0.12716
1.768,0.13527
1.772,0.15294
1.776,0.13897
1.78,0.17354
1.784,0.1759
1.788,0.18997
1.792,0.19474
1.796,0.20099
1.8,0.19419
1.804,0.18604
1.808,0.20951
1.812,0.19191
1.816,0.16604
1.82,0.16286
1.824,0.18018
1.828,0.1587
1.832,0.14856
1.836,0.14435
1.84,0.06829
1.844,0.12455
1.848,0.07166
1.852,0.10025
1.856,0.05748
1.86,0.06284
1.864,0.05541
1.868,0.03624
1.872,0.0219
1.876,0.01545
1.88,0.03017
1.884,-0.00296
1.888,0.01196
1.892,-0.00546
1.896,-0.0188
1.9,0.00723
1.904,-0.01952
1.908,-0.03079
1.912,-0.03082
1.916,-0.04371
1.92,-0.03137
1.924,-0.02878
1.928,-0.00082
1.932,-0.0111
1.936,-0.02049
1.94,-0.04016
1.944,-0.00666
1.948,-0.04365
1.952,-0.02957
1.956,-0.01488
1.96,-0.03489
1.964,-0.03312
1.968,-0.04695
1.972,-0.0453
1.976,-0.03885
1.98,-0.03076
1.984,-0.02119
1.988,-0.00248
1.992,-0.00582
1.996,-0.01489
2.0,-0.04514
2.004,-0.02934
2.008,0.00787
2.012,-0.02927
2.016,-0.02586
2.02,-0.03266
2.024,-0.00547
2.028,-0.0332
2.032,-0.03025
2.036,-0.01823
2.04,-0.02315
2.044,-0.0228
2.048,-0.03856
2.052,-0.02154
2.056,-0.02393
2.06,-0.0371
2.064,-0.03713
2.068,-0.04523
2.072,-0.03837
2.076,-0.01044
2.08,-0.02989
2.084,-0.02265
2.088,-0.04987
2.092,-0.04177
2.096,-0.00643
2.1,0.00599
2.104,-0.02778
2.108,-0.00642
2.112,-0.03702
2.116,-0.03439
2.12,0.00212
2.124,-0.05282
2.128,-0.03542
2.132,-0.02557
2.136,-0.01414
2.14,-0.05658
2.144,-0.04146
2.148,-0.03572
2.152,-0.02133
2.156,-0.03795
2.16,-0.04089
2.164,-0.03375
2.168,-0.04099
2.172,-0.03575
2.176,-0.03744
2.18,-0.01744
2.184,-0.05495
2.188,-0.01554
2.192,-0.04718
2.196,-0.02564
2.2,-0.0086
2.204,-0.01843
2.208,-0.04948
2.212,-0.03474
2.216,-0.06784
2.22,-0.0398
2.224,-0.02999
2.228,0.00015
2.232,-0.04794
2.236,-0.01874
2.24,-0.02623
2.244,-0.00655
2.248,-0.042
2.252,-0.04286
2.256,-0.01328
2.26,-0.05667
2.264,-0.02998
2.268,-0.04397
2.272,-0.05466
2.276,-0.01908
2.28,-0.01561
2.284,-0.00549
2.288,-0.01209
2.292,0.00028
2.296,0.03364
2.3,0.01415
2.304,0.05275
2.308,0.03554
2.312,0.06285
2.316,0.07263
2.32,0.05565
2.324,0.05908
2.328,0.08509
2.332,0.06544
2.336,0.03148
2.34,0.01465
2.344,-0.02516
2.348,-0.01197
2.352,-0.01736
2.356,0.00077
2.36,-0.01604
2.364,-0.01773
2.368,-0.02194
2.372,-0.01822
2.376,-0.0551
2.38,-0.0126
2.384,-0.02619
2.388,-0.06325
2.392,-0.0179
2.396,-0.02167
2.4,-0.02324
2.404,-0.00902
2.408,-0.02518
2.412,-0.03798
2.416,-0.03462
2.42,-0.03019
2.424,-0.0299
2.428,-0.06795
2.432,-0.06341
2.436,-0.0832
2.44,-0.12588
2.444,-0.15065
2.448,-0.11864
2.452,-0.05867
2.456,0.03634
2.46,0.20411
2.464,0.43654
2.468,0.65838
2.472,0.84307
2.476,0.93765
2.48,0.95427
2.484,0.85936
2.488,0.6871
2.492,0.4435
2.496,0.25695
2.5,0.0498
2.504,-0.11802
2.508,-0.17623
2.512,-0.1572
2.516,-0.16791
2.52,-0.11086
2.524,-0.08166
2.528,-0.06226
2.532,-0.03076
2.536,-0.02913
2.54,-0.02613
2.544,-0.02369
2.548,-0.00623
2.552,-0.01659
2.556,-0.00846
2.56,-0.05845
2.564,-0.02126
2.568,-0.02123
2.572,-0.05732
2.576,-0.0146
2.58,-0.02595
2.584,-0.02341
2.588,-0.04053
2.592,-0.02878
2.596,-0.01739
2.6,-0.0139
2.604,-0.02159
2.608,-0.03023
2.612,-0.0133
2.616,-0.03855
2.62,-0.03546
2.624,-0.03221
2.628,-0.0023
2.632,-0.02575
2.636,-0.02719
2.64,-0.04099
2.644,-0.02036
2.648,-0.00191
2.652,0.00154
2.656,0.00148
2.66,-0.01339
2.664,-0.01954
2.668,0.00291
2.672,0.03172
2.676,-0.00945
2.68,0.01724
2.684,0.05915
2.688,0.03369
2.692,0.07595
2.696,0.07192
2.7,0.06713
2.704,0.08041
2.708,0.10209
2.712,0.09449
2.716,0.09825
2.72,0.15158
2.724,0.14055
2.728,0.12677
2.732,0.14744
2.736,0.15406
2.74,0.19606
2.744,0.15417
2.748,0.18243
2.752,0.1967
2.756,0.17857
2.76,0.20971
2.764,0.19643
2.768,0.17272
2.772,0.1926
2.776,0.18205
2.78,0.16381
2.784,0.18363
2.788,0.18723
2.792,0.09404
2.796,0.11001
2.8,0.12221
2.804,0.09872
2.808,0.09919
2.812,0.08496
2.816,0.06499
2.82,0.06583
2.824,0.02504
2.828,0.04546
2.832,0.03105
2.836,0.02429
2.84,0.00518
2.844,-0.0156
2.848,-0.00112
2.852,0.02996
2.856,0.00735
2.86,0.00807
2.864,0.02524
2.868,-0.02405
2.872,0.00086
2.876,-0.02958
2.88,-0.02378
2.884,-0.00163
2.888,-0.03431
2.892,-0.02004
2.896,-0.0412
2.9,-0.03344
2.904,-0.02132
2.908,-0.03245
2.912,-0.02256
2.916,-0.00768
2.92,-0.03456
2.924,-0.03364
2.928,-0.00722
2.932,-0.00588
2.936,0.00238
2.94,-0.01142
2.944,-0.01567
2.948,-0.0367
2.952,-0.00091
2.956,-0.0204
2.96,-0.02939
2.964,-0.02105
2.968,-0.03318
2.972,-0.02524
2.976,-0.02343
2.98,-0.00431
2.984,-0.00984
2.988,-0.01151
2.992,-0.0142
2.996,-0.01486
3.0,0.01665
3.004,-0.00431
3.008,-0.03363
3.012,-0.02843
3.016,-0.00223
3.02,-0.01613
3.024,-0.0249
3.028,-0.02403
3.032,-0.03218
3.036,-0.02724
3.04,0.0016
3.044,0.00448
3.048,-0.02903
3.052,-0.01031
3.056,-0.01336
3.06,-0.02894
3.064,0.00175
3.068,-0.01015
3.072,0.00889
3.076,-0.0024
3.08,0.01584
3.084,0.02351
3.088,0.0273
3.092,0.05049
3.096,0.06311
3.1,0.05108
3.104,0.06674
3.108,0.0718
3.112,0.0771
3.116,0.09471
3.12,0.07818
3.124,0.08073
3.128,0.04613
3.132,0.04214
3.136,0.0414
3.14,0.00737
3.144,0.0148
3.148,0.00317
3.152,-0.02037
3.156,-0.00767
3.16,-0.0056
3.164,0.00744
3.168,-0.00385
3.172,0.00145
3.176,-0.0073
3.18,-0.00215
3.184,-0.0231
3.188,-0.00876
3.192,-0.01522
3.196,0.00606
3.2,-0.00308
3.204,-0.02537
3.208,-0.0261
3.212,-0.01202
3.216,-0.03028
3.22,-0.01238
3.224,-0.03641
3.228,-0.04199
3.232,-0.0918
3.236,-0.11932
3.24,-0.13562
3.244,-0.12183
3.248,0.0157
3.252,0.20595
3.256,0.43444
3.26,0.61354
3.264,0.83087
3.268,0.94874
3.272,0.99178
3.276,0.89817
3.28,0.74502
3.284,0.52914
3.288,0.28208
3.292,0.06913
3.296,-0.08202
3.3,-0.16548
3.304,-0.18906
3.308,-0.15142
3.312,-0.12159
3.316,-0.07717
3.32,-0.05373
3.324,-0.02703
3.328,-0.01575
3.332,-0.00759
3.336,-0.01657
3.34,-0.0171
3.344,-0.02101
3.348,-0.02074
3.352,-0.01516
3.356,-0.02306
3.36,-0.01157
3.364,-0.01489
3.368,-0.00024
3.372,0.03312
3.376,-0.00577
3.38,0.00387
3.384,-0.03269
3.388,-0.0139
3.392,-0.02866
3.396,-0.01855
3.4,0.00604
3.404,-0.00147
3.408,0.0191
3.412,-0.03197
3.416,-0.02062
3.42,-0.01064
3.424,0.01278
3.428,-0.00263
3.432,-0.02841
3.436,0.0106
3.44,0.01911
3.444,0.02713
3.448,0.03192
3.452,0.00406
3.456,0.01491
3.46,0.03016
3.464,0.03579
3.468,0.01341
3.472,0.06585
3.476,0.05191
3.48,0.06847
3.484,0.04583
3.488,0.07878
3.492,0.07264
3.496,0.07716
3.5,0.12062
3.504,0.11347
3.508,0.13357
3.512,0.13016
3.516,0.14129
3.52,0.17453
3.524,0.1807
3.528,0.21076
3.532,0.1921
3.536,0.19312
3.54,0.19371
3.544,0.25162
3.548,0.2166
3.552,0.24519
3.556,0.22416
3.56,0.20305
3.564,0.19207
3.568,0.20611
3.572,0.18999
3.576,0.18574
3.58,0.18005
3.584,0.16207
3.588,0.17017
3.592,0.11321
3.596,0.14291
3.6,0.12596
3.604,0.11145
3.608,0.11672
3.612,0.06627
3.616,0.09112
3.62,0.06157
3.624,0.04993
3.628,0.03767
3.632,0.05829
3.636,0.05008
3.64,0.01258
3.644,0.02909
3.648,0.02146
3.652,0.00851
3.656,0.02406
3.66,0.00774
3.664,0.01672
3.668,0.01672
3.672,-0.00123
3.676,-0.01014
3.68,0.01731
3.684,0.02021
3.688,-0.02431
3.692,0.01307
3.696,-0.00057
3.7,0.00285
3.704,0.00476
3.708,-0.00775
3.712,0.01482
3.716,-0.00391
3.72,0.03685
3.724,-0.00342
3.728,0.0037
3.732,-0.01528
3.736,-0.03354
3.74,0.01655
3.744,-0.00425
3.748,0.0039
3.752,-0.0108
3.756,0.00136
3.76,-0.001
3.764,-0.00303
3.768,-0.02083
3.772,-0.01185
3.776,-0.00688
3.78,-0.00472
3.784,-0.01174
3.788,-0.00237
3.792,-0.01816
3.796,0.00217
3.8,0.01165
3.804,0.01617
3.808,-0.00032
3.812,-0.00743
3.816,0.00856
3.82,-0.01318
3.824,0.0148
3.828,-0.00947
3.832,-0.00122
3.836,-0.00387
3.84,-0.01521
3.844,0.00722
3.848,0.01191
3.852,0.02109
3.856,0.00934
3.86,0.02629
3.864,0.01842
3.868,0.0067
3.872,0.00901
3.876,0.00308
3.88,-0.0047
3.884,-0.00078
3.888,0.01738
3.892,0.00373
3.896,0.00576
3.9,-0.00179
3.904,0.01839
3.908,0.02441
3.912,0.01468
3.916,-0.03016
3.92,-0.01483
3.924,0.03645
3.928,-0.0071
3.932,0.02039
3.936,0.02963
3.94,0.05275
3.944,0.0557
3.948,0.02112
3.952,0.06095
3.956,0.08705
3.96,0.06444
3.964,0.11116
3.968,0.08747
3.972,0.14505
3.976,0.08072
3.98,0.09942
3.984,0.08608
3.988,0.086
3.992,0.06719
3.996,0.05818
4.0,0.03258
4.004,0.06514
4.008,0.02202
4.012,-0.01048
4.016,0.02263
4.02,0.01173
4.024,0.00557
4.028,0.02424
4.032,0.00998
4.036,0.0055
4.04,-0.01226
4.044,-0.01599
4.048,-0.00909
4.052,0.01956
4.056,0.01108
4.06,-0.00831
4.064,0.00369
4.068,0.00534
4.072,0.00728
4.076,0.00453
4.08,0.0118
4.084,0.02376
4.088,-0.04189
4.092,-0.05693
4.096,-0.11186
4.1,-0.11116
4.104,-0.05058
4.108,0.02593
4.112,0.17344
4.116,0.38919
4.12,0.60766
4.124,0.84931
4.128,0.95849
4.132,1.02381
4.136,0.949
4.14,0.79816
4.144,0.56783
4.148,0.33425
4.152,0.13464
4.156,-0.00921
4.16,-0.126
4.164,-0.17337
4.168,-0.13045
4.172,-0.10117
4.176,-0.087
4.18,-0.03154
4.184,-0.00562
4.188,0.00717
4.192,-0.00134
4.196,0.02835
4.2,0.0248
4.204,0.0357
4.208,0.00092
4.212,0.02606
4.216,0.01342
4.22,-0.00191
4.224,0.01124
4.228,0.03551
4.232,0.05097
4.236,0.04071
4.24,0.02298
4.244,-0.02791
4.248,0.01742
4.252,0.01502
4.256,0.01199
4.26,0.00963
4.264,0.01972
4.268,0.00599
4.272,0.04008
4.276,-0.00798
4.28,0.01645
4.284,0.04682
4.288,0.03585
4.292,0.00315
4.296,0.03051
4.3,0.03847
4.304,0.02541
4.308,0.01961
4.312,0.03328
4.316,0.03129
4.32,0.04798
4.324,0.0304
4.328,0.06993
4.332,0.03143
4.336,0.05875
4.34,0.0968
4.344,0.09366
4.348,0.09125
4.352,0.08113
4.356,0.09902
4.36,0.1596
4.364,0.13589
4.368,0.1739
4.372,0.17854
4.376,0.17223
4.38,0.1902
4.384,0.18384
4.388,0.20911
4.392,0.21544
4.396,0.2279
4.4,0.24118
4.404,0.24211
4.408,0.24128
4.412,0.20395
4.416,0.22453
4.42,0.23692
4.424,0.22441
4.428,0.2409
4.432,0.20459
4.436,0.1903
4.44,0.20462
4.444,0.22272
4.448,0.19099
4.452,0.15372
4.456,0.15315
4.46,0.13249
4.464,0.10467
4.468,0.13278
4.472,0.12594
4.476,0.11139
4.48,0.09508
4.484,0.10648
4.488,0.07372
4.492,0.03431
4.496,0.07589
4.5,0.07456
4.504,0.03722
4.508,0.03154
4.512,0.03911
4.516,0.01505
4.52,0.04168
4.524,0.03755
4.528,0.0283
4.532,0.03303
4.536,0.0456
4.54,0.01962
4.544,0.05085
4.548,0.0421
4.552,0.01915
4.556,0.01622
4.56,0.02216
4.564,0.01187
4.568,0.02597
4.572,0.00179
4.576,0.0451
4.58,0.03855
4.584,0.04192
4.588,0.03065
4.592,0.02277
4.596,0.03836
4.6,0.00935
4.604,0.01962
4.608,0.01107
4.612,0.02077
4.616,0.01933
4.62,-0.00508
4.624,0.00544
4.628,0.01729
4.632,0.02778
4.636,0.04916
4.64,0.05022
4.644,0.02488
4.648,0.0112
4.652,0.02531
4.656,0.00824
4.66,0.0139
4.664,0.01433
4.668,0.0023
4.672,0.02877
4.676,0.03919
4.68,0.01319
4.684,0.03838
4.688,0.0039
4.692,0.02002
4.696,0.04146
4.7,0.03925
4.704,0.0582
4.708,0.06105
4.712,0.06497
4.716,0.05402
4.72,0.07773
4.724,0.1322
4.728,0.10034
4.732,0.11243
4.736,0.09406
4.74,0.09835
4.744,0.1236
4.748,0.10312
4.752,0.11542
4.756,0.08664
4.76,0.10539
4.764,0.08399
4.768,0.05788
4.772,0.04739
4.776,0.03151
4.78,0.05608
4.784,0.03398
4.788,0.04238
4.792,0.02483
4.796,0.02046
4.8,0.02988
4.804,0.03066
4.808,0.0126
4.812,0.03589
4.816,0.01988
4.82,0.02436
4.824,0.0433
4.828,0.02123
4.832,0.03873
4.836,0.03598
4.84,0.02144
4.844,0.01305
4.848,0.00528
4.852,0.03188
4.856,-0.03566
4.86,-0.02932
4.864,-0.09121
4.868,-0.11414
4.872,-0.061
4.876,0.08512
4.88,0.26866
4.884,0.44518
4.888,0.67162
4.892,0.84659
4.896,0.9605
4.9,1.01547
4.904,0.94225
4.908,0.80611
4.912,0.58559
4.916,0.31035
4.92,0.12126
4.924,0.00075
4.928,-0.09494
4.932,-0.16231
4.936,-0.12802
4.94,-0.08485
4.944,-0.01943
4.948,0.00093
4.952,-0.00539
4.956,-0.00446
4.96,0.01413
4.964,0.0245
4.968,0.03709
4.972,0.03542
4.976,-0.00065
4.98,0.02733
4.984,0.0133
4.988,0.0005
4.992,0.03032
4.996,0.03033
5.0,0.02673
5.004,0.01743
5.008,-0.01122
5.012,0.01381
5.016,0.01411
5.02,0.01288
5.024,0.02394
5.028,0.01016
5.032,0.03666
5.036,0.01553
5.04,0.02085
5.044,0.04463
5.048,0.0164
5.052,0.04762
5.056,0.03474
5.06,0.01687
5.064,0.03583
5.068,0.02475
5.072,0.04208
5.076,0.05682
5.08,0.01741
5.084,0.06007
5.088,0.02802
5.092,0.09829
5.096,0.0302
5.1,0.07779
5.104,0.07186
5.108,0.10278
5.112,0.07213
5.116,0.10265
5.12,0.12121
5.124,0.13079
5.128,0.16347
5.132,0.16819
5.136,0.16522
5.14,0.17043
5.144,0.20209
5.148,0.21499
5.152,0.22074
5.156,0.22369
5.16,0.23228
5.164,0.22994
5.168,0.24023
5.172,0.24542
5.176,0.25182
5.18,0.25073
5.184,0.25513
5.188,0.25353
5.192,0.24536
5.196,0.22278
5.2,0.23434
5.204,0.22654
5.208,0.2081
5.212,0.20274
5.216,0.20319
5.22,0.15993
5.224,0.18524
5.228,0.15674
5.232,0.14399
5.236,0.12393
5.24,0.14315
5.244,0.09662
5.248,0.09697
5.252,0.08388
5.256,0.08367
5.26,0.08221
5.264,0.0659
5.268,0.05178
5.272,0.05308
5.276,0.06409
5.28,0.03849
5.284,0.02533
5.288,0.03492
5.292,0.02008
5.296,0.05529
5.3,0.05878
5.304,0.02728
5.308,0.04494
5.312,0.05094
5.316,0.03547
5.32,0.03746
5.324,0.01457
5.328,0.03424
5.332,0.00693
5.336,0.02432
5.34,0.03031
5.344,0.03349
5.348,0.0442
5.352,0.03022
5.356,0.01225
5.36,0.0193
5.364,0.0317
5.368,0.046
5.372,0.04557
5.376,0.02282
5.38,0.06527
5.384,0.04068
5.388,0.01232
5.392,0.02052
5.396,0.03664
5.4,0.04023
5.404,0.0209
5.408,0.01955
5.412,0.02222
5.416,0.02959
5.42,0.04665
5.424,0.01515
5.428,0.03731
5.432,0.02689
5.436,0.04529
5.44,0.05426
5.444,0.01848
5.448,0.0071
5.452,0.02295
5.456,0.03182
5.46,0.04007
5.464,0.04323
5.468,0.03742
5.472,0.02904
5.476,0.02849
5.48,0.03896
5.484,0.05475
5.488,0.07799
5.492,0.08966
5.496,0.06618
5.5,0.07922
5.504,0.1119
5.508,0.11915
5.512,0.11079
5.516,0.11969
5.52,0.12375
5.524,0.14231
5.528,0.13785
5.532,0.09964
5.536,0.11987
5.54,0.06633
5.544,0.04419
5.548,0.08744
5.552,0.05559
5.556,0.05139
5.56,0.04404
5.564,0.02372
5.568,0.04212
5.572,0.02048
5.576,0.03922
5.58,0.05295
5.584,0.05528
5.588,0.04608
5.592,0.04767
5.596,0.04869
5.6,0.03653
5.604,0.02794
5.608,0.03812
5.612,-0.00879
5.616,0.04427
5.62,0.0189
5.624,0.03652
5.628,0.04401
5.632,0.02578
5.636,0.00313
5.64,-0.02185
5.644,-0.07149
5.648,-0.07772
5.652,-0.05257
5.656,0.02565
5.66,0.17039
5.664,0.33701
5.668,0.56491
5.672,0.77777
5.676,0.9435
5.68,1.0166
5.684,1.0123
5.688,0.82468
5.692,0.68723
5.696,0.4228
5.7,0.21964
5.704,0.03482
5.708,-0.07383
5.712,-0.12386
5.716,-0.13602
5.72,-0.08598
5.724,-0.08546
5.728,-0.02862
5.732,0.0162
5.736,0.01258
5.74,-0.00679
5.744,0.04106
5.748,0.02705
5.752,0.00113
5.756,0.01406
5.76,0.04799
5.764,0.05442
5.768,0.02221
5.772,0.02766
5.776,0.04424
5.78,0.01142
5.784,0.01478
5.788,-0.01383
5.792,0.02619
5.796,0.02591
5.8,0.0142
5.804,0.0337
5.808,0.02584
5.812,-0.00022
5.816,0.03297
5.82,0.02408
5.824,0.01522
5.828,0.05537
5.832,0.01927
5.836,0.06268
5.84,0.04449
5.844,0.05505
5.848,0.04801
5.852,0.01907
5.856,0.05075
5.86,0.05553
5.864,0.05776
5.868,0.06883
5.872,0.05927
5.876,0.04175
5.88,0.08889
5.884,0.06569
5.888,0.08609
5.892,0.09277
5.896,0.09501
5.9,0.13526
5.904,0.12205
5.908,0.14695
5.912,0.17523
5.916,0.16033
5.92,0.1481
5.924,0.17984
5.928,0.19654
5.932,0.21588
5.936,0.2271
5.94,0.20459
5.944,0.21318
5.948,0.25666
5.952,0.26242
5.956,0.22797
5.96,0.25633
5.964,0.25447
5.968,0.24584
5.972,0.24665
5.976,0.20391
5.98,0.23102
5.984,0.19765
5.988,0.23027
5.992,0.18969
5.996,0.1893
6.0,0.16258
6.004,0.17366
6.008,0.16432
6.012,0.12839
6.016,0.13276
6.02,0.13445
6.024,0.08181
6.028,0.07715
6.032,0.08134
6.036,0.0515
6.04,0.10786
6.044,0.04054
6.048,0.04642
6.052,0.057
6.056,0.0608
6.06,0.02549
6.064,0.02728
6.068,0.02853
6.072,0.04703
6.076,0.02583
6.08,0.02031
6.084,0.03782
6.088,0.02509
6.092,0.034
6.096,0.02609
6.1,0.00515
6.104,0.0273
6.108,0.04493
6.112,0.02518
6.116,0.01865
6.12,0.05524
6.124,0.01471
6.128,0.02373
6.132,0.01615
6.136,0.02433
6.14,0.02883
6.144,0.04451
6.148,0.03575
6.152,0.00822
6.156,0.03112
6.16,0.02584
6.164,0.01328
6.168,0.00844
6.172,0.03988
6.176,0.01277
6.18,0.02136
6.184,0.01784
6.188,0.02383
6.192,0.04644
6.196,0.00495
6.2,0.01713
6.204,0.01952
6.208,0.00129
6.212,0.02748
6.216,0.0095
6.22,0.02415
6.224,0.02024
6.228,0.02764
6.232,-0.01193
6.236,0.03198
6.24,0.04477
6.244,0.01828
6.248,0.03614
6.252,0.02553
6.256,0.00262
6.26,0.03194
6.264,0.03974
6.268,0.05091
6.272,0.0043
6.276,0.00257
6.28,0.02822
6.284,0.02929
6.288,0.02437
6.292,0.01953
6.296,0.03263
6.3,0.0596
6.304,0.04177
6.308,0.07052
6.312,0.0474
6.316,0.08859
6.32,0.10505
6.324,0.06385
6.328,0.0945
6.332,0.12809
6.336,0.11431
6.34,0.11394
6.344,0.09289
6.348,0.09042
6.352,0.11036
6.356,0.09251
6.36,0.04962
6.364,0.05484
6.368,0.07627
6.372,0.04902
6.376,0.04982
6.38,0.01147
6.384,0.01586
6.388,0.03084
6.392,0.01859
6.396,0.02159
6.4,0.01489
6.404,0.03194
6.408,0.05382
6.412,0.03083
6.416,-0.00277
6.42,0.01864
6.424,0.04642
6.428,0.02668
6.432,0.04638
6.436,0.04071
6.44,0.0454
6.444,0.00215
6.448,0.01791
6.452,0.02229
6.456,-0.03329
6.46,-0.06618
6.464,-0.10231
6.468,-0.08073
6.472,-0.00514
6.476,0.10767
6.48,0.27133
6.484,0.51782
6.488,0.71647
6.492,0.89682
6.496,0.99076
6.5,1.00233
6.504,0.89263
6.508,0.69716
6.512,0.4943
6.516,0.23458
6.52,0.0779
6.524,-0.05346
6.528,-0.14047
6.532,-0.14118
6.536,-0.13997
6.54,-0.07899
6.544,-0.02908
6.548,-0.0082
6.552,0.01056
6.556,0.00408
6.56,0.02987
6.564,0.01181
6.568,0.01205
6.572,0.01379
6.576,0.00144
6.58,0.0499
6.584,0.02088
6.588,0.03465
6.592,0.02436
6.596,0.01366
6.6,0.03592
6.604,-0.01658
6.608,0.01971
6.612,-0.00048
6.616,-0.00539
6.62,0.04291
6.624,-0.00396
6.628,0.01385
6.632,0.00029
6.636,0.02174
6.64,0.02169
6.644,0.00902
6.648,-0.00418
6.652,0.02164
6.656,0.02898
6.66,-0.0058
6.664,0.03167
6.668,0.01312
6.672,0.02142
6.676,0.02659
6.68,0.05105
6.684,0.08191
6.688,0.02125
6.692,0.03427
6.696,0.04663
6.7,0.04544
6.704,0.07842
6.708,0.09029
6.712,0.08978
6.716,0.06173
6.72,0.10442
6.724,0.11983
6.728,0.1373
6.732,0.13387
6.736,0.14703
6.74,0.17231
6.744,0.17121
6.748,0.1864
6.752,0.18867
6.756,0.20482
6.76,0.22366
6.764,0.19565
6.768,0.19846
6.772,0.21559
6.776,0.2328
6.78,0.23521
6.784,0.23938
6.788,0.22499
6.792,0.19359
6.796,0.18216
6.8,0.18686
6.804,0.18429
6.808,0.15732
6.812,0.16655
6.816,0.17678
6.82,0.14192
6.824,0.12732
6.828,0.14255
6.832,0.11076
6.836,0.09896
6.84,0.09287
6.844,0.10939
6.848,0.09799
6.852,0.08918
6.856,0.04576
6.86,0.04294
6.864,0.019
6.868,0.02839
6.872,0.00213
6.876,0.02027
6.88,0.00807
6.884,0.02922
6.888,0.0318
6.892,0.02204
6.896,-0.00951
6.9,-0.0021
6.904,0.0009
6.908,-0.00065
6.912,0.03363
6.916,-0.0219
6.92,-0.01636
6.924,-0.004
6.928,0.00662
6.932,-0.00249
6.936,0.00883
6.94,-0.01881
6.944,0.03414
6.948,-0.03173
6.952,0.01918
6.956,-0.00464
6.96,0.01477
6.964,-0.00116
6.968,-0.00965
6.972,-0.00224
6.976,-0.00345
6.98,-0.02427
6.984,-0.00231
6.988,0.00105
6.992,0.01206
6.996,-0.0238
7.0,-0.01689
7.004,0.0275
7.008,0.00879
7.012,0.01001
7.016,-0.0101
7.02,0.0106
7.024,0.01285
7.028,0.0056
7.032,0.00719
7.036,-0.00938
7.04,-0.00642
7.044,0.02072
7.048,0.00592
7.052,0.00937
7.056,0.00359
7.06,-0.02291
7.064,0.02449
7.068,-0.00356
7.072,0.01774
7.076,-0.00541
7.08,0.00537
7.084,0.02691
7.088,-0.0314
7.092,0.01788
7.096,0.01472
7.1,-0.01033
7.104,0.00312
7.108,-0.00656
7.112,0.01952
7.116,0.00387
7.12,-0.01184
7.124,0.01944
7.128,0.01746
7.132,0.00603
7.136,-0.01851
7.14,0.00769
7.144,0.00329
7.148,0.01947
7.152,-0.0159
7.156,-0.0025
7.16,0.0068
7.164,0.01895
7.168,0.00195
7.172,-0.02716
7.176,0.0162
7.18,0.03135
7.184,-0.0072
7.188,0.03346
7.192,-0.00774
7.196,0.01885
7.2,0.02236
7.204,0.03451
7.208,0.0516
7.212,0.05393
7.216,0.04876
7.22,0.11239
7.224,0.11419
7.228,0.08542
7.232,0.12812
7.236,0.07892
7.24,0.11325
7.244,0.08493
7.248,0.08222
7.252,0.07682
7.256,0.04884
7.26,0.05364
7.264,0.04491
7.268,-0.00617
7.272,0.023
7.276,0.01593
7.28,-0.00336
7.284,-0.01625
7.288,-0.00673
7.292,0.00687
7.296,-0.02884
7.3,0.02642
7.304,0.00026
7.308,0.00831
7.312,0.01753
7.316,-0.0108
7.32,0.02493
7.324,-0.0153
7.328,0.00131
7.332,-0.02266
7.336,-0.01721
7.34,0.00374
7.344,-0.01533
7.348,-0.01
7.352,-0.04903
7.356,-0.10182
7.36,-0.15625
7.364,-0.11626
7.368,-0.03336
7.372,0.09502
7.376,0.2813
7.38,0.52941
7.384,0.7218
7.388,0.90713
7.392,0.9949
7.396,0.95293
7.4,0.81973
7.404,0.61621
7.408,0.40262
7.412,0.2159
7.416,0.02371
7.42,-0.08857
7.424,-0.17143
7.428,-0.17314
7.432,-0.1348
7.436,-0.11501
7.44,-0.05069
7.444,-0.03362
7.448,-0.04004
7.452,-0.02392
7.456,-0.0129
7.46,0.00272
7.464,0.00411
7.468,-0.02803
7.472,-0.0144
7.476,-0.015
7.48,-0.04076
7.484,-0.00902
7.488,-0.02713
7.492,0.01003
7.496,-0.03201
7.5,-0.00777
7.504,0.01702
7.508,-0.01235
7.512,0.00727
7.516,-0.0065
7.52,-0.02847
7.524,-0.01525
7.528,-0.02531
7.532,-0.01485
7.536,-0.02034
7.54,-0.00063
7.544,0.01787
7.548,0.01341
7.552,-0.01795
7.556,0.00317
7.56,0.00037
7.564,0.00593
7.568,0.01822
7.572,0.00316
7.576,-0.00481
7.58,-0.00595
7.584,0.03028
7.588,-0.00155
7.592,0.02758
7.596,0.03813
7.6,0.03489
7.604,0.08843
7.608,0.08005
7.612,0.09061
7.616,0.0914
7.62,0.10654
7.624,0.11131
7.628,0.13556
7.632,0.109
7.636,0.13297
7.64,0.16301
7.644,0.16222
7.648,0.20209
7.652,0.18155
7.656,0.17838
7.66,0.20474
7.664,0.17296
7.668,0.20014
7.672,0.20413
7.676,0.18447
7.68,0.21141
7.684,0.19172
7.688,0.18392
7.692,0.18354
7.696,0.14949
7.7,0.16971
7.704,0.17057
7.708,0.13796
7.712,0.1424
7.716,0.14385
7.72,0.11344
7.724,0.08364
7.728,0.07443
7.732,0.0689
7.736,0.07543
7.74,0.06468
7.744,0.0573
7.748,0.04731
7.752,0.04779
7.756,0.00404
7.76,0.00663
7.764,0.01031
7.768,0.00418
7.772,0.00254
7.776,0.01122
7.78,-0.0338
7.784,-0.03876
7.788,-0.01425
7.792,-0.00512
7.796,-0.02928
7.8,-0.02519
7.804,-0.00204
7.808,-0.02406
7.812,0.00238
7.816,-0.0076
7.82,-0.0069
7.824,-0.00907
7.828,-0.0183
7.832,-0.02443
7.836,0.00505
7.84,-0.01928
7.844,-0.0118
7.848,-0.04176
7.852,-0.03095
7.856,-0.02619
7.86,-0.01503
7.864,-0.01919
7.868,-0.02404
7.872,-0.03904
7.876,-0.0023
7.88,0.00936
7.884,-0.00074
7.888,-0.03872
7.892,-0.06093
7.896,-0.0114
7.9,-0.02112
7.904,-0.01964
7.908,-0.02759
7.912,0.00332
7.916,-0.03018
7.92,-0.00628
7.924,-0.0255
7.928,-0.02002
7.932,-0.01122
7.936,-0.03009
7.94,0.00263
7.944,-0.04958
7.948,-0.01825
7.952,-0.0225
7.956,-0.0542
7.96,-0.0225
7.964,-0.01192
7.968,-0.01419
7.972,-0.01466
7.976,-0.03851
7.98,-0.02771
7.984,-0.01698
7.988,-0.01334
7.992,0.00459
7.996,-0.00018
8.0,-0.02052
8.004,-0.00769
8.008,-0.04329
8.012,0.01226
8.016,-0.03923
8.02,-0.01565
8.024,-0.02534
8.028,-0.02036
8.032,-0.00505
8.036,-0.00773
8.04,-0.01838
8.044,-0.02098
8.048,-0.01324
8.052,-0.01254
8.056,-0.0256
8.06,-0.01345
8.064,-0.00907
8.068,-0.02014
8.072,-0.00839
8.076,-0.02785
8.08,-0.02108
8.084,0.0238
8.088,-7e-05
8.092,0.03379
8.096,0.00326
8.1,0.03062
8.104,0.05139
8.108,0.04847
8.112,0.06121
8.116,0.04437
8.12,0.0531
8.124,0.0794
8.128,0.08598
8.132,0.05968
8.136,0.05867
8.14,0.03281
8.144,0.033
8.148,0.00971
8.152,-0.01916
8.156,0.00349
8.16,-0.01459
8.164,-0.02873
8.168,-0.0043
8.172,-0.02086
8.176,-0.03374
8.18,-0.03855
8.184,-0.0416
8.188,-0.02738
8.192,-0.0601
8.196,-0.01726
8.2,-0.01158
8.204,-0.04933
8.208,0.02026
8.212,-0.01666
8.216,-0.01579
8.22,-0.03248
8.224,-0.00328
8.228,-0.00221
8.232,-0.01553
8.236,-0.01644
8.24,-0.03959
8.244,-0.0772
8.248,-0.10845
8.252,-0.1329
8.256,-0.10431
8.26,-0.00684
8.264,0.10462
8.268,0.31045
8.272,0.56023
8.276,0.77513
8.28,0.89365
8.284,0.97089
8.288,0.93194
8.292,0.76169
8.296,0.55249
8.3,0.34368
8.304,0.13964
8.308,-0.05443
8.312,-0.1556
8.316,-0.21274
8.32,-0.20306
8.324,-0.1569
8.328,-0.1177
8.332,-0.06181
8.336,-0.02459
8.34,-0.04296
8.344,-0.00461
8.348,-0.03945
8.352,-0.00393
8.356,-0.02925
8.36,-0.01333
8.364,-0.01322
8.368,-0.0164
8.372,-0.03508
8.376,-0.00968
8.38,-0.02534
8.384,-0.03025
8.388,-0.01403
8.392,-0.04219
8.396,-0.02666
8.4,-0.04889
8.404,-0.04987
8.408,-0.0189
8.412,-0.01252
8.416,-0.03796
8.42,-0.03433
8.424,-0.03909
8.428,-0.04205
8.432,-0.01643
8.436,-0.01422
8.44,-0.03318
8.444,-0.03705
8.448,-0.02537
8.452,-0.01649
8.456,-0.01848
8.46,0.00525
8.464,-0.00806
8.468,0.00927
8.472,0.00018
8.476,0.02892
8.48,0.02987
8.484,-0.00219
8.488,0.0053
8.492,0.01006
8.496,0.04883
8.5,0.05772
8.504,0.08325
8.508,0.075
8.512,0.09233
8.516,0.07837
8.52,0.10497
8.524,0.11873
8.528,0.12691
8.532,0.14586
8.536,0.1679
8.54,0.17202
8.544,0.16577
8.548,0.1769
8.552,0.17982
8.556,0.20048
8.56,0.18633
8.564,0.2121
8.568,0.18452
8.572,0.19222
8.576,0.18385
8.58,0.18755
8.584,0.19827
8.588,0.13431
8.592,0.15108
8.596,0.1665
8.6,0.12709
8.604,0.14699
8.608,0.10515
8.612,0.10279
8.616,0.10492
8.62,0.06677
8.624,0.0724
8.628,0.04012
8.632,0.06576
8.636,0.05355
8.64,0.01121
8.644,0.01852
8.648,0.00787
8.652,0.01032
8.656,-0.01381
8.66,-0.02389
8.664,-0.01239
8.668,-0.01918
8.672,-0.01798
8.676,-0.01245
8.68,0.0003
8.684,-0.03096
8.688,-0.02919
8.692,-0.03494
8.696,-0.00614
8.7,-0.00045
8.704,-0.00733
8.708,-0.04173
8.712,-0.04089
8.716,-0.0319
8.72,-0.0365
8.724,-0.05132
8.728,-0.02896
8.732,-0.03762
8.736,-0.03663
8.74,-0.02382
8.744,-0.04282
8.748,-0.03725
8.752,-0.01976
8.756,0.00114
8.76,-0.0155
8.764,-0.03947
8.768,-0.04125
8.772,-0.01146
8.776,-0.03977
8.78,-0.03809
8.784,-0.00703
8.788,-0.00202
8.792,-0.03764
8.796,-0.02498
8.8,-0.03546
8.804,-0.02809
8.808,-0.01165
8.812,-0.02452
8.816,-0.03143
8.82,-0.03692
8.824,-0.02932
8.828,-0.02373
8.832,-0.05196
8.836,-0.01711
8.84,-0.05119
8.844,-0.05637
8.848,0.0192
8.852,-0.04132
8.856,-0.00923
8.86,-0.01893
8.864,-0.02399
8.868,-0.04122
8.872,-0.01879
8.876,-0.01008
8.88,-0.02583
8.884,-0.01769
8.888,-0.04993
8.892,-0.05734
8.896,-0.03668
8.9,-0.04207
8.904,-0.02843
8.908,-0.04638
8.912,-0.0252
8.916,-0.04249
8.92,-0.0168
8.924,-0.01846
8.928,-0.03298
8.932,-0.01949
8.936,-0.02857
8.94,-0.04742
8.944,-0.042
8.948,-0.03152
8.952,-0.03002
8.956,-0.04907
8.96,-0.01688
8.964,-0.01519
8.968,-0.04036
8.972,-0.03437
8.976,-0.02842
8.98,-0.00455
8.984,-0.04758
8.988,-0.01808
8.992,-0.05431
8.996,-0.00308
9.0,-0.02194
9.004,0.00376
9.008,-0.03464
9.012,-0.0451
9.016,-0.02924
9.02,-0.02867
9.024,0.01303
9.028,-0.00664
9.032,-0.04325
9.036,-0.03328
9.04,-0.04534
9.044,-0.02574
9.048,-0.00743
9.052,-0.03793
9.056,-0.03719
9.06,-0.00364
9.064,-0.01951
9.068,-0.002
9.072,0.02122
9.076,0.0044
9.08,0.02638
9.084,0.01701
9.088,0.04665
9.092,0.02304
9.096,0.05143
9.1,0.05607
9.104,0.08668
9.108,0.07093
9.112,0.06192
9.116,0.05403
9.12,0.06129
9.124,0.01572
9.128,0.0318
9.132,0.00484
9.136,-0.01998
9.14,0.00441
9.144,-0.01395
9.148,-0.0283
9.152,-0.0194
9.156,-0.00144
9.16,-0.03585
9.164,-0.02064
9.168,-0.01451
9.172,-0.02787
9.176,-0.06503
9.18,-0.02648
9.184,-0.02788
9.188,-0.0381
9.192,-0.01725
9.196,-0.03166
9.2,-0.04309
9.204,-0.06066
9.208,-0.04608
9.212,-0.02188
9.216,-0.01957
9.22,-0.07215
9.224,-0.06339
9.228,-0.11463
9.232,-0.11469
9.236,-0.12271
9.24,-0.0941
9.244,0.09755
9.248,0.2795
9.252,0.49292
9.256,0.69973
9.26,0.87456
9.264,0.94404
9.268,0.94908
9.272,0.80891
9.276,0.6305
9.28,0.40259
9.284,0.1647
9.288,-0.00137
9.292,-0.14335
9.296,-0.17846
9.3,-0.19664
9.304,-0.15038
9.308,-0.10545
9.312,-0.05604
9.316,-0.04631
9.32,-0.04639
9.324,-0.05827
9.328,-0.02684
9.332,-0.01092
9.336,-0.04831
9.34,-0.00616
9.344,-0.05844
9.348,-0.03774
9.352,-0.01557
9.356,-0.01778
9.36,-0.01753
9.364,-0.05152
9.368,-0.02489
9.372,-0.02418
9.376,-0.03435
9.38,-0.03158
9.384,-0.03585
9.388,-0.01992
9.392,-0.0219
9.396,-0.05012
9.4,-0.02652
9.404,-0.02541
9.408,-0.04578
9.412,-0.02502
9.416,-0.01972
9.42,-0.00719
9.424,-0.01926
9.428,-0.045
9.432,0.00635
9.436,-0.01436
9.44,-0.04301
9.444,-0.00078
9.448,-0.01063
9.452,0.00074
9.456,-0.01397
9.46,0.00045
9.464,0.00627
9.468,0.03027
9.472,0.03702
9.476,0.04524
9.48,0.07221
9.484,0.05765
9.488,0.07169
9.492,0.09915
9.496,0.10549
9.5,0.12881
9.504,0.12082
9.508,0.12804
9.512,0.12402
9.516,0.15209
9.52,0.15886
9.524,0.17787
9.528,0.14881
9.532,0.18355
9.536,0.18479
9.54,0.19925
9.544,0.22824
9.548,0.18992
9.552,0.17781
9.556,0.20359
9.56,0.1781
9.564,0.18035
9.568,0.16111
9.572,0.15092
9.576,0.16062
9.58,0.1528
9.584,0.11964
9.588,0.14274
9.592,0.11124
9.596,0.10637
9.6,0.09538
9.604,0.06678
9.608,0.04475
9.612,0.07403
9.616,0.05979
9.62,0.03476
9.624,0.0046
9.628,0.03565
9.632,0.03605
9.636,0.00914
9.64,0.00335
9.644,-0.00038
9.648,-0.02634
9.652,0.00065
9.656,0.00207
9.66,0.0163
9.664,-0.01567
9.668,-0.01954
9.672,0.01774
9.676,-0.00134
9.68,-0.05337
9.684,0.00073
9.688,-0.00557
9.692,-0.02633
9.696,-0.02854
9.7,-0.0344
9.704,-0.03199
9.708,-0.02314
9.712,-0.02838
9.716,-0.01834
9.72,-0.00924
9.724,-0.01913
9.728,-0.00339
9.732,-0.02711
9.736,-0.03695
9.74,-0.01744
9.744,-0.02317
9.748,-0.01318
9.752,-0.03228
9.756,-0.04127
9.76,-0.02985
9.764,-0.02424
9.768,-0.03501
9.772,0.00441
9.776,0.00015
9.78,0.01098
9.784,-0.04754
9.788,-0.02276
9.792,-0.00208
9.796,-0.02571
9.8,-0.01295
9.804,-0.0258
9.808,-0.04829
9.812,-0.03914
9.816,-0.02079
9.82,-0.0366
9.824,-0.04091
9.828,-0.03207
9.832,-0.00094
9.836,-0.02753
9.84,0.00054
9.844,-0.02234
9.848,-0.02365
9.852,-0.0016
9.856,-0.00606
9.86,0.00324
9.864,-0.01254
9.868,-0.00172
9.872,-0.00764
9.876,-0.02662
9.88,0.01586
9.884,-0.018
9.888,0.00105
9.892,0.00507
9.896,-0.01339
9.9,-0.01239
9.904,-0.01575
9.908,-0.03517
9.912,-0.03123
9.916,0.02702
9.92,-0.02396
9.924,-0.0238
9.928,-0.021
9.932,-0.00497
9.936,-0.02238
9.94,0.00186
9.944,-0.00761
9.948,-0.01212
9.952,-0.03867
9.956,-0.0059
9.96,0.01092
9.964,0.00109
9.968,-0.0026
9.972,-0.02789
9.976,-0.01223
9.98,-0.01822
9.984,-0.02202
9.988,-0.01214
9.992,-0.01163
9.996,0.00646
