t_seg,ecg_mV
0.0,0.04493
0.004,0.02235
0.008,0.00629
0.012,0.01126
0.016,0.0174
0.02,-0.01094
0.024,0.0177
0.028,0.02142
0.032,0.0101
0.036,0.02323
0.04,0.00602
0.044,0.00867
0.048,0.0037
0.052,0.0316
0.056,-0.00716
0.06,0.047
0.064,0.00962
0.068,0.01146
0.072,-2e-05
0.076,0.00118
0.08,0.01963
0.084,0.03018
0.088,-0.04119
0.092,-0.05994
0.096,-0.07266
0.1,-0.09846
0.104,-0.07635
0.108,-0.00099
0.112,0.16557
0.116,0.35228
0.12,0.59953
0.124,0.78274
0.128,0.93162
0.132,1.01299
0.136,0.9695
0.14,0.83529
0.144,0.61766
0.148,0.36897
0.152,0.14009
0.156,0.01942
0.16,-0.1081
0.164,-0.16097
0.168,-0.15667
0.172,-0.13593
0.176,-0.06602
0.18,-0.02339
0.184,0.00208
0.188,-0.01832
0.192,0.00802
0.196,0.0135
0.2,0.01886
0.204,0.01789
0.208,-0.00643
0.212,0.0091
0.216,-0.01488
0.22,0.02063
0.224,0.00337
0.228,0.00284
0.232,0.01068
0.236,0.03314
0.24,0.02073
0.244,0.02066
0.248,0.01591
0.252,0.03033
0.256,0.0113
0.26,0.04795
0.264,0.02163
0.268,0.02621
0.272,0.03519
0.276,0.01681
0.28,0.00505
0.284,0.01467
0.288,0.00468
0.292,0.0159
0.296,0.02218
0.3,0.02256
0.304,0.01004
0.308,0.01634
0.312,0.03465
0.316,0.03964
0.32,0.02165
0.324,0.04787
0.328,0.04689
0.332,0.07343
0.336,0.05039
0.34,0.10802
0.344,0.11093
0.348,0.10154
0.352,0.10784
0.356,0.10054
0.36,0.11201
0.364,0.15181
0.368,0.14115
0.372,0.13651
0.376,0.18657
0.38,0.1892
0.384,0.20785
0.388,0.22604
0.392,0.24191
0.396,0.19029
0.4,0.20783
0.404,0.22443
0.408,0.23532
0.412,0.20832
0.416,0.22499
0.42,0.23549
0.424,0.21447
0.428,0.22589
0.432,0.23574
0.436,0.21902
0.44,0.21528
0.444,0.18946
0.448,0.1756
0.452,0.16418
0.456,0.14836
0.46,0.14953
0.464,0.15095
0.468,0.11331
0.472,0.11605
0.476,0.12433
0.48,0.10202
0.484,0.07511
0.488,0.06564
0.492,0.07335
0.496,0.0621
0.5,0.05169
0.504,0.06328
0.508,0.0269
0.512,0.05212
0.516,0.0595
0.52,0.06355
0.524,0.04383
0.528,0.05054
0.532,0.0361
0.536,0.03512
0.54,0.02514
0.544,0.05748
0.548,0.02066
0.552,0.00312
0.556,0.06213
0.56,0.02948
0.564,0.02493
0.568,0.02341
0.572,0.0396
0.576,0.02543
0.58,0.00974
0.584,0.03684
0.588,0.00502
0.592,0.03534
0.596,0.04158
0.6,0.00127
0.604,0.02819
0.608,0.03298
0.612,0.02168
0.616,0.01483
0.62,0.03973
0.624,0.03324
0.628,0.0398
0.632,0.02104
0.636,0.03347
0.64,0.02148
0.644,0.02303
0.648,0.02726
0.652,0.0644
0.656,0.04131
0.66,0.08407
0.664,0.07769
0.668,0.1081
0.672,0.12805
0.676,0.12575
0.68,0.13333
0.684,0.11845
0.688,0.11978
0.692,0.11614
0.696,0.12343
0.7,0.09413
0.704,0.0847
0.708,0.07334
0.712,0.03996
0.716,0.0492
0.72,0.03326
0.724,0.03203
0.728,0.03878
0.732,0.03063
0.736,0.02884
0.74,0.03392
0.744,0.02212
0.748,0.037
0.752,0.00138
0.756,0.04208
0.76,0.01423
0.764,0.015
0.768,0.05409
0.772,0.04208
0.776,0.01553
0.78,0.05087
0.784,-0.00331
0.788,0.01455
0.792,0.05197
0.796,-0.00835
0.8,0.00268
0.804,-0.04437
0.808,-0.06638
0.812,-0.10048
0.816,-0.04667
0.82,0.04525
0.824,0.22106
0.828,0.42763
0.832,0.65902
0.836,0.85873
0.84,0.97818
0.844,1.03286
0.848,0.934
0.852,0.7819
0.856,0.57185
0.86,0.3167
0.864,0.10497
0.868,-0.03374
0.872,-0.1093
0.876,-0.1328
0.88,-0.12511
0.884,-0.07281
0.888,-0.07055
0.892,-0.02045
0.896,0.00672
0.9,0.01661
0.904,0.02337
0.908,0.02002
0.912,0.04723
0.916,0.03419
0.92,0.02434
0.924,0.0199
0.928,0.0211
0.932,0.01835
0.936,0.0283
0.94,0.02709
0.944,0.0266
0.948,0.04699
0.952,0.01016
0.956,0.03506
0.96,0.03038
0.964,0.01403
0.968,0.03645
0.972,0.04058
0.976,0.04504
0.98,0.0396
0.984,-0.00382
0.988,0.04374
0.992,0.03689
0.996,0.0314
1.0,0.02326
1.004,0.04193
1.008,0.05505
1.012,-0.01315
1.016,0.03344
1.02,0.03436
1.024,0.04425
1.028,0.01252
1.032,0.07008
1.036,0.04882
1.04,0.07806
1.044,0.05966
1.048,0.07164
1.052,0.08807
1.056,0.06719
1.06,0.10012
1.064,0.11832
1.068,0.13508
1.072,0.15475
1.076,0.15868
1.08,0.16146
1.084,0.19875
1.088,0.2074
1.092,0.20211
1.096,0.20543
1.1,0.20011
1.104,0.24331
1.108,0.24471
1.112,0.25499
1.116,0.23331
1.12,0.2395
1.124,0.24593
1.128,0.25912
1.132,0.22525
1.136,0.2488
1.14,0.23644
1.144,0.23024
1.148,0.21237
1.152,0.19108
1.156,0.18779
1.16,0.19614
1.164,0.18843
1.168,0.16407
1.172,0.17408
1.176,0.11529
1.18,0.11287
1.184,0.11747
1.188,0.10329
1.192,0.1159
1.196,0.07662
1.2,0.0878
1.204,0.06272
1.208,0.03647
1.212,0.06051
1.216,0.05291
1.22,0.04118
1.224,0.02578
1.228,0.03605
1.232,0.01889
1.236,0.02925
1.24,0.0218
1.244,0.03849
1.248,0.02691
1.252,0.02823
1.256,0.01776
1.26,0.03399
1.264,0.0158
1.268,0.03131
1.272,0.03699
1.276,0.02924
1.28,0.02991
1.284,0.02611
1.288,0.02772
1.292,0.0312
1.296,0.00799
1.3,0.04218
1.304,0.03103
1.308,0.01666
1.312,0.03273
1.316,0.0326
1.32,0.02622
1.324,0.04046
1.328,0.03566
1.332,0.05429
1.336,0.04809
1.34,-0.00182
1.344,0.07279
1.348,0.01587
1.352,0.02706
1.356,0.01604
1.36,0.03543
1.364,0.02142
1.368,0.03773
1.372,0.02662
1.376,0.01798
1.38,0.03065
1.384,0.01147
1.388,0.01994
1.392,0.02046
1.396,0.01288
1.4,0.03528
1.404,0.01589
1.408,0.03185
1.412,0.03883
1.416,0.05501
1.42,0.04394
1.424,0.0326
1.428,0.0463
1.432,0.02156
1.436,0.02456
1.44,0.03209
1.444,0.00838
1.448,0.01397
1.452,0.0358
1.456,0.01874
1.46,0.04949
1.464,0.02469
1.468,0.04006
1.472,0.05488
1.476,0.02755
1.48,0.01922
1.484,0.01281
1.488,0.02803
1.492,0.05487
1.496,0.01568
1.5,0.03459
1.504,0.02924
1.508,0.03842
1.512,0.04387
1.516,0.00993
1.52,0.0482
1.524,0.04772
1.528,0.03224
1.532,0.05854
1.536,0.07518
1.54,0.10252
1.544,0.07826
1.548,0.09592
1.552,0.14402
1.556,0.10057
1.56,0.12407
1.564,0.11052
1.568,0.14914
1.572,0.11778
1.576,0.14104
1.58,0.09192
1.584,0.09486
1.588,0.08603
1.592,0.07904
1.596,0.07554
1.6,0.07503
1.604,0.03377
1.608,0.0276
1.612,0.00854
1.616,0.038
1.62,0.02205
1.624,0.00234
1.628,0.03355
1.632,0.03131
1.636,0.04033
1.64,0.0468
1.644,0.05907
1.648,0.03904
1.652,0.03182
1.656,0.02762
1.66,0.05856
1.664,0.02705
1.668,0.02444
1.672,0.06404
1.676,0.01745
1.68,-0.01842
1.684,-0.02443
1.688,-0.07817
1.692,-0.08945
1.696,-0.03556
1.7,0.06416
1.704,0.26329
1.708,0.42566
1.712,0.64616
1.716,0.84509
1.72,1.00703
1.724,1.04403
1.728,0.9597
1.732,0.7835
1.736,0.57558
1.74,0.3277
1.744,0.09859
1.748,-0.0236
1.752,-0.14087
1.756,-0.13508
1.76,-0.12284
1.764,-0.09665
1.768,-0.03649
1.772,-0.03137
1.776,0.02864
1.78,0.032
1.784,0.05104
1.788,0.02513
1.792,0.03271
1.796,0.04247
1.8,0.0248
1.804,0.01836
1.808,0.03866
1.812,0.02365
1.816,0.033
1.82,0.03933
1.824,0.01739
1.828,0.03273
1.832,0.00697
1.836,0.05652
1.84,0.024
1.844,0.01594
1.848,0.00106
1.852,0.0516
1.856,0.02954
1.86,0.05738
1.864,0.03525
1.868,0.01664
1.872,0.04715
1.876,0.02204
1.88,0.03519
1.884,0.03021
1.888,0.02112
1.892,0.04895
1.896,0.03769
1.9,0.03478
1.904,0.03078
1.908,0.05904
1.912,0.06842
1.916,0.07101
1.92,0.07406
1.924,0.08572
1.928,0.09669
1.932,0.08064
1.936,0.09949
1.94,0.09723
1.944,0.10263
1.948,0.11088
1.952,0.15864
1.956,0.1509
1.96,0.16559
1.964,0.16363
1.968,0.20717
1.972,0.20181
1.976,0.21185
1.98,0.22526
1.984,0.25027
1.988,0.24449
1.992,0.23814
1.996,0.2391
2.0,0.26184
2.004,0.26392
2.008,0.2456
2.012,0.24242
2.016,0.22522
2.02,0.21131
2.024,0.22954
2.028,0.20362
2.032,0.22101
2.036,0.19327
2.04,0.19015
2.044,0.16909
2.048,0.1572
2.052,0.13808
2.056,0.13847
2.06,0.12784
2.064,0.11302
2.068,0.12663
2.072,0.07169
2.076,0.08094
2.08,0.08023
2.084,0.05387
2.088,0.08497
2.092,0.04992
2.096,0.0467
2.1,0.07109
2.104,-0.00511
2.108,0.06602
2.112,0.02892
2.116,0.03883
2.12,0.06635
2.124,0.00765
2.128,0.03225
2.132,0.01855
2.136,0.01468
2.14,0.03851
2.144,0.03175
2.148,0.00265
2.152,0.02738
2.156,0.03918
2.16,0.0005
2.164,0.01127
2.168,0.04876
2.172,0.02159
2.176,0.04576
2.18,0.01379
2.184,0.00677
2.188,0.02436
2.192,0.02246
2.196,-0.0038
2.2,0.03578
2.204,0.03975
2.208,0.0214
2.212,0.03281
2.216,-0.00651
2.22,0.04187
2.224,0.03577
2.228,0.03042
2.232,0.03557
2.236,0.02529
2.24,0.05178
2.244,0.05052
2.248,0.09406
2.252,0.07534
2.256,0.09579
2.26,0.09886
2.264,0.09978
2.268,0.10485
2.272,0.11511
2.276,0.12137
2.28,0.11449
2.284,0.10359
2.288,0.09211
2.292,0.09307
2.296,0.0723
2.3,0.06413
2.304,0.05572
2.308,0.03052
2.312,0.03553
2.316,0.06501
2.32,0.01456
2.324,0.01136
2.328,0.01553
2.332,-0.00592
2.336,0.00025
2.34,0.01012
2.344,0.01227
2.348,0.00412
2.352,-0.0244
2.356,0.00526
2.36,0.02203
2.364,0.00079
2.368,0.04119
2.372,0.03208
2.376,0.01426
2.38,0.00961
2.384,0.01803
2.388,-0.03477
2.392,-0.03536
2.396,-0.06498
2.4,-0.08639
2.404,-0.1247
2.408,-0.04597
2.412,0.06241
2.416,0.24267
2.42,0.42707
2.424,0.63589
2.428,0.8501
2.432,0.95794
2.436,1.04411
2.44,0.94035
2.444,0.76435
2.448,0.53922
2.452,0.29788
2.456,0.12472
2.46,-0.04656
2.464,-0.12866
2.468,-0.16602
2.472,-0.13068
2.476,-0.09312
2.48,-0.04892
2.484,-0.03687
2.488,-0.00059
2.492,-0.01358
2.496,0.00031
2.5,0.01492
2.504,0.00521
2.508,0.01095
2.512,-0.00559
2.516,0.00665
2.52,0.02532
2.524,0.03777
2.528,0.00884
2.532,0.04485
2.536,-0.00117
2.54,0.01711
2.544,0.02005
2.548,-0.00054
2.552,0.02552
2.556,0.02748
2.56,0.0124
2.564,0.01045
2.568,0.00935
2.572,0.029
2.576,-0.00018
2.58,0.00602
2.584,0.01085
2.588,0.03975
2.592,0.02369
2.596,0.01062
2.6,0.01666
2.604,-0.00644
2.608,0.03978
2.612,0.00788
2.616,0.06719
2.62,0.03108
2.624,0.01688
2.628,0.08255
2.632,0.04752
2.636,0.07042
2.64,0.06859
2.644,0.05189
2.648,0.08315
2.652,0.08698
2.656,0.09593
2.66,0.12926
2.664,0.11177
2.668,0.10207
2.672,0.14843
2.676,0.15924
2.68,0.16521
2.684,0.1834
2.688,0.1796
2.692,0.21933
2.696,0.23734
2.7,0.24237
2.704,0.20823
2.708,0.19972
2.712,0.20104
2.716,0.25278
2.72,0.23908
2.724,0.20939
2.728,0.22753
2.732,0.20373
2.736,0.19544
2.74,0.1937
2.744,0.1849
2.748,0.18286
2.752,0.19465
2.756,0.15714
2.76,0.15152
2.764,0.11087
2.768,0.09526
2.772,0.11557
2.776,0.10559
2.78,0.09598
2.784,0.03965
2.788,0.08529
2.792,0.05654
2.796,0.07377
2.8,0.03667
2.804,0.01925
2.808,0.03876
2.812,0.01351
2.816,0.03623
2.82,0.00135
2.824,0.01247
2.828,0.03908
2.832,0.01096
2.836,-0.00103
2.84,0.01132
2.844,0.01767
2.848,0.02086
2.852,-0.01446
2.856,0.03412
2.86,0.02153
2.864,0.02447
2.868,0.01014
2.872,0.02188
2.876,0.00079
2.88,0.02411
2.884,-0.00893
2.888,0.0022
2.892,0.01528
2.896,0.01634
2.9,0.00142
2.904,0.02588
2.908,0.00246
2.912,0.00865
2.916,-0.00266
2.92,0.00671
2.924,0.00982
2.928,0.00933
2.932,0.01375
2.936,-0.01329
2.94,0.0208
2.944,0.0169
2.948,-0.00457
2.952,-0.01216
2.956,0.01202
2.96,0.00551
2.964,-0.0027
2.968,0.01051
2.972,0.00625
2.976,-0.0023
2.98,0.0066
2.984,-0.00688
2.988,0.00719
2.992,0.00175
2.996,0.00743
3.0,-0.00987
3.004,-0.00647
3.008,0.00489
3.012,0.00523
3.016,0.03026
3.02,-0.00537
3.024,-0.00561
3.028,-0.01049
3.032,-0.00567
3.036,-0.02279
3.04,0.04184
3.044,-0.00406
3.048,-0.00505
3.052,0.00592
3.056,-0.00238
3.06,0.00604
3.064,-0.00204
3.068,0.02491
3.072,0.01688
3.076,0.01367
3.08,0.00211
3.084,0.00111
3.088,0.03153
3.092,0.00246
3.096,0.01748
3.1,0.00267
3.104,-0.00785
3.108,0.03792
3.112,-0.00677
3.116,0.01048
3.12,0.01958
3.124,0.01384
3.128,-0.01462
3.132,-0.01159
3.136,0.00936
3.14,-0.00403
3.144,-0.00767
3.148,0.01313
3.152,-0.0431
3.156,0.00375
3.16,-0.00349
3.164,-0.00435
3.168,0.00185
3.172,0.01267
3.176,0.02266
3.18,0.01172
3.184,0.05014
3.188,0.08266
3.192,0.05233
3.196,0.06994
3.2,0.07102
3.204,0.08702
3.208,0.09453
3.212,0.10936
3.216,0.09326
3.22,0.08662
3.224,0.06363
3.228,0.07993
3.232,0.03035
3.236,0.05311
3.24,0.03192
3.244,0.01199
3.248,0.00236
3.252,0.01161
3.256,-0.01225
3.26,0.00187
3.264,-0.02107
3.268,-0.02814
3.272,0.02068
3.276,-0.00476
3.28,-0.0269
3.284,-0.00098
3.288,-0.00348
3.292,0.01526
3.296,-0.02156
3.3,-0.02785
3.304,-0.00478
3.308,0.01723
3.312,-0.01341
3.316,-0.00494
3.32,0.00612
3.324,-0.02374
3.328,-0.03553
3.332,-0.10397
3.336,-0.13948
3.34,-0.12883
3.344,0.01642
3.348,0.09899
3.352,0.29103
3.356,0.52344
3.36,0.72004
3.364,0.87109
3.368,0.96675
3.372,0.97216
3.376,0.82554
3.38,0.64393
3.384,0.37773
3.388,0.20388
3.392,0.03101
3.396,-0.1334
3.4,-0.16941
3.404,-0.17199
3.408,-0.14286
3.412,-0.09991
3.416,-0.06204
3.42,-0.04167
3.424,-0.02692
3.428,-0.02698
3.432,-0.01381
3.436,0.00067
3.44,-0.00503
3.444,-0.00115
3.448,-0.02099
3.452,-0.00694
3.456,-0.03126
3.46,-0.00961
3.464,-0.02386
3.468,-0.01447
3.472,-0.01135
3.476,-0.02312
3.48,-0.00917
3.484,-0.00547
3.488,-0.01353
3.492,0.0208
3.496,-0.00091
3.5,0.0067
3.504,0.00954
3.508,0.02005
3.512,0.00373
3.516,-0.0248
3.52,-0.01072
3.524,-0.00646
3.528,0.00725
3.532,0.00249
3.536,0.01588
3.54,-0.00603
3.544,-0.01124
3.548,0.00796
3.552,9e-05
3.556,-0.00097
3.56,0.01584
3.564,0.04843
3.568,0.03861
3.572,0.01498
3.576,0.02874
3.58,0.08025
3.584,0.05978
3.588,0.05405
3.592,0.07785
3.596,0.08931
3.6,0.09422
3.604,0.11186
3.608,0.11364
3.612,0.14821
3.616,0.15556
3.62,0.16418
3.624,0.17416
3.628,0.17734
3.632,0.20097
3.636,0.20713
3.64,0.23582
3.644,0.21655
3.648,0.20055
3.652,0.19819
3.656,0.20344
3.66,0.20445
3.664,0.18432
3.668,0.199
3.672,0.1749
3.676,0.16473
3.68,0.11623
3.684,0.14856
3.688,0.1232
3.692,0.11319
3.696,0.11453
3.7,0.09252
3.704,0.10785
3.708,0.08048
3.712,0.04546
3.716,0.06181
3.72,0.05337
3.724,0.03548
3.728,0.01607
3.732,-0.00249
3.736,0.02373
3.74,0.04873
3.744,0.02516
3.748,0.00768
3.752,0.0105
3.756,-0.00917
3.76,0.00112
3.764,-0.01929
3.768,0.00854
3.772,0.00107
3.776,-0.02597
3.78,-0.01726
3.784,-0.01973
3.788,-0.0111
3.792,0.01106
3.796,-0.01082
3.8,-0.01104
3.804,-0.02223
3.808,-0.02139
3.812,0.00327
3.816,-0.03725
3.82,0.01307
3.824,-0.03483
3.828,0.00323
3.832,0.01317
3.836,-0.02724
3.84,-0.04214
3.844,-0.00386
3.848,0.00188
3.852,-0.02321
3.856,0.02831
3.86,0.00699
3.864,0.01843
3.868,0.00866
3.872,0.03299
3.876,0.0411
3.88,0.0631
3.884,0.07465
3.888,0.09958
3.892,0.08618
3.896,0.07422
3.9,0.07814
3.904,0.05675
3.908,0.05465
3.912,0.03877
3.916,0.02198
3.92,0.01942
3.924,0.05184
3.928,-0.00403
3.932,-0.02651
3.936,-0.00304
3.94,-0.03299
3.944,-0.03063
3.948,-0.005
3.952,-0.00141
3.956,-0.02385
3.96,-0.03685
3.964,-0.0275
3.968,-0.03236
3.972,-0.02246
3.976,-0.02628
3.98,-0.03882
3.984,-0.01043
3.988,-0.04805
3.992,-0.01789
3.996,-0.01292
4.0,-0.02845
4.004,-0.0488
4.008,-0.04017
4.012,-0.08859
4.016,-0.10634
4.02,-0.16401
4.024,-0.09144
4.028,-0.00456
4.032,0.19676
4.036,0.38025
4.04,0.59743
4.044,0.80953
4.048,0.91951
4.052,1.01145
4.056,0.91948
4.06,0.76395
4.064,0.50764
4.068,0.30034
4.072,0.08319
4.076,-0.09708
4.08,-0.16528
4.084,-0.20343
4.088,-0.1846
4.092,-0.15124
4.096,-0.12686
4.1,-0.06576
4.104,-0.03479
4.108,-0.04402
4.112,-0.03551
4.116,-0.03622
4.12,-0.03515
4.124,0.00185
4.128,-0.02585
4.132,-0.00833
4.136,-0.01271
4.14,-0.01938
4.144,-0.04414
4.148,-0.0218
4.152,-0.0438
4.156,-0.02617
4.16,-0.03959
4.164,-0.00761
4.168,-0.0003
4.172,-0.02071
4.176,-0.01846
4.18,0.00224
4.184,-0.0355
4.188,-0.02053
4.192,-0.03678
4.196,-0.03555
4.2,-0.0236
4.204,-0.0325
4.208,-0.02439
4.212,0.0015
4.216,-0.04809
4.22,-0.02059
4.224,-0.01987
4.228,0.01491
4.232,0.01056
4.236,0.01194
4.24,-0.00136
4.244,0.01909
4.248,0.01521
4.252,0.0229
4.256,0.01765
4.26,0.04043
4.264,0.04741
4.268,0.04418
4.272,0.06588
4.276,0.0745
4.28,0.10957
4.284,0.08955
4.288,0.1162
4.292,0.12453
4.296,0.11321
4.3,0.12049
4.304,0.14107
4.308,0.15487
4.312,0.2024
4.316,0.15208
4.32,0.18143
4.324,0.18611
4.328,0.19233
4.332,0.17381
4.336,0.18306
4.34,0.20205
4.344,0.21019
4.348,0.16728
4.352,0.18549
4.356,0.14433
4.36,0.18203
4.364,0.15403
4.368,0.1237
4.372,0.12153
4.376,0.11612
4.38,0.066
4.384,0.06705
4.388,0.08515
4.392,0.06916
4.396,0.05691
4.4,0.03766
4.404,0.04227
4.408,-0.00048
4.412,0.01795
4.416,0.00923
4.42,-0.01188
4.424,-0.01343
4.428,-0.01686
4.432,-0.00154
4.436,-0.00559
4.44,-0.03281
4.444,-0.0353
4.448,-0.0271
4.452,-0.03078
4.456,-0.0281
4.46,-0.01491
4.464,-0.03094
4.468,-0.02095
4.472,-0.00313
4.476,-0.01626
4.48,-0.00881
4.484,-0.01228
4.488,-0.0161
4.492,-0.03725
4.496,-0.02667
4.5,-0.02721
4.504,-0.03569
4.508,-0.03026
4.512,-0.0599
4.516,-0.04478
4.52,-0.03041
4.524,-0.03414
4.528,-0.0527
4.532,-0.0328
4.536,-0.02889
4.54,-0.00124
4.544,-0.02003
4.548,-0.00637
4.552,-0.01408
4.556,-0.02544
4.56,-0.05135
4.564,-0.00612
4.568,-0.02793
4.572,-0.02726
4.576,-0.03142
4.58,-0.00442
4.584,-0.04099
4.588,-0.0442
4.592,-0.04161
4.596,-0.01989
4.6,-0.0812
4.604,-0.02074
4.608,-0.0352
4.612,-0.03937
4.616,-0.05506
4.62,-0.01892
4.624,-0.05387
4.628,-0.04955
4.632,-0.00628
4.636,-0.02419
4.64,-0.04068
4.644,-0.0072
4.648,-0.03324
4.652,-0.01877
4.656,-0.02602
4.66,-0.03241
4.664,-0.02254
4.668,-0.02474
4.672,-0.01401
4.676,-0.01778
4.68,0.00136
4.684,-0.01762
4.688,0.01138
4.692,0.02778
4.696,0.01898
4.7,0.05522
4.704,0.06547
4.708,0.08871
4.712,0.08107
4.716,0.05742
4.72,0.0627
4.724,0.04559
4.728,0.06817
4.732,0.03818
4.736,0.00789
4.74,0.00321
4.744,0.017
4.748,-0.00175
4.752,0.00362
4.756,-0.04279
4.76,-0.00394
4.764,-0.02492
4.768,-0.02352
4.772,-0.035
4.776,-0.01391
4.78,-0.01941
4.784,-0.07873
4.788,-0.02326
4.792,-0.01178
4.796,-0.03656
4.8,-0.00574
4.804,-0.02409
4.808,-0.04476
4.812,-0.02567
4.816,-0.03492
4.82,-0.02027
4.824,-0.0404
4.828,-0.03373
4.832,-0.05699
4.836,-0.08791
4.84,-0.11464
4.844,-0.11681
4.848,-0.09976
4.852,0.00187
4.856,0.15379
4.86,0.35634
4.864,0.55828
4.868,0.78352
4.872,0.92575
4.876,0.96325
4.88,0.94843
4.884,0.747
4.888,0.53129
4.892,0.33657
4.896,0.10664
4.9,-0.08197
4.904,-0.16281
4.908,-0.17626
4.912,-0.20614
4.916,-0.1168
4.92,-0.10621
4.924,-0.08672
4.928,-0.06691
4.932,-0.03445
4.936,-0.05763
4.94,-0.01637
4.944,-0.01906
4.948,-0.03839
4.952,-0.04161
4.956,-0.02436
4.96,-0.04224
4.964,-0.04461
4.968,-0.04836
4.972,-0.03658
4.976,-0.03975
4.98,-0.0328
4.984,-0.02058
4.988,-0.03878
4.992,-0.01213
4.996,-0.02757
5.0,-0.01761
5.004,-0.02372
5.008,-0.03254
5.012,-0.04572
5.016,-0.04129
5.02,-0.02338
5.024,-0.00738
5.028,-0.03571
5.032,-0.02718
5.036,-0.02292
5.04,-0.018
5.044,-0.00357
5.048,-0.00984
5.052,-0.01435
5.056,0.01968
5.06,-0.00388
5.064,-0.00838
5.068,0.00422
5.072,0.03569
5.076,0.01351
5.08,0.02033
5.084,0.02666
5.088,0.04918
5.092,0.05874
5.096,0.07582
5.1,0.08015
5.104,0.06694
5.108,0.0688
5.112,0.13034
5.116,0.1437
5.12,0.14377
5.124,0.11514
5.128,0.14672
5.132,0.17073
5.136,0.16017
5.14,0.19669
5.144,0.19766
5.148,0.19056
5.152,0.19374
5.156,0.21219
5.16,0.18975
5.164,0.19919
5.168,0.1794
5.172,0.17278
5.176,0.18435
5.18,0.15132
5.184,0.16531
5.188,0.14153
5.192,0.10108
5.196,0.12831
5.2,0.10771
5.204,0.07043
5.208,0.07349
5.212,0.08394
5.216,0.04967
5.22,0.06272
5.224,0.05289
5.228,0.04575
5.232,0.02232
5.236,0.02785
5.24,-0.01956
5.244,0.01376
5.248,0.02866
5.252,0.01038
5.256,0.02253
5.26,-0.01828
5.264,-0.03103
5.268,0.01147
5.272,-0.03655
5.276,-0.00413
5.28,-0.03292
5.284,-0.02541
5.288,-0.00683
5.292,-0.01785
5.296,-0.00587
5.3,-0.02022
5.304,-0.03393
5.308,-0.02951
5.312,-0.00405
5.316,-0.04991
5.32,-0.01424
5.324,-0.01703
5.328,-0.02539
5.332,-0.0342
5.336,-0.00348
5.34,-0.03934
5.344,-0.0374
5.348,0.00963
5.352,-0.00336
5.356,-0.01233
5.36,-0.04712
5.364,-0.03651
5.368,-0.03562
5.372,-0.03814
5.376,-0.00955
5.38,-0.06168
5.384,-0.03569
5.388,-0.02881
5.392,-0.02873
5.396,-0.02471
5.4,-0.01264
5.404,-0.03903
5.408,-0.02858
5.412,-0.03473
5.416,-0.03266
5.42,-0.02949
5.424,-0.01739
5.428,-0.03318
5.432,-0.01261
5.436,-0.02312
5.44,-0.01883
5.444,-0.02614
5.448,-0.00144
5.452,-0.03562
5.456,-0.04036
5.46,-0.02017
5.464,-0.02376
5.468,-0.03554
5.472,-0.01513
5.476,-0.01653
5.48,-0.01344
5.484,-0.01456
5.488,-0.02927
5.492,-0.04779
5.496,-0.0181
5.5,-0.01883
5.504,-0.04738
5.508,-0.02409
5.512,-0.00332
5.516,-0.00859
5.52,-0.01813
5.524,0.00265
5.528,-0.02413
5.532,0.01616
5.536,0.00553
5.54,0.00961
5.544,0.03499
5.548,0.05073
5.552,0.07214
5.556,0.09482
5.56,0.07935
5.564,0.08308
5.568,0.07178
5.572,0.07953
5.576,0.08347
5.58,0.05409
5.584,0.04914
5.588,0.03869
5.592,0.06026
5.596,-0.00863
5.6,0.01904
5.604,-0.00613
5.608,-0.01286
5.612,0.00983
5.616,0.00267
5.62,-0.02096
5.624,-0.03537
5.628,-0.00011
5.632,-0.03586
5.636,-0.03483
5.64,-0.01247
5.644,-0.04593
5.648,-0.01589
5.652,-0.0114
5.656,-0.02248
5.66,-0.02884
5.664,-0.02815
5.668,-0.03202
5.672,-0.03133
5.676,-0.03224
5.68,-0.05044
5.684,-0.07039
5.688,-0.11979
5.692,-0.1421
5.696,-0.10467
5.7,-0.08007
5.704,0.08809
5.708,0.25215
5.712,0.46447
5.716,0.67255
5.72,0.8511
5.724,0.94951
5.728,0.97609
5.732,0.88557
5.736,0.64553
5.74,0.46308
5.744,0.21769
5.748,0.02597
5.752,-0.13533
5.756,-0.20384
5.76,-0.17352
5.764,-0.15679
5.768,-0.12029
5.772,-0.07352
5.776,-0.04558
5.78,-0.01517
5.784,-0.00378
5.788,-0.04346
5.792,-0.00796
5.796,-0.02352
5.8,-0.02886
5.804,-0.01063
5.808,-0.03417
5.812,-0.00659
5.816,-0.01309
5.82,-0.03253
5.824,0.00268
5.828,-0.0255
5.832,-0.03454
5.836,-0.01894
5.84,-0.01927
5.844,-0.02391
5.848,-0.05269
5.852,-0.03406
5.856,-0.00596
5.86,-0.00277
5.864,-0.02234
5.868,0.0044
5.872,-0.02752
5.876,-0.03842
5.88,-0.03602
5.884,-0.0145
5.888,-0.00473
5.892,-0.01599
5.896,-0.00841
5.9,-0.01115
5.904,-0.01119
5.908,0.0012
5.912,0.00247
5.916,0.01199
5.92,0.03011
5.924,0.02851
5.928,0.02456
5.932,0.02982
5.936,0.02852
5.94,0.07803
5.944,0.08682
5.948,0.05152
5.952,0.13145
5.956,0.06767
5.96,0.12402
5.964,0.132
5.968,0.17182
5.972,0.14473
5.976,0.18321
5.98,0.18789
5.984,0.1976
5.988,0.17135
5.992,0.20758
5.996,0.20444
6.0,0.20656
6.004,0.20682
6.008,0.22367
6.012,0.1903
6.016,0.22474
6.02,0.20167
6.024,0.18332
6.028,0.18206
6.032,0.18672
6.036,0.16182
6.04,0.17517
6.044,0.14193
6.048,0.13832
6.052,0.15024
6.056,0.12318
6.06,0.10852
6.064,0.09166
6.068,0.05276
6.072,0.05321
6.076,0.07722
6.08,0.04022
6.084,0.02964
6.088,0.05406
6.092,0.01313
6.096,0.03663
6.1,0.01233
6.104,0.01628
6.108,0.02238
6.112,0.02423
6.116,0.00018
6.12,-0.02056
6.124,0.00861
6.128,0.00258
6.132,-0.01788
6.136,-0.00463
6.14,0.01738
6.144,-0.01077
6.148,-0.01946
6.152,-0.01008
6.156,-0.00345
6.16,-0.01432
6.164,-0.01069
6.168,0.00799
6.172,-0.01986
6.176,-0.00241
6.18,-0.02795
6.184,0.00182
6.188,-0.00913
6.192,-0.02835
6.196,-0.00076
6.2,-0.01094
6.204,-0.00436
6.208,0.02092
6.212,-0.02644
6.216,0.0009
6.22,0.00502
6.224,-0.0064
6.228,-0.0097
6.232,0.00716
6.236,-0.0016
6.24,0.00519
6.244,-0.01824
6.248,-0.01051
6.252,-0.00731
6.256,-0.01537
6.26,-0.03838
6.264,0.02523
6.268,-0.01926
6.272,-0.02044
6.276,0.02776
6.28,-0.00571
6.284,0.00371
6.288,-0.00529
6.292,0.00256
6.296,0.00506
6.3,0.00372
6.304,-0.00639
6.308,-0.00811
6.312,0.01099
6.316,0.00774
6.32,0.00713
6.324,-0.00435
6.328,-0.00304
6.332,0.00929
6.336,0.00407
6.34,-0.00213
6.344,0.00776
6.348,0.0027
6.352,-0.01373
6.356,-0.01195
6.36,0.01846
6.364,0.02849
6.368,-0.00402
6.372,0.01155
6.376,0.02696
6.38,0.06449
6.384,0.02911
6.388,0.03526
6.392,0.07651
6.396,0.08392
6.4,0.10529
6.404,0.10805
6.408,0.1166
6.412,0.13115
6.416,0.06525
6.42,0.08258
6.424,0.06907
6.428,0.0566
6.432,0.0297
6.436,0.03547
6.44,0.02189
6.444,-0.00798
6.448,0.04488
6.452,0.03102
6.456,0.00262
6.46,0.00423
6.464,-0.00797
6.468,-0.01849
6.472,0.02093
6.476,0.01519
6.48,0.00647
6.484,0.01327
6.488,-0.00416
6.492,0.02558
6.496,0.0078
6.5,0.00255
6.504,-0.00239
6.508,-0.00204
6.512,-0.00536
6.516,0.00663
6.52,-0.00625
6.524,-0.03068
6.528,-0.0577
6.532,-0.09046
6.536,-0.09799
6.54,-0.07544
6.544,0.01933
6.548,0.11849
6.552,0.31119
6.556,0.53114
6.56,0.73989
6.564,0.9268
6.568,0.98927
6.572,0.97671
6.576,0.86599
6.58,0.59821
6.584,0.43616
6.588,0.17277
6.592,0.01281
6.596,-0.08143
6.6,-0.16265
6.604,-0.16639
6.608,-0.12449
6.612,-0.07584
6.616,-0.04566
6.62,-0.03745
6.624,-0.02805
6.628,-0.01405
6.632,0.04569
6.636,0.00157
6.64,-0.00639
6.644,0.00116
6.648,0.00077
6.652,0.00189
6.656,-0.00475
6.66,0.02969
6.664,0.00318
6.668,0.02564
6.672,0.00917
6.676,0.00645
6.68,0.00389
6.684,0.02069
6.688,0.01674
6.692,0.01185
6.696,0.03106
6.7,0.02517
6.704,0.02027
6.708,0.01618
6.712,-0.00171
6.716,0.00214
6.72,0.03271
6.724,0.00893
6.728,0.03376
6.732,-0.005
6.736,0.01968
6.74,0.02092
6.744,0.03847
6.748,0.04558
6.752,0.02597
6.756,0.04095
6.76,0.03647
6.764,0.06272
6.768,0.05456
6.772,0.05987
6.776,0.06813
6.78,0.07346
6.784,0.10041
6.788,0.09669
6.792,0.08177
6.796,0.12261
6.8,0.14655
6.804,0.14469
6.808,0.15265
6.812,0.1802
6.816,0.15422
6.82,0.22547
6.824,0.18991
6.828,0.21146
6.832,0.20649
6.836,0.23775
6.84,0.24486
6.844,0.23402
6.848,0.23646
6.852,0.2511
6.856,0.22036
6.86,0.21306
6.864,0.22798
6.868,0.20849
6.872,0.20103
6.876,0.19809
6.88,0.1862
6.884,0.20038
6.888,0.17527
6.892,0.13255
6.896,0.15942
6.9,0.12025
6.904,0.1458
6.908,0.11179
6.912,0.10917
6.916,0.07828
6.92,0.04768
6.924,0.08663
6.928,0.0608
6.932,0.04237
6.936,0.06819
6.94,0.01058
6.944,0.05273
6.948,0.01355
6.952,-0.00144
6.956,0.03575
6.96,0.04158
6.964,0.01614
6.968,0.03565
6.972,0.01077
6.976,0.03685
6.98,0.01222
6.984,-0.01004
6.988,-0.00188
6.992,0.01269
6.996,0.02221
7.0,0.00911
7.004,0.02253
7.008,0.01505
7.012,0.03081
7.016,0.03978
7.02,0.00387
7.024,-0.00497
7.028,0.02262
7.032,0.00729
7.036,0.00795
7.04,-0.00864
7.044,0.03969
7.048,-0.00348
7.052,0.02201
7.056,0.01582
7.06,-0.00544
7.064,-0.00242
7.068,0.03395
7.072,-0.00397
7.076,0.03256
7.08,0.04548
7.084,0.03185
7.088,0.01758
7.092,0.03223
7.096,-0.00843
7.1,0.02607
7.104,0.03183
7.108,0.00232
7.112,0.03874
7.116,-0.01529
7.12,0.01575
7.124,0.05301
7.128,0.04381
7.132,0.04527
7.136,0.06876
7.14,0.08539
7.144,0.07519
7.148,0.08967
7.152,0.08533
7.156,0.11471
7.16,0.1168
7.164,0.12632
7.168,0.12728
7.172,0.1526
7.176,0.11436
7.18,0.11848
7.184,0.07796
7.188,0.02748
7.192,0.0514
7.196,0.04672
7.2,0.03318
7.204,0.02954
7.208,0.01481
7.212,0.01831
7.216,0.03301
7.22,0.04924
7.224,0.02889
7.228,0.02149
7.232,0.03552
7.236,0.01776
7.24,0.0166
7.244,-0.02584
7.248,0.03348
7.252,0.03879
7.256,0.00521
7.26,0.02202
7.264,0.01753
7.268,0.02569
7.272,0.0155
7.276,0.00789
7.28,-0.03352
7.284,-0.05492
7.288,-0.06986
7.292,-0.09017
7.296,-0.06017
7.3,0.05279
7.304,0.22149
7.308,0.43204
7.312,0.63348
7.316,0.84203
7.32,0.96232
7.324,1.02776
7.328,0.95404
7.332,0.79031
7.336,0.57154
7.34,0.33031
7.344,0.13147
7.348,-0.03734
7.352,-0.13207
7.356,-0.16815
7.36,-0.12783
7.364,-0.0692
7.368,-0.04634
7.372,-0.0063
7.376,0.02132
7.38,0.04116
7.384,0.02596
7.388,0.02317
7.392,0.02475
7.396,0.01699
7.4,0.01287
7.404,0.00241
7.408,0.03993
7.412,0.03425
7.416,0.01801
7.42,0.01223
7.424,0.02446
7.428,0.0458
7.432,0.05053
7.436,0.03655
7.44,0.03254
7.444,0.02519
7.448,0.01839
7.452,0.00114
7.456,0.01535
7.46,0.05527
7.464,0.01164
7.468,0.0316
7.472,0.01124
7.476,0.01756
7.48,0.02907
7.484,0.02664
7.488,0.02437
7.492,0.03417
7.496,0.03798
7.5,0.0322
7.504,0.05509
7.508,0.05561
7.512,0.06559
7.516,0.04205
7.52,0.0632
7.524,0.08668
7.528,0.09351
7.532,0.09741
7.536,0.09624
7.54,0.11107
7.544,0.10181
7.548,0.10628
7.552,0.13529
7.556,0.16879
7.56,0.16706
7.564,0.18015
7.568,0.18727
7.572,0.20068
7.576,0.18968
7.58,0.22859
7.584,0.25161
7.588,0.22066
7.592,0.21554
7.596,0.26541
7.6,0.23754
7.604,0.2344
7.608,0.23112
7.612,0.2243
7.616,0.23487
7.62,0.23826
7.624,0.22592
7.628,0.18789
7.632,0.19995
7.636,0.18691
7.64,0.18035
7.644,0.19494
7.648,0.15433
7.652,0.16059
7.656,0.14747
7.66,0.13947
7.664,0.10283
7.668,0.13323
7.672,0.1157
7.676,0.09526
7.68,0.09517
7.684,0.05556
7.688,0.09157
7.692,0.06254
7.696,0.06367
7.7,0.06
7.704,0.04704
7.708,0.06829
7.712,0.05313
7.716,0.02164
7.72,0.0633
7.724,0.024
7.728,0.02155
7.732,0.03082
7.736,0.03615
7.74,0.02176
7.744,0.03463
7.748,0.03907
7.752,0.02254
7.756,0.02759
7.76,0.0426
7.764,0.01411
7.768,0.03802
7.772,0.03627
7.776,0.02934
7.78,0.06425
7.784,0.00572
7.788,0.03123
7.792,0.00774
7.796,0.01707
7.8,0.01843
7.804,0.05226
7.808,0.0228
7.812,0.02731
7.816,0.01043
7.82,0.01877
7.824,0.03055
7.828,0.0209
7.832,-0.00045
7.836,0.01139
7.84,0.0433
7.844,0.05677
7.848,0.05291
7.852,0.01796
7.856,0.03597
7.86,0.00379
7.864,0.04285
7.868,0.01221
7.872,0.05152
7.876,0.03992
7.88,0.03067
7.884,0.04131
7.888,0.041
7.892,0.03915
7.896,0.03987
7.9,0.07936
7.904,0.10356
7.908,0.13602
7.912,0.12913
7.916,0.12551
7.92,0.12603
7.924,0.13973
7.928,0.14983
7.932,0.13655
7.936,0.11719
7.94,0.11471
7.944,0.08907
7.948,0.07254
7.952,0.06598
7.956,0.04124
7.96,0.0621
7.964,0.03219
7.968,0.04828
7.972,0.03359
7.976,0.0129
7.98,0.02105
7.984,0.03168
7.988,0.01399
7.992,0.05589
7.996,0.03985
8.0,0.03021
8.004,0.04072
8.008,0.04129
8.012,0.03412
8.016,0.03733
8.02,0.0385
8.024,0.01259
8.028,0.01852
8.032,0.03603
8.036,0.02194
8.04,-0.02479
8.044,-0.02389
8.048,-0.09565
8.052,-0.11621
8.056,-0.06392
8.06,0.038
8.064,0.18021
8.068,0.3854
8.072,0.58947
8.076,0.83085
8.08,0.97206
8.084,1.04019
8.088,0.98232
8.092,0.78729
8.096,0.60519
8.1,0.37179
8.104,0.17435
8.108,0.02414
8.112,-0.11448
8.116,-0.12974
8.12,-0.11607
8.124,-0.0977
8.128,-0.01943
8.132,-0.03802
8.136,-0.02048
8.14,0.0326
8.144,-0.0007
8.148,0.03885
8.152,0.02634
8.156,0.01611
8.16,0.01363
8.164,0.00938
8.168,0.0184
8.172,0.04162
8.176,0.01224
8.18,0.02144
8.184,0.04257
8.188,0.013
8.192,0.01274
8.196,0.01735
8.2,0.02713
8.204,0.05559
8.208,0.04022
8.212,0.05044
8.216,0.0352
8.22,0.04742
8.224,0.02837
8.228,0.03536
8.232,0.01916
8.236,0.04161
8.24,0.02452
8.244,0.03787
8.248,0.0347
8.252,0.04734
8.256,0.04225
8.26,0.05314
8.264,0.02865
8.268,0.05738
8.272,0.06115
8.276,0.06826
8.28,0.08179
8.284,0.05757
8.288,0.09407
8.292,0.10226
8.296,0.12017
8.3,0.11629
8.304,0.10372
8.308,0.12591
8.312,0.11621
8.316,0.17456
8.32,0.18244
8.324,0.16978
8.328,0.16485
8.332,0.19581
8.336,0.22193
8.34,0.20492
8.344,0.21334
8.348,0.21317
8.352,0.25875
8.356,0.22747
8.36,0.23879
8.364,0.27863
8.368,0.23248
8.372,0.24251
8.376,0.2703
8.38,0.22098
8.384,0.23773
8.388,0.19251
8.392,0.21666
8.396,0.20232
8.4,0.19561
8.404,0.20528
8.408,0.14855
8.412,0.17742
8.416,0.14151
8.42,0.1157
8.424,0.12644
8.428,0.09846
8.432,0.08576
8.436,0.08507
8.44,0.08826
8.444,0.04612
8.448,0.05028
8.452,0.0425
8.456,0.06258
8.46,0.06135
8.464,0.0211
8.468,0.04786
8.472,0.04836
8.476,0.02902
8.48,0.03012
8.484,0.03004
8.488,0.03881
8.492,0.01572
8.496,0.03103
8.5,0.03267
8.504,0.00264
8.508,0.02709
8.512,0.0182
8.516,0.02817
8.52,0.03049
8.524,0.05008
8.528,0.04128
8.532,0.01657
8.536,0.04928
8.54,0.03158
8.544,0.02448
8.548,0.00462
8.552,0.00014
8.556,-0.00213
8.56,0.05184
8.564,0.03021
8.568,0.02979
8.572,0.03262
8.576,0.02989
8.58,0.0447
8.584,0.03758
8.588,0.01049
8.592,0.02905
8.596,0.02747
8.6,-0.00452
8.604,0.01892
8.608,0.03755
8.612,0.00439
8.616,0.01696
8.62,0.06122
8.624,0.02077
8.628,0.02021
8.632,0.04016
8.636,0.05287
8.64,0.05684
8.644,0.0372
8.648,0.04464
8.652,0.04666
8.656,0.05996
8.66,0.09926
8.664,0.14117
8.668,0.10983
8.672,0.11391
8.676,0.11832
8.68,0.12722
8.684,0.13187
8.688,0.10065
8.692,0.09005
8.696,0.08292
8.7,0.08209
8.704,0.08325
8.708,0.08376
8.712,0.02812
8.716,0.05103
8.72,0.02345
8.724,0.04153
8.728,0.02404
8.732,0.03865
8.736,0.02724
8.74,0.02967
8.744,0.03061
8.748,0.02961
8.752,0.04609
8.756,0.02013
8.76,0.02228
8.764,0.01646
8.768,0.03758
8.772,0.02201
8.776,0.026
8.78,0.05297
8.784,0.04975
8.788,0.01918
8.792,0.02902
8.796,0.01827
8.8,-0.01025
8.804,-0.08517
8.808,-0.08134
8.812,-0.07248
8.816,0.01714
8.82,0.17597
8.824,0.3751
8.828,0.5877
8.832,0.8001
8.836,0.97303
8.84,1.01922
8.844,0.98002
8.848,0.82315
8.852,0.60805
8.856,0.37984
8.86,0.15375
8.864,0.0027
8.868,-0.11941
8.872,-0.15108
8.876,-0.14387
8.88,-0.1013
8.884,-0.03019
8.888,4e-05
8.892,-0.01721
8.896,-0.00559
8.9,0.01383
8.904,0.04405
8.908,0.06734
8.912,0.01672
8.916,0.01962
8.92,0.01972
8.924,0.04358
8.928,0.02943
8.932,0.04306
8.936,0.01551
8.94,0.02507
8.944,0.01556
8.948,0.00589
8.952,0.00561
8.956,0.0303
8.96,-0.00146
8.964,0.01629
8.968,0.01965
8.972,0.03083
8.976,0.00035
8.98,0.02229
8.984,0.01693
8.988,0.01313
8.992,-0.0048
8.996,0.02567
9.0,0.02905
9.004,0.03069
9.008,0.02126
9.012,0.04189
9.016,0.0088
9.02,0.04955
9.024,0.05682
9.028,0.03991
9.032,0.04604
9.036,0.03774
9.04,0.07841
9.044,0.04361
9.048,0.08097
9.052,0.09668
9.056,0.1313
9.06,0.13017
9.064,0.13136
9.068,0.13403
9.072,0.13943
9.076,0.16658
9.08,0.14754
9.084,0.1669
9.088,0.18175
9.092,0.20951
9.096,0.1854
9.1,0.20937
9.104,0.19465
9.108,0.2262
9.112,0.21891
9.116,0.25804
9.12,0.24493
9.124,0.2476
9.128,0.25112
9.132,0.25373
9.136,0.22386
9.14,0.23106
9.144,0.23593
9.148,0.19015
9.152,0.1681
9.156,0.16546
9.16,0.15472
9.164,0.13047
9.168,0.12104
9.172,0.09558
9.176,0.11109
9.18,0.12755
9.184,0.09624
9.188,0.08562
9.192,0.0479
9.196,0.05953
9.2,0.06571
9.204,0.03554
9.208,0.06067
9.212,0.04991
9.216,0.05114
9.22,0.02827
9.224,0.03742
9.228,0.04831
9.232,0.03287
9.236,0.00046
9.24,0.03283
9.244,0.02841
9.248,0.00921
9.252,0.02118
9.256,0.01803
9.26,0.02021
9.264,0.00169
9.268,0.02568
9.272,-0.00167
9.276,0.00779
9.28,0.00211
9.284,0.02768
9.288,-0.00478
9.292,0.02656
9.296,0.01336
9.3,0.00432
9.304,-0.00017
9.308,0.02036
9.312,0.03434
9.316,-0.0168
9.32,0.01168
9.324,0.01662
9.328,0.00693
9.332,0.00333
9.336,0.00634
9.34,0.03565
9.344,0.02113
9.348,-0.01996
9.352,0.01271
9.356,0.02281
9.36,-0.01707
9.364,0.00275
9.368,0.00155
9.372,0.0214
9.376,0.01256
9.38,0.01104
9.384,0.00324
9.388,0.01143
9.392,0.01336
9.396,-0.00758
9.4,0.02953
9.404,0.02414
9.408,0.03065
9.412,0.00566
9.416,0.0057
9.42,-0.00357
9.424,0.02679
9.428,0.0082
9.432,0.00476
9.436,-0.02186
9.44,0.00688
9.444,-0.00735
9.448,0.0259
9.452,0.02332
9.456,0.022
9.46,0.01376
9.464,0.0012
9.468,0.00788
9.472,-0.00628
9.476,-0.00437
9.48,-0.00088
9.484,-0.01598
9.488,-0.00296
9.492,0.01517
9.496,0.00618
9.5,-0.01766
9.504,9e-05
9.508,-0.01742
9.512,0.02417
9.516,0.0207
9.52,-0.01189
9.524,0.02585
9.528,0.02231
9.532,0.0155
9.536,0.00431
9.54,0.00597
9.544,-0.00105
9.548,0.01125
9.552,0.02011
9.556,0.01578
9.56,0.02111
9.564,0.02694
9.568,0.05084
9.572,0.04993
9.576,0.05278
9.58,0.08221
9.584,0.10314
9.588,0.09789
9.592,0.10158
9.596,0.0994
9.6,0.08549
9.604,0.06385
9.608,0.0934
9.612,0.06822
9.616,0.05168
9.62,0.04883
9.624,0.04723
9.628,0.05113
9.632,0.04667
9.636,0.02035
9.64,0.03908
9.644,0.00898
9.648,-0.00764
9.652,0.02228
9.656,0.00463
9.66,-0.00265
9.664,-0.01056
9.668,0.02893
9.672,-0.03356
9.676,-0.00043
9.68,0.00394
9.684,0.00618
9.688,-0.01338
9.692,0.03355
9.696,-0.00635
9.7,0.01531
9.704,-0.015
9.708,-0.00313
9.712,-0.08023
9.716,-0.11565
9.72,-0.11893
9.724,-0.13185
9.728,-0.02251
9.732,0.10202
9.736,0.3111
9.74,0.52674
9.744,0.75662
9.748,0.90796
9.752,0.97781
9.756,0.97655
9.76,0.84557
9.764,0.63985
9.768,0.39143
9.772,0.19114
9.776,0.00703
9.78,-0.11784
9.784,-0.15014
9.788,-0.16857
9.792,-0.13262
9.796,-0.10766
9.8,-0.03943
9.804,-0.01869
9.808,0.00904
9.812,-0.02167
9.816,0.00048
9.82,-0.0056
9.824,-0.02573
9.828,0.01435
9.832,-0.00095
9.836,-0.01556
9.84,-0.00972
9.844,0.00723
9.848,-0.04004
9.852,-0.00908
9.856,-0.00903
9.86,0.00278
9.864,0.00018
9.868,-0.00037
9.872,0.01303
9.876,-0.0362
9.88,-0.02672
9.884,-0.00406
9.888,0.00306
9.892,0.01211
9.896,0.03136
9.9,-0.01858
9.904,-0.00064
9.908,0.00593
9.912,-0.00205
9.916,0.02587
9.92,0.00696
9.924,0.0046
9.928,0.00171
9.932,0.00812
9.936,0.03499
9.94,-0.00468
9.944,0.03717
9.948,0.02921
9.952,0.03858
9.956,0.04695
9.96,0.04396
9.964,0.06838
9.968,0.07114
9.972,0.09378
9.976,0.08484
9.98,0.09627
9.984,0.13194
9.988,0.12411
9.992,0.15668
9.996,0.16971
