t_seg,ecg_mV
0.0,-0.02501
0.004,-0.04374
0.008,-0.01919
0.012,-0.10044
0.016,-0.06128
0.02,-0.08762
0.024,-0.1886
0.028,-0.11539
0.032,-0.08234
0.036,0.06071
0.04,0.29508
0.044,0.5126
0.048,0.74623
0.052,0.90101
0.056,1.02318
0.06,0.95994
0.064,0.82776
0.068,0.64134
0.072,0.40263
0.076,0.16546
0.08,0.01147
0.084,-0.14792
0.088,-0.18237
0.092,-0.23188
0.096,-0.11002
0.1,-0.0857
0.104,-0.08824
0.108,-0.05129
0.112,-0.02801
0.116,-0.04869
0.12,0.02035
0.124,-0.01646
0.128,0.02021
0.132,-0.03384
0.136,-0.07588
0.14,-0.06107
0.144,-0.00207
0.148,-0.01269
0.152,-0.04809
0.156,0.05494
0.16,-0.014
0.164,-0.0046
0.168,-0.04958
0.172,0.01755
0.176,-0.02896
0.18,-0.03543
0.184,-0.08142
0.188,0.03533
0.192,-0.04536
0.196,-0.03441
0.2,-0.0034
0.204,0.02569
0.208,-0.02722
0.212,0.05115
0.216,0.02959
0.22,0.00138
0.224,-0.03509
0.228,-0.07253
0.232,-0.0224
0.236,-0.00403
0.24,0.01798
0.244,0.0604
0.248,-0.00891
0.252,0.03209
0.256,-0.04738
0.26,0.04677
0.264,0.02365
0.268,0.0984
0.272,0.05235
0.276,0.08194
0.28,-0.0014
0.284,0.03651
0.288,0.11801
0.292,0.08941
0.296,0.15172
0.3,0.20399
0.304,0.15229
0.308,0.18298
0.312,0.1568
0.316,0.17879
0.32,0.16767
0.324,0.23669
0.328,0.20415
0.332,0.20655
0.336,0.21062
0.34,0.22574
0.344,0.20475
0.348,0.23003
0.352,0.21798
0.356,0.18213
0.36,0.10527
0.364,0.14619
0.368,0.15098
0.372,0.21498
0.376,0.20802
0.38,0.09016
0.384,0.07952
0.388,0.03357
0.392,0.0591
0.396,0.10433
0.4,0.02562
0.404,0.02992
0.408,0.05523
0.412,0.00326
0.416,-0.01068
0.42,0.02103
0.424,0.05205
0.428,0.02519
0.432,0.02702
0.436,0.00911
0.44,0.06336
0.444,0.06541
0.448,0.07209
0.452,0.07776
0.456,0.07504
0.46,0.05982
0.464,0.13611
0.468,-0.01484
0.472,0.09448
0.476,0.02674
0.48,0.12574
0.484,0.08567
0.488,0.04361
0.492,0.02517
0.496,-0.01517
0.5,0.00363
0.504,-0.04795
0.508,0.00104
0.512,-0.00677
0.516,0.02358
0.52,-0.01812
0.524,-0.00591
0.528,0.0077
0.532,-0.01494
0.536,-0.00098
0.54,-0.00779
0.544,0.01374
0.548,0.01869
0.552,-0.05286
0.556,-0.01882
0.56,-0.03388
0.564,-0.0035
0.568,-0.00026
0.572,-0.06987
0.576,-0.08685
0.58,0.06236
0.584,-0.04065
0.588,-0.0655
0.592,-0.06547
0.596,-0.12217
0.6,-0.17781
0.604,-0.0428
0.608,-0.01123
0.612,0.20945
0.616,0.34929
0.62,0.61294
0.624,0.80596
0.628,0.93971
0.632,1.01072
0.636,0.90698
0.64,0.72838
0.644,0.52518
0.648,0.28274
0.652,0.0814
0.656,-0.0417
0.66,-0.11309
0.664,-0.1684
0.668,-0.16018
0.672,-0.15067
0.676,-0.04957
0.68,-0.06432
0.684,-0.04328
0.688,-0.05148
0.692,-0.01938
0.696,-0.10477
0.7,-0.0072
0.704,-0.01702
0.708,-0.0148
0.712,-0.05238
0.716,-0.04892
0.72,0.07078
0.724,-0.01567
0.728,-0.00464
0.732,-0.0199
0.736,-0.0083
0.74,0.02642
0.744,0.03298
0.748,-0.04817
0.752,-0.02186
0.756,0.00979
0.76,-0.07789
0.764,-0.09934
0.768,-0.05847
0.772,0.01673
0.776,0.01949
0.78,-0.03013
0.784,0.05709
0.788,0.03963
0.792,0.06691
0.796,-0.0311
0.8,0.05826
0.804,-0.06139
0.808,-0.0305
0.812,-0.01677
0.816,0.09504
0.82,-0.00198
0.824,0.0274
0.828,0.02603
0.832,0.07182
0.836,0.12451
0.84,0.06123
0.844,0.06467
0.848,0.08384
0.852,0.02939
0.856,0.1259
0.86,0.07931
0.864,0.09592
0.868,0.13381
0.872,0.06051
0.876,0.1229
0.88,0.241
0.884,0.21989
0.888,0.15006
0.892,0.17649
0.896,0.21106
0.9,0.19591
0.904,0.20468
0.908,0.19118
0.912,0.22822
0.916,0.18129
0.92,0.20061
0.924,0.21224
0.928,0.20527
0.932,0.18188
0.936,0.13333
0.94,0.18808
0.944,0.18487
0.948,0.20596
0.952,0.19902
0.956,0.12382
0.96,0.08156
0.964,0.13988
0.968,0.11424
0.972,0.0797
0.976,0.00861
0.98,0.07297
0.984,0.04861
0.988,0.0463
0.992,0.10926
0.996,0.01719
1.0,-0.00101
1.004,0.01755
1.008,0.01756
1.012,0.00511
1.016,0.02362
1.02,0.01517
1.024,-0.03091
1.028,0.00691
1.032,0.01514
1.036,0.02296
1.04,-0.06405
1.044,-0.04138
1.048,-0.03416
1.052,0.03617
1.056,0.02885
1.06,0.02377
1.064,-0.04151
1.068,-0.02654
1.072,0.05732
1.076,-0.03602
1.08,0.03476
1.084,-0.02087
1.088,0.06722
1.092,0.0424
1.096,0.1488
1.1,0.09558
1.104,0.03081
1.108,0.08499
1.112,0.15388
1.116,0.10832
1.12,0.10991
1.124,0.12519
1.128,0.01131
1.132,0.05185
1.136,0.0369
1.14,0.04097
1.144,0.03238
1.148,0.00794
1.152,0.02938
1.156,0.04179
1.16,0.01481
1.164,-0.00933
1.168,-0.01978
1.172,-0.00201
1.176,-0.02678
1.18,-0.00338
1.184,-0.00819
1.188,-0.0068
1.192,-0.07335
1.196,0.0211
1.2,-0.03334
1.204,-4e-05
1.208,0.03188
1.212,-0.07209
1.216,-0.07114
1.22,-0.02019
1.224,0.02917
1.228,-0.01261
1.232,-0.03726
1.236,-0.00455
1.24,-0.09906
1.244,-0.06553
1.248,-0.0366
1.252,0.05274
1.256,0.28155
1.26,0.40137
1.264,0.65621
1.268,0.79918
1.272,1.01248
1.276,1.00511
1.28,0.83052
1.284,0.70762
1.288,0.50354
1.292,0.28405
1.296,0.07843
1.3,-0.09885
1.304,-0.11515
1.308,-0.1414
1.312,-0.14247
1.316,-0.07448
1.32,-0.04861
1.324,-0.01793
1.328,-0.00652
1.332,-0.00816
1.336,-0.06563
1.34,-0.01346
1.344,0.03913
1.348,-0.01911
1.352,-0.00126
1.356,0.04083
1.36,-0.01724
1.364,-0.03569
1.368,0.02645
1.372,0.0049
1.376,-0.01726
1.38,0.01547
1.384,0.00845
1.388,-0.00313
1.392,0.03216
1.396,0.06393
1.4,-0.00945
1.404,-0.1183
1.408,0.06224
1.412,-0.00296
1.416,0.02066
1.42,0.08954
1.424,0.02684
1.428,0.03111
1.432,-0.02391
1.436,0.00384
1.44,-0.03837
1.444,-0.02057
1.448,0.01809
1.452,0.02197
1.456,0.07559
1.46,0.0093
1.464,-0.00426
1.468,0.05279
1.472,0.02865
1.476,0.06158
1.48,0.09819
1.484,0.0686
1.488,0.03122
1.492,0.09116
1.496,0.05863
1.5,0.1019
1.504,0.09235
1.508,0.0924
1.512,0.14417
1.516,0.10173
1.52,0.15023
1.524,0.19763
1.528,0.14365
1.532,0.18203
1.536,0.23376
1.54,0.22571
1.544,0.20573
1.548,0.21201
1.552,0.16346
1.556,0.24854
1.56,0.21517
1.564,0.1578
1.568,0.22526
1.572,0.19499
1.576,0.18288
1.58,0.17225
1.584,0.19322
1.588,0.17563
1.592,0.16565
1.596,0.21507
1.6,0.18202
1.604,0.17785
1.608,0.11138
1.612,0.0396
1.616,0.12597
1.62,0.08871
1.624,0.10501
1.628,0.15552
1.632,0.04716
1.636,0.04335
1.64,-0.00849
1.644,0.08052
1.648,0.07641
1.652,-0.0243
1.656,-0.01682
1.66,0.02182
1.664,0.02129
1.668,0.008
1.672,0.00808
1.676,-0.01747
1.68,0.06667
1.684,0.1459
1.688,0.03451
1.692,0.03066
1.696,0.01327
1.7,0.10077
1.704,0.03205
1.708,0.14184
1.712,0.14097
1.716,0.07647
1.72,0.15969
1.724,0.11725
1.728,0.13295
1.732,0.10771
1.736,0.10519
1.74,0.07478
1.744,0.02959
1.748,0.07158
1.752,0.02737
1.756,0.03702
1.76,0.03696
1.764,0.0205
1.768,-0.02076
1.772,0.0267
1.776,0.01352
1.78,0.01104
1.784,0.04861
1.788,0.0305
1.792,-0.02706
1.796,0.06301
1.8,0.02356
1.804,0.03944
1.808,0.01887
1.812,0.03915
1.816,0.03111
1.82,-0.01616
1.824,0.05348
1.828,-0.0369
1.832,-0.0637
1.836,-0.03357
1.84,-0.08292
1.844,-0.07811
1.848,-0.03618
1.852,-0.04582
1.856,0.10308
1.86,0.29998
1.864,0.55934
1.868,0.73401
1.872,0.90924
1.876,1.01126
1.88,0.97215
1.884,0.95883
1.888,0.73773
1.892,0.46181
1.896,0.28034
1.9,0.10667
1.904,-0.05237
1.908,-0.15906
1.912,-0.08178
1.916,-0.10233
1.92,-0.06863
1.924,-0.01374
1.928,-0.01472
1.932,-0.02079
1.936,-0.02992
1.94,0.04651
1.944,0.0759
1.948,-0.0294
1.952,0.03005
1.956,0.03027
1.96,0.06224
1.964,0.02669
1.968,-0.00432
1.972,0.03163
1.976,0.03534
1.98,0.03261
1.984,0.01249
1.988,0.02684
1.992,-0.04118
1.996,-0.03768
2.0,0.07518
2.004,0.07705
2.008,0.06038
2.012,0.0448
2.016,0.01816
2.02,0.00143
2.024,0.01769
2.028,-0.01668
2.032,5e-05
2.036,0.03185
2.04,-0.00681
2.044,0.09713
2.048,-0.04125
2.052,0.06611
2.056,0.03456
2.06,0.01951
2.064,0.03684
2.068,-0.06985
2.072,0.03488
2.076,0.04941
2.08,0.02513
2.084,0.09356
2.088,0.0855
2.092,0.16835
2.096,0.06553
2.1,0.10731
2.104,0.09565
2.108,0.14473
2.112,0.16748
2.116,0.21044
2.12,0.13838
2.124,0.19075
2.128,0.24974
2.132,0.16173
2.136,0.21841
2.14,0.20954
2.144,0.23928
2.148,0.24751
2.152,0.21826
2.156,0.29054
2.16,0.23968
2.164,0.23938
2.168,0.24605
2.172,0.21139
2.176,0.2708
2.18,0.21157
2.184,0.24429
2.188,0.19716
2.192,0.18271
2.196,0.21723
2.2,0.19048
2.204,0.14527
2.208,0.13434
2.212,0.14665
2.216,0.05781
2.22,0.16245
2.224,0.08656
2.228,0.09533
2.232,0.05615
2.236,0.09926
2.24,0.08209
2.244,0.09081
2.248,-0.00377
2.252,0.03758
2.256,0.09734
2.26,0.09851
2.264,0.05957
2.268,0.09696
2.272,0.01237
2.276,-0.00965
2.28,0.0523
2.284,0.01934
2.288,0.04974
2.292,0.04296
2.296,0.00351
2.3,0.02353
2.304,0.00096
2.308,0.02067
2.312,-0.00333
2.316,0.03021
2.32,-0.00075
2.324,0.01321
2.328,0.01263
2.332,0.01771
2.336,0.07592
2.34,0.00209
2.344,0.02769
2.348,0.09455
2.352,-0.00225
2.356,0.01088
2.36,-0.01153
2.364,0.04069
2.368,0.04306
2.372,0.09824
2.376,0.03291
2.38,0.01261
2.384,0.02388
2.388,0.04032
2.392,0.0295
2.396,-0.00187
2.4,0.03401
2.404,0.02129
2.408,0.05544
2.412,0.03829
2.416,0.03468
2.42,0.01219
2.424,0.02809
2.428,0.04155
2.432,0.03333
2.436,-0.00899
2.44,0.01755
2.444,0.05795
2.448,-0.01661
2.452,0.04497
2.456,-0.01539
2.46,-0.00865
2.464,0.05446
2.468,0.09539
2.472,0.05256
2.476,0.05712
2.48,0.04285
2.484,0.05037
2.488,0.06438
2.492,0.01835
2.496,0.06365
2.5,0.06432
2.504,0.13851
2.508,0.17301
2.512,0.14896
2.516,0.07653
2.52,0.16716
2.524,0.12682
2.528,0.14409
2.532,0.05905
2.536,0.06271
2.54,0.03245
2.544,0.06556
2.548,0.07297
2.552,-0.01613
2.556,0.13303
2.56,0.05651
2.564,0.02417
2.568,-0.00197
2.572,0.00127
2.576,0.0403
2.58,0.0177
2.584,0.03052
2.588,0.02455
2.592,0.07404
2.596,0.01383
2.6,0.03956
2.604,0.09205
2.608,0.02178
2.612,0.0098
2.616,0.01179
2.62,-0.06656
2.624,0.01289
2.628,0.08341
2.632,0.09842
2.636,-0.02609
2.64,0.01012
2.644,-0.09203
2.648,-0.04337
2.652,-0.03799
2.656,0.15316
2.66,0.28517
2.664,0.48113
2.668,0.70794
2.672,0.83148
2.676,0.98074
2.68,1.0445
2.684,0.90568
2.688,0.78603
2.692,0.51955
2.696,0.28766
2.7,0.10483
2.704,-0.08204
2.708,-0.03315
2.712,-0.15049
2.716,-0.10478
2.72,-0.02311
2.724,0.00371
2.728,-0.00409
2.732,0.07469
2.736,0.01937
2.74,-0.01023
2.744,-0.0075
2.748,0.02947
2.752,0.10345
2.756,0.01573
2.76,0.06487
2.764,0.04796
2.768,0.0722
2.772,-0.02426
2.776,0.07583
2.78,0.00828
2.784,0.00757
2.788,0.04769
2.792,0.03053
2.796,0.04808
2.8,-0.03123
2.804,0.04791
2.808,0.0055
2.812,0.00688
2.816,0.03695
2.82,0.02949
2.824,0.00642
2.828,0.00447
2.832,0.04833
2.836,0.04708
2.84,0.07035
2.844,0.03298
2.848,0.03613
2.852,0.02752
2.856,0.01225
2.86,-0.01139
2.864,0.0532
2.868,0.10289
2.872,0.06393
2.876,0.09512
2.88,0.11042
2.884,0.11674
2.888,0.07582
2.892,0.12682
2.896,0.12428
2.9,0.17996
2.904,0.14277
2.908,0.15631
2.912,0.14325
2.916,0.11874
2.92,0.20081
2.924,0.17346
2.928,0.26066
2.932,0.22891
2.936,0.16264
2.94,0.196
2.944,0.28105
2.948,0.27019
2.952,0.22648
2.956,0.25565
2.96,0.21146
2.964,0.25212
2.968,0.25397
2.972,0.24728
2.976,0.2554
2.98,0.1573
2.984,0.22313
2.988,0.12101
2.992,0.21399
2.996,0.22601
3.0,0.15246
3.004,0.14555
3.008,0.09866
3.012,0.15154
3.016,0.11986
3.02,0.10778
3.024,0.08294
3.028,0.01254
3.032,0.14165
3.036,0.07613
3.04,0.05153
3.044,0.09638
3.048,0.12503
3.052,0.05396
3.056,0.09101
3.06,-0.00559
3.064,-0.00689
3.068,-0.01302
3.072,0.02545
3.076,0.04168
3.08,0.04294
3.084,0.05406
3.088,0.04174
3.092,0.12204
3.096,0.0398
3.1,0.02371
3.104,0.06958
3.108,0.04051
3.112,0.07335
3.116,0.1475
3.12,0.08921
3.124,0.09125
3.128,0.09903
3.132,0.07404
3.136,0.10843
3.14,0.10578
3.144,0.10805
3.148,0.13944
3.152,0.05133
3.156,0.08602
3.16,0.05254
3.164,0.00932
3.168,0.01539
3.172,0.00561
3.176,0.01079
3.18,0.06716
3.184,-0.01983
3.188,0.08774
3.192,0.07724
3.196,-0.02943
3.2,0.01267
3.204,-0.03311
3.208,0.00379
3.212,0.08017
3.216,0.0548
3.22,-0.00766
3.224,0.0501
3.228,0.07678
3.232,-0.01238
3.236,-0.04969
3.24,-0.01074
3.244,0.06072
3.248,0.00752
3.252,-0.0339
3.256,-0.02372
3.26,-0.06233
3.264,-0.02768
3.268,0.06192
3.272,0.2
3.276,0.39851
3.28,0.62721
3.284,0.85246
3.288,0.98635
3.292,1.05073
3.296,1.00011
3.3,0.86857
3.304,0.59517
3.308,0.34723
3.312,0.11491
3.316,0.03703
3.32,-0.19033
3.324,-0.1278
3.328,-0.129
3.332,-0.1274
3.336,-0.01207
3.34,-0.04952
3.344,0.00411
3.348,-0.03741
3.352,0.06205
3.356,0.10126
3.36,0.012
3.364,0.05216
3.368,0.05421
3.372,0.0428
3.376,0.04816
3.38,0.09311
3.384,0.03591
3.388,0.05119
3.392,0.02661
3.396,0.04649
3.4,0.07863
3.404,0.043
3.408,-0.04227
3.412,0.02733
3.416,0.05153
3.42,-0.02161
3.424,0.06703
3.428,0.00581
3.432,-0.0019
3.436,0.00093
3.44,0.04404
3.444,0.04454
3.448,0.01182
3.452,-0.0137
3.456,-0.00801
3.46,0.07149
3.464,0.04007
3.468,0.01406
3.472,0.01576
3.476,0.01725
3.48,0.05646
3.484,0.03239
3.488,0.02346
3.492,0.05696
3.496,0.10052
3.5,0.08739
3.504,0.06688
3.508,0.10148
3.512,0.08061
3.516,0.09719
3.52,0.14849
3.524,0.21185
3.528,0.20143
3.532,0.20109
3.536,0.19764
3.54,0.25094
3.544,0.27813
3.548,0.29736
3.552,0.22289
3.556,0.299
3.56,0.25793
3.564,0.23242
3.568,0.2256
3.572,0.24763
3.576,0.22742
3.58,0.22412
3.584,0.24094
3.588,0.24603
3.592,0.24737
3.596,0.20634
3.6,0.19643
3.604,0.17376
3.608,0.13297
3.612,0.1711
3.616,0.15153
3.62,0.17135
3.624,0.19437
3.628,0.16462
3.632,0.15844
3.636,0.14393
3.64,0.14041
3.644,0.18772
3.648,0.12176
3.652,0.20102
3.656,0.12415
3.66,0.13382
3.664,0.17182
3.668,0.12664
3.672,0.12737
3.676,0.20858
3.68,0.13458
3.684,0.13337
3.688,0.09272
3.692,0.05991
3.696,0.03315
3.7,0.0216
3.704,0.02796
3.708,0.02615
3.712,0.0202
3.716,0.03233
3.72,0.036
3.724,0.06869
3.728,0.01191
3.732,0.03008
3.736,0.0642
3.74,0.02303
3.744,0.03722
3.748,0.10346
3.752,-0.06559
3.756,0.03146
3.76,0.02369
3.764,-0.01879
3.768,0.03636
3.772,0.04851
3.776,0.02496
3.78,-0.02186
3.784,0.01172
3.788,-0.04499
3.792,-0.13521
3.796,-0.12026
3.8,-0.02883
3.804,0.07084
3.808,0.22081
3.812,0.45328
3.816,0.66699
3.82,0.85064
3.824,1.04111
3.828,1.07239
3.832,0.97012
3.836,0.76949
3.84,0.54292
3.844,0.23927
3.848,0.04831
3.852,-0.03918
3.856,-0.10793
3.86,-0.11374
3.864,-0.11721
3.868,-0.06995
3.872,-0.01932
3.876,-0.01102
3.88,0.02814
3.884,0.03356
3.888,-0.01189
3.892,-0.00347
3.896,0.02277
3.9,0.06905
3.904,0.01388
3.908,0.03093
3.912,0.02411
3.916,0.0216
3.92,-0.01843
3.924,-0.00282
3.928,4e-05
3.932,0.06033
3.936,0.01966
3.94,0.04205
3.944,0.04997
3.948,0.05074
3.952,0.04694
3.956,-0.00658
3.96,0.06313
3.964,0.01984
3.968,-0.04327
3.972,0.03741
3.976,-0.04992
3.98,0.0657
3.984,0.01697
3.988,0.0059
3.992,0.01134
3.996,0.0543
4.0,-0.01318
4.004,0.05114
4.008,0.0372
4.012,0.03047
4.016,0.06804
4.02,0.01933
4.024,0.04726
4.028,0.03652
4.032,0.10588
4.036,0.03839
4.04,0.12149
4.044,0.09507
4.048,0.13571
4.052,0.11856
4.056,0.15983
4.06,0.14266
4.064,0.15401
4.068,0.17157
4.072,0.12893
4.076,0.14228
4.08,0.2258
4.084,0.15672
4.088,0.23505
4.092,0.21444
4.096,0.27327
4.1,0.22229
4.104,0.2765
4.108,0.21502
4.112,0.21595
4.116,0.22419
4.12,0.27055
4.124,0.25838
4.128,0.25374
4.132,0.25557
4.136,0.27822
4.14,0.23641
4.144,0.23412
4.148,0.28318
4.152,0.19314
4.156,0.20277
4.16,0.213
4.164,0.16505
4.168,0.18201
4.172,0.10692
4.176,0.15077
4.18,0.06156
4.184,0.12712
4.188,0.12436
4.192,0.09658
4.196,0.02275
4.2,0.04138
4.204,-0.00791
4.208,-0.00152
4.212,0.02074
4.216,0.07641
4.22,0.03824
4.224,-0.00202
4.228,-0.02256
4.232,-0.05255
4.236,0.05463
4.24,0.01873
4.244,0.04155
4.248,-0.04169
4.252,0.01709
4.256,0.01806
4.26,-0.0385
4.264,-0.01666
4.268,0.03539
4.272,-0.0893
4.276,-0.11042
4.28,-0.11382
4.284,-0.00307
4.288,0.13508
4.292,0.25783
4.296,0.53056
4.3,0.68737
4.304,0.87609
4.308,0.99079
4.312,0.97747
4.316,0.82378
4.32,0.66705
4.324,0.548
4.328,0.22584
4.332,0.06342
4.336,-0.06873
4.34,-0.11061
4.344,-0.20505
4.348,-0.05942
4.352,-0.06251
4.356,-0.082
4.36,0.03826
4.364,-0.04865
4.368,-0.0181
4.372,-0.04768
4.376,0.00651
4.38,0.00956
4.384,-0.02348
4.388,0.03244
4.392,-0.00805
4.396,-0.02925
4.4,-0.01109
4.404,0.00156
4.408,-0.01488
4.412,0.01105
4.416,-0.05837
4.42,-0.04208
4.424,0.04181
4.428,0.04983
4.432,-0.01059
4.436,0.02659
4.44,0.00659
4.444,0.00109
4.448,0.02741
4.452,-0.00704
4.456,-0.01648
4.46,0.01347
4.464,0.01904
4.468,0.01031
4.472,0.0033
4.476,-0.03759
4.48,0.05069
4.484,0.03332
4.488,-0.01079
4.492,0.035
4.496,0.11082
4.5,0.00187
4.504,0.04157
4.508,0.03162
4.512,0.0719
4.516,0.07137
4.52,-0.00917
4.524,0.16655
4.528,0.13262
4.532,0.07115
4.536,0.17184
4.54,0.09523
4.544,0.15238
4.548,0.12204
4.552,0.18471
4.556,0.11657
4.56,0.1093
4.564,0.19125
4.568,0.17531
4.572,0.15574
4.576,0.27679
4.58,0.23145
4.584,0.1689
4.588,0.21597
4.592,0.1957
4.596,0.25413
4.6,0.20207
4.604,0.19862
4.608,0.18068
4.612,0.20662
4.616,0.13807
4.62,0.1165
4.624,0.13631
4.628,0.07901
4.632,0.16029
4.636,0.1201
4.64,0.11995
4.644,0.0416
4.648,0.133
4.652,0.084
4.656,0.1288
4.66,0.0444
4.664,0.12652
4.668,0.07621
4.672,0.13902
4.676,0.12629
4.68,0.06428
4.684,0.11985
4.688,0.137
4.692,0.1175
4.696,0.08217
4.7,0.13146
4.704,0.07434
4.708,0.05803
4.712,0.00825
4.716,0.05409
4.72,0.00478
4.724,0.032
4.728,-0.00537
4.732,0.00239
4.736,0.02164
4.74,0.00852
4.744,-0.04254
4.748,0.00855
4.752,0.01963
4.756,0.00391
4.76,-0.03566
4.764,0.02691
4.768,0.04213
4.772,-0.00866
4.776,0.03883
4.78,-0.00145
4.784,0.03403
4.788,0.0328
4.792,0.00849
4.796,-0.02885
4.8,0.02961
4.804,0.03815
4.808,-0.05344
4.812,-0.16434
4.816,-0.09161
4.82,-0.02774
4.824,-0.03919
4.828,0.06127
4.832,0.32707
4.836,0.52601
4.84,0.66624
4.844,0.89757
4.848,0.96113
4.852,1.02569
4.856,0.84305
4.86,0.65883
4.864,0.32244
4.868,0.18986
4.872,-0.08056
4.876,-0.15026
4.88,-0.17535
4.884,-0.21406
4.888,-0.16067
4.892,-0.07801
4.896,-0.05687
4.9,-0.0434
4.904,-0.04327
4.908,0.01132
4.912,0.01287
4.916,-0.03749
4.92,-0.03558
4.924,0.00021
4.928,0.00613
4.932,-0.03216
4.936,0.04502
4.94,0.00055
4.944,-0.07129
4.948,0.01885
4.952,0.03443
4.956,-0.00883
4.96,0.02175
4.964,0.01309
4.968,-0.05285
4.972,-0.06113
4.976,-0.06314
4.98,-0.01826
4.984,-0.00313
4.988,-0.07613
4.992,0.05422
4.996,0.03977
5.0,-0.05973
5.004,0.01733
5.008,0.00296
5.012,-0.00584
5.016,0.01629
5.02,0.06485
5.024,0.07119
5.028,0.03712
5.032,0.04809
5.036,0.16583
5.04,0.12349
5.044,0.09359
5.048,0.19516
5.052,0.14822
5.056,0.16726
5.06,0.15387
5.064,0.09028
5.068,0.1669
5.072,0.11253
5.076,0.12397
5.08,0.11432
5.084,0.15707
5.088,0.14976
5.092,0.17494
5.096,0.14849
5.1,0.12237
5.104,0.16215
5.108,0.23581
5.112,0.21207
5.116,0.17593
5.12,0.18942
5.124,0.17686
5.128,0.26838
5.132,0.21986
5.136,0.1946
5.14,0.19994
5.144,0.23046
5.148,0.18575
5.152,0.1341
5.156,0.2041
5.16,0.18592
5.164,0.16773
5.168,0.04812
5.172,0.01823
5.176,-0.02209
5.18,0.0187
5.184,0.13082
5.188,0.26753
5.192,0.57761
5.196,0.62911
5.2,0.88165
5.204,0.93001
5.208,1.0094
5.212,0.96011
5.216,0.73584
5.22,0.59606
5.224,0.30173
5.228,0.11131
5.232,-0.03853
5.236,-0.09316
5.24,-0.18038
5.244,-0.12252
5.248,-0.14722
5.252,-0.12497
5.256,-0.03829
5.26,-0.01862
5.264,-0.00293
5.268,-0.02682
5.272,-0.06866
5.276,-0.05563
5.28,-0.0272
5.284,-0.03488
5.288,0.04275
5.292,0.00167
5.296,-0.03002
5.3,-0.05163
5.304,-0.0219
5.308,-0.06509
5.312,-0.01305
5.316,-0.00017
5.32,-0.01249
5.324,-0.019
5.328,0.00224
5.332,-0.01045
5.336,-0.04216
5.34,-0.06421
5.344,-0.05681
5.348,-0.05999
5.352,0.04072
5.356,-0.00516
5.36,-0.03114
5.364,-0.03903
5.368,-0.02759
5.372,-0.05098
5.376,0.03176
5.38,-0.01237
5.384,-0.02441
5.388,0.00693
5.392,0.08619
5.396,0.03089
5.4,0.03847
5.404,0.08303
5.408,0.10224
5.412,0.15212
5.416,0.16206
5.42,0.13649
5.424,0.16876
5.428,0.1268
5.432,0.15663
5.436,0.11741
5.44,0.10104
5.444,0.1493
5.448,0.18538
5.452,0.13353
5.456,0.16384
5.46,0.11962
5.464,0.21454
5.468,0.14784
5.472,0.18207
5.476,0.22273
5.48,0.2153
5.484,0.19781
5.488,0.24493
5.492,0.1866
5.496,0.19926
5.5,0.25069
5.504,0.1369
5.508,0.14869
5.512,0.17053
5.516,0.2106
5.52,0.10383
5.524,0.17787
5.528,0.08028
5.532,0.09938
5.536,0.03339
5.54,-0.00929
5.544,-0.06822
5.548,-0.01123
5.552,-0.02995
5.556,0.09443
5.56,0.23714
5.564,0.47663
5.568,0.67205
5.572,0.83511
5.576,1.05964
5.58,0.98339
5.584,0.85262
5.588,0.71974
5.592,0.44846
5.596,0.27958
5.6,0.06164
5.604,-0.06097
5.608,-0.11936
5.612,-0.19389
5.616,-0.16652
5.62,-0.11623
5.624,-0.08634
5.628,-0.07946
5.632,-0.00274
5.636,-0.08932
5.64,-0.03502
5.644,-0.04854
5.648,0.0139
5.652,-0.03622
5.656,-0.063
5.66,-0.05948
5.664,-0.08875
5.668,-0.00085
5.672,-0.02136
5.676,-0.03334
5.68,0.0225
5.684,-0.01558
5.688,0.00048
5.692,0.01487
5.696,-0.06903
5.7,0.02006
5.704,-0.01073
5.708,-0.03582
5.712,0.03664
5.716,-0.03403
5.72,0.04438
5.724,-0.04783
5.728,-0.02963
5.732,0.00425
5.736,-0.02241
5.74,-0.06024
5.744,0.01951
5.748,-0.09287
5.752,0.00419
5.756,-0.02561
5.76,0.0545
5.764,-0.00837
5.768,0.03571
5.772,-0.04855
5.776,-0.03767
5.78,-0.00476
5.784,0.03221
5.788,-0.0077
5.792,0.0372
5.796,0.06912
5.8,0.0939
5.804,0.08302
5.808,0.10907
5.812,0.10761
5.816,0.04466
5.82,0.14347
5.824,0.14596
5.828,0.1381
5.832,0.19773
5.836,0.18163
5.84,0.2059
5.844,0.15297
5.848,0.20186
5.852,0.14812
5.856,0.20277
5.86,0.22184
5.864,0.15799
5.868,0.22232
5.872,0.23313
5.876,0.10868
5.88,0.15154
5.884,0.16956
5.888,0.13052
5.892,0.1056
5.896,0.142
5.9,0.12107
5.904,0.07731
5.908,0.10285
5.912,0.05546
5.916,0.10506
5.92,-0.00601
5.924,0.07378
5.928,0.06923
5.932,0.03564
5.936,-0.00929
5.94,0.03123
5.944,-0.03459
5.948,0.01581
5.952,-0.01818
5.956,0.01201
5.96,0.03153
5.964,-0.08856
5.968,-0.04659
5.972,0.00975
5.976,-0.03083
5.98,-0.08059
5.984,-0.03645
5.988,0.0114
5.992,-0.06318
5.996,-0.04995
6.0,0.00431
6.004,-0.02654
6.008,-0.00437
6.012,-0.00707
6.016,0.04131
6.02,-0.0775
6.024,-0.0526
6.028,-0.063
6.032,-0.0085
6.036,0.01068
6.04,0.03161
6.044,0.02391
6.048,0.01164
6.052,-2e-05
6.056,0.0275
6.06,0.08123
6.064,0.05013
6.068,0.02364
6.072,0.08284
6.076,0.07317
6.08,0.09005
6.084,0.11331
6.088,0.05432
6.092,0.00488
6.096,0.0357
6.1,0.02495
6.104,-0.03344
6.108,-0.00149
6.112,-0.02047
6.116,0.0351
6.12,-0.04385
6.124,-0.02559
6.128,-0.06361
6.132,0.00435
6.136,0.00115
6.14,-0.07092
6.144,-0.11197
6.148,0.00256
6.152,-0.0363
6.156,-0.03261
6.16,0.00047
6.164,-0.0095
6.168,0.00659
6.172,0.00453
6.176,-0.07935
6.18,-0.00853
6.184,-0.04781
6.188,-0.02327
6.192,-0.06929
6.196,-0.1074
6.2,-0.1587
6.204,-0.15882
6.208,-0.13423
6.212,-0.00255
6.216,0.16714
6.22,0.31003
6.224,0.51376
6.228,0.68289
6.232,0.88485
6.236,0.99031
6.24,0.87318
6.244,0.81291
6.248,0.57871
6.252,0.34981
6.256,0.14429
6.26,-0.03513
6.264,-0.07691
6.268,-0.17362
6.272,-0.12206
6.276,-0.18827
6.28,-0.05921
6.284,-0.07906
6.288,-0.02454
6.292,0.0315
6.296,0.0017
6.3,0.01406
6.304,-0.01159
6.308,0.00124
6.312,-0.03837
6.316,0.0086
6.32,-0.01521
6.324,-0.07203
6.328,-0.0567
6.332,-0.08693
6.336,-0.04518
6.34,-0.10927
6.344,-0.04572
6.348,-0.12099
6.352,0.00763
6.356,0.01367
6.36,-0.04406
6.364,-0.07533
6.368,-0.00355
6.372,-0.04309
6.376,0.03327
6.38,-0.00398
6.384,-0.00937
6.388,-0.02845
6.392,-0.02559
6.396,-0.01311
6.4,-0.02232
6.404,-0.00051
6.408,0.03644
6.412,-0.02385
6.416,0.01554
6.42,-0.04864
6.424,-0.02773
6.428,0.00249
6.432,0.00117
6.436,0.09802
6.44,0.05201
6.444,0.02871
6.448,0.01343
6.452,0.034
6.456,0.08491
6.46,0.02699
6.464,0.10084
6.468,0.21632
6.472,0.24834
6.476,0.25548
6.48,0.24816
6.484,0.27092
6.488,0.24736
6.492,0.23938
6.496,0.28332
6.5,0.27757
6.504,0.25888
6.508,0.20599
6.512,0.24019
6.516,0.22991
6.52,0.25801
6.524,0.21369
6.528,0.2167
6.532,0.23448
6.536,0.12014
6.54,0.1393
6.544,0.16161
6.548,0.10211
6.552,0.10366
6.556,0.07114
6.56,0.09274
6.564,0.05783
6.568,0.05757
6.572,0.04027
6.576,0.00255
6.58,0.02228
6.584,0.0275
6.588,0.09086
6.592,0.03395
6.596,0.02629
6.6,-0.051
6.604,-0.01418
6.608,-0.06873
6.612,-0.05017
6.616,-0.1579
6.62,-0.06683
6.624,0.12279
6.628,0.2767
6.632,0.45401
6.636,0.70716
6.64,0.81054
6.644,0.98667
6.648,0.96903
6.652,0.83909
6.656,0.65624
6.66,0.4553
6.664,0.1462
6.668,-0.01609
6.672,-0.15981
6.676,-0.17257
6.68,-0.23344
6.684,-0.15637
6.688,-0.20778
6.692,0.00696
6.696,-0.0597
6.7,-0.07924
6.704,-0.06112
6.708,-0.06638
6.712,-0.03485
6.716,-0.01443
6.72,0.0192
6.724,-0.06363
6.728,-0.04086
6.732,0.01472
6.736,-0.04095
6.74,-0.03903
6.744,-0.01606
6.748,-0.05872
6.752,-0.06903
6.756,0.0192
6.76,0.03852
6.764,-0.02549
6.768,-0.06503
6.772,-0.05301
6.776,-0.04225
6.78,-0.05292
6.784,-0.02698
6.788,0.00178
6.792,-0.01383
6.796,0.00033
6.8,-0.06106
6.804,-0.02077
6.808,0.02898
6.812,-0.02353
6.816,-0.06333
6.82,-0.00861
6.824,0.00484
6.828,0.06472
6.832,0.01297
6.836,-0.01648
6.84,0.04976
6.844,-0.05273
6.848,0.01467
6.852,0.0354
6.856,0.13852
6.86,0.01217
6.864,0.04307
6.868,0.04976
6.872,0.13286
6.876,0.16148
6.88,0.08725
6.884,0.08674
6.888,0.15826
6.892,0.13705
6.896,0.11031
6.9,0.20334
6.904,0.1884
6.908,0.20599
6.912,0.20757
6.916,0.14668
6.92,0.1984
6.924,0.16492
6.928,0.18687
6.932,0.19309
6.936,0.14276
6.94,0.27252
6.944,0.2078
6.948,0.078
6.952,0.15388
6.956,0.17064
6.96,0.14795
6.964,0.09823
6.968,0.08899
6.972,0.06439
6.976,0.14248
6.98,0.05709
6.984,0.10857
6.988,0.04046
6.992,0.06364
6.996,0.01094
7.0,0.05809
7.004,-0.03735
7.008,-0.01171
7.012,-0.03655
7.016,0.02487
7.02,-0.00658
7.024,0.02481
7.028,-0.00323
7.032,0.03657
7.036,-0.02493
7.04,0.0048
7.044,-0.0606
7.048,-0.01219
7.052,-0.07419
7.056,-0.0678
7.06,-0.03693
7.064,-0.01237
7.068,-0.00339
7.072,-0.04717
7.076,-0.04019
7.08,0.01083
7.084,0.05985
7.088,0.03407
7.092,0.0245
7.096,-0.05705
7.1,0.11016
7.104,0.04512
7.108,0.06687
7.112,0.0365
7.116,0.08025
7.12,0.04912
7.124,0.1045
7.128,0.08293
7.132,0.08395
7.136,0.03888
7.14,0.08859
7.144,0.08172
7.148,0.09231
7.152,0.04756
7.156,0.05699
7.16,0.02014
7.164,0.02344
7.168,-0.01618
7.172,-0.01603
7.176,-0.0136
7.18,0.06017
7.184,-0.04504
7.188,-0.00213
7.192,-0.04011
7.196,-0.02833
7.2,-0.01033
7.204,-0.01624
7.208,-0.04859
7.212,-0.00505
7.216,-0.01045
7.22,-0.03567
7.224,-0.06116
7.228,-0.0337
7.232,-0.09571
7.236,-0.0476
7.24,0.0114
7.244,-0.06682
7.248,-0.06699
7.252,-0.10861
7.256,-0.08093
7.26,-0.12024
7.264,-0.07767
7.268,0.02931
7.272,0.1888
7.276,0.34952
7.28,0.61622
7.284,0.79048
7.288,0.96348
7.292,1.01689
7.296,0.88481
7.3,0.71994
7.304,0.53375
7.308,0.31543
7.312,0.14413
7.316,-0.05584
7.32,-0.18968
7.324,-0.2395
7.328,-0.11957
7.332,-0.06511
7.336,-0.12633
7.34,-0.08209
7.344,-0.00804
7.348,-0.01669
7.352,0.0135
7.356,0.00044
7.36,0.04053
7.364,0.01573
7.368,0.02227
7.372,-0.01853
7.376,-0.07488
7.38,-0.04575
7.384,-0.03308
7.388,-0.08154
7.392,0.06224
7.396,0.01623
7.4,-0.03836
7.404,0.00114
7.408,0.03188
7.412,-0.00893
7.416,0.00963
7.42,-0.04092
7.424,-0.03147
7.428,-0.02836
7.432,-0.04334
7.436,0.03786
7.44,0.02725
7.444,0.00617
7.448,0.04592
7.452,-0.06409
7.456,0.04049
7.46,-0.04713
7.464,0.03964
7.468,-0.01065
7.472,-0.01796
7.476,0.07679
7.48,-0.01279
7.484,0.01969
7.488,-0.00051
7.492,0.05767
7.496,0.02023
7.5,-0.01481
7.504,0.06309
7.508,0.1067
7.512,0.01421
7.516,0.05962
7.52,0.08985
7.524,0.1111
7.528,0.13852
7.532,0.11153
7.536,0.18175
7.54,0.13926
7.544,0.19739
7.548,0.17074
7.552,0.20064
7.556,0.2658
7.56,0.19104
7.564,0.21781
7.568,0.21178
7.572,0.21515
7.576,0.25914
7.58,0.2381
7.584,0.22354
7.588,0.22441
7.592,0.21748
7.596,0.19806
7.6,0.10941
7.604,0.22812
7.608,0.14222
7.612,0.18256
7.616,0.09998
7.62,0.11142
7.624,0.1013
7.628,0.10045
7.632,0.06459
7.636,0.06987
7.64,0.04773
7.644,0.06547
7.648,0.00729
7.652,0.01976
7.656,0.04469
7.66,0.07318
7.664,0.07318
7.668,0.0175
7.672,0.03595
7.676,0.04809
7.68,-0.04016
7.684,-0.02675
7.688,0.0379
7.692,-0.05189
7.696,0.06286
7.7,0.07071
7.704,0.00523
7.708,0.02326
7.712,0.03336
7.716,0.04208
7.72,0.03164
7.724,0.09252
7.728,0.04763
7.732,0.02076
7.736,0.07171
7.74,0.09553
7.744,0.1012
7.748,0.1371
7.752,0.11514
7.756,0.13381
7.76,0.07608
7.764,0.03345
7.768,-0.03922
7.772,0.07847
7.776,0.00822
7.78,0.02389
7.784,0.00686
7.788,-0.00359
7.792,-0.04272
7.796,-0.00966
7.8,0.00468
7.804,0.08006
7.808,0.00474
7.812,0.08093
7.816,0.01356
7.82,0.0295
7.824,-0.00735
7.828,-0.00284
7.832,0.01617
7.836,0.02163
7.84,0.02842
7.844,-0.02267
7.848,0.07747
7.852,-0.01215
7.856,0.02834
7.86,-0.08239
7.864,-0.09145
7.868,-0.05339
7.872,-0.16876
7.876,-0.11603
7.88,-0.02988
7.884,0.14839
7.888,0.39466
7.892,0.60765
7.896,0.70615
7.9,0.89327
7.904,1.09472
7.908,0.98568
7.912,0.88667
7.916,0.5194
7.92,0.38844
7.924,0.1674
7.928,-0.05896
7.932,-0.1015
7.936,-0.14212
7.94,-0.08885
7.944,-0.16413
7.948,0.01014
7.952,-0.02131
7.956,-0.06056
7.96,0.04098
7.964,0.00788
7.968,-0.0204
7.972,-0.01408
7.976,0.01431
7.98,-0.01257
7.984,0.00125
7.988,0.07369
7.992,-0.008
7.996,0.00286
8.0,0.06163
8.004,-0.0535
8.008,-0.02517
8.012,0.03615
8.016,0.06541
8.02,0.02536
8.024,-0.02339
8.028,0.05181
8.032,-0.00928
8.036,-0.0189
8.04,0.08514
8.044,-0.06576
8.048,0.00287
8.052,0.00723
8.056,0.0262
8.06,0.06053
8.064,0.0161
8.068,-0.00304
8.072,-0.01875
8.076,0.0254
8.08,0.07158
8.084,0.02298
8.088,0.03129
8.092,0.06096
8.096,0.06522
8.1,0.0123
8.104,0.03884
8.108,0.09849
8.112,0.10986
8.116,0.04751
8.12,0.10631
8.124,0.06311
8.128,0.07715
8.132,0.11577
8.136,0.14394
8.14,0.16508
8.144,0.13702
8.148,0.15917
8.152,0.12832
8.156,0.14717
8.16,0.14115
8.164,0.23763
8.168,0.23823
8.172,0.2884
8.176,0.26793
8.18,0.23831
8.184,0.21098
8.188,0.2136
8.192,0.2601
8.196,0.28233
8.2,0.29619
8.204,0.25522
8.208,0.26704
8.212,0.20773
8.216,0.23446
8.22,0.28627
8.224,0.26788
8.228,0.24237
8.232,0.19223
8.236,0.23323
8.24,0.2614
8.244,0.19763
8.248,0.12495
8.252,0.1041
8.256,0.11637
8.26,0.07523
8.264,0.02843
8.268,0.10255
8.272,0.04589
8.276,0.05257
8.28,0.04947
8.284,0.08161
8.288,-0.01073
8.292,0.10205
8.296,0.06788
8.3,0.03357
8.304,0.06352
8.308,0.05009
8.312,0.09205
8.316,0.03119
8.32,0.05583
8.324,-0.0199
8.328,-0.03642
8.332,-0.02468
8.336,-0.02163
8.34,-0.00679
8.344,0.00209
8.348,-0.05254
8.352,-0.09542
8.356,-0.05593
8.36,0.03004
8.364,0.13852
8.368,0.30339
8.372,0.49658
8.376,0.7314
8.38,0.91704
8.384,1.02375
8.388,0.93009
8.392,0.92742
8.396,0.61834
8.4,0.38806
8.404,0.20035
8.408,0.08638
8.412,-0.1327
8.416,-0.13085
8.42,-0.15929
8.424,-0.13676
8.428,-0.04497
8.432,-0.05493
8.436,-0.07775
8.44,-0.04374
8.444,0.06214
8.448,0.0598
8.452,-0.00085
8.456,-0.00374
8.46,-0.01301
8.464,-0.00448
8.468,0.02016
8.472,-0.02155
8.476,-0.02985
8.48,0.02077
8.484,0.02523
8.488,0.06355
8.492,0.02157
8.496,0.01333
8.5,0.03476
8.504,0.01691
8.508,-0.03399
8.512,0.02629
8.516,-0.03815
8.52,0.02421
8.524,0.04635
8.528,0.1021
8.532,-0.01249
8.536,0.04284
8.54,0.13158
8.544,0.0679
8.548,0.08658
8.552,0.07266
8.556,0.14256
8.56,0.13546
8.564,0.161
8.568,0.09131
8.572,0.14087
8.576,0.12628
8.58,0.17603
8.584,0.16457
8.588,0.12942
8.592,0.15247
8.596,0.12718
8.6,0.09177
8.604,0.12646
8.608,0.08678
8.612,0.11647
8.616,0.16755
8.62,0.14444
8.624,0.13835
8.628,0.17167
8.632,0.11414
8.636,0.19759
8.64,0.23659
8.644,0.1876
8.648,0.24448
8.652,0.27477
8.656,0.20654
8.66,0.26518
8.664,0.23104
8.668,0.30698
8.672,0.18914
8.676,0.27494
8.68,0.23213
8.684,0.26026
8.688,0.14336
8.692,0.15303
8.696,0.13745
8.7,0.03924
8.704,0.09327
8.708,0.20678
8.712,0.37842
8.716,0.51432
8.72,0.76979
8.724,0.95416
8.728,1.04055
8.732,1.06459
8.736,0.9663
8.74,0.86446
8.744,0.65372
8.748,0.42992
8.752,0.14036
8.756,0.00041
8.76,-0.07315
8.764,-0.14703
8.768,-0.08194
8.772,-0.11046
8.776,-0.04911
8.78,0.04524
8.784,0.07588
8.788,0.02235
8.792,0.0447
8.796,0.00702
8.8,0.04089
8.804,0.02349
8.808,0.04142
8.812,-0.05154
8.816,0.0175
8.82,0.05728
8.824,0.00453
8.828,0.0413
8.832,0.06314
8.836,0.0033
8.84,0.06689
8.844,0.11273
8.848,0.04273
8.852,0.0846
8.856,0.10877
8.86,0.12869
8.864,0.06734
8.868,0.0513
8.872,0.15293
8.876,0.15432
8.88,0.0547
8.884,0.0697
8.888,0.11696
8.892,0.09243
8.896,0.11085
8.9,0.0748
8.904,0.08181
8.908,0.01528
8.912,0.06626
8.916,0.06439
8.92,0.06266
8.924,0.02594
8.928,0.06625
8.932,0.06359
8.936,0.0558
8.94,0.10739
8.944,0.06625
8.948,0.10887
8.952,0.13667
8.956,0.15221
8.96,0.17341
8.964,0.14645
8.968,0.22524
8.972,0.16139
8.976,0.18182
8.98,0.19222
8.984,0.21598
8.988,0.11612
8.992,0.2195
8.996,0.10718
9.0,0.1613
9.004,0.13206
9.008,0.21734
9.012,0.17348
9.016,0.31384
9.02,0.51869
9.024,0.70501
9.028,0.96128
9.032,1.10241
9.036,1.16101
9.04,1.19796
9.044,1.12711
9.048,0.79637
9.052,0.63682
9.056,0.39467
9.06,0.12848
9.064,0.04128
9.068,0.01761
9.072,-0.07761
9.076,-0.07101
9.08,-0.01534
9.084,0.02804
9.088,0.04167
9.092,0.05418
9.096,0.13542
9.1,0.06121
9.104,0.11902
9.108,0.06261
9.112,0.05762
9.116,-0.00832
9.12,-0.0135
9.124,0.05704
9.128,0.01611
9.132,-0.01944
9.136,0.1312
9.14,0.03474
9.144,0.00471
9.148,-0.00321
9.152,0.02484
9.156,0.09362
9.16,0.01244
9.164,0.04457
9.168,0.05331
9.172,0.04055
9.176,0.02245
9.18,0.03624
9.184,0.03052
9.188,0.02917
9.192,0.08436
9.196,0.00904
9.2,0.03722
9.204,0.04348
9.208,0.08356
9.212,0.02796
9.216,-0.01878
9.22,0.06891
9.224,0.09043
9.228,0.02598
9.232,0.12683
9.236,0.10929
9.24,0.07792
9.244,0.11089
9.248,0.08557
9.252,0.11195
9.256,0.1628
9.26,0.15584
9.264,0.16082
9.268,0.14128
9.272,0.17272
9.276,0.20304
9.28,0.13578
9.284,0.20206
9.288,0.19313
9.292,0.20729
9.296,0.22463
9.3,0.18853
9.304,0.27498
9.308,0.25173
9.312,0.23158
9.316,0.30516
9.32,0.27016
9.324,0.21529
9.328,0.22433
9.332,0.26242
9.336,0.20078
9.34,0.23444
9.344,0.20816
9.348,0.20662
9.352,0.19393
9.356,0.15784
9.36,0.14789
9.364,0.11886
9.368,0.1867
9.372,0.16916
9.376,0.09938
9.38,0.15521
9.384,0.10664
9.388,0.14173
9.392,0.09901
9.396,0.02671
9.4,0.09604
9.404,0.14106
9.408,0.03325
9.412,0.11771
9.416,0.07915
9.42,0.09385
9.424,0.04374
9.428,0.01395
9.432,0.06625
9.436,-0.00349
9.44,0.02716
9.444,0.03457
9.448,0.07633
9.452,0.05303
9.456,0.03885
9.46,0.07857
9.464,0.02496
9.468,0.05322
9.472,0.00767
9.476,0.07122
9.48,0.08661
9.484,0.02676
9.488,0.00895
9.492,0.01147
9.496,0.02199
9.5,-0.01478
9.504,0.03031
9.508,0.01017
9.512,0.02045
9.516,0.00305
9.52,0.03928
9.524,0.02447
9.528,0.01706
9.532,0.02152
9.536,0.05992
9.54,0.00208
9.544,0.05851
9.548,0.03933
9.552,0.00626
9.556,0.01643
9.56,0.01124
9.564,-0.01511
9.568,0.03811
9.572,0.01967
9.576,0.03777
9.58,0.02382
9.584,0.03264
9.588,0.07559
9.592,0.01978
9.596,0.04752
9.6,0.12308
9.604,0.09858
9.608,0.10398
9.612,0.11827
9.616,0.10523
9.62,0.12458
9.624,0.13558
9.628,0.1281
9.632,0.12678
9.636,0.09927
9.64,0.14957
9.644,0.11821
9.648,0.05875
9.652,0.10311
9.656,0.06227
9.66,0.06577
9.664,0.01402
9.668,0.06501
9.672,0.05008
9.676,0.08284
9.68,0.00252
9.684,0.01983
9.688,0.06543
9.692,0.01866
9.696,0.06318
9.7,0.02306
9.704,0.00372
9.708,0.06285
9.712,-0.01121
9.716,-0.00315
9.72,0.05924
9.724,0.03055
9.728,0.00271
9.732,0.05149
9.736,0.03923
9.74,-0.01732
9.744,-0.0051
9.748,0.02891
9.752,-0.01056
9.756,-0.08468
9.76,-0.09222
9.764,-0.01393
9.768,0.05514
9.772,0.284
9.776,0.46687
9.78,0.69707
9.784,0.83098
9.788,0.9893
9.792,1.02279
9.796,0.91792
9.8,0.73165
9.804,0.56659
9.808,0.2684
9.812,0.11925
9.816,-0.0506
9.82,-0.08722
9.824,-0.10956
9.828,-0.14377
9.832,-0.10613
9.836,-0.0091
9.84,0.06869
9.844,0.02316
9.848,0.03825
9.852,0.0575
9.856,0.02077
9.86,0.01428
9.864,0.02524
9.868,0.01526
9.872,0.03144
9.876,-0.0169
9.88,-0.02475
9.884,0.06774
9.888,-0.02085
9.892,0.02876
9.896,0.07787
9.9,0.06027
9.904,0.02821
9.908,-0.00546
9.912,0.03275
9.916,0.0272
9.92,0.03983
9.924,-0.00878
9.928,0.07321
9.932,0.06879
9.936,-0.01056
9.94,0.03453
9.944,0.00068
9.948,0.01606
9.952,0.01906
9.956,0.06021
9.96,0.08293
9.964,0.07566
9.968,0.05615
9.972,0.02438
9.976,0.09343
9.98,0.06162
9.984,0.07528
9.988,0.10375
9.992,0.09945
9.996,0.02364
