t_seg,ecg_mV
0.0,0.04374
0.004,0.03132
0.008,0.03377
0.012,0.01762
0.016,0.02344
0.02,0.02883
0.024,0.01328
0.028,0.00633
0.032,0.04817
0.036,0.03713
0.04,0.00424
0.044,0.0032
0.048,0.00523
0.052,0.00515
0.056,0.00142
0.06,0.04293
0.064,0.03238
0.068,0.03313
0.072,0.02122
0.076,0.03332
0.08,0.04145
0.084,0.04741
0.088,0.02342
0.092,0.03372
0.096,0.0312
0.1,0.02296
0.104,0.00131
0.108,0.01112
0.112,0.00198
0.116,0.01828
0.12,0.01236
0.124,0.00201
0.128,0.04746
0.132,0.02156
0.136,0.04865
0.14,0.02763
0.144,0.00529
0.148,0.01289
0.152,0.03925
0.156,0.0056
0.16,0.01774
0.164,0.02185
0.168,0.02754
0.172,-0.00259
0.176,0.0185
0.18,0.02697
0.184,-0.0056
0.188,0.01835
0.192,0.01363
0.196,0.02558
0.2,0.02045
0.204,0.05803
0.208,0.0106
0.212,0.00398
0.216,0.00813
0.22,0.02642
0.224,0.02928
0.228,0.03345
0.232,0.02172
0.236,0.02831
0.24,0.01869
0.244,0.00798
0.248,0.04342
0.252,0.03026
0.256,0.01375
0.26,0.00819
0.264,0.01366
0.268,0.01608
0.272,0.01609
0.276,0.01632
0.28,-0.00054
0.284,0.02214
0.288,0.01257
0.292,0.00104
0.296,0.01321
0.3,0.02993
0.304,0.02141
0.308,0.01435
0.312,0.02987
0.316,0.02385
0.32,0.01498
0.324,0.02111
0.328,0.01522
0.332,0.00918
0.336,0.02461
0.34,0.01351
0.344,-0.00746
0.348,-0.00059
0.352,-0.01078
0.356,0.03754
0.36,0.00086
0.364,0.00828
0.368,0.00526
0.372,0.02741
0.376,0.01949
0.38,0.00775
0.384,0.00946
0.388,0.00497
0.392,-0.01168
0.396,-0.00563
0.4,0.02556
0.404,0.03715
0.408,-0.00318
0.412,0.01558
0.416,-0.01284
0.42,-0.0074
0.424,0.02754
0.428,0.00991
0.432,0.02854
0.436,-0.00475
0.44,-0.00733
0.444,0.01704
0.448,0.03437
0.452,0.02859
0.456,0.00068
0.46,0.01792
0.464,-0.00926
0.468,0.00263
0.472,-0.00803
0.476,0.03516
0.48,0.02683
0.484,0.02913
0.488,0.01797
0.492,0.00841
0.496,0.00319
0.5,0.03344
0.504,0.0282
0.508,0.00558
0.512,0.0074
0.516,-0.00242
0.52,-0.00327
0.524,0.01592
0.528,0.048
0.532,-0.00528
0.536,-0.01003
0.54,0.01034
0.544,0.00427
0.548,0.0181
0.552,0.02572
0.556,0.00568
0.56,0.01527
0.564,0.01464
0.568,0.00647
0.572,-0.00514
0.576,-0.0053
0.58,0.0292
0.584,0.00859
0.588,0.02337
0.592,0.00299
0.596,0.01037
0.6,-0.00593
0.604,0.03346
0.608,0.01409
0.612,0.03902
0.616,0.03185
0.62,0.06703
0.624,0.07174
0.628,0.06685
0.632,0.10987
0.636,0.09215
0.64,0.10756
0.644,0.11706
0.648,0.1145
0.652,0.09512
0.656,0.09146
0.66,0.08825
0.664,0.06544
0.668,0.02607
0.672,0.0725
0.676,0.04671
0.68,0.04306
0.684,0.0459
0.688,0.01561
0.692,0.00987
0.696,0.01541
0.7,0.01525
0.704,0.01863
0.708,0.01031
0.712,0.00833
0.716,0.02112
0.72,-0.00841
0.724,0.0078
0.728,0.01757
0.732,0.0016
0.736,0.00315
0.74,0.02077
0.744,0.0039
0.748,0.0028
0.752,0.0058
0.756,-0.01951
0.76,-0.03909
0.764,-0.05578
0.768,-0.10863
0.772,-0.09013
0.776,-0.08306
0.78,0.04419
0.784,0.18317
0.788,0.37429
0.792,0.58485
0.796,0.80275
0.8,0.92657
0.804,1.00077
0.808,0.93018
0.812,0.78197
0.816,0.58829
0.82,0.3304
0.824,0.13025
0.828,-0.04053
0.832,-0.10606
0.836,-0.16204
0.84,-0.15629
0.844,-0.11969
0.848,-0.07119
0.852,-0.02543
0.856,-0.04521
0.86,0.00085
0.864,0.00934
0.868,0.00103
0.872,0.00277
0.876,-0.02316
0.88,0.01511
0.884,0.01893
0.888,-0.02089
0.892,0.01528
0.896,0.01162
0.9,0.008
0.904,0.00901
0.908,-0.00795
0.912,-0.00098
0.916,-0.02342
0.92,-0.03053
0.924,0.00578
0.928,-0.01968
0.932,0.03029
0.936,0.01028
0.94,-0.00174
0.944,-0.00685
0.948,0.01167
0.952,0.0009
0.956,-0.00742
0.96,0.03139
0.964,-0.01166
0.968,-0.00246
0.972,-0.01089
0.976,0.00653
0.98,-0.00275
0.984,0.0247
0.988,0.02776
0.992,0.00884
0.996,0.02975
1.0,0.03002
1.004,0.04564
1.008,0.05812
1.012,0.02212
1.016,0.05872
1.02,0.03803
1.024,0.10892
1.028,0.09047
1.032,0.14225
1.036,0.12277
1.04,0.12775
1.044,0.12129
1.048,0.1526
1.052,0.16826
1.056,0.20356
1.06,0.20166
1.064,0.21196
1.068,0.19792
1.072,0.19763
1.076,0.24309
1.08,0.21496
1.084,0.20967
1.088,0.24471
1.092,0.188
1.096,0.18642
1.1,0.1981
1.104,0.19405
1.108,0.17086
1.112,0.16223
1.116,0.1468
1.12,0.16103
1.124,0.14292
1.128,0.14153
1.132,0.12462
1.136,0.09669
1.14,0.12269
1.144,0.11441
1.148,0.07187
1.152,0.0628
1.156,0.07235
1.16,0.0381
1.164,0.04827
1.168,0.03449
1.172,0.02487
1.176,0.02026
1.18,0.02927
1.184,0.0333
1.188,0.01822
1.192,0.01584
1.196,0.00223
1.2,0.00859
1.204,0.0277
1.208,-0.02311
1.212,0.00861
1.216,-0.02572
1.22,-0.00964
1.224,-0.00242
1.228,-0.00781
1.232,0.03311
1.236,-0.00133
1.24,0.00775
1.244,-0.01963
1.248,-0.0197
1.252,-0.00494
1.256,-0.02535
1.26,0.00181
1.264,-0.00673
1.268,0.01217
1.272,-0.004
1.276,-0.0055
1.28,0.00091
1.284,0.00387
1.288,-0.0071
1.292,-0.01266
1.296,-0.02608
1.3,0.02275
1.304,0.01847
1.308,-0.0077
1.312,0.00576
1.316,-0.03272
1.32,-0.00859
1.324,-0.02243
1.328,-0.02833
1.332,-0.00417
1.336,-0.00961
1.34,-0.0215
1.344,-0.02728
1.348,-0.01057
1.352,-0.03249
1.356,-0.01193
1.36,0.0055
1.364,-0.01172
1.368,-0.01001
1.372,-0.00012
1.376,-0.0223
1.38,-0.00843
1.384,-0.01164
1.388,-0.03116
1.392,0.00437
1.396,-0.0118
1.4,0.0055
1.404,-0.02358
1.408,-0.00583
1.412,-0.03396
1.416,-0.00989
1.42,-0.00373
1.424,-0.0254
1.428,-0.00406
1.432,0.01543
1.436,0.00922
1.44,0.03156
1.444,0.04333
1.448,0.03744
1.452,0.05181
1.456,0.04712
1.46,0.06994
1.464,0.07615
1.468,0.06887
1.472,0.08617
1.476,0.10719
1.48,0.08089
1.484,0.07557
1.488,0.05527
1.492,0.04329
1.496,0.03687
1.5,0.03559
1.504,0.01943
1.508,0.00553
1.512,-0.03448
1.516,-0.00371
1.52,0.01646
1.524,-0.00457
1.528,-0.03158
1.532,-0.03263
1.536,0.00054
1.54,0.00041
1.544,-0.02593
1.548,-0.01698
1.552,-0.02171
1.556,-0.00235
1.56,-0.01908
1.564,-0.01014
1.568,-0.01665
1.572,-6e-05
1.576,-0.02529
1.58,0.00075
1.584,-0.03649
1.588,-0.05425
1.592,-0.07973
1.596,-0.12878
1.6,-0.1318
1.604,-0.03314
1.608,0.10866
1.612,0.2619
1.616,0.49928
1.62,0.70443
1.624,0.90144
1.628,0.98993
1.632,0.95421
1.636,0.84049
1.64,0.66535
1.644,0.44088
1.648,0.15632
1.652,0.00984
1.656,-0.11854
1.66,-0.17043
1.664,-0.17277
1.668,-0.151
1.672,-0.10222
1.676,-0.06861
1.68,-0.05486
1.684,-0.03575
1.688,-0.01961
1.692,-0.00219
1.696,-0.00455
1.7,-0.02016
1.704,-0.02319
1.708,-0.01665
1.712,-0.0112
1.716,-0.02411
1.72,-0.02524
1.724,-0.01491
1.728,-0.03208
1.732,-0.01798
1.736,-0.02673
1.74,0.00069
1.744,-0.01454
1.748,-0.0348
1.752,-0.00942
1.756,0.00624
1.76,-0.01675
1.764,-0.00473
1.768,-0.04511
1.772,-0.05125
1.776,-0.02804
1.78,-0.02128
1.784,-0.03201
1.788,-0.01074
1.792,-0.00421
1.796,-0.01731
1.8,0.01796
1.804,-0.01696
1.808,0.00153
1.812,0.03005
1.816,0.01207
1.82,0.03984
1.824,0.01127
1.828,0.04194
1.832,0.02588
1.836,0.01155
1.84,0.0196
1.844,0.04741
1.848,0.08321
1.852,0.07678
1.856,0.08981
1.86,0.08774
1.864,0.11422
1.868,0.1158
1.872,0.14986
1.876,0.11572
1.88,0.15307
1.884,0.1544
1.888,0.18212
1.892,0.1788
1.896,0.17428
1.9,0.22859
1.904,0.17302
1.908,0.20488
1.912,0.20751
1.916,0.17669
1.92,0.18351
1.924,0.15752
1.928,0.17447
1.932,0.14708
1.936,0.14608
1.94,0.14866
1.944,0.14804
1.948,0.12043
1.952,0.1042
1.956,0.11028
1.96,0.08497
1.964,0.05879
1.968,0.08023
1.972,0.03515
1.976,0.03729
1.98,0.03802
1.984,0.03528
1.988,0.01959
1.992,0.02244
1.996,0.02485
2.0,0.0147
2.004,0.00752
2.008,-0.01949
2.012,0.00346
2.016,-0.00354
2.02,-0.02598
2.024,-0.04526
2.028,-0.00665
2.032,0.00104
2.036,-0.01596
2.04,-0.01902
2.044,-0.03124
2.048,-0.03345
2.052,-0.0207
2.056,-0.03901
2.06,-0.01544
2.064,-0.0177
2.068,-0.02279
2.072,-0.02259
2.076,-0.03371
2.08,-0.04188
2.084,0.02555
2.088,-0.055
2.092,-0.04737
2.096,-0.06337
2.1,-0.01556
2.104,-0.03063
2.108,-0.01814
2.112,-0.002
2.116,-0.04241
2.12,-0.03249
2.124,-0.03259
2.128,-0.04847
2.132,-0.04121
2.136,-0.01738
2.14,-0.04042
2.144,-0.02721
2.148,-0.02837
2.152,-0.01682
2.156,-0.03086
2.16,-0.02312
2.164,-0.00427
2.168,-0.00367
2.172,-0.02885
2.176,-0.01589
2.18,0.00811
2.184,-0.02541
2.188,-0.02668
2.192,-0.04157
2.196,-0.0194
2.2,-0.04788
2.204,-0.01743
2.208,0.00199
2.212,-0.04368
2.216,-0.03569
2.22,-0.02001
2.224,0.0045
2.228,-0.01871
2.232,0.00274
2.236,-0.02871
2.24,-0.00426
2.244,0.02504
2.248,0.03783
2.252,0.03876
2.256,0.03998
2.26,0.08239
2.264,0.0992
2.268,0.06061
2.272,0.06794
2.276,0.05369
2.28,0.04546
2.284,0.05187
2.288,-0.01686
2.292,0.00506
2.296,-0.01343
2.3,0.00928
2.304,-0.01643
2.308,-0.01503
2.312,-0.01098
2.316,-0.0279
2.32,-0.03771
2.324,-0.03015
2.328,-0.0041
2.332,-0.03261
2.336,-0.03885
2.34,-0.05303
2.344,-0.02928
2.348,-0.03414
2.352,-0.03494
2.356,-0.01185
2.36,-0.00327
2.364,-0.02535
2.368,-0.04024
2.372,-0.01108
2.376,-0.02565
2.38,-0.05282
2.384,-0.12802
2.388,-0.14276
2.392,-0.18144
2.396,-0.14601
2.4,-0.03993
2.404,0.08305
2.408,0.2708
2.412,0.48039
2.416,0.71889
2.42,0.87658
2.424,0.97148
2.428,0.9556
2.432,0.82093
2.436,0.651
2.44,0.39595
2.444,0.14675
2.448,0.04654
2.452,-0.12201
2.456,-0.18147
2.46,-0.17325
2.464,-0.18584
2.468,-0.12848
2.472,-0.0649
2.476,-0.0644
2.48,-0.05609
2.484,-0.03261
2.488,-0.05082
2.492,-0.0234
2.496,-0.04287
2.5,0.00013
2.504,-0.04776
2.508,-0.01889
2.512,-0.04567
2.516,-0.02669
2.52,-0.03163
2.524,-0.0413
2.528,-0.00835
2.532,-0.02827
2.536,-0.05231
2.54,-0.03122
2.544,-0.00599
2.548,-0.01952
2.552,-0.04306
2.556,-0.03501
2.56,-0.02377
2.564,-0.01543
2.568,-0.01382
2.572,-0.01959
2.576,-0.02685
2.58,-0.04378
2.584,-0.03294
2.588,-0.02506
2.592,-0.03572
2.596,-0.03238
2.6,0.00098
2.604,-0.03678
2.608,-0.03116
2.612,-0.04015
2.616,-0.00741
2.62,0.01414
2.624,0.0207
2.628,0.01862
2.632,0.04212
2.636,0.04295
2.64,0.02786
2.644,0.04607
2.648,0.03784
2.652,0.06543
2.656,0.08483
2.66,0.11119
2.664,0.10041
2.668,0.11845
2.672,0.15661
2.676,0.15361
2.68,0.17
2.684,0.16157
2.688,0.16223
2.692,0.17236
2.696,0.1908
2.7,0.18846
2.704,0.16701
2.708,0.19882
2.712,0.18392
2.716,0.1857
2.72,0.18019
2.724,0.16919
2.728,0.14409
2.732,0.1654
2.736,0.15099
2.74,0.11785
2.744,0.13894
2.748,0.1143
2.752,0.07209
2.756,0.10383
2.76,0.07936
2.764,0.07286
2.768,0.03569
2.772,0.05001
2.776,0.08322
2.78,0.03317
2.784,0.02216
2.788,-0.02514
2.792,-0.00543
2.796,0.02902
2.8,-0.00253
2.804,-0.03185
2.808,-9e-05
2.812,-0.02174
2.816,-0.03133
2.82,-0.00775
2.824,-0.00607
2.828,-0.01116
2.832,-0.01708
2.836,-0.01449
2.84,-0.01648
2.844,-0.02745
2.848,-0.03325
2.852,-0.02726
2.856,-0.05063
2.86,-0.03651
2.864,-0.02281
2.868,-0.04729
2.872,0.00431
2.876,-0.00649
2.88,-0.0101
2.884,-0.03839
2.888,-0.04445
2.892,-0.00247
2.896,-0.01936
2.9,-0.04891
2.904,-0.04226
2.908,-0.02637
2.912,-0.00772
2.916,-0.01812
2.92,-0.03804
2.924,-0.03988
2.928,-0.01335
2.932,-0.05939
2.936,-0.02671
2.94,-0.01504
2.944,-0.00352
2.948,-0.04725
2.952,-0.02773
2.956,-0.02128
2.96,-0.04622
2.964,0.00822
2.968,-0.03121
2.972,-0.03351
2.976,-0.04018
2.98,-0.04293
2.984,-0.02471
2.988,-0.03578
2.992,-0.0459
2.996,-0.02258
3.0,-0.01311
3.004,-0.04348
3.008,-0.03173
3.012,-0.03685
3.016,-0.03715
3.02,-0.03961
3.024,-0.0336
3.028,-0.0367
3.032,-0.02545
3.036,0.00367
3.04,-0.02089
3.044,-0.02733
3.048,0.02311
3.052,-0.00808
3.056,-0.03153
3.06,-0.02094
3.064,-0.02705
3.068,-0.03567
3.072,-0.03309
3.076,-0.01854
3.08,-0.0141
3.084,-0.02445
3.088,-0.04457
3.092,-0.02493
3.096,-0.0059
3.1,-0.01047
3.104,-0.04398
3.108,-0.01869
3.112,-0.00171
3.116,-0.00057
3.12,0.02325
3.124,0.00332
3.128,0.04714
3.132,0.05707
3.136,0.053
3.14,0.11643
3.144,0.07424
3.148,0.06974
3.152,0.08359
3.156,0.06207
3.16,0.05504
3.164,0.04612
3.168,-0.01043
3.172,-0.00743
3.176,0.00929
3.18,-0.02378
3.184,0.00564
3.188,-0.01039
3.192,-0.03015
3.196,-0.02836
3.2,-0.01827
3.204,-0.01891
3.208,-0.01091
3.212,-0.00868
3.216,-0.01642
3.22,-0.01654
3.224,-0.03435
3.228,-0.02648
3.232,-0.00932
3.236,-0.02692
3.24,-0.04569
3.244,-0.04284
3.248,-0.02745
3.252,-0.02252
3.256,-0.03134
3.26,-0.03373
3.264,-0.06173
3.268,-0.11548
3.272,-0.13327
3.276,-0.13163
3.28,-0.07387
3.284,0.05702
3.288,0.25247
3.292,0.41959
3.296,0.64918
3.3,0.83218
3.304,0.94194
3.308,0.95037
3.312,0.86919
3.316,0.66287
3.32,0.45204
3.324,0.21997
3.328,0.05676
3.332,-0.12602
3.336,-0.16634
3.34,-0.20574
3.344,-0.16714
3.348,-0.12483
3.352,-0.09568
3.356,-0.05699
3.36,-0.02122
3.364,-0.02518
3.368,-0.01409
3.372,-0.04125
3.376,-0.01524
3.38,0.00401
3.384,-0.02469
3.388,-0.02058
3.392,-0.04007
3.396,0.00072
3.4,-0.01731
3.404,-0.02613
3.408,-0.03635
3.412,-0.01539
3.416,-0.03573
3.42,-0.03293
3.424,-0.01281
3.428,0.00517
3.432,-0.06197
3.436,-0.01409
3.44,-0.01754
3.444,-0.02015
3.448,-0.01442
3.452,-0.03489
3.456,-0.00683
3.46,0.0027
3.464,0.00343
3.468,-0.03495
3.472,-0.02631
3.476,0.01458
3.48,-0.05054
3.484,-0.01451
3.488,0.02077
3.492,0.00992
3.496,0.00259
3.5,-0.00272
3.504,0.0222
3.508,0.0228
3.512,0.045
3.516,0.0452
3.52,0.05193
3.524,0.05263
3.528,0.07019
3.532,0.07412
3.536,0.11854
3.54,0.09525
3.544,0.09521
3.548,0.11731
3.552,0.11991
3.556,0.15262
3.56,0.16513
3.564,0.1842
3.568,0.17874
3.572,0.20997
3.576,0.20901
3.58,0.22615
3.584,0.17716
3.588,0.19975
3.592,0.21148
3.596,0.19657
3.6,0.17422
3.604,0.18409
3.608,0.17217
3.612,0.16407
3.616,0.1689
3.62,0.15358
3.624,0.141
3.628,0.1366
3.632,0.1287
3.636,0.13098
3.64,0.08373
3.644,0.075
3.648,0.07702
3.652,0.05319
3.656,0.045
3.66,0.02763
3.664,0.0508
3.668,0.02685
3.672,0.01581
3.676,0.00846
3.68,0.01845
3.684,0.00919
3.688,0.02681
3.692,-0.02425
3.696,-0.02419
3.7,-0.00242
3.704,-0.03299
3.708,0.01919
3.712,0.00373
3.716,-0.0209
3.72,-0.03299
3.724,0.01764
3.728,0.00019
3.732,-0.01347
3.736,-0.00457
3.74,-0.02636
3.744,0.00145
3.748,-0.0082
3.752,-0.00911
3.756,-0.01984
3.76,-0.00082
3.764,-0.0196
3.768,-0.02812
3.772,-0.01821
3.776,-0.02125
3.78,-0.03577
3.784,0.00029
3.788,0.02022
3.792,-0.01053
3.796,-0.04727
3.8,0.00202
3.804,0.00279
3.808,-0.01549
3.812,-0.02086
3.816,-0.02152
3.82,0.00173
3.824,0.01115
3.828,0.04109
3.832,-0.01072
3.836,0.02445
3.84,0.04504
3.844,0.07866
3.848,0.06527
3.852,0.07247
3.856,0.10664
3.86,0.06503
3.864,0.07756
3.868,0.08906
3.872,0.0856
3.876,0.05932
3.88,0.03431
3.884,0.04316
3.888,0.04457
3.892,0.05204
3.896,0.0052
3.9,-0.04344
3.904,0.01208
3.908,0.01182
3.912,0.01304
3.916,-0.00748
3.92,-0.02417
3.924,0.00743
3.928,-0.02131
3.932,-0.02069
3.936,0.03114
3.94,-0.00565
3.944,-0.02105
3.948,-0.02491
3.952,-0.01186
3.956,-0.00543
3.96,-0.00801
3.964,0.0027
3.968,-0.00719
3.972,-0.02144
3.976,-0.01957
3.98,-0.06741
3.984,-0.09332
3.988,-0.10997
3.992,-0.07407
3.996,-0.01903
4.0,0.11158
4.004,0.32377
4.008,0.53822
4.012,0.73898
4.016,0.86352
4.02,0.98192
4.024,0.96091
4.028,0.82463
4.032,0.61754
4.036,0.38522
4.04,0.14221
4.044,-0.00295
4.048,-0.10205
4.052,-0.14779
4.056,-0.15033
4.06,-0.1336
4.064,-0.08626
4.068,-0.04552
4.072,-0.0327
4.076,-0.00727
4.08,0.01897
4.084,-0.00841
4.088,0.00963
4.092,0.00264
4.096,-0.02374
4.1,-0.02461
4.104,0.02057
4.108,-0.01058
4.112,-0.01581
4.116,-0.02187
4.12,-0.00703
4.124,0.00902
4.128,0.01598
4.132,-0.01364
4.136,-0.00154
4.14,-0.01568
4.144,0.02254
4.148,-0.00527
4.152,-0.00291
4.156,0.02116
4.16,-0.00815
4.164,-0.02536
4.168,0.02714
4.172,0.02772
4.176,0.00602
4.18,-0.00274
4.184,0.02128
4.188,0.02176
4.192,0.01098
4.196,0.01788
4.2,2e-05
4.204,0.00325
4.208,0.01182
4.212,0.0502
4.216,0.02797
4.22,0.04077
4.224,0.04166
4.228,0.05701
4.232,0.07088
4.236,0.07596
4.24,0.11303
4.244,0.094
4.248,0.11257
4.252,0.10016
4.256,0.12377
4.26,0.15204
4.264,0.16619
4.268,0.14005
4.272,0.18885
4.276,0.20443
4.28,0.21196
4.284,0.19696
4.288,0.20485
4.292,0.20701
4.296,0.20548
4.3,0.21341
4.304,0.23587
4.308,0.21603
4.312,0.21282
4.316,0.19403
4.32,0.20651
4.324,0.19625
4.328,0.19774
4.332,0.18633
4.336,0.15714
4.34,0.14674
4.344,0.15955
4.348,0.14915
4.352,0.08917
4.356,0.11502
4.36,0.05738
4.364,0.10337
4.368,0.09043
4.372,0.04824
4.376,0.09205
4.38,0.04096
4.384,0.0424
4.388,0.02319
4.392,0.04018
4.396,0.04773
4.4,0.03365
4.404,0.02802
4.408,0.02152
4.412,0.00932
4.416,0.02305
4.42,-0.00156
4.424,0.00232
4.428,0.03265
4.432,0.01563
4.436,0.01619
4.44,0.0289
4.444,0.01593
4.448,0.00435
4.452,0.02557
4.456,0.00883
4.46,-0.02198
4.464,-0.0025
4.468,0.00908
4.472,-0.0137
4.476,-0.01636
4.48,-0.0028
4.484,0.01404
4.488,0.02667
4.492,-0.00567
4.496,-0.002
4.5,0.01131
4.504,0.00273
4.508,0.00969
4.512,0.02021
4.516,-0.00115
4.52,0.01311
4.524,0.00706
4.528,-0.03392
4.532,0.02968
4.536,0.00476
4.54,0.00516
4.544,-0.00334
4.548,0.01049
4.552,0.02854
4.556,0.0223
4.56,0.00252
4.564,0.04026
4.568,0.02089
4.572,0.00743
4.576,-0.01039
4.58,0.01327
4.584,0.01408
4.588,0.02213
4.592,0.0004
4.596,0.02374
4.6,0.04131
4.604,0.00017
4.608,0.01174
4.612,0.00791
4.616,0.01763
4.62,-0.01262
4.624,0.01377
4.628,0.01402
4.632,0.00979
4.636,0.01351
4.64,-0.01483
4.644,0.00551
4.648,-0.01823
4.652,-0.00643
4.656,0.02336
4.66,0.02334
4.664,-0.0046
4.668,0.00405
4.672,0.04151
4.676,0.01203
4.68,0.00905
4.684,0.02973
4.688,0.00816
4.692,0.01304
4.696,0.01244
4.7,0.01903
4.704,0.01773
4.708,-0.00677
4.712,0.01751
4.716,0.01275
4.72,0.03851
4.724,0.03965
4.728,0.04718
4.732,0.04029
4.736,0.09439
4.74,0.08147
4.744,0.06969
4.748,0.11444
4.752,0.12053
4.756,0.11714
4.76,0.07996
4.764,0.09091
4.768,0.09021
4.772,0.09824
4.776,0.10083
4.78,0.0789
4.784,0.07052
4.788,0.05053
4.792,0.04316
4.796,0.05979
4.8,0.02855
4.804,0.04121
4.808,0.00834
4.812,0.03088
4.816,0.00635
4.82,0.0118
4.824,0.0463
4.828,0.01534
4.832,0.02371
4.836,0.01552
4.84,0.01522
4.844,0.0058
4.848,0.01536
4.852,0.01514
4.856,0.02652
4.86,0.01496
4.864,0.02087
4.868,0.0145
4.872,0.01204
4.876,-0.01788
4.88,-0.03297
4.884,-0.09469
4.888,-0.08392
4.892,-0.05854
4.896,0.02909
4.9,0.20349
4.904,0.41248
4.908,0.62413
4.912,0.84263
4.916,0.96349
4.92,1.03281
4.924,0.99461
4.928,0.79089
4.932,0.56961
4.936,0.32642
4.94,0.17121
4.944,-0.04044
4.948,-0.13545
4.952,-0.16183
4.956,-0.11514
4.96,-0.07253
4.964,-0.05608
4.968,-0.03008
4.972,-0.01329
4.976,0.03026
4.98,0.02238
4.984,0.0077
4.988,0.04233
4.992,0.02424
4.996,0.0342
5.0,0.01566
5.004,0.02427
5.008,0.02648
5.012,0.0434
5.016,0.03004
5.02,0.00271
5.024,0.0314
5.028,0.03096
5.032,0.01851
5.036,-0.00267
5.04,0.03279
5.044,-0.00284
5.048,0.0453
5.052,0.02252
5.056,0.03808
5.06,0.03047
5.064,0.03497
5.068,0.04572
5.072,0.00965
5.076,0.03392
5.08,0.00605
5.084,0.04085
5.088,0.03657
5.092,0.03258
5.096,0.0321
5.1,0.03944
5.104,0.02733
5.108,0.0533
5.112,0.04276
5.116,0.05629
5.12,0.08666
5.124,0.07909
5.128,0.09879
5.132,0.09872
5.136,0.09007
5.14,0.11176
5.144,0.13894
5.148,0.16872
5.152,0.13483
5.156,0.16679
5.16,0.18983
5.164,0.1614
5.168,0.1863
5.172,0.20142
5.176,0.2042
5.18,0.21376
5.184,0.25296
5.188,0.22843
5.192,0.22794
5.196,0.25132
5.2,0.26019
5.204,0.25678
5.208,0.24814
5.212,0.22558
5.216,0.22582
5.22,0.21334
5.224,0.15292
5.228,0.20828
5.232,0.18724
5.236,0.20155
5.24,0.20254
5.244,0.1476
5.248,0.15271
5.252,0.11646
5.256,0.09356
5.26,0.11963
5.264,0.09389
5.268,0.10143
5.272,0.08474
5.276,0.04191
5.28,0.08248
5.284,0.0529
5.288,0.05963
5.292,0.0362
5.296,0.05986
5.3,0.02076
5.304,0.04722
5.308,0.01588
5.312,0.02445
5.316,0.02323
5.32,0.023
5.324,0.01929
5.328,0.01293
5.332,0.02465
5.336,0.03409
5.34,0.05521
5.344,0.02277
5.348,0.02352
5.352,0.02213
5.356,0.02023
5.36,0.04867
5.364,0.01442
5.368,0.04959
5.372,0.00048
5.376,0.02895
5.38,0.02656
5.384,0.01843
5.388,0.01754
5.392,0.05623
5.396,0.0525
5.4,0.03026
5.404,-0.00168
5.408,0.06273
5.412,0.01741
5.416,0.04499
5.42,0.03451
5.424,0.03989
5.428,0.04507
5.432,0.01453
5.436,0.02544
5.44,0.05661
5.444,0.05569
5.448,0.07734
5.452,0.07728
5.456,0.07706
5.46,0.07913
5.464,0.12789
5.468,0.14283
5.472,0.13251
5.476,0.12599
5.48,0.12933
5.484,0.11722
5.488,0.09511
5.492,0.08516
5.496,0.09154
5.5,0.07643
5.504,0.06647
5.508,0.03361
5.512,0.04432
5.516,0.04644
5.52,0.03618
5.524,0.06127
5.528,0.04035
5.532,0.03889
5.536,0.03244
5.54,0.04586
5.544,0.00949
5.548,0.00967
5.552,0.01135
5.556,0.04179
5.56,0.0025
5.564,0.01829
5.568,0.01934
5.572,0.04807
5.576,0.02667
5.58,0.00466
5.584,0.03064
5.588,-0.00313
5.592,0.01968
5.596,-0.04101
5.6,-0.06933
5.604,-0.09874
5.608,-0.00777
5.612,0.08779
5.616,0.25978
5.62,0.48264
5.624,0.69037
5.628,0.8648
5.632,1.01614
5.636,1.02863
5.64,0.91182
5.644,0.7423
5.648,0.52643
5.652,0.31739
5.656,0.12288
5.66,-0.00841
5.664,-0.11204
5.668,-0.15203
5.672,-0.12883
5.676,-0.10411
5.68,-0.04393
5.684,0.00065
5.688,0.00487
5.692,-0.00162
5.696,0.03127
5.7,0.04161
5.704,0.02367
5.708,0.05
5.712,0.04929
5.716,0.01817
5.72,0.04127
5.724,0.03048
5.728,0.01797
5.732,0.04393
5.736,0.01663
5.74,-0.00958
5.744,0.03
5.748,0.02516
5.752,0.01254
5.756,0.01632
5.76,0.03959
5.764,0.02214
5.768,0.00767
5.772,0.01463
5.776,0.02565
5.78,0.02252
5.784,0.04369
5.788,0.02017
5.792,0.0196
5.796,0.02749
5.8,0.03015
5.804,0.05971
5.808,0.03991
5.812,0.03325
5.816,0.06731
5.82,0.04039
5.824,0.04607
5.828,0.06102
5.832,0.06653
5.836,0.05848
5.84,0.06354
5.844,0.06016
5.848,0.10956
5.852,0.11113
5.856,0.1273
5.86,0.13651
5.864,0.13383
5.868,0.12527
5.872,0.14498
5.876,0.19317
5.88,0.20103
5.884,0.19979
5.888,0.21623
5.892,0.2035
5.896,0.2383
5.9,0.23693
5.904,0.22469
5.908,0.24381
5.912,0.22675
5.916,0.23912
5.92,0.24808
5.924,0.23782
5.928,0.21915
5.932,0.2453
5.936,0.22947
5.94,0.21347
5.944,0.19139
5.948,0.19673
5.952,0.17906
5.956,0.17283
5.96,0.16422
5.964,0.15184
5.968,0.15555
5.972,0.10516
5.976,0.12901
5.98,0.12815
5.984,0.12417
5.988,0.08379
5.992,0.07945
5.996,0.08577
6.0,0.03511
6.004,0.0188
6.008,0.07445
6.012,0.06044
6.016,0.0498
6.02,0.04342
6.024,0.04082
6.028,0.04141
6.032,0.01772
6.036,0.01985
6.04,0.0225
6.044,0.04262
6.048,0.03124
6.052,0.03411
6.056,0.01284
6.06,0.03285
6.064,-0.00338
6.068,0.04667
6.072,0.04695
6.076,0.03479
6.08,0.02142
6.084,0.04922
6.088,0.01204
6.092,0.00112
6.096,0.03628
6.1,0.02747
6.104,0.02983
6.108,0.04957
6.112,0.04013
6.116,0.03656
6.12,0.05385
6.124,0.04688
6.128,0.03686
6.132,0.02846
6.136,0.03034
6.14,0.01839
6.144,0.04066
6.148,0.03988
6.152,0.04864
6.156,0.01569
6.16,0.0055
6.164,0.01793
6.168,0.02582
6.172,0.04436
6.176,0.02962
6.18,0.0189
6.184,0.01971
6.188,0.054
6.192,0.04372
6.196,0.0266
6.2,0.04433
6.204,0.03823
6.208,0.03984
6.212,0.04371
6.216,0.03227
6.22,0.00335
6.224,0.05229
6.228,0.04685
6.232,0.04712
6.236,0.04985
6.24,0.05379
6.244,0.03568
6.248,0.03283
6.252,0.05328
6.256,0.01804
6.26,0.05739
6.264,0.01116
6.268,0.04257
6.272,0.03392
6.276,0.04169
6.28,0.03187
6.284,0.01588
6.288,0.03883
6.292,0.04799
6.296,0.00883
6.3,0.05356
6.304,0.04197
6.308,0.02988
6.312,0.06002
6.316,0.0428
6.32,0.06176
6.324,0.05747
6.328,0.05755
6.332,0.08957
6.336,0.07858
6.34,0.10971
6.344,0.12061
6.348,0.0968
6.352,0.14354
6.356,0.14492
6.36,0.12078
6.364,0.11862
6.368,0.11422
6.372,0.09123
6.376,0.09271
6.38,0.05162
6.384,0.05263
6.388,0.04639
6.392,0.02796
6.396,0.02569
6.4,0.02927
6.404,0.04993
6.408,0.0094
6.412,0.03014
6.416,-0.00036
6.42,0.02906
6.424,0.02278
6.428,0.01168
6.432,0.02158
6.436,-0.00128
6.44,0.0397
6.444,0.02249
6.448,0.01779
6.452,0.02062
6.456,0.0172
6.46,0.0299
6.464,0.02023
6.468,0.01435
6.472,-0.03625
6.476,-0.07984
6.48,-0.09017
6.484,-0.07548
6.488,-0.01153
6.492,0.13461
6.496,0.31703
6.5,0.53708
6.504,0.75153
6.508,0.94672
6.512,0.99359
6.516,1.02095
6.52,0.8903
6.524,0.71575
6.528,0.46057
6.532,0.23944
6.536,0.04991
6.54,-0.08768
6.544,-0.14043
6.548,-0.13963
6.552,-0.06331
6.556,-0.04354
6.56,-0.04235
6.564,-0.00912
6.568,0.00626
6.572,0.02168
6.576,0.03078
6.58,0.03237
6.584,0.03868
6.588,0.03151
6.592,0.03053
6.596,0.01818
6.6,0.02501
6.604,-0.0104
6.608,0.03645
6.612,0.03373
6.616,0.05404
6.62,0.02215
6.624,0.01375
6.628,0.01633
6.632,0.06788
6.636,0.03842
6.64,0.02288
6.644,0.03036
6.648,0.02159
6.652,0.02585
6.656,0.00853
6.66,0.02349
6.664,0.02133
6.668,0.01927
6.672,0.04498
6.676,-0.00878
6.68,0.02422
6.684,0.03392
6.688,0.04357
6.692,0.02476
6.696,0.07923
6.7,0.03888
6.704,0.05255
6.708,0.04551
6.712,0.0869
6.716,0.08149
6.72,0.08823
6.724,0.07213
6.728,0.08712
6.732,0.10965
6.736,0.11091
6.74,0.14533
6.744,0.1534
6.748,0.15257
6.752,0.17379
6.756,0.18247
6.76,0.18906
6.764,0.19454
6.768,0.1902
6.772,0.21057
6.776,0.23747
6.78,0.20119
6.784,0.22993
6.788,0.2562
6.792,0.22864
6.796,0.20625
6.8,0.23765
6.804,0.22269
6.808,0.22745
6.812,0.22209
6.816,0.2244
6.82,0.21733
6.824,0.21485
6.828,0.21802
6.832,0.15304
6.836,0.18066
6.84,0.17499
6.844,0.14503
6.848,0.12511
6.852,0.13555
6.856,0.10318
6.86,0.10641
6.864,0.0753
6.868,0.08191
6.872,0.07187
6.876,0.05577
6.88,0.05338
6.884,0.03918
6.888,0.03072
6.892,0.06699
6.896,0.02736
6.9,0.03321
6.904,0.0594
6.908,0.02285
6.912,0.03588
6.916,0.00909
6.92,0.02887
6.924,0.0329
6.928,0.02622
6.932,0.0209
6.936,-0.00293
6.94,0.03826
6.944,-0.01856
6.948,0.01812
6.952,0.01351
6.956,0.02348
6.96,0.01631
6.964,0.0516
6.968,-0.00085
6.972,0.03841
6.976,0.05265
6.98,0.02434
6.984,0.02246
6.988,0.02778
6.992,0.03469
6.996,-0.00276
7.0,0.02959
7.004,0.01537
7.008,0.00981
7.012,0.00611
7.016,0.03433
7.02,0.03266
7.024,0.00278
7.028,0.01619
7.032,0.00807
7.036,-0.00407
7.04,0.02342
7.044,-0.00844
7.048,0.04966
7.052,0.0347
7.056,-0.00017
7.06,0.01109
7.064,0.01856
7.068,0.02247
7.072,0.01143
7.076,0.06022
7.08,0.00269
7.084,0.00197
7.088,0.02895
7.092,0.04546
7.096,0.04327
7.1,0.04196
7.104,0.0229
7.108,0.03146
7.112,0.02625
7.116,0.02473
7.12,-0.01169
7.124,0.00522
7.128,-0.01628
7.132,-0.00535
7.136,0.00406
7.14,0.00764
7.144,0.02144
7.148,0.0259
7.152,0.03915
7.156,0.06944
7.16,0.0254
7.164,0.06995
7.168,0.08198
7.172,0.06514
7.176,0.10418
7.18,0.09462
7.184,0.12066
7.188,0.13356
7.192,0.11602
7.196,0.13093
7.2,0.12609
7.204,0.10082
7.208,0.05727
7.212,0.08071
7.216,0.04834
7.22,0.06353
7.224,0.02043
7.228,0.02517
7.232,0.03831
7.236,0.0182
7.24,0.00106
7.244,0.02249
7.248,0.00898
7.252,0.02427
7.256,0.01877
7.26,0.00476
7.264,0.00221
7.268,0.02127
7.272,0.01097
7.276,0.00131
7.28,0.0215
7.284,0.01
7.288,-0.00777
7.292,0.00538
7.296,0.02182
7.3,-0.02087
7.304,0.01206
7.308,-0.05216
7.312,-0.11068
7.316,-0.10729
7.32,-0.11428
7.324,-0.0328
7.328,0.0842
7.332,0.2959
7.336,0.49385
7.34,0.71441
7.344,0.90559
7.348,0.98877
7.352,0.97562
7.356,0.83629
7.36,0.69124
7.364,0.45664
7.368,0.19485
7.372,0.06159
7.376,-0.11255
7.38,-0.16109
7.384,-0.17521
7.388,-0.13992
7.392,-0.07739
7.396,-0.06775
7.4,-0.02089
7.404,0.01083
7.408,-0.0004
7.412,0.00417
7.416,0.03514
7.42,0.02069
7.424,-0.00365
7.428,0.0126
7.432,0.00436
7.436,0.00688
7.44,-0.00876
7.444,-0.00312
7.448,-0.01513
7.452,0.00629
7.456,0.01221
7.46,0.00728
7.464,-0.00574
7.468,0.01905
7.472,0.01524
7.476,0.00293
7.48,0.00956
7.484,0.00111
7.488,-0.00331
7.492,-0.01313
7.496,0.02363
7.5,0.00548
7.504,0.01142
7.508,0.00253
7.512,0.00199
7.516,-0.01576
7.52,-0.00606
7.524,0.02525
7.528,-0.02641
7.532,0.03313
7.536,0.05274
7.54,0.03898
7.544,0.02654
7.548,0.01737
7.552,0.0466
7.556,0.06229
7.56,0.07405
7.564,0.08888
7.568,0.10985
7.572,0.10576
7.576,0.10676
7.58,0.12698
7.584,0.14461
7.588,0.13603
7.592,0.17472
7.596,0.17718
7.6,0.18626
7.604,0.21513
7.608,0.18729
7.612,0.20532
7.616,0.19796
7.62,0.24336
7.624,0.22054
7.628,0.24326
7.632,0.22744
7.636,0.22391
7.64,0.22916
7.644,0.20507
7.648,0.18807
7.652,0.21217
7.656,0.17642
7.66,0.17131
7.664,0.17688
7.668,0.16192
7.672,0.13384
7.676,0.13001
7.68,0.11876
7.684,0.10347
7.688,0.1229
7.692,0.08264
7.696,0.07542
7.7,0.05697
7.704,0.05487
7.708,0.05303
7.712,0.06121
7.716,0.02567
7.72,0.01196
7.724,0.03262
7.728,0.01941
7.732,0.01526
7.736,-0.0015
7.74,-0.00099
7.744,0.00065
7.748,-0.00081
7.752,-0.01493
7.756,0.00996
7.76,-0.04345
7.764,-0.00659
7.768,-0.02194
7.772,-0.00909
7.776,-0.00154
7.78,-0.01642
7.784,0.002
7.788,-0.02268
7.792,-0.014
7.796,0.00805
7.8,0.04799
7.804,-0.00883
7.808,-0.00127
7.812,0.00725
7.816,-0.0046
7.82,-0.02843
7.824,0.02469
7.828,-0.0357
7.832,-0.01338
7.836,-0.01406
7.84,0.00235
7.844,-0.01027
7.848,-0.01107
7.852,-0.01375
7.856,-0.0049
7.86,-0.03569
7.864,-0.02195
7.868,-0.01321
7.872,-0.00932
7.876,-0.03683
7.88,-0.0287
7.884,0.00344
7.888,-0.00469
7.892,0.00686
7.896,-0.01826
7.9,0.00695
7.904,0.02406
7.908,-0.01868
7.912,0.01906
7.916,-0.00366
7.92,-0.01709
7.924,-0.00586
7.928,0.02617
7.932,-0.01378
7.936,-0.02736
7.94,-0.00571
7.944,-0.01592
7.948,0.00554
7.952,-0.03099
7.956,0.00671
7.96,0.00765
7.964,-0.00523
7.968,-0.0179
7.972,-0.02163
7.976,-0.01009
7.98,-0.00985
7.984,-0.01464
7.988,-0.02389
7.992,-0.00452
7.996,-0.01761
8.0,-0.01051
8.004,-0.04166
8.008,-0.01056
8.012,-0.01829
8.016,-0.0239
8.02,0.01019
8.024,-0.02004
8.028,0.00232
8.032,-0.00387
8.036,-0.0181
8.04,0.00694
8.044,-0.02909
8.048,-0.02652
8.052,0.00644
8.056,-0.01818
8.06,-0.02018
8.064,-0.03022
8.068,-0.00448
8.072,-0.02225
8.076,0.00264
8.08,-0.02488
8.084,-0.01758
8.088,-0.01131
8.092,-0.02513
8.096,-0.00245
8.1,-0.01836
8.104,0.0066
8.108,-0.00555
8.112,-0.03449
8.116,-0.03834
8.12,-0.02465
8.124,-0.01541
8.128,-0.01706
8.132,-0.02436
8.136,0.00417
8.14,-0.01523
8.144,-0.01397
8.148,-0.01124
8.152,-0.00177
8.156,0.00961
8.16,0.0034
8.164,0.03918
8.168,0.01128
8.172,0.03386
8.176,0.05994
8.18,0.04131
8.184,0.06049
8.188,0.0682
8.192,0.06726
8.196,0.06703
8.2,0.10403
8.204,0.04866
8.208,0.08548
8.212,0.05325
8.216,0.06073
8.22,0.04443
8.224,0.03187
8.228,0.02328
8.232,-0.00584
8.236,0.01669
8.24,0.00291
8.244,-0.022
8.248,-0.03385
8.252,-0.00727
8.256,-0.01937
8.26,-0.01883
8.264,-0.04374
8.268,-0.04045
8.272,-0.02335
8.276,-0.03215
8.28,-0.03427
8.284,-0.03629
8.288,0.00405
8.292,-0.03346
8.296,0.00452
8.3,-0.01668
8.304,-0.01259
8.308,-0.03408
8.312,-0.05278
8.316,-0.10304
8.32,-0.10798
8.324,-0.13607
8.328,-0.09057
8.332,0.02958
8.336,0.15011
8.34,0.36368
8.344,0.56136
8.348,0.79708
8.352,0.93948
8.356,0.97949
8.36,0.89554
8.364,0.73111
8.368,0.55607
8.372,0.27268
8.376,0.08823
8.38,-0.05604
8.384,-0.17098
8.388,-0.17482
8.392,-0.16687
8.396,-0.11393
8.4,-0.10032
8.404,-0.06659
8.408,-0.03398
8.412,-0.04265
8.416,-0.03591
8.42,-0.0117
8.424,-0.00947
8.428,-0.02843
8.432,-0.03752
8.436,-0.02641
8.44,-0.00428
8.444,-0.01724
8.448,-0.0243
8.452,-0.01449
8.456,-0.01103
8.46,-0.00924
8.464,-0.02315
8.468,-0.04273
8.472,-0.03227
8.476,-0.05106
8.48,-0.03074
8.484,-0.00894
8.488,-0.00408
8.492,-0.04319
8.496,-0.01615
8.5,-0.01575
8.504,-0.01541
8.508,-0.01547
8.512,-0.0091
8.516,-0.01174
8.52,-0.00788
8.524,-0.02821
8.528,-0.01982
8.532,-0.05334
8.536,-0.0189
8.54,-0.04267
8.544,0.03537
8.548,0.00731
8.552,0.01547
8.556,0.04485
8.56,0.01899
8.564,0.02728
8.568,0.06692
8.572,0.07874
8.576,0.06319
8.58,0.05968
8.584,0.07174
8.588,0.08999
8.592,0.10333
8.596,0.11697
8.6,0.13671
8.604,0.14935
8.608,0.16978
8.612,0.18242
8.616,0.17705
8.62,0.15774
8.624,0.21749
8.628,0.18673
8.632,0.16781
8.636,0.19833
8.64,0.19017
8.644,0.17222
8.648,0.19465
8.652,0.17953
8.656,0.16571
8.66,0.15607
8.664,0.15234
8.668,0.11399
8.672,0.13225
8.676,0.09122
8.68,0.12172
8.684,0.11126
8.688,0.09064
8.692,0.07203
8.696,0.06898
8.7,0.02749
8.704,0.04252
8.708,0.02371
8.712,0.02959
8.716,0.01004
8.72,0.01009
8.724,0.01276
8.728,0.00131
8.732,-0.00644
8.736,0.00225
8.74,-0.02311
8.744,0.00346
8.748,-0.01948
8.752,-0.01498
8.756,-0.02731
8.76,-0.03954
8.764,-0.02471
8.768,-0.01682
8.772,-0.0336
8.776,-0.01758
8.78,-0.01584
8.784,-0.03649
8.788,-0.04586
8.792,-0.00039
8.796,-0.03856
8.8,-0.01097
8.804,-0.03315
8.808,-0.01824
8.812,-0.01883
8.816,-0.00791
8.82,-0.02547
8.824,-0.0424
8.828,-0.01256
8.832,-0.04097
8.836,-0.02512
8.84,-0.02319
8.844,0.0053
8.848,-0.01682
8.852,0.00782
8.856,-0.03294
8.86,-0.01882
8.864,-0.04114
8.868,-0.01562
8.872,-0.02961
8.876,-0.01984
8.88,-0.02166
8.884,-0.00908
8.888,0.00021
8.892,-0.02657
8.896,-0.01533
8.9,-0.02868
8.904,-0.03461
8.908,-0.05199
8.912,-0.0161
8.916,-0.04218
8.92,-0.01602
8.924,-0.02343
8.928,-0.0339
8.932,-0.04605
8.936,-0.00814
8.94,-0.03324
8.944,-0.04541
8.948,-0.02856
8.952,-0.03879
8.956,-0.03185
8.96,-0.03535
8.964,-0.01184
8.968,-0.03089
8.972,-0.01735
8.976,-0.02529
8.98,-0.03848
8.984,-0.05693
8.988,-0.0434
8.992,-0.01689
8.996,-0.03411
9.0,-0.02084
9.004,-0.0366
9.008,-0.04135
9.012,-0.04386
9.016,-0.00164
9.02,0.00835
9.024,-0.00293
9.028,0.00956
9.032,0.01529
9.036,0.05815
9.04,0.05119
9.044,0.06732
9.048,0.06093
9.052,0.06615
9.056,0.04758
9.06,0.04376
9.064,0.03216
9.068,0.03149
9.072,0.02159
9.076,0.03844
9.08,0.02194
9.084,-0.0157
9.088,-0.02041
9.092,-0.02597
9.096,-0.00448
9.1,-0.04553
9.104,-0.02118
9.108,-0.00784
9.112,-0.01144
9.116,-0.04473
9.12,-0.05365
9.124,0.00228
9.128,-0.04219
9.132,-0.02424
9.136,-0.04504
9.14,-0.01277
9.144,-0.01071
9.148,-0.0302
9.152,-0.02691
9.156,-0.0346
9.16,-0.04315
9.164,-0.03975
9.168,-0.07488
9.172,-0.11287
9.176,-0.14134
9.18,-0.12049
9.184,-0.0665
9.188,0.05853
9.192,0.21723
9.196,0.45524
9.2,0.67418
9.204,0.82483
9.208,0.9698
9.212,0.96118
9.216,0.84718
9.22,0.62066
9.224,0.4206
9.228,0.1954
9.232,-0.00899
9.236,-0.15134
9.24,-0.21673
9.244,-0.21631
9.248,-0.1698
9.252,-0.14148
9.256,-0.08625
9.26,-0.0484
9.264,-0.04923
9.268,-0.03821
9.272,-0.02866
9.276,-0.04768
9.28,-0.0496
9.284,-0.02501
9.288,-0.02636
9.292,-0.01118
9.296,-0.0337
9.3,-0.03746
9.304,-0.05293
9.308,-0.04151
9.312,-0.0535
9.316,-0.03096
9.32,-0.0372
9.324,-0.02107
9.328,-0.03462
9.332,-0.01199
9.336,-0.02301
9.34,-0.05316
9.344,-0.05372
9.348,-0.02204
9.352,-0.01531
9.356,-0.03073
9.36,-0.04802
9.364,0.0055
9.368,-0.05547
9.372,-0.05148
9.376,-0.03374
9.38,-0.0258
9.384,-0.02402
9.388,-0.04685
9.392,-0.01205
9.396,-0.0062
9.4,-0.00121
9.404,0.02432
9.408,0.00974
9.412,0.04107
9.416,0.04605
9.42,0.01247
9.424,0.06045
9.428,0.03372
9.432,0.09519
9.436,0.06916
9.44,0.09246
9.444,0.11394
9.448,0.10188
9.452,0.1138
9.456,0.12929
9.46,0.15117
9.464,0.18194
9.468,0.15859
9.472,0.15826
9.476,0.19278
9.48,0.21832
9.484,0.18098
9.488,0.19245
9.492,0.21466
9.496,0.20817
9.5,0.19738
9.504,0.17458
9.508,0.16035
9.512,0.16623
9.516,0.14606
9.52,0.15786
9.524,0.116
9.528,0.10477
9.532,0.12097
9.536,0.0917
9.54,0.08291
9.544,0.07771
9.548,0.07604
9.552,0.07971
9.556,0.06327
9.56,0.03357
9.564,0.04764
9.568,0.00922
9.572,0.01925
9.576,0.00507
9.58,-0.00532
9.584,0.01516
9.588,-0.02865
9.592,-0.04555
9.596,-0.02994
9.6,-0.01731
9.604,-0.048
9.608,-0.03616
9.612,-0.01676
9.616,-0.03227
9.62,-0.03405
9.624,-0.03419
9.628,-0.00635
9.632,-0.04393
9.636,-0.01502
9.64,-0.01528
9.644,-0.04936
9.648,-0.02943
9.652,-0.02224
9.656,-0.0373
9.66,-0.03513
9.664,-0.03068
9.668,-0.029
9.672,-0.02897
9.676,-0.04523
9.68,-0.0208
9.684,-0.01072
9.688,-0.01761
9.692,-0.02808
9.696,-0.00844
9.7,-0.01811
9.704,-0.05097
9.708,-0.01922
9.712,-0.01967
9.716,-0.01523
9.72,-0.03199
9.724,-0.05231
9.728,-0.01822
9.732,0.00797
9.736,-0.04635
9.74,-0.02202
9.744,-0.02778
9.748,-0.03617
9.752,-0.00621
9.756,-0.04334
9.76,-0.01156
9.764,-0.02683
9.768,-0.03599
9.772,-0.0184
9.776,-0.03708
9.78,-0.03206
9.784,-0.02684
9.788,-0.02123
9.792,-0.02839
9.796,-0.03241
9.8,0.00619
9.804,-0.01894
9.808,-0.03296
9.812,-0.01742
9.816,-0.01563
9.82,-0.06354
9.824,-0.02254
9.828,-0.03934
9.832,-0.04016
9.836,-0.05477
9.84,-0.04569
9.844,-0.03478
9.848,-0.02076
9.852,-0.02144
9.856,-0.04013
9.86,-0.04582
9.864,0.01443
9.868,-0.00706
9.872,-0.04467
9.876,-0.02659
9.88,-0.031
9.884,-0.02407
9.888,-0.00936
9.892,-0.03127
9.896,-0.01164
9.9,-0.04308
9.904,-0.03371
9.908,-0.04241
9.912,-0.05104
9.916,0.01714
9.92,-0.01811
9.924,-0.03643
9.928,-0.00383
9.932,-0.01695
9.936,-0.01365
9.94,-0.01808
9.944,-0.01919
9.948,-0.02565
9.952,-0.01174
9.956,-0.01128
9.96,-0.03939
9.964,-0.02517
9.968,0.0016
9.972,0.00017
9.976,-0.03848
9.98,-0.01267
9.984,-0.03008
9.988,-0.02679
9.992,-0.03369
9.996,0.00391
