t_seg,ecg_mV
0.0,0.01205
0.004,0.06866
0.008,0.06445
0.012,0.02612
0.016,0.04613
0.02,0.03608
0.024,0.00609
0.028,0.01669
0.032,0.01434
0.036,0.03607
0.04,0.0065
0.044,0.03724
0.048,0.02793
0.052,0.01534
0.056,0.01785
0.06,0.04165
0.064,0.00423
0.068,0.04073
0.072,0.01492
0.076,0.04833
0.08,0.03257
0.084,0.02446
0.088,0.03132
0.092,0.05599
0.096,0.05458
0.1,0.01312
0.104,0.02241
0.108,0.03432
0.112,0.03649
0.116,0.04049
0.12,0.01913
0.124,0.06228
0.128,0.01554
0.132,0.03623
0.136,0.04067
0.14,0.03675
0.144,0.00799
0.148,0.03802
0.152,0.00949
0.156,0.01703
0.16,0.03277
0.164,0.02068
0.168,0.02872
0.172,0.02116
0.176,0.0301
0.18,0.03913
0.184,0.02266
0.188,0.03929
0.192,0.01399
0.196,0.03384
0.2,0.02776
0.204,0.01779
0.208,0.06871
0.212,0.09571
0.216,0.08396
0.22,0.06722
0.224,0.10231
0.228,0.11625
0.232,0.14209
0.236,0.09918
0.24,0.10989
0.244,0.14744
0.248,0.13152
0.252,0.11766
0.256,0.10317
0.26,0.11051
0.264,0.06882
0.268,0.05825
0.272,0.02501
0.276,0.0336
0.28,0.03148
0.284,0.0337
0.288,0.04215
0.292,0.00817
0.296,0.04503
0.3,0.02773
0.304,0.01468
0.308,0.01556
0.312,0.04232
0.316,-0.00421
0.32,0.01033
0.324,0.01073
0.328,0.00911
0.332,0.00914
0.336,-0.00519
0.34,0.03087
0.344,0.03005
0.348,0.0275
0.352,0.04081
0.356,0.01873
0.36,-0.00476
0.364,-0.05566
0.368,-0.10554
0.372,-0.07731
0.376,0.01624
0.38,0.18993
0.384,0.35341
0.388,0.58277
0.392,0.81363
0.396,0.96765
0.4,1.02776
0.404,0.97674
0.408,0.81716
0.412,0.61786
0.416,0.40495
0.42,0.194
0.424,0.03373
0.428,-0.08327
0.432,-0.1258
0.436,-0.1369
0.44,-0.11288
0.444,-0.04194
0.448,0.01125
0.452,0.00865
0.456,0.0203
0.46,0.01749
0.464,0.0214
0.468,0.03841
0.472,0.02208
0.476,0.02088
0.48,0.0303
0.484,0.02147
0.488,0.05981
0.492,0.04342
0.496,0.02653
0.5,0.00809
0.504,0.00421
0.508,0.01931
0.512,0.05361
0.516,0.03626
0.52,0.0178
0.524,0.02272
0.528,0.02165
0.532,0.0608
0.536,0.03039
0.54,0.00238
0.544,0.02126
0.548,0.02068
0.552,0.03975
0.556,0.02164
0.56,0.03172
0.564,0.03537
0.568,0.05053
0.572,0.03473
0.576,0.06143
0.58,0.04595
0.584,0.03748
0.588,0.05522
0.592,0.07591
0.596,0.06022
0.6,0.06743
0.604,0.04656
0.608,0.10833
0.612,0.12351
0.616,0.11987
0.62,0.10198
0.624,0.13089
0.628,0.15163
0.632,0.17153
0.636,0.16254
0.64,0.20936
0.644,0.20698
0.648,0.19066
0.652,0.21262
0.656,0.22344
0.66,0.25077
0.664,0.24814
0.668,0.22654
0.672,0.25829
0.676,0.23051
0.68,0.2542
0.684,0.24322
0.688,0.24608
0.692,0.25294
0.696,0.23402
0.7,0.24146
0.704,0.21771
0.708,0.2446
0.712,0.23166
0.716,0.20687
0.72,0.15036
0.724,0.19414
0.728,0.14001
0.732,0.12807
0.736,0.155
0.74,0.13213
0.744,0.11677
0.748,0.079
0.752,0.08965
0.756,0.09571
0.76,0.0629
0.764,0.05598
0.768,0.05123
0.772,0.04639
0.776,0.042
0.78,0.06782
0.784,0.05205
0.788,0.02875
0.792,0.0477
0.796,0.02108
0.8,0.03604
0.804,0.04189
0.808,0.034
0.812,0.03867
0.816,0.03841
0.82,0.00888
0.824,0.03213
0.828,0.04909
0.832,0.0183
0.836,0.01368
0.84,0.02927
0.844,0.0392
0.848,-0.00142
0.852,0.04483
0.856,0.03949
0.86,0.0397
0.864,0.00987
0.868,0.02907
0.872,0.03372
0.876,0.03335
0.88,0.0317
0.884,0.0274
0.888,0.01795
0.892,0.01027
0.896,0.02092
0.9,0.00159
0.904,0.02436
0.908,0.03256
0.912,0.01752
0.916,0.04915
0.92,0.05286
0.924,0.04939
0.928,0.06898
0.932,0.0519
0.936,0.0632
0.94,0.0905
0.944,0.09056
0.948,0.14001
0.952,0.12481
0.956,0.13015
0.96,0.1315
0.964,0.11521
0.968,0.13788
0.972,0.11813
0.976,0.08643
0.98,0.11004
0.984,0.09708
0.988,0.063
0.992,0.07766
0.996,0.04206
1.0,0.02789
1.004,0.03537
1.008,0.0208
1.012,0.0132
1.016,0.05689
1.02,0.0072
1.024,0.02116
1.028,0.02984
1.032,0.03281
1.036,0.04047
1.04,0.03988
1.044,0.02047
1.048,0.04791
1.052,0.06227
1.056,0.02197
1.06,0.03256
1.064,0.04856
1.068,0.0209
1.072,-0.00204
1.076,0.01075
1.08,-0.05607
1.084,-0.0461
1.088,-0.08233
1.092,-0.07811
1.096,-0.0107
1.1,0.09383
1.104,0.3218
1.108,0.49356
1.112,0.70211
1.116,0.90109
1.12,1.00469
1.124,0.98842
1.128,0.88065
1.132,0.72143
1.136,0.47989
1.14,0.25234
1.144,0.05716
1.148,-0.05675
1.152,-0.14274
1.156,-0.14562
1.16,-0.11957
1.164,-0.05347
1.168,-0.02576
1.172,-0.02606
1.176,0.02883
1.18,0.01264
1.184,0.02987
1.188,0.04799
1.192,0.00678
1.196,0.03999
1.2,0.03055
1.204,0.01767
1.208,0.0485
1.212,0.0121
1.216,0.0382
1.22,0.01123
1.224,0.02898
1.228,0.04834
1.232,0.01895
1.236,0.0217
1.24,0.02727
1.244,0.03898
1.248,0.0349
1.252,0.01761
1.256,0.03795
1.26,0.03951
1.264,0.03125
1.268,0.05292
1.272,0.02898
1.276,0.03661
1.28,0.05318
1.284,0.02247
1.288,0.05406
1.292,0.01726
1.296,0.0445
1.3,0.03373
1.304,0.03176
1.308,0.03807
1.312,0.05583
1.316,0.07013
1.32,0.06606
1.324,0.07968
1.328,0.09195
1.332,0.09409
1.336,0.12307
1.34,0.10057
1.344,0.11141
1.348,0.10955
1.352,0.14208
1.356,0.13709
1.36,0.17842
1.364,0.17848
1.368,0.19514
1.372,0.18707
1.376,0.22704
1.38,0.21283
1.384,0.21874
1.388,0.22986
1.392,0.23311
1.396,0.24821
1.4,0.25943
1.404,0.2391
1.408,0.24929
1.412,0.24169
1.416,0.21051
1.42,0.22907
1.424,0.19643
1.428,0.20966
1.432,0.21865
1.436,0.18917
1.44,0.17333
1.444,0.17469
1.448,0.13603
1.452,0.11526
1.456,0.12116
1.46,0.08569
1.464,0.11309
1.468,0.10276
1.472,0.07316
1.476,0.08209
1.48,0.0965
1.484,0.01512
1.488,0.04813
1.492,0.06166
1.496,0.03881
1.5,0.03715
1.504,0.01802
1.508,0.03628
1.512,0.04718
1.516,0.00747
1.52,0.03123
1.524,0.04848
1.528,0.02289
1.532,0.0275
1.536,0.03895
1.54,0.04049
1.544,-0.01524
1.548,0.01333
1.552,0.03958
1.556,0.00278
1.56,0.03569
1.564,0.01749
1.568,0.01363
1.572,-0.0017
1.576,0.02316
1.58,0.00026
1.584,0.02415
1.588,0.01593
1.592,0.01282
1.596,0.02536
1.6,0.01303
1.604,0.00655
1.608,0.00275
1.612,0.00701
1.616,0.01869
1.62,0.01969
1.624,-0.01285
1.628,0.01494
1.632,0.01867
1.636,0.02284
1.64,0.01611
1.644,0.02438
1.648,0.02059
1.652,0.01471
1.656,0.00548
1.66,0.0096
1.664,-0.01725
1.668,0.01416
1.672,0.04673
1.676,-0.00051
1.68,0.00934
1.684,0.0026
1.688,0.01397
1.692,0.01535
1.696,0.03352
1.7,0.02092
1.704,0.03432
1.708,0.00526
1.712,0.01004
1.716,0.02964
1.72,0.0022
1.724,0.01914
1.728,0.01719
1.732,0.01163
1.736,0.01258
1.74,0.05183
1.744,0.05601
1.748,0.03187
1.752,0.08022
1.756,0.08147
1.76,0.0869
1.764,0.09689
1.768,0.1043
1.772,0.11182
1.776,0.0942
1.78,0.09343
1.784,0.12649
1.788,0.09569
1.792,0.10673
1.796,0.04748
1.8,0.08907
1.804,0.06084
1.808,0.00279
1.812,0.03682
1.816,0.03922
1.82,0.0422
1.824,0.01055
1.828,-0.0024
1.832,0.00208
1.836,0.02281
1.84,-0.00827
1.844,0.02753
1.848,0.01511
1.852,-0.00436
1.856,0.01712
1.86,0.02048
1.864,0.01311
1.868,0.02663
1.872,0.01634
1.876,-0.00436
1.88,0.00703
1.884,-0.00961
1.888,0.01201
1.892,-0.01011
1.896,-0.04045
1.9,-0.08801
1.904,-0.11244
1.908,-0.0803
1.912,-0.06094
1.916,0.05759
1.92,0.24098
1.924,0.45206
1.928,0.67168
1.932,0.86811
1.936,1.00016
1.94,0.98104
1.944,0.88516
1.948,0.72834
1.952,0.51157
1.956,0.27667
1.96,0.09723
1.964,-0.06621
1.968,-0.16412
1.972,-0.15211
1.976,-0.15861
1.98,-0.10084
1.984,-0.07035
1.988,-0.01257
1.992,-0.00958
1.996,0.00757
2.0,-0.00035
2.004,-0.0216
2.008,0.01045
2.012,0.00861
2.016,0.01203
2.02,0.00152
2.024,0.0012
2.028,0.0036
2.032,0.01991
2.036,0.01132
2.04,0.00377
2.044,0.00634
2.048,0.00153
2.052,-0.03276
2.056,0.02929
2.06,-0.00544
2.064,0.02596
2.068,-0.00235
2.072,-0.00816
2.076,-0.01842
2.08,-0.01117
2.084,0.0148
2.088,0.00872
2.092,-0.01552
2.096,0.0007
2.1,-0.00197
2.104,0.01251
2.108,0.03866
2.112,0.03049
2.116,0.00841
2.12,0.02116
2.124,0.01577
2.128,0.03904
2.132,0.04522
2.136,0.03113
2.14,0.05373
2.144,0.08792
2.148,0.0615
2.152,0.06724
2.156,0.08721
2.16,0.11703
2.164,0.11807
2.168,0.1483
2.172,0.14565
2.176,0.14954
2.18,0.15399
2.184,0.15168
2.188,0.18762
2.192,0.18973
2.196,0.19272
2.2,0.20973
2.204,0.18619
2.208,0.21597
2.212,0.21451
2.216,0.22248
2.22,0.22883
2.224,0.22699
2.228,0.21648
2.232,0.23625
2.236,0.19705
2.24,0.1787
2.244,0.19647
2.248,0.17986
2.252,0.16234
2.256,0.16455
2.26,0.12238
2.264,0.1366
2.268,0.1234
2.272,0.11997
2.276,0.08562
2.28,0.09753
2.284,0.07212
2.288,0.07442
2.292,0.04745
2.296,0.05102
2.3,0.03184
2.304,0.04306
2.308,0.01988
2.312,0.02088
2.316,0.00336
2.32,0.00999
2.324,0.03456
2.328,0.00854
2.332,0.00785
2.336,0.01503
2.34,0.00514
2.344,0.00514
2.348,-0.00559
2.352,0.02294
2.356,-0.03312
2.36,0.01049
2.364,-0.0289
2.368,0.00532
2.372,0.00235
2.376,-0.01334
2.38,-0.0002
2.384,-0.02807
2.388,0.00026
2.392,-0.00496
2.396,-0.01263
2.4,-0.00245
2.404,0.00418
2.408,-0.00463
2.412,0.00039
2.416,0.01556
2.42,0.00023
2.424,0.03026
2.428,0.01671
2.432,0.04727
2.436,0.0664
2.44,0.06921
2.444,0.06253
2.448,0.11597
2.452,0.08911
2.456,0.08364
2.46,0.07845
2.464,0.07594
2.468,0.072
2.472,0.06128
2.476,0.05869
2.48,0.05697
2.484,0.028
2.488,0.03086
2.492,-0.00371
2.496,0.02683
2.5,0.0196
2.504,-0.005
2.508,0.00377
2.512,0.00028
2.516,-0.01731
2.52,-0.0043
2.524,-0.00284
2.528,-0.00795
2.532,0.00117
2.536,-0.02328
2.54,-0.01141
2.544,-0.00092
2.548,-0.00832
2.552,-0.00041
2.556,-0.027
2.56,-0.00472
2.564,-0.00291
2.568,-0.01909
2.572,-0.03684
2.576,-0.10814
2.58,-0.12099
2.584,-0.13633
2.588,-0.07476
2.592,-0.00378
2.596,0.20024
2.6,0.4175
2.604,0.59589
2.608,0.816
2.612,0.97005
2.616,0.98608
2.62,0.89764
2.624,0.71821
2.628,0.50511
2.632,0.2952
2.636,0.06951
2.64,-0.06656
2.644,-0.15549
2.648,-0.17081
2.652,-0.15471
2.656,-0.0974
2.66,-0.08391
2.664,-0.0302
2.668,-0.02196
2.672,-0.02008
2.676,-0.0048
2.68,-0.01716
2.684,-0.00059
2.688,-0.00554
2.692,-0.0087
2.696,-0.01125
2.7,0.00437
2.704,-0.01263
2.708,-0.00292
2.712,0.02458
2.716,0.0021
2.72,-0.01905
2.724,-0.02034
2.728,-0.02236
2.732,-0.00732
2.736,-0.00356
2.74,0.00051
2.744,-0.02188
2.748,-0.00247
2.752,-0.0207
2.756,-0.00127
2.76,0.00754
2.764,-0.0097
2.768,-0.02298
2.772,-0.03405
2.776,-0.00868
2.78,-0.01266
2.784,-0.01294
2.788,0.02137
2.792,-0.01619
2.796,0.01048
2.8,0.01601
2.804,0.00984
2.808,0.01678
2.812,0.02645
2.816,0.03266
2.82,0.03807
2.824,0.0532
2.828,0.06309
2.832,0.06464
2.836,0.08133
2.84,0.08784
2.844,0.075
2.848,0.11202
2.852,0.10251
2.856,0.13039
2.86,0.17373
2.864,0.15047
2.868,0.15463
2.872,0.18326
2.876,0.18903
2.88,0.19698
2.884,0.19976
2.888,0.22304
2.892,0.21381
2.896,0.20495
2.9,0.18914
2.904,0.19167
2.908,0.19893
2.912,0.18671
2.916,0.18853
2.92,0.20082
2.924,0.18308
2.928,0.12954
2.932,0.11781
2.936,0.11154
2.94,0.10941
2.944,0.11869
2.948,0.10205
2.952,0.09858
2.956,0.08144
2.96,0.05108
2.964,0.06659
2.968,0.04686
2.972,0.0028
2.976,0.02565
2.98,0.0315
2.984,0.00748
2.988,0.00639
2.992,0.0035
2.996,0.00954
3.0,0.01133
3.004,-0.0094
3.008,-0.00294
3.012,0.00166
3.016,-0.01059
3.02,-0.01116
3.024,0.00237
3.028,0.00285
3.032,-0.0087
3.036,-0.02381
3.04,-0.01144
3.044,-0.01582
3.048,0.0011
3.052,-0.0506
3.056,-0.02672
3.06,-0.01925
3.064,-0.02953
3.068,0.00614
3.072,-0.02407
3.076,-0.02586
3.08,-0.00107
3.084,-0.02334
3.088,-0.0214
3.092,-0.00332
3.096,-0.02853
3.1,-0.02306
3.104,-0.00628
3.108,0.00881
3.112,-0.02578
3.116,-0.02742
3.12,-0.03005
3.124,-0.07015
3.128,-0.0197
3.132,-0.0039
3.136,-0.02118
3.14,-0.02792
3.144,-0.03512
3.148,-0.03005
3.152,-0.02167
3.156,-0.00812
3.16,-0.00988
3.164,-0.03262
3.168,-0.02148
3.172,-0.02514
3.176,-0.03591
3.18,-0.03131
3.184,-0.02385
3.188,-0.03103
3.192,-0.02615
3.196,-0.02141
3.2,-0.03921
3.204,-0.03598
3.208,-0.03838
3.212,-0.04049
3.216,-0.03571
3.22,-0.02465
3.224,-0.0101
3.228,-0.00985
3.232,-0.02981
3.236,-0.01324
3.24,-0.04628
3.244,-0.03647
3.248,-0.0226
3.252,-0.03157
3.256,-0.04086
3.26,-0.01968
3.264,-0.02446
3.268,-0.01969
3.272,-0.03706
3.276,-0.03937
3.28,-0.00457
3.284,-0.03051
3.288,-0.01086
3.292,-0.02465
3.296,-0.02046
3.3,-0.03951
3.304,-0.04407
3.308,-0.01939
3.312,-0.02406
3.316,-0.03573
3.32,-0.03501
3.324,-0.02807
3.328,-0.02171
3.332,-0.01686
3.336,-0.01918
3.34,-0.01965
3.344,0.00993
3.348,0.0067
3.352,-0.00302
3.356,-0.02408
3.36,0.02393
3.364,0.04507
3.368,0.03646
3.372,0.05718
3.376,0.05709
3.38,0.0826
3.384,0.09388
3.388,0.06013
3.392,0.05368
3.396,0.06908
3.4,0.02881
3.404,0.00725
3.408,0.01219
3.412,0.0033
3.416,-0.02088
3.42,-0.02468
3.424,-0.04861
3.428,0.00329
3.432,-0.01036
3.436,-0.02386
3.44,-0.06407
3.444,-0.04899
3.448,-0.00499
3.452,-0.04478
3.456,-0.03178
3.46,-0.02333
3.464,-0.01355
3.468,-0.02153
3.472,-0.00465
3.476,-0.03982
3.48,-0.03254
3.484,-0.02414
3.488,-0.03017
3.492,-0.02524
3.496,-0.05045
3.5,-0.06522
3.504,-0.12351
3.508,-0.1405
3.512,-0.13177
3.516,-0.07853
3.52,0.08996
3.524,0.27936
3.528,0.51057
3.532,0.71378
3.536,0.83854
3.54,0.95651
3.544,0.93406
3.548,0.81339
3.552,0.63056
3.556,0.40064
3.56,0.19497
3.564,-0.02181
3.568,-0.14637
3.572,-0.17591
3.576,-0.20145
3.58,-0.15246
3.584,-0.14234
3.588,-0.06959
3.592,-0.05827
3.596,-0.04621
3.6,-0.03161
3.604,0.00534
3.608,-0.04819
3.612,-0.01299
3.616,-0.03724
3.62,-0.04318
3.624,0.00542
3.628,-0.06141
3.632,-0.03301
3.636,-0.04131
3.64,-0.016
3.644,-0.04165
3.648,-0.03575
3.652,-0.04625
3.656,-0.01667
3.66,-0.01066
3.664,-0.02959
3.668,-0.04639
3.672,-0.05161
3.676,-0.02043
3.68,-0.05758
3.684,-0.05132
3.688,-0.04273
3.692,-0.05485
3.696,-0.03452
3.7,-0.04767
3.704,-0.02583
3.708,-0.03469
3.712,-0.01021
3.716,-0.00422
3.72,-0.02404
3.724,-0.00544
3.728,0.00686
3.732,-0.02161
3.736,0.01622
3.74,0.02754
3.744,0.00049
3.748,-0.00343
3.752,0.00885
3.756,0.06688
3.76,0.0576
3.764,0.06208
3.768,0.08155
3.772,0.07272
3.776,0.09958
3.78,0.11547
3.784,0.11161
3.788,0.13638
3.792,0.13816
3.796,0.1545
3.8,0.1623
3.804,0.17163
3.808,0.18074
3.812,0.17488
3.816,0.20235
3.82,0.20098
3.824,0.17798
3.828,0.17815
3.832,0.20835
3.836,0.16814
3.84,0.18118
3.844,0.15354
3.848,0.16941
3.852,0.13301
3.856,0.13672
3.86,0.12599
3.864,0.1076
3.868,0.10867
3.872,0.08306
3.876,0.07149
3.88,0.07212
3.884,0.06361
3.888,0.04403
3.892,0.0155
3.896,0.0163
3.9,0.01335
3.904,0.03857
3.908,-0.00571
3.912,-0.00971
3.916,-0.00155
3.92,-0.0103
3.924,0.00122
3.928,-0.03443
3.932,-0.00429
3.936,-0.03006
3.94,-0.03016
3.944,-0.02893
3.948,-0.01209
3.952,-0.03388
3.956,-0.03791
3.96,-0.04434
3.964,-0.01473
3.968,-0.02502
3.972,-0.01581
3.976,-0.04923
3.98,-0.0162
3.984,-0.01483
3.988,-0.01133
3.992,-0.04696
3.996,-0.03793
4.0,-0.06017
4.004,-0.02507
4.008,-0.01817
4.012,-0.01637
4.016,-0.03236
4.02,-0.01807
4.024,-0.02713
4.028,-0.03079
4.032,-0.02236
4.036,-0.02805
4.04,-0.05734
4.044,-0.02687
4.048,-0.04203
4.052,-0.04001
4.056,-0.02079
4.06,-0.01302
4.064,-0.01066
4.068,-0.05928
4.072,-0.0273
4.076,-0.02046
4.08,-0.01322
4.084,-0.02157
4.088,-0.008
4.092,0.00217
4.096,-0.00175
4.1,0.00053
4.104,0.03762
4.108,0.01138
4.112,0.02573
4.116,0.0631
4.12,0.05774
4.124,0.0749
4.128,0.069
4.132,0.0595
4.136,0.08504
4.14,0.0659
4.144,0.03564
4.148,0.03044
4.152,0.0185
4.156,0.01803
4.16,-0.01376
4.164,-0.00499
4.168,-0.01191
4.172,-0.00712
4.176,-0.036
4.18,-0.02315
4.184,-0.03308
4.188,-0.02016
4.192,-0.01941
4.196,-0.02227
4.2,-0.01708
4.204,-0.04821
4.208,-0.0295
4.212,-0.00951
4.216,-0.04222
4.22,-0.05762
4.224,-0.03863
4.228,-0.05843
4.232,-0.0286
4.236,-0.03929
4.24,0.00096
4.244,-0.0257
4.248,-0.09871
4.252,-0.11224
4.256,-0.14257
4.26,-0.11526
4.264,-0.01395
4.268,0.12898
4.272,0.34225
4.276,0.53436
4.28,0.76558
4.284,0.8895
4.288,0.96337
4.292,0.91652
4.296,0.74224
4.3,0.57132
4.304,0.33058
4.308,0.1175
4.312,-0.03309
4.316,-0.1595
4.32,-0.22189
4.324,-0.19661
4.328,-0.15376
4.332,-0.10958
4.336,-0.04382
4.34,-0.08783
4.344,-0.0219
4.348,-0.02053
4.352,-0.02236
4.356,-0.03011
4.36,-0.02681
4.364,-0.03384
4.368,-0.02039
4.372,-0.02546
4.376,-0.01273
4.38,-0.04632
4.384,-0.02375
4.388,-0.00237
4.392,-0.03307
4.396,-0.0185
4.4,-0.04666
4.404,-0.04388
4.408,-0.03457
4.412,-0.01916
4.416,0.01003
4.42,-0.02183
4.424,-0.0014
4.428,-0.01278
4.432,-0.03742
4.436,-0.02697
4.44,-0.02098
4.444,-0.02387
4.448,-0.01529
4.452,-0.0017
4.456,-0.00524
4.46,-0.02796
4.464,-0.01632
4.468,4e-05
4.472,-0.00647
4.476,-0.0072
4.48,-0.0005
4.484,0.0511
4.488,0.03113
4.492,0.00664
4.496,0.03712
4.5,0.05106
4.504,0.05555
4.508,0.09062
4.512,0.09358
4.516,0.0967
4.52,0.09914
4.524,0.09903
4.528,0.12424
4.532,0.13714
4.536,0.15163
4.54,0.1338
4.544,0.1607
4.548,0.19428
4.552,0.17404
4.556,0.20968
4.56,0.18973
4.564,0.17834
4.568,0.19906
4.572,0.20541
4.576,0.16314
4.58,0.21566
4.584,0.19393
4.588,0.18934
4.592,0.18679
4.596,0.13496
4.6,0.13934
4.604,0.11795
4.608,0.14183
4.612,0.1189
4.616,0.09868
4.62,0.08653
4.624,0.04937
4.628,0.06646
4.632,0.05471
4.636,0.05369
4.64,0.04515
4.644,0.01785
4.648,0.02997
4.652,0.02086
4.656,0.00221
4.66,0.01867
4.664,-0.01716
4.668,-0.00628
4.672,-0.03278
4.676,0.0019
4.68,-0.00493
4.684,-0.03052
4.688,-0.01116
4.692,-0.02444
4.696,-0.03529
4.7,-0.02027
4.704,-0.01323
4.708,-0.01909
4.712,-0.05784
4.716,0.00637
4.72,0.01378
4.724,-0.01283
4.728,0.01922
4.732,0.01081
4.736,0.01235
4.74,0.06375
4.744,0.02744
4.748,0.04385
4.752,0.07589
4.756,0.07495
4.76,0.05907
4.764,0.098
4.768,0.09198
4.772,0.04264
4.776,0.05148
4.78,0.06632
4.784,0.03476
4.788,0.03287
4.792,-0.00329
4.796,0.0121
4.8,-0.00784
4.804,-0.03756
4.808,-0.02275
4.812,0.00419
4.816,-0.00745
4.82,-0.03873
4.824,-0.00778
4.828,-0.00642
4.832,-0.02495
4.836,-0.02092
4.84,-0.0253
4.844,-0.0076
4.848,-0.02045
4.852,-0.03822
4.856,-0.01791
4.86,-0.0
4.864,-0.01421
4.868,-0.01084
4.872,-0.00347
4.876,-0.02701
4.88,-0.04299
4.884,-0.04576
4.888,-0.12835
4.892,-0.11306
4.896,-0.13276
4.9,-0.0109
4.904,0.12285
4.908,0.32354
4.912,0.54506
4.916,0.76296
4.92,0.90358
4.924,1.01225
4.928,0.93203
4.932,0.81026
4.936,0.57924
4.94,0.34662
4.944,0.15847
4.948,-0.03911
4.952,-0.14326
4.956,-0.17414
4.96,-0.18707
4.964,-0.14984
4.968,-0.08429
4.972,-0.0725
4.976,-0.04046
4.98,-0.02484
4.984,-0.0198
4.988,-0.02832
4.992,-0.0568
4.996,0.00013
5.0,-0.01897
5.004,-0.02894
5.008,0.00442
5.012,-0.01757
5.016,-0.04798
5.02,-0.01433
5.024,0.01844
5.028,-0.00533
5.032,-0.0144
5.036,0.01454
5.04,-0.00339
5.044,0.00072
5.048,0.00069
5.052,-0.05165
5.056,-0.01877
5.06,-0.02559
5.064,-0.01715
5.068,-0.03051
5.072,0.02006
5.076,-0.01282
5.08,0.01504
5.084,0.0204
5.088,-0.02053
5.092,-0.0115
5.096,0.00725
5.1,-0.01722
5.104,0.01923
5.108,-0.00017
5.112,0.01622
5.116,0.03231
5.12,0.03682
5.124,0.04156
5.128,0.0541
5.132,0.0346
5.136,0.0519
5.14,0.08456
5.144,0.10072
5.148,0.06779
5.152,0.11353
5.156,0.11448
5.16,0.1225
5.164,0.16551
5.168,0.13902
5.172,0.17322
5.176,0.18291
5.18,0.18619
5.184,0.21875
5.188,0.20207
5.192,0.19345
5.196,0.20612
5.2,0.20137
5.204,0.23947
5.208,0.22685
5.212,0.23448
5.216,0.2073
5.22,0.21622
5.224,0.19273
5.228,0.18423
5.232,0.15945
5.236,0.18078
5.24,0.12749
5.244,0.12662
5.248,0.12142
5.252,0.11351
5.256,0.10909
5.26,0.11107
5.264,0.09152
5.268,0.06081
5.272,0.05013
5.276,0.06205
5.28,0.04298
5.284,0.04972
5.288,0.0374
5.292,0.0307
5.296,0.02236
5.3,0.04459
5.304,0.02383
5.308,-0.0096
5.312,-0.02268
5.316,0.00928
5.32,0.01033
5.324,0.01631
5.328,0.01857
5.332,0.00785
5.336,0.00862
5.34,-0.00119
5.344,-0.01614
5.348,0.00129
5.352,0.0006
5.356,-0.02758
5.36,-0.00883
5.364,-0.0024
5.368,-0.00604
5.372,-0.02414
5.376,-0.01166
5.38,-0.00469
5.384,0.00372
5.388,-0.00757
5.392,0.00952
5.396,0.01529
5.4,-0.01507
5.404,0.00498
5.408,-0.01307
5.412,-0.00571
5.416,0.00279
5.42,0.0124
5.424,0.01311
5.428,0.00238
5.432,0.01946
5.436,-0.0018
5.44,0.01393
5.444,-0.03468
5.448,-0.02595
5.452,0.01209
5.456,0.01032
5.46,0.00013
5.464,-0.01392
5.468,-0.00795
5.472,0.00203
5.476,-0.03866
5.48,0.01884
5.484,-0.00683
5.488,0.00218
5.492,-0.0089
5.496,-0.00039
5.5,-0.01634
5.504,0.02806
5.508,0.03195
5.512,0.04981
5.516,0.0135
5.52,0.04737
5.524,0.0587
5.528,0.06854
5.532,0.06856
5.536,0.10788
5.54,0.09894
5.544,0.08144
5.548,0.09681
5.552,0.08906
5.556,0.075
5.56,0.07755
5.564,0.05289
5.568,0.0125
5.572,0.03306
5.576,0.01246
5.58,0.02885
5.584,0.03045
5.588,0.00712
5.592,0.02848
5.596,0.02331
5.6,0.0156
5.604,-0.04742
5.608,-0.01022
5.612,-0.01346
5.616,-0.01017
5.62,-0.00543
5.624,-0.00155
5.628,0.0029
5.632,-0.0012
5.636,0.01267
5.64,0.02076
5.644,-0.02223
5.648,0.02918
5.652,-0.01444
5.656,-0.02538
5.66,-0.05368
5.664,-0.08753
5.668,-0.13052
5.672,-0.10123
5.676,-0.00829
5.68,0.12705
5.684,0.33158
5.688,0.53649
5.692,0.71537
5.696,0.88305
5.7,0.98538
5.704,0.9637
5.708,0.82972
5.712,0.65657
5.716,0.38295
5.72,0.2063
5.724,0.01507
5.728,-0.11388
5.732,-0.16091
5.736,-0.13046
5.74,-0.11893
5.744,-0.10263
5.748,-0.05223
5.752,-0.01238
5.756,0.00142
5.76,-0.0121
5.764,0.00528
5.768,0.00676
5.772,0.02071
5.776,0.00728
5.78,0.0141
5.784,0.01137
5.788,-0.00805
5.792,0.01643
5.796,0.02159
5.8,0.01615
5.804,0.02718
5.808,0.00583
5.812,0.00251
5.816,0.01638
5.82,0.00696
5.824,-0.02417
5.828,-0.01522
5.832,0.03417
5.836,-0.00117
5.84,-0.01391
5.844,0.00581
5.848,0.03464
5.852,0.02351
5.856,0.01133
5.86,0.01171
5.864,0.01793
5.868,0.02591
5.872,0.0169
5.876,0.034
5.88,0.0288
5.884,0.03575
5.888,0.02986
5.892,0.05566
5.896,0.06364
5.9,0.07328
5.904,0.06155
5.908,0.07725
5.912,0.08187
5.916,0.07992
5.92,0.10117
5.924,0.10001
5.928,0.11285
5.932,0.14877
5.936,0.14481
5.94,0.12578
5.944,0.17204
5.948,0.1792
5.952,0.17531
5.956,0.18066
5.96,0.20506
5.964,0.22876
5.968,0.2212
5.972,0.22749
5.976,0.23633
5.98,0.22265
5.984,0.2566
5.988,0.23604
5.992,0.23328
5.996,0.2232
6.0,0.19834
6.004,0.21664
6.008,0.2421
6.012,0.1925
6.016,0.16213
6.02,0.15261
6.024,0.12942
6.028,0.14358
6.032,0.12348
6.036,0.11615
6.04,0.10505
6.044,0.11507
6.048,0.08341
6.052,0.05679
6.056,0.07005
6.06,0.06045
6.064,0.05489
6.068,0.07434
6.072,0.03782
6.076,0.06024
6.08,0.03775
6.084,0.00631
6.088,0.03492
6.092,0.01839
6.096,0.04825
6.1,0.02347
6.104,0.03441
6.108,0.02797
6.112,0.01947
6.116,0.03409
6.12,0.04354
6.124,0.01183
6.128,0.02715
6.132,0.006
6.136,-0.01677
6.14,0.01093
6.144,0.03058
6.148,0.00459
6.152,0.0214
6.156,0.01359
6.16,0.00993
6.164,0.02835
6.168,0.01231
6.172,0.02523
6.176,0.02437
6.18,0.01159
6.184,0.02613
6.188,-0.00737
6.192,0.00068
6.196,0.05555
6.2,0.01172
6.204,0.0161
6.208,0.02775
6.212,0.02302
6.216,0.07324
6.22,0.03226
6.224,0.04833
6.228,0.05313
6.232,0.06972
6.236,0.10636
6.24,0.10356
6.244,0.10928
6.248,0.1167
6.252,0.11729
6.256,0.1315
6.26,0.119
6.264,0.10328
6.268,0.08325
6.272,0.06561
6.276,0.0561
6.28,0.06335
6.284,0.06188
6.288,0.01488
6.292,0.02396
6.296,0.02989
6.3,0.03689
6.304,0.03434
6.308,0.05133
6.312,-0.01112
6.316,0.02413
6.32,0.02569
6.324,0.0145
6.328,0.02044
6.332,0.02536
6.336,0.01773
6.34,0.01397
6.344,0.0266
6.348,0.05356
6.352,0.01362
6.356,0.04965
6.36,0.03831
6.364,0.0192
6.368,-0.00683
6.372,-0.05315
6.376,-0.06075
6.38,-0.07738
6.384,-0.04083
6.388,0.06688
6.392,0.25382
6.396,0.45227
6.4,0.65589
6.404,0.85418
6.408,0.99015
6.412,1.01483
6.416,0.92483
6.42,0.77349
6.424,0.53081
6.428,0.31901
6.432,0.11874
6.436,-0.05136
6.44,-0.1323
6.444,-0.15182
6.448,-0.12543
6.452,-0.08554
6.456,-0.06392
6.46,-0.0055
6.464,-0.01539
6.468,0.01947
6.472,0.0145
6.476,0.00366
6.48,0.04526
6.484,0.04548
6.488,0.0274
6.492,0.03497
6.496,0.04547
6.5,0.00599
6.504,0.03618
6.508,0.00558
6.512,0.00514
6.516,0.02506
6.52,0.03121
6.524,-0.00186
6.528,0.01487
6.532,0.02186
6.536,0.02184
6.54,0.022
6.544,0.02719
6.548,0.03637
6.552,0.0416
6.556,0.01566
6.56,0.02257
6.564,0.03936
6.568,0.05616
6.572,-0.00294
6.576,0.01593
6.58,0.0431
6.584,0.04369
6.588,0.03553
6.592,0.03954
6.596,0.07191
6.6,0.01837
6.604,0.08999
6.608,0.07305
6.612,0.08147
6.616,0.09546
6.62,0.08518
6.624,0.07362
6.628,0.12659
6.632,0.15444
6.636,0.13889
6.64,0.14688
6.644,0.14635
6.648,0.2139
6.652,0.17117
6.656,0.18382
6.66,0.17825
6.664,0.23242
6.668,0.21514
6.672,0.22937
6.676,0.23612
6.68,0.22606
6.684,0.23945
6.688,0.22859
6.692,0.22963
6.696,0.25927
6.7,0.22713
6.704,0.23778
6.708,0.23349
6.712,0.22177
6.716,0.22296
6.72,0.229
6.724,0.1706
6.728,0.19287
6.732,0.17064
6.736,0.16306
6.74,0.13914
6.744,0.11857
6.748,0.13432
6.752,0.11626
6.756,0.08931
6.76,0.07916
6.764,0.08625
6.768,0.07707
6.772,0.07596
6.776,0.08373
6.78,0.06557
6.784,0.0431
6.788,0.0461
6.792,0.05482
6.796,0.05088
6.8,0.0348
6.804,0.00588
6.808,0.05456
6.812,0.0595
6.816,0.05627
6.82,0.03899
6.824,0.02617
6.828,0.02589
6.832,0.05791
6.836,0.0588
6.84,0.04051
6.844,0.05809
6.848,0.0615
6.852,0.10564
6.856,0.09504
6.86,0.12734
6.864,0.1007
6.868,0.11993
6.872,0.12757
6.876,0.12796
6.88,0.12603
6.884,0.10421
6.888,0.10565
6.892,0.0875
6.896,0.07479
6.9,0.03901
6.904,0.08872
6.908,0.04951
6.912,0.04614
6.916,0.0341
6.92,0.03708
6.924,0.02234
6.928,0.03891
6.932,0.0326
6.936,0.04953
6.94,0.02476
6.944,0.01899
6.948,0.04317
6.952,0.00244
6.956,0.03207
6.96,0.03555
6.964,0.01459
6.968,0.05656
6.972,0.0011
6.976,0.02638
6.98,0.00454
6.984,0.00535
6.988,0.00571
6.992,-0.04217
6.996,-0.07037
7.0,-0.09144
7.004,-0.07517
7.008,0.0603
7.012,0.22666
7.016,0.40646
7.02,0.65579
7.024,0.86103
7.028,0.97566
7.032,1.03734
7.036,0.97062
7.04,0.81469
7.044,0.59223
7.048,0.34852
7.052,0.14539
7.056,7e-05
7.06,-0.10853
7.064,-0.14947
7.068,-0.10534
7.072,-0.0681
7.076,-0.03899
7.08,-0.0142
7.084,0.00334
7.088,0.03916
7.092,0.0226
7.096,0.0436
7.1,0.03335
7.104,0.04641
7.108,0.01535
7.112,0.05062
7.116,0.0344
7.12,0.04407
7.124,0.00945
7.128,0.0333
7.132,0.02825
7.136,0.03516
7.14,0.02822
7.144,0.02093
7.148,0.02198
7.152,0.03483
7.156,0.03903
7.16,0.04324
7.164,0.03875
7.168,0.03622
7.172,0.0214
7.176,0.02528
7.18,0.05181
7.184,0.01721
7.188,0.02578
7.192,0.02965
7.196,0.03126
7.2,0.0532
7.204,0.05362
7.208,0.05217
7.212,0.02876
7.216,0.03407
7.22,0.07027
7.224,0.05882
7.228,0.06694
7.232,0.07038
7.236,0.09492
7.24,0.10057
7.244,0.10409
7.248,0.11015
7.252,0.10724
7.256,0.14142
7.26,0.1343
7.264,0.16076
7.268,0.14193
7.272,0.17568
7.276,0.17542
7.28,0.23
7.284,0.21118
7.288,0.2068
7.292,0.25561
7.296,0.22223
7.3,0.24545
7.304,0.257
7.308,0.25078
7.312,0.252
7.316,0.27216
7.32,0.2507
7.324,0.23588
7.328,0.22336
7.332,0.23273
7.336,0.21093
7.34,0.23176
7.344,0.19275
7.348,0.17836
7.352,0.1689
7.356,0.15491
7.36,0.15265
7.364,0.13752
7.368,0.15493
7.372,0.12019
7.376,0.12237
7.38,0.11737
7.384,0.1009
7.388,0.08566
7.392,0.09615
7.396,0.06841
7.4,0.05475
7.404,0.03101
7.408,0.04244
7.412,0.0373
7.416,0.06295
7.42,0.04355
7.424,0.03956
7.428,0.07042
7.432,0.04805
7.436,0.06825
7.44,0.07653
7.444,0.06675
7.448,0.08613
7.452,0.12196
7.456,0.12516
7.46,0.1266
7.464,0.14362
7.468,0.13752
7.472,0.1085
7.476,0.12091
7.48,0.08448
7.484,0.06763
7.488,0.07928
7.492,0.0879
7.496,0.05055
7.5,0.04562
7.504,0.05723
7.508,0.05572
7.512,0.05444
7.516,0.02829
7.52,0.02885
7.524,0.0549
7.528,0.02769
7.532,0.04614
7.536,0.02785
7.54,0.02281
7.544,0.02066
7.548,0.02963
7.552,0.01222
7.556,0.04592
7.56,0.08364
7.564,0.04345
7.568,0.02109
7.572,0.02699
7.576,0.00652
7.58,-0.00473
7.584,-0.00206
7.588,-0.04371
7.592,-0.09312
7.596,-0.11281
7.6,-0.00516
7.604,0.12206
7.608,0.30574
7.612,0.49601
7.616,0.72426
7.62,0.91215
7.624,0.99618
7.628,1.02631
7.632,0.91872
7.636,0.707
7.64,0.49625
7.644,0.27163
7.648,0.08967
7.652,-0.05366
7.656,-0.14334
7.66,-0.14373
7.664,-0.10069
7.668,-0.06691
7.672,-0.0352
7.676,-0.00756
7.68,0.0382
7.684,0.02205
7.688,0.02471
7.692,0.0578
7.696,0.02973
7.7,0.01574
7.704,0.04045
7.708,0.01822
7.712,0.01631
7.716,0.00544
7.72,0.02516
7.724,0.06401
7.728,0.04229
7.732,0.0444
7.736,0.05278
7.74,0.06972
7.744,0.03675
7.748,0.03477
7.752,0.0254
7.756,0.006
7.76,0.03156
7.764,0.00976
7.768,0.01514
7.772,0.0396
7.776,0.03513
7.78,0.00162
7.784,0.02199
7.788,0.02548
7.792,0.0468
7.796,0.03493
7.8,0.04245
7.804,0.05886
7.808,0.02045
7.812,0.07599
7.816,0.06579
7.82,0.06493
7.824,0.04648
7.828,0.09874
7.832,0.05771
7.836,0.07836
7.84,0.09556
7.844,0.12052
7.848,0.10861
7.852,0.13512
7.856,0.14346
7.86,0.12956
7.864,0.17773
7.868,0.16931
7.872,0.20586
7.876,0.19264
7.88,0.21156
7.884,0.25858
7.888,0.22191
7.892,0.26855
7.896,0.23701
7.9,0.20916
7.904,0.23563
7.908,0.25966
7.912,0.22263
7.916,0.22018
7.92,0.2386
7.924,0.24415
7.928,0.22994
7.932,0.19127
7.936,0.19827
7.94,0.18972
7.944,0.17649
7.948,0.1667
7.952,0.14878
7.956,0.13435
7.96,0.11239
7.964,0.11616
7.968,0.0939
7.972,0.08744
7.976,0.1119
7.98,0.06911
7.984,0.10133
7.988,0.07469
7.992,0.0764
7.996,0.05683
8.0,0.06283
8.004,0.03352
8.008,0.03621
8.012,0.00296
8.016,0.00471
8.02,0.01899
8.024,0.02628
8.028,0.02399
8.032,0.02494
8.036,0.02776
8.04,0.04128
8.044,0.0153
8.048,0.03455
8.052,0.04593
8.056,0.00752
8.06,0.02839
8.064,0.01179
8.068,0.03516
8.072,0.02123
8.076,0.02816
8.08,0.01894
8.084,0.02291
8.088,0.00508
8.092,0.05275
8.096,-0.00343
8.1,0.01827
8.104,0.00866
8.108,0.01745
8.112,0.00659
8.116,0.03642
8.12,0.00705
8.124,0.02339
8.128,0.04419
8.132,0.04274
8.136,0.01662
8.14,0.01613
8.144,0.02033
8.148,0.05434
8.152,0.03792
8.156,0.0372
8.16,0.02113
8.164,0.02645
8.168,0.03995
8.172,0.06549
8.176,0.07581
8.18,0.09174
8.184,0.10015
8.188,0.1125
8.192,0.11609
8.196,0.14494
8.2,0.11699
8.204,0.1324
8.208,0.10061
8.212,0.07731
8.216,0.05706
8.22,0.03876
8.224,0.04855
8.228,0.00952
8.232,0.02132
8.236,0.06182
8.24,-0.00585
8.244,0.00717
8.248,-0.00164
8.252,0.02723
8.256,0.04734
8.26,0.01384
8.264,0.0304
8.268,0.0294
8.272,0.04988
8.276,0.00394
8.28,0.00478
8.284,-0.00179
8.288,0.00416
8.292,0.02517
8.296,0.03363
8.3,0.02394
8.304,0.00807
8.308,-0.00117
8.312,-0.00582
8.316,-0.05244
8.32,-0.12032
8.324,-0.13886
8.328,-0.03926
8.332,0.07819
8.336,0.25525
8.34,0.50806
8.344,0.68954
8.348,0.8923
8.352,0.99071
8.356,0.99863
8.36,0.91951
8.364,0.70426
8.368,0.47528
8.372,0.26587
8.376,0.06146
8.38,-0.07932
8.384,-0.13679
8.388,-0.12662
8.392,-0.14747
8.396,-0.08824
8.4,-0.0552
8.404,-0.01385
8.408,0.02806
8.412,0.0382
8.416,0.02504
8.42,-0.00246
8.424,0.01439
8.428,0.00762
8.432,0.01532
8.436,0.02462
8.44,0.01649
8.444,0.00227
8.448,-0.00803
8.452,0.01193
8.456,0.00311
8.46,0.00948
8.464,0.03192
8.468,-0.01234
8.472,0.00861
8.476,-0.00872
8.48,0.00792
8.484,0.05835
8.488,0.01214
8.492,-0.00833
8.496,-0.01266
8.5,0.00146
8.504,0.01734
8.508,0.02358
8.512,0.02817
8.516,0.03804
8.52,0.03255
8.524,0.03028
8.528,0.0384
8.532,0.01524
8.536,0.00755
8.54,0.03199
8.544,0.04532
8.548,0.02451
8.552,0.05269
8.556,0.04453
8.56,0.06643
8.564,0.04171
8.568,0.08948
8.572,0.10378
8.576,0.12503
8.58,0.08788
8.584,0.1381
8.588,0.14456
8.592,0.14521
8.596,0.13653
8.6,0.16668
8.604,0.20507
8.608,0.19223
8.612,0.20076
8.616,0.19268
8.62,0.19744
8.624,0.23082
8.628,0.20249
8.632,0.23595
8.636,0.23692
8.64,0.20448
8.644,0.22527
8.648,0.23443
8.652,0.22573
8.656,0.23694
8.66,0.18867
8.664,0.20228
8.668,0.15268
8.672,0.1734
8.676,0.12358
8.68,0.16161
8.684,0.14439
8.688,0.09693
8.692,0.09626
8.696,0.09519
8.7,0.08553
8.704,0.03042
8.708,0.07795
8.712,0.02753
8.716,0.0564
8.72,0.05446
8.724,0.03035
8.728,0.04418
8.732,0.01813
8.736,-0.02619
8.74,0.00827
8.744,0.03148
8.748,-0.01122
8.752,0.01783
8.756,0.02589
8.76,0.02385
8.764,0.00505
8.768,-0.01179
8.772,-0.00031
8.776,0.01491
8.78,-0.00153
8.784,0.00839
8.788,-0.00264
8.792,0.01068
8.796,0.00219
8.8,-0.00374
8.804,-0.02429
8.808,0.00127
8.812,0.01554
8.816,-0.00089
8.82,0.01389
8.824,0.00329
8.828,0.00541
8.832,0.03108
8.836,0.00347
8.84,-0.02385
8.844,-0.01255
8.848,0.00401
8.852,0.00601
8.856,0.00611
8.86,0.01855
8.864,0.01194
8.868,-0.0129
8.872,-0.00236
8.876,0.00714
8.88,0.00688
8.884,0.00866
8.888,0.005
8.892,0.00166
8.896,-0.03037
8.9,-0.01313
8.904,-0.01527
8.908,-0.00906
8.912,-0.00074
8.916,0.02976
8.92,0.03417
8.924,-0.01634
8.928,-0.01694
8.932,0.03189
8.936,0.04276
8.94,0.05534
8.944,0.0356
8.948,0.05329
8.952,0.08312
8.956,0.10031
8.96,0.10162
8.964,0.10406
8.968,0.11089
8.972,0.10925
8.976,0.07664
8.98,0.07116
8.984,0.0756
8.988,0.02186
8.992,0.03736
8.996,0.02724
9.0,0.01399
9.004,0.0091
9.008,0.00798
9.012,-0.00056
9.016,0.01711
9.02,-0.01337
9.024,-0.00652
9.028,0.00134
9.032,0.00777
9.036,0.02611
9.04,0.01187
9.044,0.01805
9.048,-0.03414
9.052,-0.00591
9.056,0.00567
9.06,0.00473
9.064,0.00307
9.068,0.00337
9.072,0.01079
9.076,-0.01745
9.08,-0.03438
9.084,-0.08375
9.088,-0.11545
9.092,-0.1319
9.096,-0.07044
9.1,0.04733
9.104,0.21421
9.108,0.44676
9.112,0.65415
9.116,0.83807
9.12,0.96647
9.124,0.99675
9.128,0.89867
9.132,0.71611
9.136,0.49331
9.14,0.2851
9.144,0.09474
9.148,-0.07243
9.152,-0.1748
9.156,-0.18409
9.16,-0.13983
9.164,-0.12199
9.168,-0.06732
9.172,-0.04546
9.176,-0.0327
9.18,-0.01097
9.184,0.0125
9.188,-0.01813
9.192,-0.03569
9.196,-0.00605
9.2,-0.00081
9.204,-0.01482
9.208,-0.02767
9.212,0.01482
9.216,-0.02357
9.22,-0.02184
9.224,-0.00328
9.228,-0.00887
9.232,-0.02067
9.236,-0.02754
9.24,-0.01247
9.244,-0.03041
9.248,0.00538
9.252,-0.0224
9.256,-0.01356
9.26,-0.04566
9.264,0.0006
9.268,-0.01029
9.272,-0.02356
9.276,-0.00577
9.28,-0.00379
9.284,-0.01631
9.288,-0.00303
9.292,-0.00039
9.296,0.00011
9.3,-0.02027
9.304,0.00349
9.308,0.02543
9.312,0.0133
9.316,0.01708
9.32,0.02833
9.324,0.04617
9.328,0.06501
9.332,0.03875
9.336,0.04471
9.34,0.06011
9.344,0.08336
9.348,0.09125
9.352,0.11108
9.356,0.1165
9.36,0.10914
9.364,0.13053
9.368,0.13499
9.372,0.17167
9.376,0.15496
9.38,0.19396
9.384,0.20145
9.388,0.17807
9.392,0.21125
9.396,0.21337
9.4,0.19747
9.404,0.19857
9.408,0.22186
9.412,0.20602
9.416,0.18984
9.42,0.18377
9.424,0.16386
9.428,0.18583
9.432,0.10329
9.436,0.15595
9.44,0.13633
9.444,0.1193
9.448,0.12031
9.452,0.09956
9.456,0.08277
9.46,0.0926
9.464,0.06765
9.468,0.07773
9.472,0.02909
9.476,0.07401
9.48,0.04748
9.484,0.04159
9.488,0.0163
9.492,0.02712
9.496,-0.00317
9.5,0.01502
9.504,0.00524
9.508,0.01119
9.512,-0.00558
9.516,-0.0043
9.52,-0.00609
9.524,-0.02718
9.528,-0.00032
9.532,-0.01931
9.536,-0.01387
9.54,-0.01805
9.544,-0.05314
9.548,-0.01599
9.552,-0.00057
9.556,-0.01146
9.56,-0.03496
9.564,-0.02398
9.568,-0.01965
9.572,-0.01198
9.576,-0.02153
9.58,-0.02801
9.584,0.00493
9.588,-0.01498
9.592,0.00044
9.596,-0.00739
9.6,-0.01858
9.604,-0.04161
9.608,-0.02768
9.612,-0.00141
9.616,-0.00921
9.62,-0.04738
9.624,-0.02174
9.628,-0.02877
9.632,-0.01439
9.636,0.00764
9.64,-0.01988
9.644,-0.01901
9.648,-0.01119
9.652,-0.01466
9.656,-0.01996
9.66,-0.02694
9.664,-0.02526
9.668,-0.01927
9.672,-0.04341
9.676,-0.01852
9.68,-0.02431
9.684,-0.01205
9.688,-0.04073
9.692,-0.00629
9.696,-0.03832
9.7,-0.04816
9.704,-0.02426
9.708,-0.03755
9.712,-0.03293
9.716,-0.01119
9.72,-0.00792
9.724,-0.04828
9.728,-0.02114
9.732,-0.02617
9.736,-0.03457
9.74,-0.01416
9.744,-0.02535
9.748,-0.02707
9.752,-0.04328
9.756,-0.00939
9.76,0.00839
9.764,-0.01793
9.768,0.02838
9.772,-0.03499
9.776,-0.03087
9.78,-0.01845
9.784,-0.01215
9.788,-0.02397
9.792,-0.02196
9.796,-0.03041
9.8,-0.03241
9.804,-0.01898
9.808,-0.01003
9.812,-0.03718
9.816,0.00276
9.82,-0.01642
9.824,-0.00675
9.828,-0.02557
9.832,-0.0289
9.836,-0.01606
9.84,-0.00506
9.844,-0.02834
9.848,-0.02192
9.852,-0.04002
9.856,-0.00766
9.86,-0.03769
9.864,-0.02567
9.868,-0.04129
9.872,-0.00613
9.876,-0.01294
9.88,-0.02482
9.884,-0.03309
9.888,-0.02675
9.892,-0.02886
9.896,-0.01286
9.9,-0.00982
9.904,-0.02855
9.908,-0.01656
9.912,-0.03555
9.916,-0.01023
9.92,-0.01278
9.924,-0.03139
9.928,-0.0212
9.932,-0.04736
9.936,-0.00989
9.94,-0.02664
9.944,-0.02869
9.948,-0.01277
9.952,-0.03519
9.956,-0.02747
9.96,-0.02492
9.964,-0.00877
9.968,-0.05536
9.972,-0.02242
9.976,-0.02697
9.98,-0.01485
9.984,-0.02311
9.988,-0.04191
9.992,-0.01377
9.996,0.00672
