t_seg,ecg_mV
0.0,0.62128
0.004,0.81078
0.008,0.98847
0.012,0.91809
0.016,0.94636
0.02,0.76104
0.024,0.51942
0.028,0.2995
0.032,0.08718
0.036,-0.05734
0.04,-0.14107
0.044,-0.13838
0.048,-0.06745
0.052,-0.08306
0.056,-0.12463
0.06,-0.09064
0.064,-0.04635
0.068,-0.09446
0.072,-0.02891
0.076,-0.03496
0.08,-0.00832
0.084,0.00472
0.088,-0.00034
0.092,-0.02922
0.096,-0.04379
0.1,-0.03882
0.104,-0.0816
0.108,0.00436
0.112,0.01233
0.116,-0.08274
0.12,-0.01002
0.124,0.01981
0.128,0.0386
0.132,0.00791
0.136,-0.03546
0.14,0.01768
0.144,-0.04364
0.148,-0.08995
0.152,-0.05063
0.156,0.02403
0.16,-0.04266
0.164,-0.07685
0.168,-0.05237
0.172,-0.00775
0.176,-0.06684
0.18,0.01903
0.184,-0.00955
0.188,0.04539
0.192,-0.04126
0.196,-0.01727
0.2,-0.00173
0.204,0.00211
0.208,-0.00146
0.212,0.05732
0.216,-0.01824
0.22,0.03481
0.224,0.04869
0.228,0.07972
0.232,0.08956
0.236,0.08304
0.24,0.10461
0.244,0.05496
0.248,0.05627
0.252,0.14774
0.256,0.10528
0.26,0.13386
0.264,0.15573
0.268,0.21753
0.272,0.18391
0.276,0.18778
0.28,0.20651
0.284,0.14793
0.288,0.21707
0.292,0.25554
0.296,0.21811
0.3,0.19416
0.304,0.21289
0.308,0.21724
0.312,0.1623
0.316,0.18831
0.32,0.16304
0.324,0.10534
0.328,0.12276
0.332,0.10049
0.336,0.09465
0.34,0.14975
0.344,0.0434
0.348,0.04687
0.352,0.092
0.356,0.02428
0.36,0.04705
0.364,-0.01
0.368,0.0906
0.372,0.02592
0.376,0.02472
0.38,0.06469
0.384,-0.0418
0.388,0.00733
0.392,-0.05948
0.396,0.02387
0.4,-0.03179
0.404,-0.0019
0.408,-0.06507
0.412,-0.05078
0.416,-0.00346
0.42,-0.02176
0.424,-0.01049
0.428,-0.02581
0.432,-0.0215
0.436,-0.06364
0.44,-0.02993
0.444,-0.03206
0.448,-0.06445
0.452,-0.00861
0.456,-0.0629
0.46,-0.027
0.464,-0.02238
0.468,-0.08109
0.472,-0.01915
0.476,0.0186
0.48,0.04643
0.484,-5e-05
0.488,0.01444
0.492,0.00148
0.496,-0.00792
0.5,0.00793
0.504,-0.00688
0.508,-0.03492
0.512,-0.0191
0.516,0.00382
0.52,0.04063
0.524,-0.05703
0.528,-0.0608
0.532,-4e-05
0.536,-0.00618
0.54,-0.03166
0.544,0.05779
0.548,0.0045
0.552,-0.09054
0.556,-0.02886
0.56,0.01477
0.564,-0.09123
0.568,-0.08118
0.572,0.00291
0.576,0.00524
0.58,-0.02761
0.584,-0.02747
0.588,-0.0531
0.592,-0.09538
0.596,-0.05082
0.6,-0.05321
0.604,-0.03637
0.608,-0.03158
0.612,-0.03146
0.616,-0.08367
0.62,-0.10602
0.624,-0.00839
0.628,0.03109
0.632,-0.06202
0.636,-0.03032
0.64,-0.01611
0.644,-0.06974
0.648,-0.0872
0.652,0.01868
0.656,-0.01349
0.66,-0.0572
0.664,-0.01783
0.668,-0.01358
0.672,-0.02417
0.676,0.09361
0.68,0.02091
0.684,0.05509
0.688,0.08038
0.692,0.046
0.696,0.05942
0.7,0.10965
0.704,0.08543
0.708,0.07259
0.712,0.07934
0.716,0.0075
0.72,0.03137
0.724,0.08311
0.728,0.02394
0.732,-0.0224
0.736,0.0149
0.74,-0.03482
0.744,-0.02584
0.748,-0.00244
0.752,-0.01925
0.756,-0.01785
0.76,-0.05912
0.764,-0.02835
0.768,-0.06792
0.772,0.00417
0.776,0.02922
0.78,-0.06075
0.784,-0.03639
0.788,0.00069
0.792,-0.06168
0.796,-0.04428
0.8,-0.07449
0.804,-0.02245
0.808,0.0144
0.812,0.02069
0.816,-0.04895
0.82,0.00903
0.824,-0.1291
0.828,-0.19621
0.832,-0.24097
0.836,-0.09647
0.84,0.06394
0.844,0.24602
0.848,0.42173
0.852,0.6392
0.856,0.79937
0.86,0.90778
0.864,0.95775
0.868,0.81741
0.872,0.71385
0.876,0.48595
0.88,0.22019
0.884,0.04997
0.888,-0.07822
0.892,-0.14351
0.896,-0.22608
0.9,-0.19248
0.904,-0.16461
0.908,-0.11509
0.912,-0.09842
0.916,-0.0084
0.92,-0.07059
0.924,-0.08784
0.928,-0.03338
0.932,-0.05523
0.936,0.00569
0.94,-0.06153
0.944,-0.00451
0.948,-0.06838
0.952,-0.02071
0.956,-0.04561
0.96,-0.04731
0.964,-0.0598
0.968,-0.01218
0.972,-0.06395
0.976,-0.02415
0.98,0.0185
0.984,-0.06848
0.988,-0.03823
0.992,0.00974
0.996,0.01681
1.0,-0.03382
1.004,-0.02917
1.008,-0.1127
1.012,-0.00551
1.016,0.01776
1.02,-0.04045
1.024,0.00083
1.028,0.02792
1.032,-0.04829
1.036,-0.07046
1.04,-0.02988
1.044,-0.01362
1.048,0.00334
1.052,0.02984
1.056,-0.00708
1.06,0.01247
1.064,0.02946
1.068,0.0216
1.072,-0.0382
1.076,0.0297
1.08,0.09547
1.084,0.10118
1.088,0.04484
1.092,0.09945
1.096,0.06913
1.1,0.15225
1.104,0.15339
1.108,0.13063
1.112,0.14777
1.116,0.10277
1.12,0.13855
1.124,0.09827
1.128,0.16175
1.132,0.21428
1.136,0.23505
1.14,0.21473
1.144,0.21527
1.148,0.20391
1.152,0.1085
1.156,0.26972
1.16,0.18447
1.164,0.18964
1.168,0.16897
1.172,0.13842
1.176,0.10534
1.18,0.13386
1.184,0.06539
1.188,0.07361
1.192,0.12178
1.196,0.10852
1.2,0.06494
1.204,0.06746
1.208,0.095
1.212,0.03042
1.216,0.02666
1.22,0.05486
1.224,0.0155
1.228,-0.04965
1.232,0.03575
1.236,-0.00603
1.24,-0.02402
1.244,-0.00655
1.248,0.02482
1.252,-0.0428
1.256,0.0104
1.26,0.01987
1.264,-0.00532
1.268,-0.04615
1.272,-0.0128
1.276,-0.05476
1.28,0.02558
1.284,-0.00535
1.288,-0.0128
1.292,-0.0182
1.296,0.01901
1.3,-0.03964
1.304,-0.0848
1.308,-0.00181
1.312,-0.03437
1.316,-0.0003
1.32,-0.09459
1.324,-0.00065
1.328,-0.0303
1.332,-0.01384
1.336,0.12488
1.34,-0.00799
1.344,0.06052
1.348,0.07119
1.352,0.05349
1.356,0.13534
1.36,0.08758
1.364,0.07763
1.368,0.04931
1.372,-0.02707
1.376,0.00644
1.38,0.03499
1.384,-0.04924
1.388,-0.00297
1.392,0.02142
1.396,-0.07926
1.4,-0.00399
1.404,-0.00249
1.408,-0.05001
1.412,-0.03482
1.416,-0.00576
1.42,-0.0409
1.424,-0.02558
1.428,-0.0361
1.432,-0.05311
1.436,-0.0953
1.44,0.01507
1.444,-0.02273
1.448,-0.05833
1.452,-0.06165
1.456,-0.06203
1.46,0.0016
1.464,-0.04653
1.468,-0.01906
1.472,-0.08273
1.476,-0.05459
1.48,-0.09804
1.484,-0.16919
1.488,-0.16959
1.492,-0.13699
1.496,-0.00927
1.5,0.11679
1.504,0.34539
1.508,0.55461
1.512,0.80153
1.516,0.91873
1.52,1.03034
1.524,0.94818
1.528,0.79073
1.532,0.57743
1.536,0.32545
1.54,0.09373
1.544,-0.02954
1.548,-0.16343
1.552,-0.16947
1.556,-0.13025
1.56,-0.11428
1.564,0.01265
1.568,-0.00776
1.572,-0.09715
1.576,-0.09026
1.58,0.00823
1.584,-0.01387
1.588,-0.01721
1.592,-0.00138
1.596,-0.05092
1.6,-0.01242
1.604,-0.01923
1.608,0.01044
1.612,-0.00195
1.616,-0.00163
1.62,-0.0177
1.624,-0.0188
1.628,-0.06419
1.632,-0.07125
1.636,-0.04667
1.64,0.00372
1.644,-2e-05
1.648,-0.02769
1.652,-0.02287
1.656,-0.094
1.66,-0.03685
1.664,0.03917
1.668,-0.05066
1.672,-0.01989
1.676,-0.05086
1.68,-0.03828
1.684,-0.01751
1.688,-0.0716
1.692,-0.03831
1.696,-0.02778
1.7,-0.06877
1.704,-0.03002
1.708,0.05989
1.712,-0.01337
1.716,-0.03319
1.72,0.03024
1.724,-0.00816
1.728,0.019
1.732,0.03795
1.736,0.08549
1.74,-0.0081
1.744,0.03318
1.748,0.09893
1.752,0.18837
1.756,0.10515
1.76,0.11363
1.764,0.16173
1.768,0.15435
1.772,0.15356
1.776,0.20606
1.78,0.19291
1.784,0.17721
1.788,0.16961
1.792,0.24394
1.796,0.13658
1.8,0.18128
1.804,0.18403
1.808,0.12134
1.812,0.12281
1.816,0.22766
1.82,0.20662
1.824,0.15769
1.828,0.16116
1.832,0.13348
1.836,0.12447
1.84,0.14408
1.844,0.10023
1.848,0.11018
1.852,0.12012
1.856,0.11756
1.86,0.11611
1.864,0.00758
1.868,0.08723
1.872,0.08328
1.876,0.01139
1.88,0.05669
1.884,-0.02519
1.888,0.03517
1.892,0.05781
1.896,-0.008
1.9,0.00863
1.904,0.04318
1.908,0.01696
1.912,-0.01978
1.916,0.00305
1.92,0.03245
1.924,0.09302
1.928,0.09048
1.932,0.07241
1.936,0.02871
1.94,0.11588
1.944,0.08791
1.948,0.08964
1.952,0.07141
1.956,0.11487
1.96,0.09967
1.964,0.02089
1.968,0.02191
1.972,0.03917
1.976,0.02175
1.98,0.08107
1.984,-0.02739
1.988,-0.00738
1.992,-0.05722
1.996,0.01033
2.0,0.00447
2.004,-0.03164
2.008,-0.01937
2.012,-0.03007
2.016,-0.00956
2.02,0.01398
2.024,-0.01383
2.028,0.00709
2.032,0.00151
2.036,-0.04453
2.04,-0.03314
2.044,0.03217
2.048,-0.04073
2.052,-0.01492
2.056,-0.01982
2.06,-0.04584
2.064,-0.07484
2.068,-0.05414
2.072,-0.08322
2.076,-0.19696
2.08,-0.07781
2.084,0.12527
2.088,0.29571
2.092,0.56693
2.096,0.69957
2.1,0.82692
2.104,0.94457
2.108,1.01229
2.112,0.86233
2.116,0.77884
2.12,0.39264
2.124,0.17458
2.128,-0.03162
2.132,-0.09789
2.136,-0.13631
2.14,-0.16866
2.144,-0.16999
2.148,-0.05165
2.152,-0.04768
2.156,-0.06598
2.16,-0.03729
2.164,-0.0461
2.168,-0.00097
2.172,-0.01798
2.176,-0.02049
2.18,0.01613
2.184,-0.02949
2.188,-0.01748
2.192,-0.07642
2.196,-0.07354
2.2,-0.07891
2.204,0.03741
2.208,-0.03738
2.212,0.01408
2.216,-0.00549
2.22,0.02323
2.224,0.02821
2.228,-0.0741
2.232,-0.00629
2.236,-0.00198
2.24,-0.04957
2.244,-0.03052
2.248,-0.02313
2.252,-0.04609
2.256,-0.0342
2.26,-0.02765
2.264,0.00965
2.268,-0.03725
2.272,0.05998
2.276,0.01331
2.28,-0.00441
2.284,-0.00441
2.288,-0.00144
2.292,-0.0299
2.296,0.07471
2.3,0.02275
2.304,0.12302
2.308,0.05882
2.312,0.04425
2.316,0.04025
2.32,0.05046
2.324,0.10754
2.328,0.10397
2.332,0.07844
2.336,0.10644
2.34,0.17339
2.344,0.22318
2.348,0.17071
2.352,0.19277
2.356,0.14086
2.36,0.18363
2.364,0.2387
2.368,0.2274
2.372,0.20442
2.376,0.18483
2.38,0.25377
2.384,0.17861
2.388,0.21744
2.392,0.22129
2.396,0.21823
2.4,0.23948
2.404,0.1609
2.408,0.19616
2.412,0.2403
2.416,0.18894
2.42,0.14032
2.424,0.18389
2.428,0.13815
2.432,0.1083
2.436,0.11738
2.44,0.12134
2.444,0.12799
2.448,0.11822
2.452,0.10205
2.456,0.07801
2.46,0.09491
2.464,0.00291
2.468,0.10079
2.472,0.03478
2.476,0.0555
2.48,0.07703
2.484,0.08546
2.488,0.03608
2.492,-0.01111
2.496,0.03688
2.5,0.04126
2.504,0.0489
2.508,-0.03102
2.512,-0.00973
2.516,0.01754
2.52,-0.07961
2.524,-0.03322
2.528,-0.03108
2.532,-0.04082
2.536,-0.00343
2.54,0.04736
2.544,-0.02859
2.548,0.02786
2.552,-0.02508
2.556,-0.02466
2.56,0.03278
2.564,-0.02692
2.568,0.01016
2.572,-0.00201
2.576,-0.01013
2.58,0.02694
2.584,0.03104
2.588,0.06524
2.592,-0.04624
2.596,0.06248
2.6,0.03571
2.604,0.02058
2.608,0.00595
2.612,-0.00253
2.616,0.06129
2.62,0.03401
2.624,-0.00028
2.628,-0.03938
2.632,0.01335
2.636,0.05961
2.64,0.05203
2.644,0.00381
2.648,0.02262
2.652,0.07541
2.656,0.07387
2.66,0.08939
2.664,0.13749
2.668,0.08737
2.672,0.14992
2.676,0.14711
2.68,0.05503
2.684,0.1354
2.688,0.14557
2.692,0.11817
2.696,0.05928
2.7,0.04591
2.704,0.00635
2.708,0.1016
2.712,-0.00583
2.716,-0.01403
2.72,-0.02909
2.724,0.01786
2.728,0.00304
2.732,0.02587
2.736,0.06724
2.74,-0.04545
2.744,-0.00942
2.748,0.05398
2.752,0.00292
2.756,0.03459
2.76,0.03397
2.764,0.01855
2.768,0.02123
2.772,0.0567
2.776,-0.09113
2.78,-0.0446
2.784,0.00482
2.788,-0.02491
2.792,-0.07226
2.796,-0.10089
2.8,-0.09138
2.804,-0.1025
2.808,-0.00517
2.812,0.16792
2.816,0.38481
2.82,0.57879
2.824,0.78471
2.828,0.96052
2.832,1.02453
2.836,1.01443
2.84,0.80628
2.844,0.68136
2.848,0.33725
2.852,0.21335
2.856,-0.07064
2.86,-0.1246
2.864,-0.22693
2.868,-0.13743
2.872,-0.13235
2.876,-0.10701
2.88,-0.01303
2.884,0.0133
2.888,-0.00323
2.892,0.02344
2.896,0.059
2.9,0.04131
2.904,0.00122
2.908,0.01702
2.912,0.03295
2.916,0.02033
2.92,0.00753
2.924,0.01744
2.928,0.02113
2.932,0.04694
2.936,0.00531
2.94,-0.02156
2.944,0.01512
2.948,0.04669
2.952,-0.035
2.956,0.01451
2.96,0.00417
2.964,0.02483
2.968,-0.00085
2.972,0.00056
2.976,0.01693
2.98,0.01904
2.984,0.02084
2.988,-0.00835
2.992,0.03471
2.996,0.0287
3.0,0.01809
3.004,0.03973
3.008,-0.03678
3.012,0.08828
3.016,-0.033
3.02,0.01649
3.024,0.02132
3.028,0.01458
3.032,0.03428
3.036,0.09554
3.04,0.09245
3.044,0.07627
3.048,0.0937
3.052,0.01827
3.056,0.0471
3.06,0.15207
3.064,0.13737
3.068,0.14461
3.072,0.15521
3.076,0.17463
3.08,0.22398
3.084,0.23184
3.088,0.21061
3.092,0.25774
3.096,0.16321
3.1,0.18164
3.104,0.21278
3.108,0.21759
3.112,0.23723
3.116,0.18736
3.12,0.27064
3.124,0.20972
3.128,0.1241
3.132,0.20071
3.136,0.16778
3.14,0.19152
3.144,0.15843
3.148,0.18558
3.152,0.13139
3.156,0.19496
3.16,0.14559
3.164,0.11653
3.168,0.16114
3.172,0.09161
3.176,0.0478
3.18,0.09378
3.184,0.06247
3.188,0.06446
3.192,0.0695
3.196,-0.01107
3.2,0.06407
3.204,0.00042
3.208,0.00956
3.212,0.03551
3.216,0.02865
3.22,0.03855
3.224,-0.03036
3.228,0.03245
3.232,0.05006
3.236,0.04667
3.24,-0.00977
3.244,0.02349
3.248,-0.0685
3.252,0.04238
3.256,0.08065
3.26,-0.00389
3.264,0.02003
3.268,-0.0243
3.272,0.02856
3.276,-0.02162
3.28,0.00959
3.284,0.01802
3.288,0.00431
3.292,0.01035
3.296,0.06134
3.3,0.02111
3.304,0.064
3.308,0.00258
3.312,0.02342
3.316,0.02106
3.32,0.01097
3.324,0.03298
3.328,0.07607
3.332,0.00262
3.336,-0.01521
3.34,0.08663
3.344,-0.03281
3.348,0.00054
3.352,-0.02824
3.356,-0.05421
3.36,0.04588
3.364,0.06377
3.368,0.07954
3.372,0.05999
3.376,-0.01382
3.38,0.03871
3.384,0.07875
3.388,0.02914
3.392,0.08413
3.396,-0.01318
3.4,0.0176
3.404,0.00671
3.408,0.01527
3.412,-0.0182
3.416,0.08762
3.42,0.04464
3.424,0.10918
3.428,0.04555
3.432,0.05975
3.436,0.06785
3.44,-0.02761
3.444,-0.00762
3.448,-0.02168
3.452,0.01178
3.456,0.0129
3.46,-0.00797
3.464,0.00539
3.468,0.08457
3.472,0.03292
3.476,-0.0104
3.48,0.00811
3.484,0.08697
3.488,0.05454
3.492,0.04807
3.496,-0.02715
3.5,-0.00577
3.504,0.05849
3.508,0.04034
3.512,0.05381
3.516,0.01812
3.52,0.02082
3.524,0.03282
3.528,-0.01444
3.532,0.10261
3.536,-0.01253
3.54,0.02702
3.544,0.03338
3.548,0.03826
3.552,0.0245
3.556,0.00163
3.56,0.0172
3.564,0.0384
3.568,0.04597
3.572,0.0455
3.576,0.02268
3.58,0.07025
3.584,0.06201
3.588,0.00582
3.592,0.0412
3.596,0.07469
3.6,0.02235
3.604,0.03514
3.608,0.00112
3.612,0.06194
3.616,0.00759
3.62,0.07268
3.624,0.01328
3.628,0.04544
3.632,0.01943
3.636,0.02488
3.64,0.04736
3.644,0.01738
3.648,0.11376
3.652,0.07441
3.656,0.14753
3.66,0.13184
3.664,0.14198
3.668,0.14577
3.672,0.13219
3.676,0.10296
3.68,0.17259
3.684,0.1062
3.688,0.08635
3.692,0.14702
3.696,0.07894
3.7,0.09205
3.704,0.05276
3.708,0.04839
3.712,0.01866
3.716,-0.00836
3.72,0.03734
3.724,0.02056
3.728,0.09661
3.732,0.01048
3.736,0.07466
3.74,0.02104
3.744,0.01253
3.748,0.04301
3.752,0.05285
3.756,-0.01657
3.76,0.0966
3.764,-0.04843
3.768,0.05556
3.772,0.079
3.776,0.06422
3.78,-0.00394
3.784,0.04866
3.788,-0.01031
3.792,-0.00783
3.796,-0.04822
3.8,-0.15676
3.804,-0.09438
3.808,-0.03065
3.812,0.08814
3.816,0.25943
3.82,0.43475
3.824,0.70306
3.828,0.85256
3.832,1.02994
3.836,1.00445
3.84,0.8966
3.844,0.75989
3.848,0.54009
3.852,0.25271
3.856,0.04213
3.86,-0.08454
3.864,-0.16171
3.868,-0.13504
3.872,-0.08644
3.876,-0.07423
3.88,-0.01671
3.884,0.01404
3.888,-0.00109
3.892,0.07774
3.896,0.08981
3.9,0.05873
3.904,-0.02224
3.908,0.05059
3.912,0.00889
3.916,0.01489
3.92,0.0147
3.924,0.04532
3.928,0.07594
3.932,0.03487
3.936,0.08952
3.94,-0.0237
3.944,-0.02409
3.948,0.02717
3.952,0.0278
3.956,0.00899
3.96,0.02591
3.964,0.02208
3.968,0.02813
3.972,0.04842
3.976,0.04705
3.98,0.04562
3.984,0.04302
3.988,0.01881
3.992,0.14502
3.996,0.033
4.0,0.02964
4.004,0.08867
4.008,0.00786
4.012,-0.03446
4.016,0.01951
4.02,0.03715
4.024,0.0372
4.028,0.04696
4.032,0.04989
4.036,0.1212
4.04,0.15511
4.044,0.05093
4.048,0.05866
4.052,0.14924
4.056,0.15124
4.06,0.12214
4.064,0.09819
4.068,0.16942
4.072,0.13817
4.076,0.18558
4.08,0.25125
4.084,0.13652
4.088,0.19479
4.092,0.24409
4.096,0.24952
4.1,0.3066
4.104,0.24962
4.108,0.27816
4.112,0.22946
4.116,0.20551
4.12,0.25497
4.124,0.22384
4.128,0.17075
4.132,0.23458
4.136,0.2878
4.14,0.25466
4.144,0.16729
4.148,0.19171
4.152,0.10423
4.156,0.13091
4.16,0.17026
4.164,0.11021
4.168,0.1851
4.172,0.09233
4.176,0.15718
4.18,0.17657
4.184,0.08546
4.188,0.06429
4.192,0.07451
4.196,0.01982
4.2,0.0581
4.204,0.06389
4.208,0.11188
4.212,0.09404
4.216,0.02183
4.22,0.09453
4.224,0.08436
4.228,0.00189
4.232,0.02949
4.236,0.02642
4.24,0.02237
4.244,-0.00648
4.248,0.06139
4.252,0.06145
4.256,-0.00443
4.26,0.06182
4.264,0.06583
4.268,0.02195
4.272,0.07055
4.276,0.0384
4.28,0.02574
4.284,0.01905
4.288,-0.02045
4.292,0.08386
4.296,0.03515
4.3,0.00357
4.304,0.10363
4.308,-0.07685
4.312,0.01692
4.316,0.02462
4.32,0.0401
4.324,0.11675
4.328,0.10142
4.332,0.115
4.336,0.0846
4.34,0.10217
4.344,0.13016
4.348,0.23178
4.352,0.15211
4.356,0.12851
4.36,0.09532
4.364,0.04689
4.368,0.07031
4.372,0.00404
4.376,0.07247
4.38,0.04783
4.384,0.02273
4.388,0.00312
4.392,0.07061
4.396,0.05025
4.4,0.06929
4.404,0.12745
4.408,0.0245
4.412,0.03933
4.416,0.03802
4.42,-0.00589
4.424,0.03331
4.428,0.01399
4.432,0.06784
4.436,0.02867
4.44,0.0581
4.444,0.04119
4.448,0.09235
4.452,-0.02078
4.456,0.01482
4.46,0.02651
4.464,-0.03379
4.468,-0.02381
4.472,-0.05071
4.476,-0.13863
4.48,-0.06114
4.484,0.07283
4.488,0.17467
4.492,0.41743
4.496,0.6066
4.5,0.78908
4.504,1.02402
4.508,0.91731
4.512,1.03833
4.516,0.85904
4.52,0.62963
4.524,0.34858
4.528,0.20689
4.532,0.00766
4.536,-0.05054
4.54,-0.12105
4.544,-0.10756
4.548,-0.12332
4.552,-0.03369
4.556,-0.00948
4.56,0.03494
4.564,-0.02149
4.568,-0.00221
4.572,-0.00425
4.576,0.01987
4.58,0.01949
4.584,0.03385
4.588,-0.01129
4.592,-0.03012
4.596,-0.06729
4.6,-0.01351
4.604,0.04555
4.608,0.0669
4.612,0.01613
4.616,0.017
4.62,0.07201
4.624,0.02234
4.628,0.09764
4.632,0.02248
4.636,0.03387
4.64,0.05257
4.644,0.04694
4.648,0.00274
4.652,0.03236
4.656,-0.00991
4.66,0.02401
4.664,-0.0025
4.668,0.07312
4.672,0.05691
4.676,-0.0033
4.68,0.09341
4.684,0.02226
4.688,0.04366
4.692,0.03353
4.696,-0.0017
4.7,0.05488
4.704,0.0519
4.708,0.05728
4.712,0.01909
4.716,0.06961
4.72,0.13394
4.724,0.07577
4.728,0.15524
4.732,0.13575
4.736,0.11658
4.74,0.14699
4.744,0.13859
4.748,0.22861
4.752,0.1942
4.756,0.18065
4.76,0.23248
4.764,0.19351
4.768,0.19718
4.772,0.20351
4.776,0.3107
4.78,0.26067
4.784,0.25646
4.788,0.27927
4.792,0.25381
4.796,0.25863
4.8,0.2333
4.804,0.25859
4.808,0.19803
4.812,0.28123
4.816,0.25349
4.82,0.22766
4.824,0.2082
4.828,0.1503
4.832,0.15321
4.836,0.17402
4.84,0.13924
4.844,0.13383
4.848,0.11424
4.852,0.1021
4.856,0.12662
4.86,0.04882
4.864,0.06522
4.868,0.06252
4.872,0.06384
4.876,0.05762
4.88,0.0845
4.884,0.075
4.888,0.03378
4.892,0.0346
4.896,0.04373
4.9,0.01016
4.904,0.12789
4.908,0.12943
4.912,0.08203
4.916,0.08802
4.92,0.13521
4.924,0.14702
4.928,0.11082
4.932,0.13257
4.936,0.09829
4.94,0.04773
4.944,0.07956
4.948,0.03782
4.952,0.00495
4.956,0.01516
4.96,0.05656
4.964,0.046
4.968,0.03242
4.972,0.12192
4.976,-0.00387
4.98,0.01603
4.984,-0.01075
4.988,0.05745
4.992,-0.00107
4.996,-0.01538
5.0,0.04884
5.004,-0.01434
5.008,0.01219
5.012,-0.04795
5.016,0.0188
5.02,0.02401
5.024,0.06285
5.028,0.05975
5.032,0.00147
5.036,0.01848
5.04,-0.01664
5.044,-0.0542
5.048,-0.13938
5.052,-0.03872
5.056,-0.01029
5.06,0.21087
5.064,0.36244
5.068,0.55881
5.072,0.76065
5.076,0.8701
5.08,1.03414
5.084,0.9768
5.088,0.88751
5.092,0.6559
5.096,0.37478
5.1,0.19887
5.104,0.05121
5.108,-0.13123
5.112,-0.16556
5.116,-0.11715
5.12,-0.1352
5.124,-0.06724
5.128,0.0299
5.132,-0.03819
5.136,0.04644
5.14,0.01973
5.144,-0.00695
5.148,0.08363
5.152,0.03064
5.156,0.01392
5.16,0.02038
5.164,0.05894
5.168,0.00782
5.172,-0.0001
5.176,-0.04431
5.18,0.02253
5.184,0.0446
5.188,-0.03222
5.192,0.01753
5.196,-0.01438
5.2,0.01888
5.204,0.03903
5.208,0.04223
5.212,-0.04527
5.216,0.01374
5.22,-0.01264
5.224,0.09976
5.228,-0.00592
5.232,0.01339
5.236,-0.02438
5.24,0.01697
5.244,-0.02002
5.248,0.05667
5.252,0.06333
5.256,0.04579
5.26,0.06278
5.264,0.02485
5.268,0.09005
5.272,0.0916
5.276,0.04023
5.28,0.03158
5.284,0.0243
5.288,0.08659
5.292,0.0674
5.296,0.07673
5.3,0.12546
5.304,0.09615
5.308,0.15005
5.312,0.17169
5.316,0.13767
5.32,0.16425
5.324,0.19112
5.328,0.19208
5.332,0.20402
5.336,0.15771
5.34,0.18576
5.344,0.25299
5.348,0.2421
5.352,0.24491
5.356,0.24076
5.36,0.24081
5.364,0.25335
5.368,0.24398
5.372,0.23769
5.376,0.23313
5.38,0.2148
5.384,0.1613
5.388,0.14206
5.392,0.14789
5.396,0.14567
5.4,0.15134
5.404,0.14398
5.408,0.10335
5.412,0.11881
5.416,0.12298
5.42,0.06607
5.424,0.05494
5.428,0.09699
5.432,0.03251
5.436,0.09952
5.44,0.03402
5.444,0.07149
5.448,0.02623
5.452,0.02947
5.456,0.0537
5.46,-0.0348
5.464,0.03642
5.468,0.06431
5.472,0.00932
5.476,0.06355
5.48,0.05206
5.484,0.01418
5.488,-0.01772
5.492,0.03525
5.496,0.10596
5.5,-0.02827
5.504,0.01787
5.508,-0.00535
5.512,-0.0322
5.516,-0.00129
5.52,-0.0462
5.524,-0.03964
5.528,0.0397
5.532,0.04031
5.536,-0.01454
5.54,-0.00741
5.544,-0.01282
5.548,0.06744
5.552,0.06297
5.556,-0.06805
5.56,0.00249
5.564,0.02107
5.568,-0.03703
5.572,0.03737
5.576,0.00328
5.58,0.0509
5.584,-0.00152
5.588,-0.04447
5.592,-0.0384
5.596,-0.01107
5.6,-0.02291
5.604,-0.02747
5.608,0.04215
5.612,-0.01054
5.616,-0.03158
5.62,-0.0086
5.624,-0.00609
5.628,0.03811
5.632,0.00709
5.636,-0.02164
5.64,0.01649
5.644,0.00728
5.648,0.03199
5.652,0.0263
5.656,-0.02014
5.66,-0.04351
5.664,-0.01079
5.668,-0.01124
5.672,-0.00657
5.676,0.03817
5.68,0.03415
5.684,-0.06577
5.688,0.00583
5.692,-0.03109
5.696,-0.02458
5.7,0.01207
5.704,0.02618
5.708,0.01366
5.712,0.04356
5.716,-0.03016
5.72,0.00781
5.724,-0.03279
5.728,-0.05916
5.732,0.03807
5.736,-0.03628
5.74,-0.01506
5.744,0.00367
5.748,-0.018
5.752,0.07577
5.756,-0.01042
5.76,0.02851
5.764,0.01616
5.768,0.01923
5.772,0.02286
5.776,0.00527
5.78,0.01094
5.784,0.02575
5.788,0.00281
5.792,0.03924
5.796,0.00886
5.8,0.00245
5.804,-0.05993
5.808,-0.05693
5.812,0.0185
5.816,0.0483
5.82,0.02058
5.824,0.02968
5.828,0.01567
5.832,0.04903
5.836,0.02861
5.84,0.09158
5.844,-0.00115
5.848,0.02753
5.852,0.1381
5.856,0.11927
5.86,0.06498
5.864,0.14267
5.868,0.14203
5.872,0.12566
5.876,0.03254
5.88,0.02828
5.884,0.0864
5.888,0.07449
5.892,-0.03514
5.896,-0.0234
5.9,0.00286
5.904,-0.0183
5.908,-0.04272
5.912,0.0467
5.916,-0.02715
5.92,-0.01184
5.924,0.00267
5.928,0.04419
5.932,-0.0689
5.936,-0.02196
5.94,0.04141
5.944,-0.03732
5.948,-0.01595
5.952,-0.02929
5.956,-0.0469
5.96,0.02207
5.964,0.06062
5.968,-0.03119
5.972,-0.06328
5.976,-0.03959
5.98,-0.05472
5.984,-0.08057
5.988,-0.09022
5.992,-0.09643
5.996,-0.08404
6.0,0.0625
6.004,0.23406
6.008,0.47862
6.012,0.69848
6.016,0.90621
6.02,0.96854
6.024,1.03337
6.028,0.91811
6.032,0.7035
6.036,0.47325
6.04,0.28437
6.044,0.08566
6.048,-0.07609
6.052,-0.11848
6.056,-0.21366
6.06,-0.14886
6.064,-0.17179
6.068,-0.06583
6.072,-0.03532
6.076,-0.02814
6.08,-0.07861
6.084,-0.03495
6.088,0.01118
6.092,-0.01923
6.096,0.00081
6.1,0.02121
6.104,-0.08643
6.108,0.02092
6.112,-0.06131
6.116,-0.04142
6.12,0.02107
6.124,-0.04758
6.128,-0.02292
6.132,0.0197
6.136,-0.07757
6.14,-0.01846
6.144,-0.0343
6.148,-0.0397
6.152,-0.04155
6.156,-0.03974
6.16,-0.02456
6.164,-0.02027
6.168,0.00246
6.172,0.06243
6.176,0.01424
6.18,-0.01044
6.184,0.03129
6.188,0.01094
6.192,0.0132
6.196,-0.00951
6.2,0.00213
6.204,0.08352
6.208,0.12204
6.212,0.10256
6.216,0.08528
6.22,0.0913
6.224,0.15726
6.228,0.12579
6.232,0.08365
6.236,0.21674
6.24,0.15334
6.244,0.15864
6.248,0.2008
6.252,0.17113
6.256,0.1265
6.26,0.10518
6.264,0.15571
6.268,0.1527
6.272,0.14205
6.276,0.18837
6.28,0.16408
6.284,0.20461
6.288,0.13781
6.292,0.16752
6.296,0.17902
6.3,0.18618
6.304,0.20978
6.308,0.22197
6.312,0.21405
6.316,0.22938
6.32,0.20185
6.324,0.195
6.328,0.15674
6.332,0.11886
6.336,0.13648
6.34,0.11674
6.344,0.08284
6.348,0.06276
6.352,-0.05001
6.356,0.00467
6.36,-0.08474
6.364,-0.0243
6.368,0.06051
6.372,0.06056
6.376,0.27988
6.38,0.30673
6.384,0.38248
6.388,0.42289
6.392,0.51471
6.396,0.42955
6.4,0.29849
6.404,0.23756
6.408,0.06679
6.412,-0.03905
6.416,-0.153
6.42,-0.15893
6.424,-0.20073
6.428,-0.15711
6.432,-0.11222
6.436,-0.05547
6.44,-0.01767
6.444,-0.00985
6.448,0.01922
6.452,0.01942
6.456,-0.04693
6.46,0.04801
6.464,-0.05188
6.468,-0.02203
6.472,0.03501
6.476,-0.02751
6.48,-0.06381
6.484,-0.02644
6.488,-0.04495
6.492,-0.02104
6.496,-0.04678
6.5,-0.01829
6.504,0.04654
6.508,0.02999
6.512,0.02266
6.516,-0.05924
6.52,-0.022
6.524,-0.0382
6.528,-0.02901
6.532,-0.01991
6.536,0.02281
6.54,0.038
6.544,0.01148
6.548,-0.01044
6.552,0.01634
6.556,-0.03191
6.56,0.00348
6.564,0.01429
6.568,-0.05813
6.572,-0.02158
6.576,0.0729
6.58,0.00839
6.584,-0.00932
6.588,-0.02946
6.592,0.04984
6.596,0.03324
6.6,0.08024
6.604,0.02544
6.608,0.07532
6.612,0.0695
6.616,0.03506
6.62,0.08826
6.624,0.15368
6.628,0.16349
6.632,0.14809
6.636,0.17482
6.64,0.14675
6.644,0.10494
6.648,0.1579
6.652,0.22871
6.656,0.12509
6.66,0.20093
6.664,0.20391
6.668,0.21777
6.672,0.20024
6.676,0.21525
6.68,0.17396
6.684,0.16121
6.688,0.23386
6.692,0.1877
6.696,0.19645
6.7,0.20185
6.704,0.14838
6.708,0.14707
6.712,0.14292
6.716,0.09397
6.72,0.11225
6.724,0.10262
6.728,0.04813
6.732,0.05583
6.736,0.06288
6.74,0.0549
6.744,0.03145
6.748,-0.06016
6.752,0.00483
6.756,0.03554
6.76,0.03959
6.764,-0.04214
6.768,-0.0056
6.772,-0.02288
6.776,-0.02797
6.78,-0.03269
6.784,0.02863
6.788,0.00232
6.792,-0.03194
6.796,-0.0187
6.8,-0.01238
6.804,-0.00076
6.808,-0.05713
6.812,0.00255
6.816,-0.01319
6.82,-0.06116
6.824,-0.03688
6.828,-0.03613
6.832,0.05471
6.836,-0.00747
6.84,-0.00102
6.844,-0.03646
6.848,0.01969
6.852,0.06381
6.856,0.04042
6.86,0.02652
6.864,0.02272
6.868,-0.02476
6.872,0.02108
6.876,0.0677
6.88,0.02508
6.884,0.04988
6.888,0.06905
6.892,0.11388
6.896,0.04933
6.9,0.07178
6.904,0.09968
6.908,0.02331
6.912,0.0015
6.916,0.04314
6.92,-0.04621
6.924,4e-05
6.928,-0.00393
6.932,0.03119
6.936,-0.0119
6.94,0.01696
6.944,-0.02337
6.948,-0.04972
6.952,-0.01585
6.956,0.01192
6.96,-0.05535
6.964,0.02594
6.968,-0.04291
6.972,-0.02588
6.976,-0.09329
6.98,-0.09984
6.984,-0.04278
6.988,-0.05639
6.992,0.01809
6.996,-0.03405
7.0,-0.01385
7.004,-0.0864
7.008,-0.07655
7.012,-0.06826
7.016,-0.16804
7.02,-0.10833
7.024,-0.06452
7.028,0.08166
7.032,0.29057
7.036,0.49658
7.04,0.65136
7.044,0.85361
7.048,0.92637
7.052,0.9763
7.056,0.83935
7.06,0.67057
7.064,0.40168
7.068,0.18535
7.072,0.02403
7.076,-0.11574
7.08,-0.20072
7.084,-0.16569
7.088,-0.13384
7.092,-0.1466
7.096,-0.08131
7.1,-0.01641
7.104,-0.05081
7.108,-0.05199
7.112,0.00119
7.116,0.01364
7.12,0.01743
7.124,-0.01288
7.128,-0.09353
7.132,-0.02125
7.136,0.00992
7.14,-0.01828
7.144,0.00459
7.148,-0.05155
7.152,-0.02029
7.156,0.00275
7.16,0.00644
7.164,-0.01976
7.168,-0.04678
7.172,-0.03739
7.176,-0.13106
7.18,-0.02406
7.184,-0.01772
7.188,-0.0249
7.192,0.01373
7.196,-0.03097
7.2,0.05852
7.204,-0.00129
7.208,-0.02413
7.212,-0.05158
7.216,-0.02985
7.22,0.00949
7.224,-0.01353
7.228,0.0364
7.232,-0.01609
7.236,0.02686
7.24,-0.00462
7.244,0.04253
7.248,-0.03971
7.252,0.08496
7.256,0.06345
7.26,0.0602
7.264,-0.00515
7.268,0.10168
7.272,0.12606
7.276,0.09209
7.28,0.09355
7.284,0.07255
7.288,0.17849
7.292,0.09049
7.296,0.20539
7.3,0.1322
7.304,0.14586
7.308,0.17518
7.312,0.17395
7.316,0.16675
7.32,0.20354
7.324,0.22279
7.328,0.15224
7.332,0.15867
7.336,0.13327
7.34,0.21589
7.344,0.20486
7.348,0.15146
7.352,0.1529
7.356,0.1567
7.36,0.11734
7.364,0.12359
7.368,0.10671
7.372,0.11951
7.376,0.1517
7.38,0.13003
7.384,0.06045
7.388,0.05429
7.392,-0.00801
7.396,0.05971
7.4,0.07058
7.404,0.00048
7.408,0.00236
7.412,-0.0031
7.416,0.08354
7.42,0.02613
7.424,0.01071
7.428,-0.09617
7.432,0.0327
7.436,-0.01441
7.44,-0.0638
7.444,-0.00844
7.448,-0.05303
7.452,-0.03101
7.456,0.00615
7.46,-0.06116
7.464,0.00643
7.468,-0.04612
7.472,-0.00491
7.476,-0.05549
7.48,-0.01817
7.484,0.02977
7.488,-0.04267
7.492,-0.06373
7.496,-0.03566
7.5,0.00443
7.504,-0.04695
7.508,-0.06221
7.512,-0.06386
7.516,-0.04427
7.52,-0.03509
7.524,0.0281
7.528,-0.05295
7.532,-0.08985
7.536,-0.03617
7.54,-0.04985
7.544,0.01224
7.548,-0.01774
7.552,-0.09366
7.556,-0.01277
7.56,-0.05524
7.564,-0.02184
7.568,-0.05565
7.572,-0.09861
7.576,0.01972
7.58,-0.07474
7.584,-0.02824
7.588,0.0161
7.592,0.00305
7.596,0.01014
7.6,-0.03765
7.604,-0.02288
7.608,0.03565
7.612,-0.01764
7.616,-0.0274
7.62,-0.09922
7.624,-0.07284
7.628,-0.026
7.632,-0.08858
7.636,-0.01975
7.64,-0.03346
7.644,-0.04821
7.648,-0.02663
7.652,-0.06313
7.656,-0.03862
7.66,-0.08764
7.664,-0.01068
7.668,-0.02119
7.672,-0.06649
7.676,-0.03135
7.68,-0.05269
7.684,0.00716
7.688,-0.02999
7.692,-0.01434
7.696,-0.01253
7.7,-0.02101
7.704,-0.02782
7.708,-0.00215
7.712,-0.03493
7.716,-0.02791
7.72,-0.02192
7.724,-0.08866
7.728,-0.02646
7.732,-0.05713
7.736,-0.07128
7.74,-0.02432
7.744,0.0208
7.748,-0.03501
7.752,-0.05849
7.756,-0.06883
7.76,0.00372
7.764,-0.01875
7.768,-0.04844
7.772,-0.05656
7.776,0.01509
7.78,0.0305
7.784,-0.00261
7.788,-0.01413
7.792,0.06764
7.796,-0.01724
7.8,0.00196
7.804,0.02324
7.808,0.08171
7.812,-0.04879
7.816,0.08161
7.82,0.07403
7.824,0.04149
7.828,0.04202
7.832,0.06983
7.836,0.0619
7.84,0.09848
7.844,0.04012
7.848,0.04004
7.852,0.01286
7.856,0.03572
7.86,0.02807
7.864,0.06505
7.868,0.01355
7.872,0.03435
7.876,0.0046
7.88,-0.02502
7.884,-0.02961
7.888,-0.06391
7.892,0.013
7.896,-0.08841
7.9,0.06523
7.904,-0.02866
7.908,0.00903
7.912,-0.10601
7.916,-0.04275
7.92,-0.03753
7.924,-0.04453
7.928,-0.04539
7.932,0.04041
7.936,-0.02201
7.94,-0.029
7.944,-0.07253
7.948,-0.05389
7.952,-0.03265
7.956,-0.12723
7.96,-0.13785
7.964,-0.07858
7.968,-0.12151
7.972,0.02357
7.976,0.24506
7.98,0.43011
7.984,0.58972
7.988,0.75079
7.992,0.99268
7.996,0.97482
8.0,0.84029
8.004,0.65097
8.008,0.54387
8.012,0.23784
8.016,0.03599
8.02,-0.09967
8.024,-0.14075
8.028,-0.2199
8.032,-0.21849
8.036,-0.04808
8.04,-0.12988
8.044,-0.0613
8.048,-0.04035
8.052,-0.02829
8.056,0.00903
8.06,-0.05296
8.064,0.00723
8.068,-0.05616
8.072,-0.01975
8.076,0.03587
8.08,-0.01744
8.084,-0.04181
8.088,-0.06648
8.092,-0.08017
8.096,-0.11395
8.1,-0.04357
8.104,0.02369
8.108,-0.00145
8.112,-0.06462
8.116,-0.03794
8.12,0.00423
8.124,-0.07605
8.128,-0.0411
8.132,-0.01584
8.136,-0.03291
8.14,0.00858
8.144,-0.04393
8.148,0.02955
8.152,-0.07277
8.156,-0.01367
8.16,-0.02636
8.164,-0.02185
8.168,-0.02162
8.172,-0.01175
8.176,0.02786
8.18,0.04161
8.184,0.05804
8.188,0.06814
8.192,0.01728
8.196,0.02261
8.2,0.03562
8.204,0.09325
8.208,0.03585
8.212,0.04711
8.216,0.06324
8.22,0.05757
8.224,0.08556
8.228,0.16956
8.232,0.15
8.236,0.13306
8.24,0.1658
8.244,0.13149
8.248,0.14193
8.252,0.15595
8.256,0.13341
8.26,0.21207
8.264,0.17267
8.268,0.14786
8.272,0.22498
8.276,0.27275
8.28,0.25045
8.284,0.19247
8.288,0.13381
8.292,0.18347
8.296,0.19872
8.3,0.21413
8.304,0.11092
8.308,0.1272
8.312,0.11561
8.316,0.17992
8.32,0.12994
8.324,0.16457
8.328,0.14392
8.332,0.08144
8.336,0.06588
8.34,0.0766
8.344,0.01033
8.348,0.04325
8.352,0.00454
8.356,0.06598
8.36,-0.03863
8.364,-0.04107
8.368,0.03362
8.372,0.00561
8.376,0.05626
8.38,-0.05779
8.384,-0.02395
8.388,-0.00231
8.392,0.02112
8.396,-0.03049
8.4,0.01616
8.404,-0.04449
8.408,-0.01189
8.412,0.06086
8.416,-0.05909
8.42,-0.04244
8.424,-0.04218
8.428,0.05456
8.432,-0.06155
8.436,0.02038
8.44,-0.01208
8.444,-0.03582
8.448,0.00259
8.452,0.01658
8.456,0.02361
8.46,0.03691
8.464,0.02049
8.468,0.0704
8.472,-0.00209
8.476,0.08816
8.48,0.06668
8.484,0.09639
8.488,0.07886
8.492,0.00657
8.496,0.01929
8.5,0.06284
8.504,0.02996
8.508,0.00582
8.512,-0.00897
8.516,-0.01905
8.52,0.11743
8.524,-0.08402
8.528,0.00628
8.532,0.02105
8.536,0.08378
8.54,-0.00629
8.544,-0.02274
8.548,0.02375
8.552,0.03586
8.556,0.04352
8.56,-0.02048
8.564,-0.0536
8.568,-0.00616
8.572,0.01087
8.576,0.00131
8.58,-0.02217
8.584,-0.07779
8.588,-0.04278
8.592,0.0292
8.596,-0.05508
8.6,0.01237
8.604,-0.0881
8.608,-0.06934
8.612,-0.10471
8.616,-0.12362
8.62,-0.09956
8.624,-0.01989
8.628,0.04378
8.632,0.22085
8.636,0.53563
8.64,0.6818
8.644,0.89291
8.648,0.96708
8.652,0.95852
8.656,0.8063
8.66,0.66907
8.664,0.39578
8.668,0.2472
8.672,0.0057
8.676,-0.0485
8.68,-0.14833
8.684,-0.153
8.688,-0.15249
8.692,-0.13033
8.696,0.00465
8.7,-0.004
8.704,0.01767
8.708,-0.00996
8.712,0.02131
8.716,-0.02266
8.72,-0.02036
8.724,-0.01724
8.728,0.00896
8.732,0.0023
8.736,-0.00837
8.74,-0.0709
8.744,0.02261
8.748,4e-05
8.752,-0.08885
8.756,0.00321
8.76,0.04396
8.764,-0.03426
8.768,-0.014
8.772,-0.07523
8.776,0.05178
8.78,0.00281
8.784,-0.00408
8.788,-0.02435
8.792,0.01182
8.796,-0.00177
8.8,0.03386
8.804,-0.02757
8.808,0.02513
8.812,0.01777
8.816,0.01746
8.82,0.02685
8.824,-0.01153
8.828,0.02913
8.832,0.02926
8.836,0.0533
8.84,-0.02645
8.844,-0.03012
8.848,0.00923
8.852,-0.00843
8.856,-0.02131
8.86,0.03953
8.864,0.08095
8.868,0.08524
8.872,0.10578
8.876,0.14094
8.88,0.15733
8.884,0.12037
8.888,0.15819
8.892,0.15108
8.896,0.16237
8.9,0.13346
8.904,0.18842
8.908,0.1569
8.912,0.12417
8.916,0.16725
8.92,0.21676
8.924,0.18458
8.928,0.20842
8.932,0.26097
8.936,0.19807
8.94,0.20311
8.944,0.16845
8.948,0.17397
8.952,0.0501
8.956,0.23701
8.96,0.16675
8.964,0.23259
8.968,0.11455
8.972,0.09655
8.976,0.09579
8.98,0.10737
8.984,0.09547
8.988,0.11921
8.992,0.05731
8.996,0.06251
9.0,0.01952
9.004,0.05688
9.008,0.03679
9.012,0.01488
9.016,0.08886
9.02,-0.02386
9.024,-0.03267
9.028,0.0193
9.032,-0.01015
9.036,-0.00437
9.04,0.07249
9.044,0.00269
9.048,-0.00167
9.052,-0.06696
9.056,-0.03118
9.06,0.07484
9.064,0.07759
9.068,0.03057
9.072,0.01038
9.076,-0.00309
9.08,-0.06238
9.084,-0.0443
9.088,-0.0683
9.092,-0.00768
9.096,0.00157
9.1,0.00921
9.104,0.01127
9.108,0.01008
9.112,0.05158
9.116,-0.04228
9.12,0.01002
9.124,0.03806
9.128,-0.03847
9.132,-0.02122
9.136,-0.06043
9.14,0.00599
9.144,0.03251
9.148,0.02857
9.152,-0.00184
9.156,0.00162
9.16,0.01137
9.164,-0.08956
9.168,-0.01803
9.172,0.03405
9.176,-0.03244
9.18,-0.0343
9.184,0.03725
9.188,-0.05647
9.192,-0.00269
9.196,-0.02721
9.2,-0.01491
9.204,-0.02955
9.208,-0.00228
9.212,0.02234
9.216,-0.019
9.22,0.02472
9.224,-0.00079
9.228,0.03743
9.232,0.02505
9.236,-0.03914
9.24,0.05466
9.244,0.03396
9.248,0.05287
9.252,0.00535
9.256,0.00326
9.26,0.08552
9.264,0.05127
9.268,0.09953
9.272,0.06525
9.276,0.06128
9.28,0.14901
9.284,0.07166
9.288,0.09026
9.292,0.09666
9.296,0.02581
9.3,0.03092
9.304,0.05846
9.308,0.03329
9.312,0.06306
9.316,0.02503
9.32,-0.02136
9.324,-0.05884
9.328,0.00943
9.332,0.04737
9.336,0.04668
9.34,-0.00814
9.344,0.05002
9.348,0.01333
9.352,0.01116
9.356,-0.0472
9.36,-0.03329
9.364,-0.008
9.368,-0.03156
9.372,0.05404
9.376,0.06055
9.38,0.0326
9.384,0.01353
9.388,-0.03976
9.392,-0.01734
9.396,-0.01132
9.4,0.01437
9.404,-0.09199
9.408,-0.10912
9.412,-0.09457
9.416,-0.04972
9.42,0.02226
9.424,0.23575
9.428,0.44569
9.432,0.66997
9.436,0.8213
9.44,0.96339
9.444,1.03348
9.448,0.91528
9.452,0.73943
9.456,0.56455
9.46,0.30999
9.464,0.11524
9.468,0.01574
9.472,-0.12402
9.476,-0.09887
9.48,-0.10202
9.484,-0.18753
9.488,-0.04587
9.492,0.01338
9.496,0.02736
9.5,0.00013
9.504,-0.04546
9.508,-0.01245
9.512,-0.05125
9.516,0.04294
9.52,0.00909
9.524,0.04725
9.528,0.04264
9.532,-0.02783
9.536,0.03136
9.54,0.06021
9.544,-0.03387
9.548,0.0591
9.552,-0.05042
9.556,0.04097
9.56,0.04032
9.564,0.02424
9.568,-0.02677
9.572,-0.05146
9.576,-0.00174
9.58,0.00772
9.584,0.0758
9.588,-0.00981
9.592,0.0279
9.596,0.02252
9.6,0.01295
9.604,0.07459
9.608,0.01668
9.612,0.00157
9.616,0.0724
9.62,0.08042
9.624,-0.00152
9.628,0.03677
9.632,0.01831
9.636,0.0423
9.64,0.03256
9.644,0.1327
9.648,-0.00495
9.652,0.08578
9.656,0.13729
9.66,0.06631
9.664,0.09923
9.668,0.13206
9.672,0.13005
9.676,0.12317
9.68,0.14019
9.684,0.15337
9.688,0.17173
9.692,0.26766
9.696,0.20118
9.7,0.18428
9.704,0.17307
9.708,0.20938
9.712,0.27097
9.716,0.2809
9.72,0.25826
9.724,0.24704
9.728,0.25753
9.732,0.29439
9.736,0.24005
9.74,0.24479
9.744,0.18606
9.748,0.22601
9.752,0.23582
9.756,0.23749
9.76,0.13157
9.764,0.19483
9.768,0.20339
9.772,0.16938
9.776,0.16021
9.78,0.19128
9.784,0.24541
9.788,0.2014
9.792,0.19393
9.796,0.17021
9.8,0.20256
9.804,0.14323
9.808,0.10189
9.812,0.12027
9.816,0.05188
9.82,0.0924
9.824,0.1138
9.828,0.0616
9.832,0.08137
9.836,0.07932
9.84,0.12418
9.844,0.03195
9.848,0.05052
9.852,-0.03745
9.856,-0.02336
9.86,-0.01073
9.864,0.02493
9.868,0.0213
9.872,0.04775
9.876,0.04451
9.88,-0.08096
9.884,0.05569
9.888,0.11152
9.892,0.08556
9.896,0.06232
9.9,0.07751
9.904,0.07751
9.908,0.02836
9.912,-0.05782
9.916,-0.0055
9.92,-0.08436
9.924,-0.05241
9.928,-0.05502
9.932,-0.05819
9.936,0.18145
9.94,0.2513
9.944,0.38285
9.948,0.74748
9.952,0.92759
9.956,0.9544
9.96,0.95661
9.964,0.84691
9.968,0.68039
9.972,0.46694
9.976,0.21619
9.98,0.05066
9.984,-0.05112
9.988,-0.11624
9.992,-0.1246
9.996,-0.10255
