t_seg,ecg_mV
0.0,0.02133
0.004,-0.01132
0.008,-0.00495
0.012,-0.01421
0.016,0.01558
0.02,-0.00355
0.024,0.01848
0.028,0.01548
0.032,0.01129
0.036,0.02933
0.04,0.04302
0.044,0.00122
0.048,0.00776
0.052,-0.00137
0.056,0.01308
0.06,-0.01395
0.064,0.00561
0.068,-0.01068
0.072,0.01871
0.076,0.00565
0.08,0.00489
0.084,-0.01574
0.088,0.00379
0.092,0.0245
0.096,0.01515
0.1,0.02679
0.104,0.02469
0.108,0.0125
0.112,-0.00339
0.116,-0.00261
0.12,0.02399
0.124,0.00757
0.128,-0.01792
0.132,0.02437
0.136,-0.0009
0.14,-0.00013
0.144,0.01336
0.148,0.02155
0.152,0.01022
0.156,0.01359
0.16,0.03998
0.164,0.0398
0.168,0.02368
0.172,0.06481
0.176,0.03159
0.18,0.04016
0.184,0.03917
0.188,0.04611
0.192,0.12013
0.196,0.13509
0.2,0.10925
0.204,0.11361
0.208,0.11196
0.212,0.11927
0.216,0.08565
0.22,0.08101
0.224,0.09669
0.228,0.05741
0.232,0.07598
0.236,0.05531
0.24,0.0245
0.244,0.03195
0.248,0.02031
0.252,0.04561
0.256,0.00129
0.26,0.0202
0.264,0.02827
0.268,0.01658
0.272,0.04172
0.276,0.02634
0.28,0.04034
0.284,0.01157
0.288,0.00665
0.292,0.0309
0.296,0.01671
0.3,0.03692
0.304,-0.0337
0.308,-0.01632
0.312,0.00469
0.316,0.00404
0.32,-0.00221
0.324,-0.0455
0.328,-0.04829
0.332,-0.08649
0.336,-0.09479
0.34,0.02559
0.344,0.18181
0.348,0.35728
0.352,0.57442
0.356,0.79192
0.36,0.94809
0.364,1.02178
0.368,0.9785
0.372,0.88099
0.376,0.62028
0.38,0.39444
0.384,0.18241
0.388,-0.00377
0.392,-0.10649
0.396,-0.1573
0.4,-0.15932
0.404,-0.09383
0.408,-0.06742
0.412,-0.00252
0.416,-0.00222
0.42,0.01449
0.424,-0.00105
0.428,0.01939
0.432,0.01515
0.436,0.03646
0.44,0.00913
0.444,0.0355
0.448,0.02215
0.452,0.04361
0.456,0.02275
0.46,0.00628
0.464,0.02232
0.468,0.02122
0.472,0.01579
0.476,0.02498
0.48,0.02592
0.484,-0.00564
0.488,0.01616
0.492,0.01685
0.496,-0.00013
0.5,0.00657
0.504,0.02523
0.508,0.01293
0.512,0.03119
0.516,0.03646
0.52,0.03925
0.524,0.04079
0.528,0.00153
0.532,0.02422
0.536,0.01429
0.54,0.0479
0.544,0.01899
0.548,0.01788
0.552,0.06754
0.556,0.04884
0.56,0.05717
0.564,0.09935
0.568,0.07674
0.572,0.09
0.576,0.09196
0.58,0.08602
0.584,0.10164
0.588,0.1252
0.592,0.12431
0.596,0.13978
0.6,0.16035
0.604,0.16936
0.608,0.15467
0.612,0.17102
0.616,0.20083
0.62,0.20034
0.624,0.18916
0.628,0.21147
0.632,0.24457
0.636,0.25122
0.64,0.24158
0.644,0.235
0.648,0.24482
0.652,0.22545
0.656,0.26886
0.66,0.23084
0.664,0.2241
0.668,0.21738
0.672,0.1765
0.676,0.21805
0.68,0.181
0.684,0.15371
0.688,0.13484
0.692,0.13837
0.696,0.15655
0.7,0.13636
0.704,0.10987
0.708,0.10963
0.712,0.09359
0.716,0.1059
0.72,0.07652
0.724,0.05823
0.728,0.05626
0.732,0.0645
0.736,0.06138
0.74,0.0524
0.744,0.04777
0.748,0.02537
0.752,0.02902
0.756,0.01973
0.76,0.06726
0.764,0.02472
0.768,0.00996
0.772,0.01725
0.776,-0.00609
0.78,0.0222
0.784,0.04516
0.788,0.01843
0.792,0.02507
0.796,0.03065
0.8,0.02678
0.804,0.02462
0.808,0.06219
0.812,0.01542
0.816,0.02048
0.82,0.05625
0.824,0.0288
0.828,0.06032
0.832,0.01685
0.836,0.03587
0.84,0.03173
0.844,-0.00264
0.848,0.01501
0.852,0.02235
0.856,0.03212
0.86,0.02209
0.864,0.00968
0.868,0.05136
0.872,0.0218
0.876,0.03306
0.88,0.00451
0.884,0.04239
0.888,0.03017
0.892,0.0197
0.896,0.03222
0.9,0.06345
0.904,0.05145
0.908,0.04704
0.912,0.02629
0.916,0.03843
0.92,0.05091
0.924,0.02994
0.928,0.02306
0.932,0.04041
0.936,0.08262
0.94,0.06366
0.944,0.07378
0.948,0.09061
0.952,0.11028
0.956,0.12446
0.96,0.12883
0.964,0.13398
0.968,0.13328
0.972,0.13616
0.976,0.0889
0.98,0.13109
0.984,0.08751
0.988,0.09684
0.992,0.07014
0.996,0.04627
1.0,0.04189
1.004,0.05797
1.008,0.04966
1.012,0.0225
1.016,0.04581
1.02,0.02016
1.024,0.03142
1.028,0.02666
1.032,0.07351
1.036,0.06709
1.04,0.02226
1.044,0.04247
1.048,0.02769
1.052,0.02995
1.056,0.04833
1.06,0.00551
1.064,0.04384
1.068,0.01295
1.072,0.02886
1.076,-0.01327
1.08,0.01283
1.084,-0.0326
1.088,-0.07699
1.092,-0.08003
1.096,-0.05974
1.1,0.03879
1.104,0.24103
1.108,0.37222
1.112,0.60927
1.116,0.80474
1.12,0.96446
1.124,1.05299
1.128,0.96396
1.132,0.86018
1.136,0.61297
1.14,0.36975
1.144,0.16486
1.148,0.01943
1.152,-0.12403
1.156,-0.11452
1.16,-0.14069
1.164,-0.08561
1.168,-0.06028
1.172,0.01834
1.176,0.00912
1.18,0.01962
1.184,0.04325
1.188,0.00861
1.192,0.03875
1.196,0.03961
1.2,0.01023
1.204,-0.00152
1.208,0.03192
1.212,0.01134
1.216,0.04403
1.22,0.04476
1.224,0.03962
1.228,0.04585
1.232,0.03067
1.236,0.03233
1.24,0.00509
1.244,0.03915
1.248,0.00119
1.252,0.04743
1.256,0.04729
1.26,0.04036
1.264,0.04477
1.268,0.05167
1.272,0.0315
1.276,0.04948
1.28,0.04211
1.284,0.04678
1.288,0.03635
1.292,0.06365
1.296,0.07376
1.3,0.0677
1.304,0.05606
1.308,0.03122
1.312,0.06157
1.316,0.05004
1.32,0.03788
1.324,0.09
1.328,0.11239
1.332,0.09236
1.336,0.10041
1.34,0.08486
1.344,0.09566
1.348,0.10678
1.352,0.14396
1.356,0.14127
1.36,0.16312
1.364,0.16823
1.368,0.19103
1.372,0.1878
1.376,0.22007
1.38,0.24151
1.384,0.2205
1.388,0.23752
1.392,0.25498
1.396,0.2579
1.4,0.25583
1.404,0.23854
1.408,0.23546
1.412,0.24125
1.416,0.24357
1.42,0.2116
1.424,0.24688
1.428,0.21782
1.432,0.20548
1.436,0.1861
1.44,0.1791
1.444,0.17915
1.448,0.17307
1.452,0.15804
1.456,0.11476
1.46,0.12248
1.464,0.13492
1.468,0.10009
1.472,0.10679
1.476,0.08846
1.48,0.08874
1.484,0.06313
1.488,0.06205
1.492,0.10047
1.496,0.05793
1.5,0.0626
1.504,0.04149
1.508,0.03384
1.512,0.02481
1.516,0.03457
1.52,0.05659
1.524,0.01644
1.528,0.06319
1.532,0.01705
1.536,0.01575
1.54,0.04518
1.544,0.02796
1.548,0.03919
1.552,0.03619
1.556,0.0179
1.56,0.01118
1.564,0.03368
1.568,0.03179
1.572,0.01731
1.576,0.00432
1.58,0.04241
1.584,0.0432
1.588,0.02094
1.592,0.04591
1.596,0.01949
1.6,0.036
1.604,0.03545
1.608,0.00341
1.612,0.00728
1.616,0.06327
1.62,0.03706
1.624,0.02054
1.628,0.05004
1.632,0.05313
1.636,0.01637
1.64,0.03267
1.644,0.02719
1.648,0.022
1.652,0.03185
1.656,0.02996
1.66,0.01433
1.664,-0.0057
1.668,0.03122
1.672,0.00939
1.676,0.02461
1.68,0.03719
1.684,0.05043
1.688,0.03576
1.692,0.04271
1.696,0.0442
1.7,0.06703
1.704,0.03282
1.708,0.00712
1.712,0.03313
1.716,0.04609
1.72,0.0283
1.724,0.03293
1.728,0.02703
1.732,0.05881
1.736,0.00115
1.74,0.04032
1.744,0.01387
1.748,0.02367
1.752,0.04134
1.756,0.02297
1.76,0.01411
1.764,0.03438
1.768,0.06696
1.772,0.06189
1.776,0.08132
1.78,0.08137
1.784,0.1015
1.788,0.09282
1.792,0.08112
1.796,0.10714
1.8,0.12585
1.804,0.12387
1.808,0.10712
1.812,0.1371
1.816,0.09277
1.82,0.10365
1.824,0.09064
1.828,0.05586
1.832,0.08116
1.836,0.04999
1.84,0.05391
1.844,0.04583
1.848,0.05757
1.852,0.01749
1.856,0.01169
1.86,0.03875
1.864,0.056
1.868,0.01109
1.872,0.04204
1.876,0.03084
1.88,0.02232
1.884,0.02457
1.888,0.02396
1.892,0.03346
1.896,0.01525
1.9,0.03306
1.904,0.03724
1.908,0.03962
1.912,0.02251
1.916,0.03648
1.92,-0.00512
1.924,-0.04014
1.928,-0.04707
1.932,-0.0796
1.936,-0.1025
1.94,0.02858
1.944,0.16093
1.948,0.34271
1.952,0.54366
1.956,0.7489
1.96,0.9108
1.964,1.01139
1.968,0.99717
1.972,0.84021
1.976,0.67014
1.98,0.41306
1.984,0.21354
1.988,0.0513
1.992,-0.08648
1.996,-0.13523
2.0,-0.13338
2.004,-0.09392
2.008,-0.05815
2.012,-0.01251
2.016,0.0234
2.02,0.04301
2.024,0.01363
2.028,0.01647
2.032,0.01189
2.036,0.0234
2.04,0.07154
2.044,0.01841
2.048,0.00504
2.052,0.01328
2.056,0.01773
2.06,0.00818
2.064,0.01182
2.068,0.06318
2.072,0.04574
2.076,0.01855
2.08,0.01504
2.084,0.02975
2.088,0.03497
2.092,0.02416
2.096,0.04179
2.1,0.02529
2.104,0.03511
2.108,0.01798
2.112,0.02365
2.116,0.02303
2.12,0.03485
2.124,0.01183
2.128,0.0148
2.132,0.04476
2.136,0.02368
2.14,0.06023
2.144,0.01299
2.148,0.06753
2.152,0.05609
2.156,0.07312
2.16,0.04101
2.164,0.0908
2.168,0.07939
2.172,0.08088
2.176,0.07593
2.18,0.11649
2.184,0.08615
2.188,0.11302
2.192,0.1418
2.196,0.15534
2.2,0.12791
2.204,0.158
2.208,0.18148
2.212,0.19568
2.216,0.18253
2.22,0.19534
2.224,0.21746
2.228,0.24273
2.232,0.22754
2.236,0.23948
2.24,0.23779
2.244,0.25456
2.248,0.28561
2.252,0.2403
2.256,0.25372
2.26,0.2244
2.264,0.22348
2.268,0.20915
2.272,0.17188
2.276,0.19273
2.28,0.19837
2.284,0.17445
2.288,0.16836
2.292,0.14373
2.296,0.13686
2.3,0.12529
2.304,0.09135
2.308,0.07018
2.312,0.09314
2.316,0.05779
2.32,0.08225
2.324,0.07906
2.328,0.06678
2.332,0.03604
2.336,0.02695
2.34,0.07038
2.344,0.00835
2.348,0.01878
2.352,0.01588
2.356,0.06019
2.36,0.0307
2.364,0.04278
2.368,-0.00993
2.372,0.01327
2.376,0.03221
2.38,0.0078
2.384,-0.00191
2.388,0.00801
2.392,0.00323
2.396,0.02836
2.4,0.00232
2.404,0.03217
2.408,0.00801
2.412,0.03085
2.416,-0.00881
2.42,0.03388
2.424,0.01134
2.428,0.01867
2.432,0.00779
2.436,0.01967
2.44,0.04575
2.444,0.01631
2.448,0.02665
2.452,0.04461
2.456,0.04775
2.46,0.03961
2.464,0.02958
2.468,0.07168
2.472,0.08008
2.476,0.05069
2.48,0.094
2.484,0.06909
2.488,0.10381
2.492,0.09842
2.496,0.126
2.5,0.13627
2.504,0.07515
2.508,0.10647
2.512,0.09921
2.516,0.06373
2.52,0.06148
2.524,0.05828
2.528,0.05325
2.532,0.01115
2.536,0.02922
2.54,0.01694
2.544,0.01742
2.548,0.00252
2.552,0.02099
2.556,0.02254
2.56,0.00493
2.564,0.02246
2.568,0.00552
2.572,0.02952
2.576,0.01455
2.58,0.00351
2.584,0.01614
2.588,-0.01674
2.592,0.02991
2.596,-0.00287
2.6,-0.00317
2.604,0.04545
2.608,0.00686
2.612,-0.0359
2.616,-0.04685
2.62,-0.08924
2.624,-0.10161
2.628,-0.08417
2.632,-0.01329
2.636,0.13753
2.64,0.32362
2.644,0.53889
2.648,0.74751
2.652,0.91266
2.656,0.99921
2.66,0.98188
2.664,0.84273
2.668,0.64843
2.672,0.38839
2.676,0.19169
2.68,0.00462
2.684,-0.10538
2.688,-0.15583
2.692,-0.1575
2.696,-0.12337
2.7,-0.0882
2.704,-0.05027
2.708,-0.01019
2.712,0.01657
2.716,0.00761
2.72,0.00276
2.724,0.0207
2.728,0.00631
2.732,0.00377
2.736,0.00048
2.74,0.00612
2.744,0.01466
2.748,-0.01117
2.752,-0.0013
2.756,0.00917
2.76,0.00334
2.764,0.01704
2.768,0.00137
2.772,0.00882
2.776,-0.00058
2.78,-0.00528
2.784,0.01882
2.788,0.00662
2.792,0.00375
2.796,0.01244
2.8,0.00573
2.804,0.03103
2.808,0.00875
2.812,0.0205
2.816,-0.00392
2.82,0.02375
2.824,0.01758
2.828,0.03625
2.832,0.04557
2.836,0.02825
2.84,0.02807
2.844,0.00028
2.848,0.04534
2.852,0.02306
2.856,0.03288
2.86,0.0315
2.864,0.04281
2.868,0.06332
2.872,0.07612
2.876,0.10702
2.88,0.11132
2.884,0.08505
2.888,0.0775
2.892,0.1385
2.896,0.17307
2.9,0.16824
2.904,0.16796
2.908,0.17717
2.912,0.18359
2.916,0.19125
2.92,0.19834
2.924,0.19328
2.928,0.21076
2.932,0.22499
2.936,0.21752
2.94,0.20763
2.944,0.20107
2.948,0.19037
2.952,0.24066
2.956,0.22223
2.96,0.19273
2.964,0.18063
2.968,0.17306
2.972,0.19643
2.976,0.15595
2.98,0.14785
2.984,0.13934
2.988,0.10086
2.992,0.09701
2.996,0.11184
3.0,0.08607
3.004,0.08185
3.008,0.08562
3.012,0.06826
3.016,0.04729
3.02,0.05254
3.024,-0.01502
3.028,0.05768
3.032,0.02496
3.036,0.0116
3.04,0.01371
3.044,0.0165
3.048,0.0307
3.052,-0.01026
3.056,0.01012
3.06,0.00242
3.064,0.00968
3.068,0.01313
3.072,0.02097
3.076,-0.01511
3.08,-0.01141
3.084,-0.01247
3.088,-0.00546
3.092,0.0053
3.096,-0.01652
3.1,-0.02338
3.104,-0.009
3.108,0.00688
3.112,0.01787
3.116,-0.01346
3.12,0.01913
3.124,-0.00412
3.128,0.01761
3.132,-0.0006
3.136,0.00153
3.14,-0.00347
3.144,-0.00208
3.148,0.02053
3.152,0.00303
3.156,-0.01226
3.16,-0.01811
3.164,-0.01629
3.168,0.01236
3.172,-0.01816
3.176,0.01556
3.18,-0.01924
3.184,0.03115
3.188,-0.01667
3.192,0.0046
3.196,-0.0088
3.2,0.03685
3.204,0.05108
3.208,0.04481
3.212,0.06857
3.216,0.0916
3.22,0.0858
3.224,0.09722
3.228,0.1002
3.232,0.07828
3.236,0.07571
3.24,0.07984
3.244,0.07967
3.248,0.0564
3.252,0.05693
3.256,0.02517
3.26,0.02009
3.264,0.00936
3.268,-0.01125
3.272,0.00476
3.276,-0.02122
3.28,-0.01583
3.284,0.00984
3.288,0.00916
3.292,0.00551
3.296,-0.00573
3.3,-0.02393
3.304,0.00105
3.308,-0.00062
3.312,0.0039
3.316,0.00958
3.32,-0.00704
3.324,-0.02511
3.328,-0.01393
3.332,0.01
3.336,-0.01309
3.34,-0.02371
3.344,-0.03303
3.348,-0.04271
3.352,-0.09839
3.356,-0.14862
3.36,-0.09838
3.364,-0.04043
3.368,0.10905
3.372,0.27199
3.376,0.52152
3.38,0.7137
3.384,0.90673
3.388,0.97097
3.392,0.94813
3.396,0.8311
3.4,0.64578
3.404,0.41537
3.408,0.17424
3.412,0.03089
3.416,-0.11381
3.42,-0.15435
3.424,-0.18186
3.428,-0.14958
3.432,-0.10962
3.436,-0.0967
3.44,-0.03642
3.444,-0.01563
3.448,-0.02207
3.452,-0.00334
3.456,-0.01337
3.46,-0.01081
3.464,-0.04262
3.468,-0.00961
3.472,-0.02155
3.476,-0.02437
3.48,-0.02508
3.484,0.00085
3.488,-0.01455
3.492,-0.02429
3.496,-0.0258
3.5,-0.00478
3.504,-0.0421
3.508,-0.00707
3.512,-0.02611
3.516,-0.00173
3.52,-0.03679
3.524,-0.02075
3.528,-0.01873
3.532,0.00468
3.536,9e-05
3.54,-0.0079
3.544,-0.00491
3.548,0.01879
3.552,-0.03478
3.556,0.00956
3.56,-0.02376
3.564,0.02045
3.568,0.0073
3.572,0.00799
3.576,0.02845
3.58,0.02948
3.584,0.00389
3.588,0.02199
3.592,0.0397
3.596,0.07176
3.6,0.03552
3.604,0.05909
3.608,0.07308
3.612,0.07365
3.616,0.07082
3.62,0.0948
3.624,0.10776
3.628,0.10301
3.632,0.14724
3.636,0.16153
3.64,0.16887
3.644,0.15645
3.648,0.20002
3.652,0.17882
3.656,0.22249
3.66,0.20434
3.664,0.209
3.668,0.2042
3.672,0.19961
3.676,0.22023
3.68,0.1785
3.684,0.16572
3.688,0.20709
3.692,0.17947
3.696,0.17543
3.7,0.16011
3.704,0.15109
3.708,0.12398
3.712,0.12959
3.716,0.1298
3.72,0.08385
3.724,0.09106
3.728,0.08012
3.732,0.07679
3.736,0.06422
3.74,0.02633
3.744,0.04272
3.748,0.02484
3.752,0.01867
3.756,0.01569
3.76,0.01897
3.764,0.00358
3.768,0.01369
3.772,-0.00835
3.776,-0.01441
3.78,-0.00885
3.784,-0.01238
3.788,-0.00311
3.792,-0.01537
3.796,-0.01212
3.8,-0.00897
3.804,-0.03121
3.808,-0.03388
3.812,-0.01281
3.816,-0.03516
3.82,-0.02226
3.824,-0.02312
3.828,-0.02101
3.832,-0.01245
3.836,-0.02442
3.84,-0.01684
3.844,-0.04726
3.848,-0.03709
3.852,-0.01529
3.856,-0.0174
3.86,-0.02727
3.864,-0.01001
3.868,-0.00593
3.872,-0.01867
3.876,-0.01893
3.88,-0.01111
3.884,-0.02589
3.888,-0.01346
3.892,-0.0164
3.896,-0.0267
3.9,-0.01159
3.904,0.00923
3.908,0.02464
3.912,0.04169
3.916,0.02747
3.92,0.01613
3.924,0.05264
3.928,0.07766
3.932,0.05046
3.936,0.05839
3.94,0.09226
3.944,0.07375
3.948,0.08948
3.952,0.0431
3.956,0.05344
3.96,0.00414
3.964,0.02321
3.968,0.01346
3.972,-0.00312
3.976,0.0226
3.98,-0.00757
3.984,0.01047
3.988,-0.02023
3.992,-0.02597
3.996,-0.03726
4.0,-0.02492
4.004,-0.0017
4.008,-0.03195
4.012,-0.01637
4.016,-0.0293
4.02,-0.00248
4.024,-0.01172
4.028,-0.02115
4.032,-0.02265
4.036,-0.02976
4.04,-0.00525
4.044,-0.01159
4.048,-0.04164
4.052,-0.02924
4.056,-0.10863
4.06,-0.11866
4.064,-0.11255
4.068,-0.13298
4.072,0.00192
4.076,0.09004
4.08,0.31048
4.084,0.49568
4.088,0.70666
4.092,0.91549
4.096,0.96784
4.1,0.94305
4.104,0.79532
4.108,0.585
4.112,0.37118
4.116,0.1608
4.12,-0.04066
4.124,-0.12711
4.128,-0.17524
4.132,-0.19593
4.136,-0.14452
4.14,-0.11074
4.144,-0.06525
4.148,-0.05872
4.152,-0.04193
4.156,-0.03301
4.16,-0.05898
4.164,-0.02114
4.168,-0.0239
4.172,-0.01635
4.176,-0.03306
4.18,-0.02104
4.184,-0.02881
4.188,-0.00622
4.192,-0.03681
4.196,-0.01113
4.2,-0.03882
4.204,-0.02228
4.208,-0.01208
4.212,-0.04608
4.216,-0.03857
4.22,-0.00935
4.224,-0.03539
4.228,-0.03471
4.232,-0.03605
4.236,-0.02605
4.24,-0.03155
4.244,-0.03169
4.248,0.00502
4.252,-0.00374
4.256,-0.03682
4.26,-0.02294
4.264,-0.00973
4.268,-0.01923
4.272,-0.02601
4.276,-0.04149
4.28,-0.0252
4.284,-0.00829
4.288,-0.00371
4.292,0.02489
4.296,0.03587
4.3,0.01663
4.304,0.02549
4.308,0.05911
4.312,0.07901
4.316,0.07257
4.32,0.07507
4.324,0.10192
4.328,0.08003
4.332,0.12748
4.336,0.12729
4.34,0.12432
4.344,0.14212
4.348,0.1475
4.352,0.1825
4.356,0.16209
4.36,0.17808
4.364,0.19568
4.368,0.21363
4.372,0.17818
4.376,0.19455
4.38,0.17689
4.384,0.1786
4.388,0.15297
4.392,0.17697
4.396,0.16992
4.4,0.16793
4.404,0.15295
4.408,0.13688
4.412,0.12285
4.416,0.12236
4.42,0.08312
4.424,0.09916
4.428,0.0976
4.432,0.08047
4.436,0.10136
4.44,0.06661
4.444,0.04012
4.448,0.01079
4.452,0.05399
4.456,0.01072
4.46,0.00704
4.464,0.0223
4.468,-0.02592
4.472,-0.01886
4.476,-0.0329
4.48,-0.00406
4.484,0.01104
4.488,-0.028
4.492,-0.02591
4.496,-0.02442
4.5,-0.03173
4.504,-0.00456
4.508,-0.02371
4.512,-0.01045
4.516,-0.04618
4.52,-0.02112
4.524,-0.02713
4.528,-0.03466
4.532,-0.0203
4.536,-0.05029
4.54,-0.06983
4.544,0.00048
4.548,-0.01884
4.552,-0.04466
4.556,-0.02466
4.56,-0.00954
4.564,0.01469
4.568,0.01935
4.572,0.02852
4.576,0.00874
4.58,0.036
4.584,0.06191
4.588,0.04892
4.592,0.07222
4.596,0.0662
4.6,0.07626
4.604,0.05954
4.608,0.02779
4.612,0.02541
4.616,0.01507
4.62,0.04419
4.624,-0.00123
4.628,0.0061
4.632,-0.01297
4.636,-0.01934
4.64,-0.03099
4.644,-0.01426
4.648,-0.0489
4.652,-0.04945
4.656,-0.03616
4.66,-0.02959
4.664,-0.04583
4.668,-0.03451
4.672,-0.05803
4.676,-0.02129
4.68,-0.03847
4.684,-0.01322
4.688,-0.0184
4.692,-0.0314
4.696,-0.02295
4.7,-0.05563
4.704,-0.01485
4.708,-0.02993
4.712,-0.04441
4.716,-0.08192
4.72,-0.11767
4.724,-0.14116
4.728,-0.1294
4.732,-0.05053
4.736,0.07247
4.74,0.27538
4.744,0.50491
4.748,0.71486
4.752,0.90107
4.756,0.98079
4.76,0.93445
4.764,0.80323
4.768,0.56915
4.772,0.32659
4.776,0.12541
4.78,-0.03779
4.784,-0.14764
4.788,-0.19796
4.792,-0.20283
4.796,-0.15187
4.8,-0.12183
4.804,-0.09094
4.808,-0.05501
4.812,-0.03519
4.816,-0.00952
4.82,0.01091
4.824,-0.03158
4.828,-0.03125
4.832,-0.02517
4.836,-0.03094
4.84,-0.023
4.844,-0.03543
4.848,-0.00073
4.852,-0.02302
4.856,-0.02784
4.86,-0.03902
4.864,-0.02974
4.868,-0.0319
4.872,-0.01173
4.876,-0.0311
4.88,-0.0671
4.884,-0.04372
4.888,-0.0161
4.892,0.01156
4.896,-0.07228
4.9,-0.03957
4.904,-0.03981
4.908,-0.03026
4.912,-0.01928
4.916,-0.03405
4.92,-0.00156
4.924,-0.05055
4.928,-0.04837
4.932,-0.0383
4.936,-0.01311
4.94,-0.00118
4.944,-0.00997
4.948,0.00163
4.952,0.01101
4.956,0.01557
4.96,0.03755
4.964,0.03223
4.968,0.02622
4.972,0.05301
4.976,0.05175
4.98,0.04881
4.984,0.08052
4.988,0.09542
4.992,0.09563
4.996,0.10181
5.0,0.12508
5.004,0.12794
5.008,0.15094
5.012,0.15814
5.016,0.17528
5.02,0.1817
5.024,0.1838
5.028,0.19119
5.032,0.19445
5.036,0.20904
5.04,0.19288
5.044,0.18715
5.048,0.19407
5.052,0.18634
5.056,0.19789
5.06,0.18338
5.064,0.13856
5.068,0.13012
5.072,0.15094
5.076,0.11889
5.08,0.12885
5.084,0.12466
5.088,0.08081
5.092,0.08877
5.096,0.07215
5.1,0.03802
5.104,0.05614
5.108,0.01454
5.112,0.052
5.116,0.02095
5.12,0.00784
5.124,0.02459
5.128,0.00692
5.132,-0.01146
5.136,-0.01807
5.14,-0.01684
5.144,-0.00278
5.148,-0.02035
5.152,0.00424
5.156,-0.02539
5.16,-0.01193
5.164,-0.01703
5.168,-0.00586
5.172,-0.01562
5.176,-0.0163
5.18,0.00162
5.184,-0.01055
5.188,-0.02249
5.192,-0.02933
5.196,-0.03916
5.2,-0.02707
5.204,-0.0522
5.208,-0.03452
5.212,-0.05165
5.216,-0.03517
5.22,-0.0178
5.224,-0.03776
5.228,-0.04269
5.232,0.00153
5.236,-0.03611
5.24,-0.02773
5.244,-0.02733
5.248,-0.0022
5.252,-0.01842
5.256,-0.0229
5.26,0.01174
5.264,0.00838
5.268,0.01328
5.272,0.0343
5.276,0.05753
5.28,0.06271
5.284,0.05674
5.288,0.05051
5.292,0.06269
5.296,0.06589
5.3,0.05553
5.304,0.07346
5.308,0.05937
5.312,0.04457
5.316,0.04859
5.32,0.0127
5.324,-0.01119
5.328,-0.03285
5.332,-0.02057
5.336,-0.00785
5.34,-0.00797
5.344,-0.00789
5.348,-0.00867
5.352,-0.02681
5.356,-0.01783
5.36,-0.03725
5.364,-0.01521
5.368,-0.02524
5.372,-0.02481
5.376,-0.02021
5.38,-0.0139
5.384,-0.0061
5.388,-0.02425
5.392,-0.0269
5.396,-0.03331
5.4,-0.03885
5.404,-0.04166
5.408,-0.06989
5.412,-0.12386
5.416,-0.13001
5.42,-0.10953
5.424,-0.01491
5.428,0.11395
5.432,0.32088
5.436,0.54101
5.44,0.71736
5.444,0.88991
5.448,0.9606
5.452,0.93876
5.456,0.80534
5.46,0.58228
5.464,0.36465
5.468,0.13972
5.472,-0.02929
5.476,-0.1561
5.48,-0.15101
5.484,-0.15381
5.488,-0.12336
5.492,-0.10576
5.496,-0.06015
5.5,-0.04015
5.504,-0.00626
5.508,-0.02298
5.512,0.00283
5.516,-0.00942
5.52,-0.02786
5.524,-0.02063
5.528,-0.05044
5.532,-0.01871
5.536,-0.0286
5.54,0.00122
5.544,-0.00188
5.548,-0.01369
5.552,-0.0076
5.556,-0.02084
5.56,-0.02119
5.564,-0.05584
5.568,-0.02828
5.572,-0.02904
5.576,0.00647
5.58,-0.00786
5.584,0.00141
5.588,-0.01916
5.592,-0.02813
5.596,-0.02891
5.6,-0.01313
5.604,-0.01579
5.608,0.01083
5.612,0.02317
5.616,0.00246
5.62,-0.0114
5.624,-0.00419
5.628,0.02647
5.632,0.00797
5.636,0.00161
5.64,0.00082
5.644,0.02018
5.648,0.02703
5.652,0.02616
5.656,0.03064
5.66,0.04169
5.664,0.05805
5.668,0.07033
5.672,0.05377
5.676,0.08923
5.68,0.11808
5.684,0.13263
5.688,0.12006
5.692,0.13559
5.696,0.14129
5.7,0.15311
5.704,0.19847
5.708,0.22172
5.712,0.18539
5.716,0.21676
5.72,0.19598
5.724,0.21133
5.728,0.18728
5.732,0.17935
5.736,0.1869
5.74,0.18469
5.744,0.18533
5.748,0.19122
5.752,0.21307
5.756,0.15818
5.76,0.14659
5.764,0.15221
5.768,0.12969
5.772,0.12922
5.776,0.11716
5.78,0.12293
5.784,0.10314
5.788,0.09454
5.792,0.07566
5.796,0.07088
5.8,0.04866
5.804,0.04671
5.808,0.03976
5.812,0.03176
5.816,0.04706
5.82,0.02007
5.824,-0.0119
5.828,-0.01859
5.832,0.01333
5.836,0.0251
5.84,0.00236
5.844,0.0056
5.848,0.01027
5.852,-0.0161
5.856,-0.01857
5.86,0.00411
5.864,-0.00232
5.868,-0.01842
5.872,-0.00014
5.876,-0.02271
5.88,-0.00587
5.884,-0.01248
5.888,-0.02713
5.892,0.01291
5.896,-0.04164
5.9,-0.00019
5.904,-0.01195
5.908,0.00603
5.912,0.0101
5.916,-0.0564
5.92,-0.00402
5.924,0.01154
5.928,0.01551
5.932,-0.00759
5.936,-0.02515
5.94,0.02503
5.944,0.01553
5.948,0.05737
5.952,0.07338
5.956,0.03109
5.96,0.07837
5.964,0.07772
5.968,0.08601
5.972,0.1166
5.976,0.07912
5.98,0.09618
5.984,0.03835
5.988,0.05513
5.992,0.0184
5.996,0.02614
6.0,0.03056
6.004,0.02013
6.008,-0.01664
6.012,-0.00475
6.016,-0.02292
6.02,-0.00389
6.024,-0.00911
6.028,0.01128
6.032,0.00608
6.036,-0.0136
6.04,-0.03187
6.044,-0.00509
6.048,0.00427
6.052,-0.00397
6.056,0.01158
6.06,-0.01988
6.064,-0.00167
6.068,-0.0014
6.072,-0.00861
6.076,-0.01228
6.08,0.00297
6.084,-0.01138
6.088,-0.08258
6.092,-0.09961
6.096,-0.13257
6.1,-0.08609
6.104,-0.00305
6.108,0.15184
6.112,0.32026
6.116,0.54058
6.12,0.73484
6.124,0.92275
6.128,0.98049
6.132,0.96394
6.136,0.79762
6.14,0.61565
6.144,0.34622
6.148,0.14048
6.152,-0.01208
6.156,-0.11392
6.16,-0.13545
6.164,-0.16697
6.168,-0.11494
6.172,-0.06303
6.176,-0.05027
6.18,-0.02949
6.184,-0.01325
6.188,-0.00815
6.192,-0.01713
6.196,0.02131
6.2,-0.01997
6.204,-0.02279
6.208,0.00803
6.212,-0.02058
6.216,-0.00356
6.22,0.00752
6.224,-0.01569
6.228,0.0011
6.232,-0.00929
6.236,-0.05375
6.24,-0.01174
6.244,-0.0376
6.248,0.00515
6.252,0.02874
6.256,0.02218
6.26,-0.01411
6.264,0.00671
6.268,-0.01347
6.272,-0.00082
6.276,-0.01284
6.28,-0.00125
6.284,-0.00657
6.288,0.0385
6.292,0.01609
6.296,0.01667
6.3,0.0029
6.304,0.01295
6.308,0.04181
6.312,0.01005
6.316,0.02742
6.32,0.0364
6.324,0.01874
6.328,0.04618
6.332,0.03612
6.336,0.06191
6.34,0.0853
6.344,0.07763
6.348,0.11224
6.352,0.10327
6.356,0.09968
6.36,0.11407
6.364,0.13234
6.368,0.14773
6.372,0.1451
6.376,0.16998
6.38,0.19794
6.384,0.18631
6.388,0.21572
6.392,0.21119
6.396,0.24275
6.4,0.19279
6.404,0.23784
6.408,0.20769
6.412,0.23095
6.416,0.21634
6.42,0.21386
6.424,0.20818
6.428,0.21042
6.432,0.20556
6.436,0.18673
6.44,0.16442
6.444,0.15042
6.448,0.15158
6.452,0.13754
6.456,0.13041
6.46,0.15182
6.464,0.10822
6.468,0.05545
6.472,0.07261
6.476,0.06994
6.48,0.07337
6.484,0.05755
6.488,0.02929
6.492,0.06867
6.496,0.03944
6.5,0.01273
6.504,0.01055
6.508,0.04885
6.512,-0.00097
6.516,0.03621
6.52,0.01992
6.524,0.01628
6.528,0.01802
6.532,0.00123
6.536,0.05036
6.54,0.02191
6.544,0.01867
6.548,0.0136
6.552,-0.0025
6.556,0.0062
6.56,0.0321
6.564,0.0004
6.568,-0.01672
6.572,0.02736
6.576,0.00314
6.58,0.00217
6.584,0.00471
6.588,0.02189
6.592,0.0289
6.596,0.02295
6.6,0.00415
6.604,0.01354
6.608,-0.0065
6.612,0.02884
6.616,0.04403
6.62,0.01346
6.624,0.01781
6.628,0.00447
6.632,0.00533
6.636,-0.00384
6.64,1e-05
6.644,0.01406
6.648,-0.02272
6.652,0.01774
6.656,0.01052
6.66,-0.01039
6.664,0.00254
6.668,0.0002
6.672,0.00137
6.676,-0.01544
6.68,0.02853
6.684,0.0285
6.688,-0.00725
6.692,-0.00703
6.696,0.03088
6.7,0.03077
6.704,0.04534
6.708,0.03285
6.712,0.06793
6.716,0.03981
6.72,0.07212
6.724,0.11468
6.728,0.10299
6.732,0.10486
6.736,0.10905
6.74,0.09151
6.744,0.12375
6.748,0.11099
6.752,0.09166
6.756,0.0925
6.76,0.08193
6.764,0.07071
6.768,0.04162
6.772,0.05505
6.776,0.05162
6.78,0.03069
6.784,-0.00047
6.788,0.01544
6.792,0.01815
6.796,0.01439
6.8,0.01806
6.804,0.00353
6.808,0.00629
6.812,0.00689
6.816,0.02663
6.82,-0.00385
6.824,0.00435
6.828,-0.00867
6.832,0.02915
6.836,0.01928
6.84,0.0227
6.844,-0.0001
6.848,-0.01558
6.852,-0.00131
6.856,-0.02774
6.86,-0.06949
6.864,-0.09942
6.868,-0.13494
6.872,-0.07279
6.876,0.10838
6.88,0.25129
6.884,0.48569
6.888,0.67879
6.892,0.84491
6.896,0.98775
6.9,1.03353
6.904,0.92092
6.908,0.74051
6.912,0.49065
6.916,0.30259
6.92,0.05913
6.924,-0.03455
6.928,-0.13024
6.932,-0.14338
6.936,-0.1456
6.94,-0.09461
6.944,-0.01789
6.948,0.00752
6.952,0.01606
6.956,0.0172
6.96,-0.00624
6.964,0.01639
6.968,0.02295
6.972,0.00633
6.976,0.0394
6.98,0.00457
6.984,0.03621
6.988,0.03414
6.992,0.03265
6.996,0.01995
7.0,0.0199
7.004,0.02022
7.008,0.0467
7.012,0.00087
7.016,0.0082
7.02,0.0148
7.024,0.0278
7.028,0.04052
7.032,0.00851
7.036,0.00809
7.04,0.00736
7.044,0.03034
7.048,0.03269
7.052,0.06023
7.056,0.02854
7.06,-0.00834
7.064,0.03135
7.068,0.00755
7.072,0.01376
7.076,0.04046
7.08,0.05917
7.084,0.07691
7.088,0.02508
7.092,0.06423
7.096,0.05597
7.1,0.05723
7.104,0.08225
7.108,0.10318
7.112,0.12148
7.116,0.11263
7.12,0.10909
7.124,0.12926
7.128,0.12848
7.132,0.16372
7.136,0.16624
7.14,0.16102
7.144,0.17666
7.148,0.21408
7.152,0.19915
7.156,0.24054
7.16,0.22544
7.164,0.22823
7.168,0.22459
7.172,0.24038
7.176,0.24725
7.18,0.1965
7.184,0.20795
7.188,0.25441
7.192,0.21627
7.196,0.238
7.2,0.23585
7.204,0.22536
7.208,0.22435
7.212,0.17599
7.216,0.16171
7.22,0.1852
7.224,0.12927
7.228,0.14666
7.232,0.13146
7.236,0.13397
7.24,0.1112
7.244,0.085
7.248,0.08774
7.252,0.09208
7.256,0.08889
7.26,0.10193
7.264,0.08925
7.268,0.0616
7.272,0.03751
7.276,0.04829
7.28,0.0444
7.284,0.00829
7.288,0.0195
7.292,0.04175
7.296,-0.00397
7.3,0.01959
7.304,0.04003
7.308,0.01087
7.312,0.01631
7.316,0.03824
7.32,0.02289
7.324,0.03795
7.328,0.02411
7.332,0.01748
7.336,0.03377
7.34,0.03192
7.344,0.01798
7.348,0.0026
7.352,0.02653
7.356,0.02007
7.36,0.01926
7.364,0.03131
7.368,0.02732
7.372,0.01707
7.376,0.00653
7.38,0.03802
7.384,0.03346
7.388,0.02055
7.392,0.05379
7.396,0.02438
7.4,0.0006
7.404,0.03055
7.408,-0.00726
7.412,0.03744
7.416,0.00969
7.42,0.02938
7.424,0.0376
7.428,0.05021
7.432,0.03444
7.436,0.0121
7.44,0.0152
7.444,0.01221
7.448,0.05206
7.452,0.02642
7.456,0.01297
7.46,0.04511
7.464,0.03576
7.468,-0.00499
7.472,0.04128
7.476,0.02159
7.48,0.01451
7.484,0.0484
7.488,0.03317
7.492,0.05031
7.496,0.02528
7.5,0.05174
7.504,0.04007
7.508,0.07853
7.512,0.07762
7.516,0.04546
7.52,0.06942
7.524,0.05438
7.528,0.12162
7.532,0.08559
7.536,0.12627
7.54,0.12623
7.544,0.1538
7.548,0.14817
7.552,0.09417
7.556,0.10132
7.56,0.10293
7.564,0.10195
7.568,0.08983
7.572,0.07627
7.576,0.04203
7.58,0.05518
7.584,0.05169
7.588,0.04919
7.592,0.0397
7.596,0.04804
7.6,0.03977
7.604,0.02901
7.608,0.04444
7.612,0.02159
7.616,0.01131
7.62,0.04547
7.624,0.02061
7.628,0.04668
7.632,0.05114
7.636,0.03526
7.64,0.05146
7.644,0.01864
7.648,0.03833
7.652,0.04528
7.656,0.02034
7.66,0.0004
7.664,-0.028
7.668,-0.04585
7.672,-0.09173
7.676,-0.10066
7.68,-0.01218
7.684,0.091
7.688,0.28515
7.692,0.47416
7.696,0.68369
7.7,0.88593
7.704,1.01497
7.708,1.01742
7.712,0.92679
7.716,0.74531
7.72,0.50161
7.724,0.26049
7.728,0.10644
7.732,-0.06806
7.736,-0.10748
7.74,-0.14774
7.744,-0.13584
7.748,-0.10049
7.752,-0.03046
7.756,-0.00561
7.76,-0.01001
7.764,0.04904
7.768,0.02066
7.772,0.00527
7.776,0.02687
7.78,0.02292
7.784,0.02173
7.788,0.02414
7.792,0.01401
7.796,0.02674
7.8,-0.01372
7.804,0.02526
7.808,0.05695
7.812,0.02498
7.816,0.04103
7.82,0.05437
7.824,0.02483
7.828,0.0538
7.832,0.03334
7.836,0.01882
7.84,0.00168
7.844,0.03022
7.848,0.025
7.852,0.03285
7.856,0.05161
7.86,0.05316
7.864,0.02301
7.868,0.05024
7.872,0.03602
7.876,0.04332
7.88,0.05629
7.884,0.03333
7.888,0.04291
7.892,0.04116
7.896,0.0555
7.9,0.07344
7.904,0.07319
7.908,0.08853
7.912,0.07052
7.916,0.07148
7.92,0.11626
7.924,0.11914
7.928,0.13882
7.932,0.13175
7.936,0.14818
7.94,0.15177
7.944,0.17856
7.948,0.17027
7.952,0.20399
7.956,0.22941
7.96,0.20968
7.964,0.20271
7.968,0.23731
7.972,0.25644
7.976,0.26937
7.98,0.23795
7.984,0.22824
7.988,0.26611
7.992,0.23807
7.996,0.24584
8.0,0.23313
8.004,0.22973
8.008,0.2519
8.012,0.19344
8.016,0.21509
8.02,0.19323
8.024,0.14817
8.028,0.18388
8.032,0.14508
8.036,0.16658
8.04,0.11489
8.044,0.1365
8.048,0.11124
8.052,0.10775
8.056,0.08081
8.06,0.09202
8.064,0.10144
8.068,0.07743
8.072,0.07653
8.076,0.05208
8.08,0.05303
8.084,0.03041
8.088,0.05149
8.092,0.04958
8.096,0.03485
8.1,0.04979
8.104,0.04016
8.108,0.06821
8.112,0.02273
8.116,-0.00612
8.12,0.0448
8.124,0.02111
8.128,0.02482
8.132,0.00322
8.136,0.02948
8.14,0.01163
8.144,0.03674
8.148,0.04698
8.152,0.04203
8.156,0.03206
8.16,0.04837
8.164,0.01618
8.168,0.01574
8.172,0.02843
8.176,0.04649
8.18,0.03216
8.184,0.0756
8.188,0.07949
8.192,0.0605
8.196,0.0483
8.2,0.06879
8.204,0.11411
8.208,0.1122
8.212,0.13881
8.216,0.13002
8.22,0.11567
8.224,0.13058
8.228,0.11287
8.232,0.10226
8.236,0.1018
8.24,0.07037
8.244,0.08772
8.248,0.06487
8.252,0.04768
8.256,0.05017
8.26,0.0377
8.264,0.05224
8.268,0.04406
8.272,0.01372
8.276,0.0225
8.28,0.06161
8.284,0.01159
8.288,0.01716
8.292,0.02475
8.296,0.02351
8.3,0.027
8.304,0.02868
8.308,0.02587
8.312,0.02401
8.316,0.03006
8.32,0.03443
8.324,0.03362
8.328,0.02584
8.332,-0.01456
8.336,0.01099
8.34,-0.0106
8.344,-0.06488
8.348,-0.11388
8.352,-0.05117
8.356,0.02368
8.36,0.21303
8.364,0.41823
8.368,0.63685
8.372,0.85525
8.376,0.97729
8.38,1.00761
8.384,0.96547
8.388,0.79383
8.392,0.57122
8.396,0.36098
8.4,0.13706
8.404,0.00827
8.408,-0.08642
8.412,-0.13352
8.416,-0.12491
8.42,-0.08845
8.424,-0.05049
8.428,0.0035
8.432,-0.00747
8.436,0.03099
8.44,0.03075
8.444,0.00494
8.448,0.00391
8.452,0.04286
8.456,0.02694
8.46,0.03535
8.464,-0.0068
8.468,0.0149
8.472,0.02921
8.476,0.02657
8.48,0.01682
8.484,0.03758
8.488,0.03863
8.492,0.03288
8.496,0.01973
8.5,0.04062
8.504,0.03971
8.508,0.01429
8.512,0.03847
8.516,0.03441
8.52,0.04124
8.524,0.0261
8.528,0.02606
8.532,0.00339
8.536,0.0443
8.54,0.03724
8.544,0.05619
8.548,0.01795
8.552,0.03373
8.556,0.0524
8.56,0.06082
8.564,0.04112
8.568,0.04464
8.572,0.07687
8.576,0.07365
8.58,0.09504
8.584,0.08022
8.588,0.07185
8.592,0.08955
8.596,0.09046
8.6,0.0858
8.604,0.12528
8.608,0.13135
8.612,0.1203
8.616,0.1342
8.62,0.15982
8.624,0.18904
8.628,0.22764
8.632,0.19655
8.636,0.24024
8.64,0.2132
8.644,0.2151
8.648,0.23422
8.652,0.24277
8.656,0.26479
8.66,0.24582
8.664,0.23032
8.668,0.24643
8.672,0.22004
8.676,0.22815
8.68,0.22222
8.684,0.19851
8.688,0.18299
8.692,0.20865
8.696,0.19979
8.7,0.22383
8.704,0.17316
8.708,0.16653
8.712,0.16294
8.716,0.1386
8.72,0.12149
8.724,0.10963
8.728,0.07904
8.732,0.05808
8.736,0.07724
8.74,0.07162
8.744,0.05945
8.748,0.06162
8.752,0.05823
8.756,0.03226
8.76,0.05003
8.764,0.04445
8.768,0.04416
8.772,0.01305
8.776,0.0542
8.78,0.05231
8.784,0.0042
8.788,0.0191
8.792,0.04665
8.796,0.02514
8.8,0.03524
8.804,0.04055
8.808,0.04039
8.812,0.01984
8.816,0.03578
8.82,0.00976
8.824,0.02559
8.828,0.01203
8.832,0.02084
8.836,0.03221
8.84,0.02506
8.844,0.01864
8.848,0.05041
8.852,0.00579
8.856,0.00566
8.86,0.02531
8.864,0.01234
8.868,0.01582
8.872,0.01936
8.876,0.00258
8.88,0.01073
8.884,0.02564
8.888,0.00367
8.892,0.00971
8.896,0.01903
8.9,0.00358
8.904,-0.00609
8.908,0.01577
8.912,0.04455
8.916,0.02743
8.92,0.01918
8.924,0.0276
8.928,0.0102
8.932,0.03289
8.936,0.01385
8.94,0.00464
8.944,0.03677
8.948,0.01965
8.952,0.05274
8.956,0.01581
8.96,0.01881
8.964,0.03148
8.968,-0.01429
8.972,0.00768
8.976,0.00597
8.98,0.03798
8.984,0.00363
8.988,0.021
8.992,0.03845
8.996,0.00484
9.0,0.01145
9.004,0.00125
9.008,0.01614
9.012,0.02986
9.016,0.01599
9.02,0.0278
9.024,0.02662
9.028,-0.01195
9.032,0.02028
9.036,0.05073
9.04,0.0158
9.044,0.01544
9.048,0.02696
9.052,0.05559
9.056,0.03449
9.06,0.06069
9.064,0.06382
9.068,0.06036
9.072,0.08729
9.076,0.10323
9.08,0.10677
9.084,0.11468
9.088,0.10955
9.092,0.11655
9.096,0.10359
9.1,0.10489
9.104,0.07775
9.108,0.05752
9.112,0.09621
9.116,0.07308
9.12,0.05192
9.124,0.04708
9.128,0.02782
9.132,0.00856
9.136,0.00073
9.14,0.00658
9.144,0.03137
9.148,-0.00037
9.152,0.0074
9.156,0.0167
9.16,-0.00108
9.164,0.01443
9.168,0.03355
9.172,0.02002
9.176,0.01129
9.18,0.00928
9.184,0.03046
9.188,0.01123
9.192,-0.0184
9.196,-0.01306
9.2,0.0119
9.204,-0.01964
9.208,-0.04651
9.212,-0.0562
9.216,-0.12214
9.22,-0.09048
9.224,0.00795
9.228,0.16398
9.232,0.37558
9.236,0.57015
9.24,0.77264
9.244,0.92345
9.248,1.02588
9.252,0.98702
9.256,0.80181
9.26,0.61897
9.264,0.37916
9.268,0.16179
9.272,-0.01771
9.276,-0.10994
9.28,-0.1482
9.284,-0.15054
9.288,-0.10337
9.292,-0.07515
9.296,-0.0378
9.3,-0.03728
9.304,-0.00109
9.308,0.02945
9.312,0.00689
9.316,0.00358
9.32,-0.01405
9.324,-0.00564
9.328,-0.02396
9.332,0.01253
9.336,0.01861
9.34,0.0274
9.344,-0.00646
9.348,0.0022
9.352,0.012
9.356,-0.01353
9.36,-0.02775
9.364,0.0042
9.368,0.01139
9.372,-0.00085
9.376,0.01257
9.38,0.00132
9.384,0.02043
9.388,0.00079
9.392,-0.00426
9.396,0.00208
9.4,0.03938
9.404,0.00876
9.408,0.00397
9.412,0.01736
9.416,0.00935
9.42,0.02104
9.424,0.03763
9.428,0.03036
9.432,-0.00971
9.436,0.04268
9.44,0.06145
9.444,0.02961
9.448,0.05469
9.452,0.05203
9.456,0.08177
9.46,0.07179
9.464,0.07379
9.468,0.08355
9.472,0.10601
9.476,0.11984
9.48,0.13497
9.484,0.1368
9.488,0.13397
9.492,0.15896
9.496,0.18675
9.5,0.17002
9.504,0.18165
9.508,0.19159
9.512,0.2309
9.516,0.19204
9.52,0.20017
9.524,0.23203
9.528,0.23453
9.532,0.21352
9.536,0.21806
9.54,0.22926
9.544,0.2115
9.548,0.21451
9.552,0.20304
9.556,0.15839
9.56,0.17503
9.564,0.14525
9.568,0.17986
9.572,0.1296
9.576,0.12775
9.58,0.1297
9.584,0.09933
9.588,0.08299
9.592,0.07817
9.596,0.05847
9.6,0.06332
9.604,0.07773
9.608,0.02908
9.612,0.07435
9.616,0.04599
9.62,0.00613
9.624,0.03206
9.628,0.01081
9.632,-0.00074
9.636,0.02631
9.64,0.02528
9.644,0.02937
9.648,-0.01531
9.652,-0.02114
9.656,-0.02078
9.66,0.01711
9.664,-0.00908
9.668,-0.00991
9.672,0.00573
9.676,0.00176
9.68,-0.01115
9.684,-0.01912
9.688,0.00057
9.692,0.00192
9.696,-0.00731
9.7,-0.00585
9.704,0.01368
9.708,0.00527
9.712,-0.01098
9.716,-0.02058
9.72,-0.01085
9.724,0.01159
9.728,0.00967
9.732,0.00199
9.736,-0.00365
9.74,0.01547
9.744,0.0068
9.748,0.00641
9.752,-0.00275
9.756,0.0141
9.76,0.00815
9.764,0.05568
9.768,0.05874
9.772,0.04599
9.776,0.10283
9.78,0.08863
9.784,0.07936
9.788,0.09731
9.792,0.08375
9.796,0.09405
9.8,0.09593
9.804,0.07674
9.808,0.02533
9.812,0.04419
9.816,0.06696
9.82,0.04807
9.824,0.00523
9.828,0.00401
9.832,0.0115
9.836,0.00256
9.84,-0.00679
9.844,-0.01779
9.848,-0.00857
9.852,-0.00297
9.856,-0.00278
9.86,-0.01469
9.864,-0.00845
9.868,-0.02576
9.872,0.00834
9.876,-0.01227
9.88,-0.00526
9.884,-0.00131
9.888,-0.00495
9.892,-0.01237
9.896,-0.03353
9.9,-0.00965
9.904,-0.02159
9.908,-0.04891
9.912,-0.10931
9.916,-0.12472
9.92,-0.11031
9.924,-0.02637
9.928,0.12089
9.932,0.29359
9.936,0.51002
9.94,0.72397
9.944,0.91584
9.948,0.99225
9.952,0.98699
9.956,0.8681
9.96,0.65544
9.964,0.42287
9.968,0.19658
9.972,0.01533
9.976,-0.11334
9.98,-0.14377
9.984,-0.17624
9.988,-0.15337
9.992,-0.09417
9.996,-0.04666
