t_seg,ecg_mV
0.0,0.04449
0.004,0.01807
0.008,-0.02259
0.012,0.03533
0.016,-0.01077
0.02,-0.06515
0.024,-0.1586
0.028,-0.08226
0.032,-0.08883
0.036,-0.04608
0.04,0.13722
0.044,0.25591
0.048,0.41126
0.052,0.45254
0.056,0.45794
0.06,0.48475
0.064,0.46398
0.068,0.35591
0.072,0.23575
0.076,0.05265
0.08,-0.0173
0.084,-0.15991
0.088,-0.16387
0.092,-0.08091
0.096,-0.08557
0.1,-0.11736
0.104,-0.05277
0.108,0.0338
0.112,0.02659
0.116,0.01043
0.12,0.04475
0.124,0.02314
0.128,0.04183
0.132,0.04052
0.136,0.02829
0.14,0.04457
0.144,-0.03605
0.148,0.00868
0.152,-0.02248
0.156,-0.01018
0.16,-0.00563
0.164,0.06402
0.168,-0.00206
0.172,0.00884
0.176,0.075
0.18,0.06352
0.184,0.04704
0.188,0.09414
0.192,0.07469
0.196,0.01248
0.2,0.00098
0.204,0.01195
0.208,-0.00454
0.212,0.00841
0.216,-0.00082
0.22,0.00042
0.224,0.04785
0.228,0.06914
0.232,0.06853
0.236,0.11136
0.24,0.07847
0.244,0.10532
0.248,0.15106
0.252,0.1823
0.256,0.17368
0.26,0.1434
0.264,0.18867
0.268,0.14392
0.272,0.23006
0.276,0.20789
0.28,0.18285
0.284,0.1855
0.288,0.16286
0.292,0.17009
0.296,0.13881
0.3,0.18068
0.304,0.22383
0.308,0.19026
0.312,0.2051
0.316,0.28039
0.32,0.18226
0.324,0.23912
0.328,0.24987
0.332,0.24406
0.336,0.27321
0.34,0.24031
0.344,0.23363
0.348,0.24661
0.352,0.2259
0.356,0.17686
0.36,0.21525
0.364,0.24972
0.368,0.13548
0.372,0.15144
0.376,0.15283
0.38,0.09894
0.384,0.0583
0.388,0.02851
0.392,0.00528
0.396,0.06101
0.4,0.28419
0.404,0.46688
0.408,0.69565
0.412,0.8852
0.416,1.0027
0.42,1.03841
0.424,0.99509
0.428,0.81264
0.432,0.63529
0.436,0.40886
0.44,0.20714
0.444,-0.01293
0.448,-0.12561
0.452,-0.166
0.456,-0.19049
0.46,-0.08064
0.464,-0.03486
0.468,-0.00366
0.472,-0.0456
0.476,-0.00855
0.48,-0.00864
0.484,0.00951
0.488,-0.00529
0.492,0.00706
0.496,0.03816
0.5,0.05554
0.504,0.03439
0.508,-0.0084
0.512,0.02209
0.516,0.07062
0.52,-0.01428
0.524,-0.00068
0.528,0.02585
0.532,0.00868
0.536,-0.0388
0.54,0.05561
0.544,0.01491
0.548,-0.04164
0.552,0.0505
0.556,0.03731
0.56,0.0412
0.564,0.01305
0.568,0.0058
0.572,0.07092
0.576,0.05103
0.58,0.05967
0.584,0.04272
0.588,-0.03198
0.592,-0.03388
0.596,-0.00743
0.6,0.045
0.604,0.0212
0.608,0.08512
0.612,0.05713
0.616,0.0241
0.62,0.07627
0.624,0.08563
0.628,0.12455
0.632,0.01535
0.636,0.08297
0.64,0.05386
0.644,0.13089
0.648,0.07991
0.652,0.1737
0.656,0.17717
0.66,0.14443
0.664,0.15229
0.668,0.1792
0.672,0.1855
0.676,0.22256
0.68,0.18993
0.684,0.14821
0.688,0.16387
0.692,0.19193
0.696,0.24534
0.7,0.23061
0.704,0.20951
0.708,0.24358
0.712,0.24184
0.716,0.23422
0.72,0.24037
0.724,0.13579
0.728,0.21337
0.732,0.13815
0.736,0.23392
0.74,0.17857
0.744,0.20012
0.748,0.12082
0.752,0.16464
0.756,0.06588
0.76,0.11827
0.764,0.11006
0.768,0.07561
0.772,0.12556
0.776,0.07313
0.78,0.06188
0.784,0.00514
0.788,-0.03533
0.792,0.03081
0.796,-0.01913
0.8,0.08784
0.804,0.01717
0.808,0.02049
0.812,0.04253
0.816,-0.03527
0.82,0.01447
0.824,0.03583
0.828,-0.02721
0.832,-0.0168
0.836,0.01074
0.84,-0.00194
0.844,0.0239
0.848,0.03611
0.852,0.0869
0.856,0.05712
0.86,0.06696
0.864,0.09595
0.868,0.00019
0.872,0.00642
0.876,0.0199
0.88,0.0512
0.884,0.12054
0.888,0.07581
0.892,0.06309
0.896,0.11125
0.9,0.11462
0.904,0.11896
0.908,0.13197
0.912,0.13515
0.916,0.04983
0.92,0.08001
0.924,0.1246
0.928,0.08166
0.932,0.04539
0.936,0.03504
0.94,-0.04488
0.944,0.03762
0.948,-0.07293
0.952,0.05019
0.956,-0.04563
0.96,0.0324
0.964,-0.0166
0.968,-0.01728
0.972,0.02969
0.976,-0.03645
0.98,0.02689
0.984,-0.00188
0.988,0.02184
0.992,-0.00522
0.996,-0.03139
1.0,-0.01275
1.004,0.00463
1.008,0.03742
1.012,0.03392
1.016,-0.00215
1.02,-0.06425
1.024,-0.07412
1.028,-0.11663
1.032,-0.12073
1.036,-0.07507
1.04,0.10082
1.044,0.26709
1.048,0.46774
1.052,0.72165
1.056,0.87284
1.06,0.95615
1.064,0.91349
1.068,0.89415
1.072,0.6682
1.076,0.45059
1.08,0.19736
1.084,0.05053
1.088,-0.1004
1.092,-0.10394
1.096,-0.17504
1.1,-0.12261
1.104,-0.11724
1.108,-0.08
1.112,0.01063
1.116,0.03425
1.12,-0.01474
1.124,0.00324
1.128,0.0038
1.132,0.01281
1.136,-0.02646
1.14,0.00307
1.144,-0.02543
1.148,0.02614
1.152,0.00371
1.156,-0.04647
1.16,0.02268
1.164,-0.09096
1.168,0.04297
1.172,-0.02394
1.176,0.00752
1.18,0.05531
1.184,0.02031
1.188,-0.05411
1.192,0.03971
1.196,-0.0173
1.2,0.11415
1.204,0.01813
1.208,-0.04332
1.212,-0.0433
1.216,0.01219
1.22,0.06073
1.224,-0.03541
1.228,-0.0279
1.232,-0.04636
1.236,-0.02038
1.24,0.01539
1.244,0.04203
1.248,-0.01902
1.252,0.05313
1.256,-0.04586
1.26,0.06503
1.264,-0.02747
1.268,0.09108
1.272,0.03393
1.276,0.09505
1.28,0.05411
1.284,0.02886
1.288,0.152
1.292,0.19438
1.296,0.11711
1.3,0.11825
1.304,0.17329
1.308,0.13568
1.312,0.1518
1.316,0.11851
1.32,0.2101
1.324,0.20696
1.328,0.26633
1.332,0.14634
1.336,0.16359
1.34,0.20388
1.344,0.17427
1.348,0.21494
1.352,0.19138
1.356,0.13916
1.36,0.18972
1.364,0.24287
1.368,0.16722
1.372,0.17915
1.376,0.13405
1.38,0.17498
1.384,0.03046
1.388,0.09875
1.392,0.11596
1.396,0.065
1.4,0.08632
1.404,0.06926
1.408,0.04497
1.412,0.06077
1.416,0.02116
1.42,0.05025
1.424,-0.01118
1.428,0.00874
1.432,-0.01603
1.436,0.09024
1.44,0.02515
1.444,0.09241
1.448,0.03923
1.452,-0.09226
1.456,0.01209
1.46,-0.01011
1.464,-0.03068
1.468,0.03677
1.472,0.00062
1.476,-0.00105
1.48,-0.02297
1.484,0.0173
1.488,-0.02693
1.492,-0.03069
1.496,-0.04779
1.5,0.00778
1.504,-0.04426
1.508,-0.01584
1.512,0.00162
1.516,-0.01515
1.52,0.03015
1.524,-0.0194
1.528,0.01942
1.532,0.0163
1.536,0.03436
1.54,0.04574
1.544,-0.04293
1.548,0.06271
1.552,0.02634
1.556,-0.0063
1.56,-0.00749
1.564,-0.04115
1.568,-0.04347
1.572,-0.05085
1.576,-0.00787
1.58,-0.01864
1.584,0.02551
1.588,0.01723
1.592,-0.03038
1.596,-0.01495
1.6,-0.09974
1.604,-0.0446
1.608,0.01534
1.612,-0.00463
1.616,-0.03132
1.62,-0.04863
1.624,-0.05845
1.628,0.02835
1.632,-0.06424
1.636,-0.02708
1.64,-0.01041
1.644,0.01658
1.648,-0.01555
1.652,0.00949
1.656,0.01855
1.66,-0.06925
1.664,-0.01261
1.668,-0.02318
1.672,-0.01591
1.676,-0.04037
1.68,0.01199
1.684,-0.05617
1.688,-0.04701
1.692,-0.00449
1.696,-0.08361
1.7,0.02124
1.704,0.00628
1.708,-0.08051
1.712,0.01228
1.716,-0.02118
1.72,-0.03632
1.724,-0.01623
1.728,-0.01936
1.732,-0.0072
1.736,0.01961
1.74,-0.01928
1.744,-0.02131
1.748,-0.02985
1.752,0.00408
1.756,0.03587
1.76,0.10486
1.764,0.05472
1.768,0.04154
1.772,0.02452
1.776,0.03964
1.78,0.08769
1.784,0.07442
1.788,0.03426
1.792,0.07714
1.796,-0.00756
1.8,0.04776
1.804,-0.02704
1.808,-0.02848
1.812,0.047
1.816,-0.00924
1.82,-0.02641
1.824,0.00808
1.828,-0.02382
1.832,-0.01018
1.836,-0.05177
1.84,-0.06775
1.844,-0.04467
1.848,-0.02824
1.852,-0.0673
1.856,-0.0277
1.86,0.00999
1.864,-0.04319
1.868,-0.02402
1.872,-0.09192
1.876,0.03482
1.88,0.02213
1.884,-0.01256
1.888,-0.02063
1.892,-0.02503
1.896,-0.06877
1.9,-0.06874
1.904,-0.18361
1.908,-0.09403
1.912,-0.11463
1.916,0.0395
1.92,0.22624
1.924,0.48991
1.928,0.61678
1.932,0.81055
1.936,0.9068
1.94,0.96736
1.944,0.89354
1.948,0.7136
1.952,0.44979
1.956,0.28174
1.96,0.02983
1.964,-0.0936
1.968,-0.22723
1.972,-0.14877
1.976,-0.16317
1.98,-0.14819
1.984,-0.01801
1.988,-0.15163
1.992,-0.06771
1.996,0.02426
2.0,-0.04177
2.004,0.0232
2.008,-0.00105
2.012,0.02489
2.016,-0.03655
2.02,-0.04338
2.024,-0.00565
2.028,-0.10629
2.032,-0.06564
2.036,-0.08056
2.04,0.02784
2.044,-0.00242
2.048,-0.07979
2.052,-0.00791
2.056,-0.02017
2.06,0.01214
2.064,-0.03293
2.068,-0.07116
2.072,-0.06258
2.076,-0.02823
2.08,-0.01214
2.084,-0.11873
2.088,-0.01694
2.092,0.07455
2.096,-0.03145
2.1,-0.02253
2.104,-0.05128
2.108,0.00244
2.112,0.00304
2.116,-0.02611
2.12,-0.0076
2.124,0.05744
2.128,-0.00762
2.132,0.01753
2.136,0.05678
2.14,0.03502
2.144,-0.0481
2.148,0.02554
2.152,0.08234
2.156,0.03655
2.16,0.01388
2.164,0.06956
2.168,0.01742
2.172,0.11013
2.176,0.12494
2.18,0.06075
2.184,0.11964
2.188,0.17617
2.192,0.16488
2.196,0.15597
2.2,0.16923
2.204,0.20534
2.208,0.10704
2.212,0.2366
2.216,0.17747
2.22,0.24111
2.224,0.22682
2.228,0.16296
2.232,0.14702
2.236,0.16318
2.24,0.17383
2.244,0.12457
2.248,0.17982
2.252,0.12327
2.256,0.16793
2.26,0.14392
2.264,0.11154
2.268,0.11242
2.272,0.11365
2.276,0.1013
2.28,-0.0342
2.284,0.06451
2.288,-0.00231
2.292,0.05395
2.296,0.07922
2.3,0.05074
2.304,0.06185
2.308,-0.0134
2.312,-0.00273
2.316,0.02559
2.32,-0.01566
2.324,-0.00545
2.328,0.04318
2.332,0.00463
2.336,0.01704
2.34,-0.01929
2.344,-0.01768
2.348,-0.03331
2.352,-0.06173
2.356,0.01329
2.36,-0.03312
2.364,0.006
2.368,-0.04894
2.372,-0.03415
2.376,-0.06302
2.38,-0.00322
2.384,-0.01327
2.388,-0.01938
2.392,-0.05504
2.396,0.02011
2.4,-0.09578
2.404,0.00795
2.408,-0.01745
2.412,-0.05264
2.416,-0.07303
2.42,-0.0274
2.424,0.01836
2.428,-0.07448
2.432,-0.05369
2.436,-0.0059
2.44,-0.02267
2.444,-0.00081
2.448,-0.01289
2.452,0.00037
2.456,-0.01862
2.46,0.02132
2.464,0.00773
2.468,0.01177
2.472,-0.02292
2.476,-0.12099
2.48,-0.02683
2.484,-0.04414
2.488,-0.04184
2.492,-0.0062
2.496,-0.02871
2.5,-0.0404
2.504,-0.07121
2.508,0.03932
2.512,-0.03541
2.516,-0.03092
2.52,-0.02139
2.524,-0.03378
2.528,-0.06665
2.532,-0.05827
2.536,0.00413
2.54,0.03028
2.544,-0.00449
2.548,-0.02211
2.552,-0.00257
2.556,-0.07095
2.56,0.03261
2.564,0.04203
2.568,-0.04063
2.572,-0.04122
2.576,0.01514
2.58,-0.03204
2.584,0.04288
2.588,0.0231
2.592,-0.10226
2.596,-0.03278
2.6,-0.0813
2.604,-0.04136
2.608,-0.0026
2.612,-0.04885
2.616,-0.01747
2.62,-0.02117
2.624,-0.06193
2.628,-0.01959
2.632,-0.02458
2.636,-0.01569
2.64,-0.00439
2.644,-0.0492
2.648,-0.07611
2.652,-0.08477
2.656,-0.00156
2.66,0.00515
2.664,0.0369
2.668,0.01511
2.672,-0.032
2.676,-0.0398
2.68,0.04282
2.684,0.05141
2.688,0.12527
2.692,0.08982
2.696,0.06155
2.7,0.05482
2.704,0.09811
2.708,0.07034
2.712,0.05162
2.716,0.06892
2.72,-0.0435
2.724,0.04185
2.728,0.04337
2.732,-0.07288
2.736,0.03039
2.74,0.03933
2.744,-0.06838
2.748,0.03412
2.752,0.02542
2.756,-0.0441
2.76,-0.06554
2.764,-0.01657
2.768,-0.09162
2.772,0.03746
2.776,-0.01634
2.78,-0.01603
2.784,-0.04147
2.788,-0.03857
2.792,-0.04675
2.796,-0.04983
2.8,0.00466
2.804,0.03512
2.808,-0.04575
2.812,-0.10939
2.816,-0.03091
2.82,-0.1109
2.824,-0.17046
2.828,-0.13528
2.832,-0.1322
2.836,-0.02804
2.84,0.15199
2.844,0.3072
2.848,0.53292
2.852,0.7464
2.856,0.83337
2.86,1.04104
2.864,0.84832
2.868,0.7955
2.872,0.56287
2.876,0.31731
2.88,0.14328
2.884,-0.05701
2.888,-0.13038
2.892,-0.19719
2.896,-0.20976
2.9,-0.11736
2.904,-0.12038
2.908,-0.07611
2.912,-0.00386
2.916,-0.05044
2.92,-0.01218
2.924,-0.07296
2.928,-0.03812
2.932,-0.05623
2.936,-0.00073
2.94,-0.03348
2.944,-0.00639
2.948,-0.0356
2.952,-0.0573
2.956,-0.0386
2.96,-0.04125
2.964,0.0414
2.968,0.01693
2.972,-0.07388
2.976,0.03303
2.98,-0.03782
2.984,0.00392
2.988,-0.00946
2.992,-0.10572
2.996,0.03305
3.0,-0.04313
3.004,0.0431
3.008,0.04827
3.012,-0.04759
3.016,-0.03545
3.02,-0.01105
3.024,-0.03693
3.028,-0.00818
3.032,-0.04064
3.036,-0.00372
3.04,0.00643
3.044,-0.03465
3.048,-0.0168
3.052,0.00656
3.056,0.03795
3.06,0.01721
3.064,-0.02035
3.068,0.07825
3.072,0.00839
3.076,0.09455
3.08,0.04425
3.084,0.04057
3.088,0.09323
3.092,0.15605
3.096,0.12977
3.1,0.15033
3.104,0.11602
3.108,0.17115
3.112,0.17374
3.116,0.16362
3.12,0.17546
3.124,0.19139
3.128,0.1776
3.132,0.23166
3.136,0.15912
3.14,0.1614
3.144,0.24153
3.148,0.18756
3.152,0.17007
3.156,0.19799
3.16,0.1828
3.164,0.1979
3.168,0.13703
3.172,0.13464
3.176,0.1407
3.18,0.12278
3.184,0.07288
3.188,0.11475
3.192,0.06957
3.196,0.04471
3.2,0.06209
3.204,0.03778
3.208,0.05624
3.212,0.0307
3.216,0.00639
3.22,-0.02475
3.224,0.00128
3.228,-0.01806
3.232,-0.02728
3.236,0.06486
3.24,-0.04997
3.244,0.00969
3.248,-0.00643
3.252,-0.00654
3.256,-0.03419
3.26,-0.0357
3.264,-0.04558
3.268,-0.00046
3.272,-0.01615
3.276,-0.00369
3.28,-0.05097
3.284,-0.01994
3.288,-0.03139
3.292,-0.02374
3.296,0.01345
3.3,-0.07883
3.304,-0.04232
3.308,0.00529
3.312,0.02847
3.316,0.03026
3.32,0.0293
3.324,-0.01264
3.328,0.05486
3.332,0.07414
3.336,0.10669
3.34,0.0885
3.344,0.12266
3.348,0.06418
3.352,0.03927
3.356,0.03351
3.36,0.0714
3.364,0.03738
3.368,-0.02017
3.372,-0.05814
3.376,-0.08891
3.38,0.0038
3.384,-0.02297
3.388,0.03346
3.392,-0.10142
3.396,0.01409
3.4,0.01247
3.404,-0.01399
3.408,0.00933
3.412,-0.03604
3.416,-0.01868
3.42,-0.0911
3.424,-0.04561
3.428,-0.09799
3.432,-0.02775
3.436,-0.01492
3.44,-0.00344
3.444,0.03915
3.448,-0.05377
3.452,-0.01125
3.456,-0.08808
3.46,-0.10434
3.464,-0.13249
3.468,-0.13207
3.472,-0.06452
3.476,0.03277
3.48,0.27287
3.484,0.46272
3.488,0.60828
3.492,0.85512
3.496,0.92495
3.5,0.96904
3.504,0.88979
3.508,0.73813
3.512,0.4252
3.516,0.21415
3.52,0.03933
3.524,-0.06262
3.528,-0.18678
3.532,-0.17946
3.536,-0.11018
3.54,-0.16445
3.544,-0.06086
3.548,-0.03371
3.552,0.00758
3.556,-0.08217
3.56,-0.06525
3.564,0.00403
3.568,-0.04932
3.572,-0.06407
3.576,0.01733
3.58,-0.02376
3.584,0.00017
3.588,-0.02818
3.592,-0.00018
3.596,0.05181
3.6,-0.00884
3.604,0.04731
3.608,-0.02631
3.612,0.02872
3.616,-0.05527
3.62,-0.00752
3.624,0.0036
3.628,0.01286
3.632,-0.0261
3.636,-0.02632
3.64,-0.02812
3.644,-0.03304
3.648,-0.03989
3.652,-0.072
3.656,-0.06661
3.66,0.01641
3.664,-0.01652
3.668,-0.04783
3.672,0.0147
3.676,0.00203
3.68,0.00732
3.684,0.00475
3.688,0.02342
3.692,0.08895
3.696,0.07852
3.7,0.0138
3.704,0.04409
3.708,0.04314
3.712,0.02742
3.716,0.07616
3.72,0.03249
3.724,0.13081
3.728,0.05969
3.732,0.12396
3.736,0.07697
3.74,0.15144
3.744,0.09976
3.748,0.16612
3.752,0.13266
3.756,0.14787
3.76,0.19839
3.764,0.12494
3.768,0.18242
3.772,0.2474
3.776,0.23725
3.78,0.19692
3.784,0.23884
3.788,0.2144
3.792,0.23019
3.796,0.17752
3.8,0.20814
3.804,0.13051
3.808,0.16533
3.812,0.18855
3.816,0.14029
3.82,0.12389
3.824,0.0974
3.828,0.19511
3.832,0.05509
3.836,0.05171
3.84,0.06841
3.844,0.09314
3.848,0.02515
3.852,0.07845
3.856,0.04739
3.86,0.01128
3.864,0.02012
3.868,0.00211
3.872,0.0026
3.876,0.00176
3.88,0.02476
3.884,0.04884
3.888,0.05299
3.892,-0.0231
3.896,-0.01137
3.9,-0.00413
3.904,-0.02482
3.908,-0.04842
3.912,-0.04864
3.916,0.04736
3.92,-0.0555
3.924,0.01997
3.928,-0.01372
3.932,0.05638
3.936,-0.07621
3.94,0.01923
3.944,0.042
3.948,0.026
3.952,-0.0051
3.956,-0.04224
3.96,0.00402
3.964,0.05379
3.968,-0.01261
3.972,0.04971
3.976,-0.0045
3.98,0.10114
3.984,0.02803
3.988,0.05309
3.992,0.09798
3.996,0.10677
4.0,0.15158
4.004,0.1009
4.008,0.07082
4.012,0.04735
4.016,0.02656
4.02,0.01059
4.024,0.01812
4.028,0.07957
4.032,0.02623
4.036,-0.00286
4.04,0.08278
4.044,0.02563
4.048,-0.02006
4.052,-0.00869
4.056,-0.03946
4.06,0.00018
4.064,-0.01722
4.068,-0.01004
4.072,0.06829
4.076,0.02175
4.08,-0.06066
4.084,-0.01849
4.088,0.01448
4.092,-0.01337
4.096,0.00695
4.1,-0.02516
4.104,0.02629
4.108,-0.01558
4.112,-0.0372
4.116,-0.03438
4.12,-0.06894
4.124,-0.10291
4.128,-0.13604
4.132,-0.12199
4.136,0.02003
4.14,0.1576
4.144,0.38577
4.148,0.61388
4.152,0.80409
4.156,0.97889
4.16,1.03169
4.164,0.98577
4.168,0.74575
4.172,0.46336
4.176,0.3595
4.18,0.07109
4.184,-0.02623
4.188,-0.17337
4.192,-0.12785
4.196,-0.1721
4.2,-0.14132
4.204,-0.06216
4.208,-0.02086
4.212,-0.02924
4.216,-0.01656
4.22,0.0515
4.224,-0.02046
4.228,-0.0189
4.232,0.02798
4.236,0.03367
4.24,0.01571
4.244,-0.01419
4.248,-0.0145
4.252,0.01602
4.256,-0.02678
4.26,-0.01289
4.264,0.01415
4.268,-0.00141
4.272,-0.01655
4.276,0.01686
4.28,0.0107
4.284,-0.04077
4.288,-0.07783
4.292,-0.06377
4.296,-0.001
4.3,0.07727
4.304,-0.04368
4.308,-0.01299
4.312,-0.00746
4.316,0.05172
4.32,0.05696
4.324,-0.00293
4.328,-0.01188
4.332,0.01511
4.336,0.02399
4.34,0.01099
4.344,0.06011
4.348,0.03586
4.352,0.05927
4.356,0.047
4.36,-0.00584
4.364,0.01392
4.368,0.10754
4.372,-0.02657
4.376,0.02547
4.38,0.04486
4.384,0.13565
4.388,0.15357
4.392,0.13391
4.396,0.16727
4.4,0.15306
4.404,0.15186
4.408,0.1804
4.412,0.18833
4.416,0.27414
4.42,0.18517
4.424,0.14504
4.428,0.29604
4.432,0.19227
4.436,0.20775
4.44,0.17618
4.444,0.19216
4.448,0.2567
4.452,0.20849
4.456,0.20575
4.46,0.21116
4.464,0.17874
4.468,0.11429
4.472,0.17558
4.476,0.16507
4.48,0.14367
4.484,0.11383
4.488,0.09466
4.492,0.13705
4.496,0.10571
4.5,0.06095
4.504,0.12859
4.508,0.0223
4.512,-0.00481
4.516,0.06127
4.52,0.00621
4.524,0.03482
4.528,0.05581
4.532,0.06371
4.536,-0.01821
4.54,0.02346
4.544,-0.01823
4.548,0.00025
4.552,-0.01222
4.556,-0.04397
4.56,0.05398
4.564,0.02358
4.568,-0.01558
4.572,0.00246
4.576,-0.01902
4.58,0.04028
4.584,-0.06222
4.588,0.0463
4.592,0.03288
4.596,0.08207
4.6,-0.02764
4.604,-0.00843
4.608,0.00919
4.612,0.0201
4.616,0.07071
4.62,0.09303
4.624,-0.00915
4.628,0.04668
4.632,0.01593
4.636,0.00329
4.64,0.01602
4.644,-0.00375
4.648,0.078
4.652,0.04147
4.656,0.07298
4.66,0.0958
4.664,0.06039
4.668,0.14637
4.672,0.08481
4.676,0.07433
4.68,0.20009
4.684,0.08101
4.688,0.07139
4.692,0.05995
4.696,0.04163
4.7,0.04454
4.704,0.05961
4.708,0.0624
4.712,0.06345
4.716,-0.02648
4.72,-0.0062
4.724,0.02565
4.728,0.02827
4.732,0.0135
4.736,-0.02167
4.74,0.01573
4.744,0.04154
4.748,-0.01344
4.752,0.06106
4.756,-0.05213
4.76,-0.00995
4.764,-0.0637
4.768,0.00374
4.772,0.02178
4.776,-0.07801
4.78,0.02905
4.784,0.02438
4.788,0.02071
4.792,-0.03491
4.796,-0.06287
4.8,-0.11351
4.804,-0.12321
4.808,-0.01002
4.812,0.10676
4.816,0.23212
4.82,0.4082
4.824,0.59201
4.828,0.88942
4.832,0.99013
4.836,0.92186
4.84,0.95241
4.844,0.73438
4.848,0.50859
4.852,0.27275
4.856,0.09453
4.86,-0.07519
4.864,-0.10036
4.868,-0.18965
4.872,-0.1467
4.876,-0.04549
4.88,-0.01991
4.884,-0.02614
4.888,0.02481
4.892,-0.02253
4.896,0.01839
4.9,0.0219
4.904,-0.03669
4.908,0.05075
4.912,0.00934
4.916,0.01532
4.92,-0.00748
4.924,-0.00749
4.928,-0.00768
4.932,-0.00336
4.936,-0.00835
4.94,0.02891
4.944,0.05188
4.948,0.02495
4.952,-0.03846
4.956,0.0256
4.96,0.01332
4.964,-0.00117
4.968,-0.0039
4.972,-0.03335
4.976,-0.01824
4.98,0.00187
4.984,0.02576
4.988,0.06853
4.992,0.01142
4.996,0.0213
5.0,-0.00027
5.004,0.05853
5.008,0.05561
5.012,0.01595
5.016,0.04796
5.02,0.02842
5.024,0.02509
5.028,0.0216
5.032,0.04395
5.036,0.08685
5.04,0.09327
5.044,0.05374
5.048,0.15315
5.052,0.10327
5.056,0.05957
5.06,0.08304
5.064,0.07054
5.068,0.15392
5.072,0.14307
5.076,0.17836
5.08,0.18595
5.084,0.18446
5.088,0.21969
5.092,0.17549
5.096,0.23577
5.1,0.19957
5.104,0.27992
5.108,0.28962
5.112,0.20909
5.116,0.24625
5.12,0.19615
5.124,0.28466
5.128,0.14128
5.132,0.16438
5.136,0.14128
5.14,0.24111
5.144,0.21183
5.148,0.20266
5.152,0.19375
5.156,0.16249
5.16,0.14282
5.164,0.19969
5.168,0.13247
5.172,0.20329
5.176,0.07807
5.18,0.15714
5.184,0.12526
5.188,0.11624
5.192,0.15476
5.196,0.1321
5.2,0.16343
5.204,0.10059
5.208,0.10091
5.212,0.13413
5.216,0.16357
5.22,0.12008
5.224,0.07348
5.228,0.14543
5.232,0.10129
5.236,0.06755
5.24,0.05533
5.244,0.03356
5.248,0.04073
5.252,0.0171
5.256,0.01696
5.26,0.02409
5.264,0.11087
5.268,0.01468
5.272,0.08607
5.276,-0.00632
5.28,0.00494
5.284,0.09745
5.288,0.01098
5.292,0.07511
5.296,0.02881
5.3,-0.02752
5.304,0.08471
5.308,0.04314
5.312,0.06102
5.316,0.02445
5.32,0.05325
5.324,0.02266
5.328,-0.03935
5.332,-0.05062
5.336,-0.09518
5.34,-0.08817
5.344,0.05104
5.348,0.25812
5.352,0.26511
5.356,0.54484
5.36,0.7723
5.364,0.97599
5.368,1.01933
5.372,0.97289
5.376,0.8377
5.38,0.63222
5.384,0.50285
5.388,0.15867
5.392,0.03463
5.396,-0.0793
5.4,-0.14044
5.404,-0.13718
5.408,-0.10704
5.412,-0.09335
5.416,-0.00056
5.42,0.00354
5.424,0.02106
5.428,-0.00335
5.432,0.06932
5.436,0.00721
5.44,0.06581
5.444,0.01703
5.448,0.05078
5.452,0.04633
5.456,0.02122
5.46,-0.04557
5.464,-0.00364
5.468,0.05891
5.472,0.01225
5.476,0.12977
5.48,0.10691
5.484,0.08513
5.488,0.19842
5.492,0.11317
5.496,0.13086
5.5,0.11308
5.504,0.15089
5.508,0.11743
5.512,0.10305
5.516,0.06879
5.52,0.07676
5.524,0.0741
5.528,0.05313
5.532,0.02609
5.536,0.1179
5.54,0.05388
5.544,0.12645
5.548,0.07547
5.552,0.03558
5.556,0.12369
5.56,0.07148
5.564,0.09602
5.568,0.0614
5.572,-0.00634
5.576,0.07971
5.58,0.06687
5.584,0.14178
5.588,0.06422
5.592,0.14536
5.596,0.11534
5.6,0.20496
5.604,0.12831
5.608,0.15956
5.612,0.15679
5.616,0.115
5.62,0.14133
5.624,0.10077
5.628,0.08259
5.632,0.17629
5.636,0.32467
5.64,0.44927
5.644,0.66367
5.648,0.92211
5.652,1.09656
5.656,1.21061
5.66,1.25115
5.664,1.13248
5.668,0.97589
5.672,0.72175
5.676,0.49757
5.68,0.29294
5.684,0.15827
5.688,0.03542
5.692,0.04737
5.696,-0.0262
5.7,0.07277
5.704,0.0053
5.708,0.07852
5.712,0.08799
5.716,0.05466
5.72,0.05724
5.724,0.07341
5.728,0.12118
5.732,0.21089
5.736,0.07894
5.74,0.0176
5.744,0.02841
5.748,0.02872
5.752,0.01558
5.756,-0.02648
5.76,-0.03502
5.764,0.02305
5.768,0.05144
5.772,0.01307
5.776,0.02042
5.78,0.03548
5.784,0.04355
5.788,-0.01289
5.792,0.08173
5.796,0.08881
5.8,0.01922
5.804,-0.03062
5.808,0.02577
5.812,0.02772
5.816,0.0839
5.82,0.03494
5.824,0.04196
5.828,0.03576
5.832,0.03608
5.836,-0.02572
5.84,0.08602
5.844,0.00851
5.848,0.09017
5.852,0.0681
5.856,0.03631
5.86,0.05664
5.864,0.0207
5.868,0.06469
5.872,0.09133
5.876,0.05193
5.88,0.17448
5.884,0.10971
5.888,0.13276
5.892,0.14404
5.896,0.15381
5.9,0.16661
5.904,0.21704
5.908,0.20837
5.912,0.24036
5.916,0.1292
5.92,0.20018
5.924,0.28523
5.928,0.27895
5.932,0.28056
5.936,0.30446
5.94,0.26347
5.944,0.20926
5.948,0.20689
5.952,0.2104
5.956,0.30758
5.96,0.25786
5.964,0.24039
5.968,0.2257
5.972,0.17443
5.976,0.15976
5.98,0.16272
5.984,0.16683
5.988,0.12065
5.992,0.18305
5.996,0.10131
6.0,0.17221
6.004,0.11854
6.008,0.06971
6.012,0.09658
6.016,0.07964
6.02,0.18665
6.024,0.10383
6.028,0.0132
6.032,0.07392
6.036,0.108
6.04,0.05555
6.044,0.08691
6.048,0.14583
6.052,0.06978
6.056,0.07788
6.06,0.08742
6.064,0.0291
6.068,0.07705
6.072,-0.0045
6.076,0.09507
6.08,0.00766
6.084,-0.00974
6.088,0.01181
6.092,-0.00476
6.096,0.04906
6.1,0.1048
6.104,0.00445
6.108,0.06489
6.112,0.00037
6.116,0.03311
6.12,0.06145
6.124,0.03446
6.128,0.08621
6.132,0.08114
6.136,0.03355
6.14,0.04938
6.144,0.10363
6.148,-0.03724
6.152,0.04231
6.156,0.03595
6.16,0.07474
6.164,0.0592
6.168,0.00829
6.172,0.0086
6.176,0.01981
6.18,0.0669
6.184,0.03493
6.188,0.02833
6.192,0.01167
6.196,0.00996
6.2,0.02345
6.204,0.02384
6.208,0.00075
6.212,-0.00525
6.216,0.02704
6.22,0.03933
6.224,0.00999
6.228,0.06539
6.232,0.01602
6.236,0.05441
6.24,0.02287
6.244,0.03834
6.248,0.00625
6.252,0.05882
6.256,0.00517
6.26,-0.05893
6.264,0.02033
6.268,0.0764
6.272,0.04167
6.276,0.00802
6.28,0.02926
6.284,-0.01729
6.288,0.06638
6.292,0.04769
6.296,0.0724
6.3,0.05433
6.304,0.12419
6.308,0.10324
6.312,0.12263
6.316,0.12769
6.32,0.1312
6.324,0.15359
6.328,0.10738
6.332,0.04743
6.336,0.06034
6.34,0.06064
6.344,0.10036
6.348,0.02844
6.352,0.02703
6.356,0.07248
6.36,0.06881
6.364,0.06806
6.368,0.0199
6.372,0.0287
6.376,0.03867
6.38,0.01094
6.384,0.02063
6.388,0.03091
6.392,0.05354
6.396,-0.01403
6.4,0.07875
6.404,0.02553
6.408,0.03949
6.412,0.05887
6.416,-0.03278
6.42,0.03201
6.424,-0.01284
6.428,-0.00047
6.432,-0.05184
6.436,-0.03124
6.44,-0.03768
6.444,-0.08868
6.448,-0.0955
6.452,-0.00938
6.456,0.13762
6.46,0.3068
6.464,0.53743
6.468,0.80947
6.472,0.90242
6.476,0.97027
6.48,1.02819
6.484,0.87532
6.488,0.65705
6.492,0.44436
6.496,0.24625
6.5,0.08938
6.504,-0.05173
6.508,-0.09312
6.512,-0.08686
6.516,-0.09041
6.52,-0.0924
6.524,0.00817
6.528,0.03548
6.532,0.00491
6.536,0.03424
6.54,0.05051
6.544,0.02207
6.548,0.04433
6.552,0.0309
6.556,0.0214
6.56,0.08442
6.564,0.01031
6.568,0.0662
6.572,-0.00492
6.576,0.10901
6.58,0.02777
6.584,0.03703
6.588,-0.01177
6.592,-0.02882
6.596,0.02444
6.6,-0.02253
6.604,0.04708
6.608,-0.02432
6.612,0.05666
6.616,0.05424
6.62,0.0045
6.624,0.01748
6.628,0.01119
6.632,0.05365
6.636,0.05858
6.64,0.05359
6.644,0.03282
6.648,0.05471
6.652,0.03979
6.656,0.01734
6.66,0.00832
6.664,0.12775
6.668,0.02964
6.672,0.11622
6.676,0.09676
6.68,0.07448
6.684,0.03763
6.688,0.09519
6.692,0.07921
6.696,0.11553
6.7,0.12992
6.704,0.08798
6.708,0.15155
6.712,0.14067
6.716,0.14194
6.72,0.25641
6.724,0.16077
6.728,0.18866
6.732,0.16793
6.736,0.20141
6.74,0.2563
6.744,0.15204
6.748,0.28872
6.752,0.19777
6.756,0.24478
6.76,0.25305
6.764,0.22522
6.768,0.28509
6.772,0.22219
6.776,0.25712
6.78,0.24377
6.784,0.2275
6.788,0.18623
6.792,0.22138
6.796,0.23128
6.8,0.18836
6.804,0.1429
6.808,0.13591
6.812,0.10324
6.816,0.11907
6.82,0.07136
6.824,0.1259
6.828,0.12941
6.832,0.0824
6.836,0.11083
6.84,0.11391
6.844,0.14945
6.848,0.1456
6.852,0.08904
6.856,0.16576
6.86,0.14766
6.864,0.08355
6.868,0.1289
6.872,0.14428
6.876,0.08619
6.88,0.11127
6.884,0.14637
6.888,0.12664
6.892,0.09804
6.896,0.06733
6.9,0.0929
6.904,0.03763
6.908,0.06621
6.912,0.04991
6.916,0.0873
6.92,0.03432
6.924,0.01504
6.928,-0.00449
6.932,-0.0139
6.936,-0.03663
6.94,0.03885
6.944,0.03673
6.948,0.07216
6.952,-0.01731
6.956,0.02903
6.96,0.01467
6.964,0.03298
6.968,0.09256
6.972,0.09969
6.976,-0.07473
6.98,0.02104
6.984,0.10383
6.988,-0.00802
6.992,0.01241
6.996,-0.07946
7.0,-0.1217
7.004,-0.08934
7.008,-0.02461
7.012,0.02518
7.016,0.25076
7.02,0.51695
7.024,0.65205
7.028,0.87999
7.032,0.99659
7.036,1.03285
7.04,0.88963
7.044,0.72622
7.048,0.51076
7.052,0.29505
7.056,0.05276
7.06,-0.03957
7.064,-0.10845
7.068,-0.15137
7.072,-0.15815
7.076,-0.0353
7.08,-0.02923
7.084,0.01928
7.088,-0.02349
7.092,0.00223
7.096,-0.03868
7.1,0.02299
7.104,0.03978
7.108,0.03044
7.112,0.04484
7.116,0.04058
7.12,0.01707
7.124,0.06324
7.128,-0.02364
7.132,0.01936
7.136,-0.01784
7.14,-0.02051
7.144,-0.01896
7.148,-0.02773
7.152,-0.00708
7.156,-0.01678
7.16,0.03457
7.164,0.00536
7.168,-0.01534
7.172,0.00447
7.176,0.00827
7.18,0.02067
7.184,0.06446
7.188,0.10572
7.192,0.03103
7.196,-0.01538
7.2,0.00925
7.204,0.02406
7.208,0.09057
7.212,0.07842
7.216,0.0022
7.22,0.02594
7.224,0.01977
7.228,0.03759
7.232,0.06135
7.236,0.06248
7.24,0.13232
7.244,0.09323
7.248,-0.00565
7.252,0.09038
7.256,0.08477
7.26,0.13114
7.264,0.14781
7.268,0.12844
7.272,0.12248
7.276,0.15132
7.28,0.19629
7.284,0.16363
7.288,0.21172
7.292,0.20435
7.296,0.18524
7.3,0.205
7.304,0.16223
7.308,0.17493
7.312,0.26829
7.316,0.26266
7.32,0.23782
7.324,0.21317
7.328,0.22744
7.332,0.25829
7.336,0.20646
7.34,0.2128
7.344,0.17626
7.348,0.16773
7.352,0.16924
7.356,0.15068
7.36,0.14566
7.364,0.12211
7.368,0.18648
7.372,0.11027
7.376,0.08763
7.38,0.08535
7.384,0.0697
7.388,0.03585
7.392,0.03133
7.396,0.11825
7.4,0.05751
7.404,-0.02166
7.408,0.00963
7.412,0.01467
7.416,-0.01481
7.42,-0.00737
7.424,0.0185
7.428,0.01919
7.432,0.09491
7.436,0.06669
7.44,0.0266
7.444,0.08744
7.448,0.10668
7.452,0.13409
7.456,0.11998
7.46,0.06433
7.464,0.11923
7.468,0.15534
7.472,0.0308
7.476,0.08918
7.48,0.03648
7.484,0.12579
7.488,0.11494
7.492,0.04718
7.496,0.07395
7.5,0.00916
7.504,0.0454
7.508,0.04697
7.512,0.01362
7.516,-0.03228
7.52,0.02428
7.524,0.04673
7.528,0.02015
7.532,0.02139
7.536,0.02225
7.54,0.06056
7.544,-0.04313
7.548,-0.00826
7.552,-0.0065
7.556,-0.02989
7.56,-0.02219
7.564,-0.03294
7.568,0.00179
7.572,-0.02051
7.576,-0.01774
7.58,-0.07115
7.584,-0.00359
7.588,-0.02771
7.592,-0.08746
7.596,-0.10207
7.6,-0.07489
7.604,0.00259
7.608,0.09813
7.612,0.2936
7.616,0.46054
7.62,0.78451
7.624,0.88046
7.628,1.01565
7.632,0.94875
7.636,0.83362
7.64,0.64218
7.644,0.40525
7.648,0.17659
7.652,-0.01796
7.656,-0.12966
7.66,-0.1529
7.664,-0.12706
7.668,-0.14692
7.672,-0.0879
7.676,-0.05001
7.68,-0.06059
7.684,-0.01668
7.688,-0.00824
7.692,0.01905
7.696,-0.01372
7.7,0.07077
7.704,-0.00289
7.708,-0.06315
7.712,-0.08749
7.716,0.04671
7.72,0.00851
7.724,0.0389
7.728,-0.00858
7.732,0.05374
7.736,0.04611
7.74,0.00442
7.744,-0.05352
7.748,-0.01814
7.752,0.04583
7.756,-0.03587
7.76,0.03751
7.764,-0.04002
7.768,0.01521
7.772,-0.01012
7.776,0.0238
7.78,-0.04514
7.784,-0.0021
7.788,0.01469
7.792,-0.02517
7.796,0.00679
7.8,0.01853
7.804,0.01531
7.808,-0.01335
7.812,-0.01303
7.816,0.04344
7.82,0.00964
7.824,0.05841
7.828,0.08363
7.832,-0.0076
7.836,0.08769
7.84,0.07169
7.844,0.09057
7.848,0.0372
7.852,0.10746
7.856,0.07729
7.86,0.03328
7.864,0.13676
7.868,0.18963
7.872,0.20185
7.876,0.13232
7.88,0.1709
7.884,0.14492
7.888,0.23843
7.892,0.16929
7.896,0.19226
7.9,0.1974
7.904,0.24745
7.908,0.25549
7.912,0.23618
7.916,0.15297
7.92,0.18905
7.924,0.2944
7.928,0.25855
7.932,0.14172
7.936,0.23991
7.94,0.20047
7.944,0.12352
7.948,0.11326
7.952,0.15466
7.956,0.11146
7.96,0.16123
7.964,0.04173
7.968,0.06923
7.972,0.03071
7.976,0.06863
7.98,0.09193
7.984,0.09231
7.988,0.04249
7.992,0.02362
7.996,0.02556
8.0,0.04433
8.004,-0.04453
8.008,-0.03076
8.012,0.04217
8.016,0.0103
8.02,-0.0609
8.024,-0.00746
8.028,0.05082
8.032,0.02458
8.036,0.07423
8.04,-0.02042
8.044,0.0384
8.048,-0.01836
8.052,0.00473
8.056,-0.0724
8.06,-0.00079
8.064,-0.03726
8.068,-0.07604
8.072,0.00622
8.076,-0.03786
8.08,-0.01908
8.084,0.01431
8.088,0.05582
8.092,-0.03427
8.096,-0.02469
8.1,0.01508
8.104,-0.02081
8.108,-0.01415
8.112,0.01821
8.116,0.06447
8.12,-0.00242
8.124,0.0069
8.128,-0.02992
8.132,-0.07422
8.136,0.03858
8.14,0.01441
8.144,0.00728
8.148,-0.0128
8.152,0.04557
8.156,0.04552
8.16,-0.03166
8.164,-0.00887
8.168,0.04267
8.172,0.04202
8.176,-0.02902
8.18,-0.09032
8.184,-0.01643
8.188,0.00792
8.192,0.02243
8.196,-0.01672
8.2,-0.08895
8.204,-0.04487
8.208,-0.11822
8.212,-0.00745
8.216,0.07223
8.22,-0.0212
8.224,0.01989
8.228,-0.00534
8.232,0.05143
8.236,0.00313
8.24,0.03811
8.244,0.00966
8.248,-0.07415
8.252,-0.07137
8.256,-0.02707
8.26,-0.02107
8.264,-0.03216
8.268,0.01421
8.272,-0.05105
8.276,-0.0249
8.28,8e-05
8.284,-0.00582
8.288,-0.05602
8.292,0.00507
8.296,0.00057
8.3,-0.00759
8.304,-0.02156
8.308,-0.01507
8.312,-0.02986
8.316,-0.01059
8.32,-0.02865
8.324,-0.09618
8.328,-0.01136
8.332,-0.08697
8.336,-0.02635
8.34,-0.00693
8.344,3e-05
8.348,0.03085
8.352,0.02681
8.356,0.01165
8.36,-0.0267
8.364,0.06686
8.368,-0.04864
8.372,0.01992
8.376,-0.01407
8.38,0.02686
8.384,-0.01039
8.388,-0.00514
8.392,0.03371
8.396,-0.0156
8.4,0.01138
8.404,0.02105
8.408,0.0442
8.412,0.0095
8.416,0.04303
8.42,0.06763
8.424,0.10935
8.428,-0.00421
8.432,0.0735
8.436,0.07916
8.44,0.0895
8.444,0.03351
8.448,0.08459
8.452,0.08131
8.456,0.06371
8.46,0.08683
8.464,0.05061
8.468,-0.0282
8.472,0.05562
8.476,0.02262
8.48,0.01755
8.484,0.00487
8.488,-0.02547
8.492,-0.05508
8.496,-0.06788
8.5,-0.06657
8.504,-0.0265
8.508,0.03942
8.512,-0.04025
8.516,-0.00685
8.52,-0.02544
8.524,-0.05068
8.528,-0.00946
8.532,-0.0509
8.536,-0.00894
8.54,0.01833
8.544,0.00839
8.548,-0.04554
8.552,-0.07982
8.556,-0.03492
8.56,-0.05226
8.564,-0.10175
8.568,-0.17367
8.572,-0.07192
8.576,-0.05861
8.58,0.07666
8.584,0.29842
8.588,0.4918
8.592,0.72251
8.596,0.85687
8.6,0.95839
8.604,0.93744
8.608,0.78355
8.612,0.56414
8.616,0.38757
8.62,0.16249
8.624,-0.00711
8.628,-0.17031
8.632,-0.16223
8.636,-0.1808
8.64,-0.15791
8.644,-0.11012
8.648,-0.06357
8.652,-0.04738
8.656,-0.08891
8.66,-0.01186
8.664,-0.00294
8.668,-0.02499
8.672,-0.04796
8.676,-0.07284
8.68,-0.03628
8.684,-0.03107
8.688,-0.01785
8.692,0.0608
8.696,-0.02289
8.7,0.00178
8.704,-0.0176
8.708,0.03614
8.712,-0.02096
8.716,-0.04856
8.72,0.03452
8.724,-0.11048
8.728,-0.05299
8.732,-0.0799
8.736,0.00657
8.74,-0.0472
8.744,-0.03405
8.748,-0.0441
8.752,-0.04348
8.756,-0.024
8.76,0.04364
8.764,-0.07008
8.768,0.01982
8.772,-0.0029
8.776,-0.07936
8.78,0.01299
8.784,-0.04271
8.788,0.05313
8.792,0.03845
8.796,-0.07155
8.8,0.02703
8.804,-0.01122
8.808,0.02342
8.812,0.01722
8.816,0.05007
8.82,0.0869
8.824,0.0772
8.828,0.07625
8.832,0.14696
8.836,0.11683
8.84,0.16398
8.844,0.13135
8.848,0.1074
8.852,0.20257
8.856,0.19161
8.86,0.13408
8.864,0.17978
8.868,0.16743
8.872,0.10503
8.876,0.1828
8.88,0.16212
8.884,0.15932
8.888,0.23317
8.892,0.25911
8.896,0.14044
8.9,0.22021
8.904,0.11796
8.908,0.20919
8.912,0.14524
8.916,0.14135
8.92,0.1025
8.924,0.04529
8.928,0.12576
8.932,0.04154
8.936,0.08573
8.94,0.10403
8.944,0.0628
8.948,0.00987
8.952,0.00931
8.956,-0.00741
8.96,0.04703
8.964,0.01901
8.968,0.05717
8.972,-0.00545
8.976,0.03809
8.98,0.0086
8.984,-0.02527
8.988,-0.00159
8.992,-0.03305
8.996,-0.0218
9.0,-0.04459
9.004,-0.00341
9.008,0.03837
9.012,-0.04809
9.016,-0.03579
9.02,0.00329
9.024,-0.07109
9.028,-0.06494
9.032,0.01353
9.036,-0.07878
9.04,-0.03185
9.044,-0.09284
9.048,-0.04571
9.052,0.00163
9.056,-0.00199
9.06,0.00043
9.064,-0.02905
9.068,0.00944
9.072,-0.01509
9.076,0.05154
9.08,0.03337
9.084,0.02717
9.088,0.06351
9.092,-0.0151
9.096,0.03325
9.1,0.05148
9.104,0.10261
9.108,0.10373
9.112,0.056
9.116,0.07192
9.12,0.02028
9.124,0.03727
9.128,-0.0578
9.132,-0.02956
9.136,0.04129
9.14,0.05265
9.144,-0.00479
9.148,-0.07064
9.152,0.00196
9.156,-0.02079
9.16,0.00825
9.164,-0.05253
9.168,-0.02542
9.172,0.01624
9.176,-0.04748
9.18,-0.05328
9.184,-0.02881
9.188,-0.03087
9.192,-0.00798
9.196,-0.13234
9.2,-0.00931
9.204,-0.07455
9.208,-0.01365
9.212,-0.04025
9.216,-0.07162
9.22,-0.07112
9.224,-0.09309
9.228,-0.10528
9.232,-0.12579
9.236,-0.15254
9.24,0.06893
9.244,0.28302
9.248,0.43922
9.252,0.5533
9.256,0.80029
9.26,0.91033
9.264,0.94871
9.268,0.88327
9.272,0.67423
9.276,0.44884
9.28,0.24645
9.284,-0.03275
9.288,-0.16036
9.292,-0.15759
9.296,-0.14048
9.3,-0.13486
9.304,-0.18613
9.308,-0.10568
9.312,-0.06282
9.316,-0.01764
9.32,-0.03996
9.324,-0.01917
9.328,0.02313
9.332,-0.0526
9.336,-0.01011
9.34,-0.00355
9.344,-0.00935
9.348,-0.08796
9.352,-0.01089
9.356,-0.02926
9.36,-0.03863
9.364,-0.08107
9.368,-0.07342
9.372,-0.00422
9.376,-0.03563
9.38,-0.05922
9.384,0.0007
9.388,0.0091
9.392,-0.01512
9.396,-0.06394
9.4,-0.01814
9.404,-0.00893
9.408,-0.02746
9.412,0.01662
9.416,0.00074
9.42,-0.00176
9.424,-0.01639
9.428,-0.06791
9.432,-0.03151
9.436,0.00412
9.44,0.02814
9.444,0.0321
9.448,-0.03627
9.452,-0.01028
9.456,0.02744
9.46,-0.03023
9.464,0.02695
9.468,0.0164
9.472,-0.02173
9.476,0.0282
9.48,0.03999
9.484,0.01302
9.488,0.00642
9.492,0.02649
9.496,0.12507
9.5,0.11132
9.504,0.1834
9.508,0.08662
9.512,0.14884
9.516,0.19039
9.52,0.16338
9.524,0.16499
9.528,0.21729
9.532,0.23272
9.536,0.19329
9.54,0.15674
9.544,0.15694
9.548,0.21425
9.552,0.16759
9.556,0.13424
9.56,0.13461
9.564,0.14334
9.568,0.14645
9.572,0.11082
9.576,0.06314
9.58,0.12665
9.584,0.13703
9.588,0.09138
9.592,0.05016
9.596,0.03973
9.6,0.05989
9.604,0.0837
9.608,0.06298
9.612,0.01393
9.616,-0.00572
9.62,0.02836
9.624,0.03619
9.628,0.04466
9.632,0.02147
9.636,-0.05778
9.64,-0.01059
9.644,-0.02185
9.648,-0.07551
9.652,0.0032
9.656,0.03033
9.66,0.01858
9.664,-0.01608
9.668,-0.07385
9.672,-0.04443
9.676,-0.09151
9.68,-0.0422
9.684,-0.08278
9.688,0.01161
9.692,-0.07672
9.696,-0.01942
9.7,-0.04084
9.704,-0.0044
9.708,-0.08766
9.712,-0.01812
9.716,-0.01706
9.72,0.02486
9.724,0.01725
9.728,0.01036
9.732,0.02068
9.736,0.07236
9.74,0.09513
9.744,0.09779
9.748,0.06107
9.752,0.00915
9.756,0.04323
9.76,0.04546
9.764,-0.00204
9.768,0.01029
9.772,0.0832
9.776,0.01289
9.78,-0.01674
9.784,-0.02521
9.788,0.01103
9.792,-0.0027
9.796,-0.05455
9.8,-0.00827
9.804,-0.05002
9.808,-0.01014
9.812,0.03847
9.816,0.02363
9.82,-0.0578
9.824,0.01677
9.828,-0.0803
9.832,-0.07583
9.836,-0.00488
9.84,-0.08217
9.844,0.03014
9.848,-0.08909
9.852,0.0188
9.856,-0.04863
9.86,-0.10121
9.864,-0.04415
9.868,-0.06786
9.872,-0.13656
9.876,-0.14768
9.88,-0.06253
9.884,0.09863
9.888,0.15517
9.892,0.38234
9.896,0.59152
9.9,0.78268
9.904,0.89755
9.908,0.94155
9.912,0.92148
9.916,0.71533
9.92,0.54302
9.924,0.29271
9.928,0.03456
9.932,-0.10973
9.936,-0.16473
9.94,-0.21408
9.944,-0.18615
9.948,-0.18165
9.952,-0.15487
9.956,-0.05396
9.96,-0.03857
9.964,-0.04378
9.968,-0.03731
9.972,-0.02405
9.976,-0.05985
9.98,0.02659
9.984,-0.01316
9.988,-0.01062
9.992,-0.00918
9.996,0.00839
