t_seg,ecg_mV
0.0,0.0268
0.004,0.01897
0.008,0.02699
0.012,0.0252
0.016,0.03735
0.02,0.00978
0.024,0.03025
0.028,0.00208
0.032,0.03937
0.036,0.03846
0.04,0.03303
0.044,0.0271
0.048,0.05054
0.052,0.04421
0.056,0.0154
0.06,0.00982
0.064,0.01771
0.068,0.0362
0.072,0.02154
0.076,0.01462
0.08,0.03418
0.084,0.01303
0.088,0.05507
0.092,-0.00427
0.096,0.01023
0.1,0.03942
0.104,0.03901
0.108,0.03214
0.112,0.03813
0.116,0.05539
0.12,0.01636
0.124,-0.00314
0.128,0.02957
0.132,0.01641
0.136,0.05552
0.14,0.033
0.144,0.05691
0.148,0.01673
0.152,0.02574
0.156,0.02463
0.16,0.03364
0.164,0.04551
0.168,0.05047
0.172,0.07078
0.176,0.08177
0.18,0.09871
0.184,0.10162
0.188,0.10868
0.192,0.12485
0.196,0.11082
0.2,0.11345
0.204,0.13931
0.208,0.14004
0.212,0.10819
0.216,0.05667
0.22,0.10376
0.224,0.06538
0.228,0.08266
0.232,0.0423
0.236,0.03307
0.24,0.04045
0.244,0.01307
0.248,0.06651
0.252,0.01123
0.256,0.02981
0.26,0.01629
0.264,0.01298
0.268,0.01112
0.272,0.03025
0.276,0.02144
0.28,0.03323
0.284,0.05368
0.288,0.00856
0.292,0.01698
0.296,0.01798
0.3,0.03983
0.304,0.04425
0.308,0.02226
0.312,0.01606
0.316,-0.01424
0.32,-0.05227
0.324,-0.10575
0.328,-0.06844
0.332,-0.02642
0.336,0.11939
0.34,0.27385
0.344,0.47706
0.348,0.69495
0.352,0.87261
0.356,0.99493
0.36,1.00228
0.364,0.93163
0.368,0.70652
0.372,0.50775
0.376,0.28377
0.38,0.09122
0.384,-0.06612
0.388,-0.1254
0.392,-0.13081
0.396,-0.12342
0.4,-0.0603
0.404,-0.02846
0.408,-0.02669
0.412,-0.01473
0.416,0.04502
0.42,0.01883
0.424,0.04188
0.428,0.02889
0.432,0.03324
0.436,0.02557
0.44,0.0134
0.444,0.01915
0.448,0.04986
0.452,0.06724
0.456,0.01842
0.46,0.0069
0.464,0.03777
0.468,0.05269
0.472,0.01572
0.476,0.04732
0.48,0.01419
0.484,0.00428
0.488,6e-05
0.492,0.01883
0.496,0.02786
0.5,0.0126
0.504,0.05971
0.508,0.03656
0.512,0.03334
0.516,0.03791
0.52,-0.00744
0.524,0.06065
0.528,-0.01364
0.532,0.01484
0.536,0.05332
0.54,0.05319
0.544,0.0493
0.548,0.04825
0.552,0.06191
0.556,0.0628
0.56,0.09174
0.564,0.07378
0.568,0.08447
0.572,0.10187
0.576,0.10287
0.58,0.11969
0.584,0.14269
0.588,0.10636
0.592,0.12817
0.596,0.15385
0.6,0.17935
0.604,0.17848
0.608,0.21787
0.612,0.20159
0.616,0.21851
0.62,0.26184
0.624,0.21744
0.628,0.26313
0.632,0.23494
0.636,0.22947
0.64,0.24109
0.644,0.21277
0.648,0.20859
0.652,0.24754
0.656,0.2074
0.66,0.20959
0.664,0.22299
0.668,0.18738
0.672,0.19074
0.676,0.19837
0.68,0.17012
0.684,0.17942
0.688,0.14985
0.692,0.10422
0.696,0.11297
0.7,0.1344
0.704,0.09388
0.708,0.08325
0.712,0.09982
0.716,0.04743
0.72,0.05542
0.724,0.05048
0.728,0.05977
0.732,0.03831
0.736,0.06005
0.74,0.05037
0.744,0.00812
0.748,0.023
0.752,0.05079
0.756,0.052
0.76,0.01451
0.764,0.00743
0.768,0.00743
0.772,0.02055
0.776,0.00612
0.78,0.0232
0.784,0.03608
0.788,0.01891
0.792,0.02087
0.796,0.02945
0.8,0.02242
0.804,0.00742
0.808,0.01518
0.812,0.02969
0.816,0.02059
0.82,0.03551
0.824,-0.00777
0.828,0.02439
0.832,-0.00013
0.836,0.02093
0.84,0.00744
0.844,0.01446
0.848,-0.01816
0.852,0.02257
0.856,0.00889
0.86,0.03381
0.864,0.03631
0.868,0.0396
0.872,0.03791
0.876,0.06545
0.88,0.049
0.884,0.06328
0.888,0.05253
0.892,0.1018
0.896,0.09574
0.9,0.09444
0.904,0.11494
0.908,0.1019
0.912,0.11144
0.916,0.11126
0.92,0.08569
0.924,0.06249
0.928,0.07891
0.932,0.06414
0.936,0.04019
0.94,0.02625
0.944,0.03552
0.948,0.02617
0.952,0.03708
0.956,0.01734
0.96,-0.00241
0.964,-0.00364
0.968,0.03197
0.972,-0.01653
0.976,-0.01232
0.98,0.01238
0.984,-0.03109
0.988,0.01315
0.992,0.03108
0.996,0.02454
1.0,-0.01935
1.004,0.03363
1.008,0.0154
1.012,0.01907
1.016,0.01432
1.02,-0.00102
1.024,-0.01318
1.028,-0.06205
1.032,-0.1191
1.036,-0.09929
1.04,-0.08707
1.044,0.03739
1.048,0.19963
1.052,0.42062
1.056,0.57271
1.06,0.81239
1.064,0.91038
1.068,1.00614
1.072,0.93526
1.076,0.81409
1.08,0.56525
1.084,0.3609
1.088,0.14928
1.092,-0.00997
1.096,-0.11736
1.1,-0.1633
1.104,-0.13704
1.108,-0.14657
1.112,-0.07196
1.116,-0.04427
1.12,-0.00178
1.124,-0.00965
1.128,0.0047
1.132,-0.00478
1.136,0.00362
1.14,0.01388
1.144,-0.00453
1.148,-0.00037
1.152,0.01054
1.156,0.00709
1.16,-0.00563
1.164,-0.00357
1.168,-0.00044
1.172,0.0047
1.176,0.01378
1.18,0.0036
1.184,0.02484
1.188,-0.02059
1.192,0.00809
1.196,0.01488
1.2,0.0206
1.204,0.00855
1.208,0.01065
1.212,0.03076
1.216,-0.00013
1.22,-0.00039
1.224,-0.00924
1.228,0.00823
1.232,0.02822
1.236,0.04468
1.24,-0.00302
1.244,0.03199
1.248,0.0373
1.252,0.0312
1.256,0.04773
1.26,0.02418
1.264,0.05782
1.268,0.04083
1.272,0.04748
1.276,0.05666
1.28,0.0374
1.284,0.10776
1.288,0.10736
1.292,0.10786
1.296,0.0981
1.3,0.1221
1.304,0.151
1.308,0.15644
1.312,0.17408
1.316,0.1838
1.32,0.16832
1.324,0.2373
1.328,0.19872
1.332,0.23203
1.336,0.21076
1.34,0.23093
1.344,0.23974
1.348,0.21085
1.352,0.20994
1.356,0.24762
1.36,0.21279
1.364,0.18133
1.368,0.18872
1.372,0.18668
1.376,0.2058
1.38,0.19176
1.384,0.14102
1.388,0.13665
1.392,0.15478
1.396,0.13786
1.4,0.10178
1.404,0.10471
1.408,0.07584
1.412,0.08699
1.416,0.09024
1.42,0.06555
1.424,0.03129
1.428,0.01107
1.432,0.03073
1.436,0.03853
1.44,0.03576
1.444,0.04577
1.448,0.04236
1.452,0.01545
1.456,-0.0063
1.46,-0.00426
1.464,-0.01308
1.468,-0.02422
1.472,-0.00999
1.476,-0.00457
1.48,0.0051
1.484,0.01389
1.488,0.01401
1.492,-0.01578
1.496,-0.0007
1.5,-0.00238
1.504,0.00236
1.508,-0.00862
1.512,0.00188
1.516,-0.01175
1.52,-0.02823
1.524,0.00312
1.528,-0.02985
1.532,-0.01625
1.536,-0.0109
1.54,0.0029
1.544,-0.00295
1.548,-0.00663
1.552,-0.00274
1.556,0.01494
1.56,0.00729
1.564,0.02037
1.568,-0.01567
1.572,0.01179
1.576,-0.01473
1.58,-0.01634
1.584,-0.00285
1.588,0.01213
1.592,-0.02046
1.596,-0.01538
1.6,-0.01513
1.604,0.005
1.608,-0.01545
1.612,-0.01026
1.616,3e-05
1.62,0.00679
1.624,-0.0081
1.628,0.00595
1.632,0.00915
1.636,0.02172
1.64,0.03665
1.644,0.01805
1.648,0.01111
1.652,0.06523
1.656,0.04672
1.66,0.04285
1.664,0.07355
1.668,0.05597
1.672,0.08629
1.676,0.05908
1.68,0.08155
1.684,0.08048
1.688,0.08921
1.692,0.04279
1.696,0.07873
1.7,0.04206
1.704,0.03018
1.708,0.02246
1.712,0.03547
1.716,-0.01549
1.72,0.00557
1.724,0.022
1.728,-0.00541
1.732,-0.02539
1.736,0.01237
1.74,0.00654
1.744,-0.01109
1.748,-0.00607
1.752,-0.00924
1.756,-0.02874
1.76,0.00054
1.764,-0.01886
1.768,-0.01701
1.772,-0.00548
1.776,0.00082
1.78,0.01206
1.784,-0.03765
1.788,-0.02096
1.792,-0.04817
1.796,-0.09543
1.8,-0.13164
1.804,-0.09549
1.808,-0.0077
1.812,0.11975
1.816,0.32284
1.82,0.53785
1.824,0.70897
1.828,0.89589
1.832,0.97714
1.836,0.98172
1.84,0.84169
1.844,0.6286
1.848,0.41948
1.852,0.17283
1.856,0.01509
1.86,-0.11482
1.864,-0.18106
1.868,-0.15712
1.872,-0.12948
1.876,-0.09715
1.88,-0.03319
1.884,-0.02117
1.888,-0.02338
1.892,-0.0415
1.896,-0.0228
1.9,-0.00403
1.904,-0.01805
1.908,-0.012
1.912,-0.01849
1.916,-0.01
1.92,-0.02864
1.924,-0.00642
1.928,0.0011
1.932,-0.03257
1.936,-0.02851
1.94,-0.03087
1.944,0.01165
1.948,0.00015
1.952,-0.00557
1.956,-0.00447
1.96,0.0109
1.964,-0.0133
1.968,-0.03319
1.972,-0.02305
1.976,-0.00257
1.98,0.00455
1.984,-0.01031
1.988,-0.00726
1.992,-0.01351
1.996,0.00513
2.0,0.01359
2.004,-0.0093
2.008,-0.01049
2.012,0.01933
2.016,-0.01383
2.02,0.01309
2.024,0.00662
2.028,0.03027
2.032,0.03115
2.036,0.0158
2.04,0.06299
2.044,0.05264
2.048,0.06366
2.052,0.0745
2.056,0.0709
2.06,0.09633
2.064,0.08939
2.068,0.13032
2.072,0.14722
2.076,0.15479
2.08,0.14651
2.084,0.17099
2.088,0.19526
2.092,0.15487
2.096,0.22041
2.1,0.20545
2.104,0.16706
2.108,0.20706
2.112,0.18712
2.116,0.18019
2.12,0.19641
2.124,0.18418
2.128,0.17747
2.132,0.17121
2.136,0.19275
2.14,0.1765
2.144,0.1201
2.148,0.14092
2.152,0.1334
2.156,0.09348
2.16,0.10715
2.164,0.11706
2.168,0.1012
2.172,0.06563
2.176,0.06389
2.18,0.05578
2.184,0.04774
2.188,0.03432
2.192,0.04382
2.196,0.03712
2.2,0.00373
2.204,0.00481
2.208,0.01739
2.212,0.01843
2.216,0.00227
2.22,0.01253
2.224,0.00414
2.228,-0.00299
2.232,-0.00563
2.236,-0.02828
2.24,-0.0253
2.244,-0.00226
2.248,-0.02055
2.252,-0.04553
2.256,-0.02947
2.26,-0.02433
2.264,-0.0212
2.268,-0.03496
2.272,-0.02588
2.276,-0.04711
2.28,-0.01902
2.284,0.00238
2.288,-0.01811
2.292,-0.02131
2.296,-0.04826
2.3,-0.01214
2.304,-0.01985
2.308,-0.03332
2.312,-0.00658
2.316,-0.02647
2.32,-0.00038
2.324,-0.00992
2.328,-0.03061
2.332,-0.01507
2.336,-0.02006
2.34,-0.04422
2.344,-0.01546
2.348,0.00358
2.352,-0.00441
2.356,0.00355
2.36,-0.00271
2.364,0.01123
2.368,0.05645
2.372,0.06648
2.376,0.03288
2.38,0.03784
2.384,0.07057
2.388,0.07812
2.392,0.05991
2.396,0.06369
2.4,0.0511
2.404,0.07309
2.408,0.05315
2.412,0.00823
2.416,0.0205
2.42,0.04736
2.424,-0.00198
2.428,-0.00601
2.432,-0.01542
2.436,-0.04336
2.44,-0.04823
2.444,-0.02721
2.448,-0.02916
2.452,-0.03618
2.456,-0.03619
2.46,-0.03581
2.464,-0.01001
2.468,-0.04258
2.472,0.00724
2.476,-0.00959
2.48,-0.02125
2.484,-0.01857
2.488,0.0176
2.492,-0.01719
2.496,-0.02643
2.5,-0.01716
2.504,-0.03395
2.508,-0.06166
2.512,-0.12573
2.516,-0.12208
2.52,-0.1371
2.524,-0.07029
2.528,0.05104
2.532,0.23997
2.536,0.4219
2.54,0.67584
2.544,0.83543
2.548,0.95293
2.552,0.95372
2.556,0.86123
2.56,0.67626
2.564,0.47838
2.568,0.23706
2.572,0.0334
2.576,-0.09217
2.58,-0.17824
2.584,-0.20957
2.588,-0.17928
2.592,-0.1348
2.596,-0.05572
2.6,-0.03463
2.604,-0.02895
2.608,-0.02622
2.612,-0.00953
2.616,-0.03713
2.62,0.00237
2.624,-0.04835
2.628,-0.03305
2.632,-0.01999
2.636,-0.04011
2.64,-0.03313
2.644,-0.02816
2.648,-0.01506
2.652,-0.02657
2.656,-0.04277
2.66,-0.0366
2.664,-0.0238
2.668,-0.03681
2.672,-0.03617
2.676,-0.02664
2.68,-0.01583
2.684,-0.03076
2.688,-1e-05
2.692,-0.00746
2.696,-0.01383
2.7,-0.02947
2.704,-0.02101
2.708,-0.02093
2.712,-0.01883
2.716,-0.06386
2.72,-0.0238
2.724,-0.03256
2.728,-0.01061
2.732,-0.00951
2.736,0.00938
2.74,0.01373
2.744,-0.00097
2.748,0.01163
2.752,0.01292
2.756,0.03892
2.76,0.05223
2.764,0.05059
2.768,0.06764
2.772,0.08704
2.776,0.08605
2.78,0.07306
2.784,0.09956
2.788,0.12145
2.792,0.1202
2.796,0.15488
2.8,0.14868
2.804,0.12024
2.808,0.14342
2.812,0.18185
2.816,0.17098
2.82,0.21098
2.824,0.17933
2.828,0.19749
2.832,0.21061
2.836,0.18358
2.84,0.1761
2.844,0.18277
2.848,0.16717
2.852,0.16734
2.856,0.1799
2.86,0.15599
2.864,0.1156
2.868,0.10672
2.872,0.11516
2.876,0.11697
2.88,0.09006
2.884,0.06451
2.888,0.06152
2.892,0.04029
2.896,0.06691
2.9,0.03124
2.904,0.04098
2.908,0.02725
2.912,0.01445
2.916,0.01487
2.92,0.03415
2.924,-0.01299
2.928,0.00419
2.932,-0.00829
2.936,-0.00842
2.94,-0.01924
2.944,-0.01604
2.948,-0.01165
2.952,-0.01156
2.956,-0.05254
2.96,-0.0332
2.964,-0.02588
2.968,-0.02567
2.972,-0.02528
2.976,-0.05354
2.98,-0.03944
2.984,-0.03052
2.988,-0.02121
2.992,-0.03088
2.996,-0.01527
3.0,-0.04071
3.004,-0.04612
3.008,-0.00084
3.012,0.00963
3.016,-0.00446
3.02,-0.01795
3.024,-0.00946
3.028,0.00776
3.032,-0.00921
3.036,0.02326
3.04,0.01654
3.044,0.05626
3.048,0.03999
3.052,0.09481
3.056,0.05956
3.06,0.06293
3.064,0.07398
3.068,0.04692
3.072,0.03375
3.076,0.05921
3.08,0.03335
3.084,0.02597
3.088,0.01256
3.092,-0.01609
3.096,-0.00054
3.1,-0.03781
3.104,-0.00589
3.108,-0.02333
3.112,-0.03192
3.116,-0.0241
3.12,-0.02901
3.124,-0.04827
3.128,-0.03479
3.132,-0.02009
3.136,-0.00433
3.14,-0.04523
3.144,-0.03187
3.148,-0.04617
3.152,-0.04867
3.156,-0.04133
3.16,-0.01055
3.164,-9e-05
3.168,-0.05409
3.172,-0.0536
3.176,-0.09597
3.18,-0.10369
3.184,-0.13436
3.188,-0.12967
3.192,-0.09604
3.196,0.03162
3.2,0.23875
3.204,0.41063
3.208,0.64055
3.212,0.84684
3.216,0.94502
3.22,0.9437
3.224,0.85227
3.228,0.69684
3.232,0.48209
3.236,0.22531
3.24,0.04006
3.244,-0.12397
3.248,-0.16365
3.252,-0.18218
3.256,-0.15636
3.26,-0.15069
3.264,-0.11188
3.268,-0.04999
3.272,-0.02585
3.276,-0.01842
3.28,-0.04645
3.284,-0.04749
3.288,-0.02684
3.292,-0.00846
3.296,-0.04422
3.3,-0.04038
3.304,-0.04735
3.308,-0.04704
3.312,-0.00782
3.316,-0.0565
3.32,-0.02192
3.324,-0.03291
3.328,-0.0287
3.332,-0.01365
3.336,-0.04247
3.34,-0.03102
3.344,-0.0284
3.348,-0.03159
3.352,-0.03737
3.356,-0.04853
3.36,-0.02948
3.364,-0.02533
3.368,-0.04873
3.372,-0.03282
3.376,-0.03681
3.38,0.01331
3.384,-0.03704
3.388,-0.03624
3.392,0.00137
3.396,-0.04816
3.4,-0.01764
3.404,-0.01266
3.408,-0.04626
3.412,0.01473
3.416,0.01124
3.42,0.00896
3.424,0.02114
3.428,0.02998
3.432,0.02207
3.436,0.06707
3.44,0.02862
3.444,0.07762
3.448,0.09131
3.452,0.11136
3.456,0.1221
3.46,0.10553
3.464,0.14024
3.468,0.14573
3.472,0.18664
3.476,0.17389
3.48,0.16687
3.484,0.20252
3.488,0.17192
3.492,0.18218
3.496,0.16768
3.5,0.19565
3.504,0.17841
3.508,0.19653
3.512,0.17582
3.516,0.16857
3.52,0.17492
3.524,0.16242
3.528,0.14172
3.532,0.12851
3.536,0.14626
3.54,0.11284
3.544,0.06334
3.548,0.09074
3.552,0.08486
3.556,0.0685
3.56,0.07203
3.564,0.0307
3.568,0.02157
3.572,0.04059
3.576,0.0522
3.58,0.0289
3.584,0.0027
3.588,0.01274
3.592,0.00429
3.596,-0.00546
3.6,-0.02593
3.604,-0.01697
3.608,-0.01632
3.612,-0.01178
3.616,-0.01724
3.62,-0.02706
3.624,-0.01457
3.628,-0.00369
3.632,-0.0283
3.636,-0.02329
3.64,-0.0311
3.644,-0.01053
3.648,0.01191
3.652,-0.03058
3.656,-0.04261
3.66,-0.02531
3.664,-0.00332
3.668,-0.0227
3.672,-0.03509
3.676,-0.02021
3.68,-0.01583
3.684,-0.00122
3.688,-0.00767
3.692,-0.01392
3.696,-0.01594
3.7,-0.01785
3.704,-0.02667
3.708,0.00843
3.712,-0.02357
3.716,-0.02638
3.72,-0.02719
3.724,-0.04636
3.728,-0.05266
3.732,-0.01886
3.736,-0.00931
3.74,-0.02714
3.744,-0.01088
3.748,-0.01278
3.752,-0.04321
3.756,-0.00974
3.76,0.0026
3.764,-0.03318
3.768,-0.01976
3.772,0.00426
3.776,-0.01201
3.78,-0.02899
3.784,-0.03077
3.788,-0.02433
3.792,-0.01695
3.796,-0.05434
3.8,-0.01753
3.804,-0.03454
3.808,-0.02137
3.812,-0.0167
3.816,0.04678
3.82,0.02962
3.824,0.03343
3.828,0.03885
3.832,0.05582
3.836,0.05445
3.84,0.08533
3.844,0.05845
3.848,0.05857
3.852,0.08643
3.856,0.04881
3.86,0.06576
3.864,0.04001
3.868,0.04293
3.872,0.01473
3.876,0.01524
3.88,-0.01626
3.884,-0.00791
3.888,-0.01352
3.892,-0.0102
3.896,-0.04158
3.9,-0.01317
3.904,-0.00121
3.908,-0.00754
3.912,-0.01126
3.916,-0.0582
3.92,0.00012
3.924,-0.03013
3.928,-0.00456
3.932,0.00326
3.936,-0.00187
3.94,-0.01643
3.944,-0.0335
3.948,-0.01432
3.952,-0.02703
3.956,-0.022
3.96,-0.03335
3.964,-0.06296
3.968,-0.09415
3.972,-0.12253
3.976,-0.13601
3.98,-0.07476
3.984,0.0391
3.988,0.22412
3.992,0.43494
3.996,0.61243
4.0,0.79828
4.004,0.96061
4.008,0.95113
4.012,0.88949
4.016,0.71505
4.02,0.45078
4.024,0.24783
4.028,0.04671
4.032,-0.09785
4.036,-0.14304
4.04,-0.20815
4.044,-0.1678
4.048,-0.12972
4.052,-0.07465
4.056,-0.04649
4.06,-0.03509
4.064,-0.00431
4.068,-0.0324
4.072,-0.05407
4.076,-0.02468
4.08,-0.03259
4.084,-0.03844
4.088,-0.00547
4.092,-0.02796
4.096,-0.02333
4.1,0.0038
4.104,-0.00351
4.108,-0.04193
4.112,-0.03561
4.116,-0.03788
4.12,-0.02232
4.124,-0.01666
4.128,-0.04706
4.132,0.00783
4.136,-0.00308
4.14,-0.01467
4.144,-0.01521
4.148,-0.00046
4.152,-0.02868
4.156,-0.00303
4.16,-0.02134
4.164,0.01036
4.168,-0.01515
4.172,-0.0171
4.176,-0.00944
4.18,-0.02356
4.184,-0.02004
4.188,0.02491
4.192,0.00442
4.196,0.00143
4.2,0.03738
4.204,0.03475
4.208,0.03519
4.212,0.04414
4.216,0.0676
4.22,0.06783
4.224,0.07141
4.228,0.07219
4.232,0.08917
4.236,0.10435
4.24,0.11152
4.244,0.09122
4.248,0.14394
4.252,0.12414
4.256,0.17909
4.26,0.17427
4.264,0.19322
4.268,0.1752
4.272,0.17363
4.276,0.21709
4.28,0.20123
4.284,0.20046
4.288,0.18767
4.292,0.17545
4.296,0.21339
4.3,0.18382
4.304,0.19075
4.308,0.17956
4.312,0.15286
4.316,0.16725
4.32,0.16412
4.324,0.14693
4.328,0.13053
4.332,0.13521
4.336,0.11663
4.34,0.11748
4.344,0.0728
4.348,0.06856
4.352,0.06704
4.356,0.05088
4.36,0.06297
4.364,0.01219
4.368,0.03894
4.372,0.04082
4.376,-0.0026
4.38,-0.00053
4.384,-0.01044
4.388,-0.00144
4.392,0.02974
4.396,0.0123
4.4,0.01477
4.404,0.00784
4.408,0.00326
4.412,0.03026
4.416,-0.00461
4.42,0.00725
4.424,0.00155
4.428,0.00707
4.432,-0.0035
4.436,0.00915
4.44,-0.02304
4.444,-0.00275
4.448,-0.04104
4.452,0.02133
4.456,-0.00599
4.46,0.00616
4.464,0.00319
4.468,-0.01084
4.472,-0.02058
4.476,-0.02738
4.48,0.01621
4.484,-0.00788
4.488,-0.02255
4.492,0.01149
4.496,-0.01425
4.5,-0.00703
4.504,0.02219
4.508,0.02574
4.512,-0.0122
4.516,0.00448
4.52,-0.02345
4.524,-0.00029
4.528,-0.02012
4.532,0.01142
4.536,0.00808
4.54,-0.00218
4.544,0.00952
4.548,0.00295
4.552,-0.00365
4.556,-0.00193
4.56,0.01933
4.564,-0.01626
4.568,0.00853
4.572,-0.0145
4.576,-0.0196
4.58,-0.02524
4.584,0.00169
4.588,-0.02743
4.592,0.01195
4.596,-0.01614
4.6,-0.0001
4.604,-0.00602
4.608,0.01169
4.612,0.01988
4.616,0.01627
4.62,0.03657
4.624,0.02831
4.628,0.02776
4.632,0.04047
4.636,0.04511
4.64,0.0677
4.644,0.08341
4.648,0.07122
4.652,0.10566
4.656,0.1051
4.66,0.1103
4.664,0.11862
4.668,0.0916
4.672,0.05338
4.676,0.08409
4.68,0.06463
4.684,0.02597
4.688,0.02176
4.692,0.03646
4.696,0.02248
4.7,0.00568
4.704,0.02123
4.708,0.0067
4.712,0.01517
4.716,-0.00944
4.72,-0.00352
4.724,-0.00539
4.728,-0.00143
4.732,-0.00524
4.736,0.01639
4.74,0.00266
4.744,-0.0045
4.748,-0.00221
4.752,-0.0008
4.756,-0.00937
4.76,0.03511
4.764,-0.01704
4.768,0.00762
4.772,-0.02797
4.776,-0.03848
4.78,-0.05494
4.784,-0.11237
4.788,-0.15867
4.792,-0.05284
4.796,0.02198
4.8,0.20244
4.804,0.40806
4.808,0.6135
4.812,0.81063
4.816,0.97274
4.82,0.98552
4.824,0.9527
4.828,0.73742
4.832,0.56214
4.836,0.3359
4.84,0.11297
4.844,-0.02303
4.848,-0.11869
4.852,-0.13325
4.856,-0.14433
4.86,-0.11866
4.864,-0.06925
4.868,-0.02416
4.872,0.01132
4.876,0.00758
4.88,-0.01581
4.884,0.04003
4.888,0.01714
4.892,-0.0146
4.896,0.00257
4.9,-0.01885
4.904,-0.00367
4.908,0.01488
4.912,0.0022
4.916,-0.01356
4.92,0.01756
4.924,0.03616
4.928,-0.01343
4.932,-0.00887
4.936,0.01743
4.94,-0.00897
4.944,0.0175
4.948,0.02863
4.952,0.01319
4.956,-0.01992
4.96,0.00937
4.964,0.00867
4.968,0.00759
4.972,0.02513
4.976,0.00745
4.98,0.01181
4.984,0.04639
4.988,-0.01047
4.992,0.017
4.996,0.01066
5.0,0.02845
5.004,0.03761
5.008,0.02765
5.012,0.04283
5.016,0.04923
5.02,0.07847
5.024,0.07109
5.028,0.05622
5.032,0.09594
5.036,0.0912
5.04,0.09889
5.044,0.14251
5.048,0.10599
5.052,0.137
5.056,0.13589
5.06,0.1824
5.064,0.1695
5.068,0.15911
5.072,0.19689
5.076,0.24034
5.08,0.21985
5.084,0.20422
5.088,0.23042
5.092,0.24254
5.096,0.22031
5.1,0.24088
5.104,0.25365
5.108,0.23416
5.112,0.22674
5.116,0.20306
5.12,0.20926
5.124,0.19254
5.128,0.20538
5.132,0.19186
5.136,0.17457
5.14,0.14962
5.144,0.14396
5.148,0.16297
5.152,0.14466
5.156,0.11907
5.16,0.10419
5.164,0.04863
5.168,0.0854
5.172,0.04432
5.176,0.04898
5.18,0.07207
5.184,0.07332
5.188,0.02524
5.192,0.05066
5.196,0.04121
5.2,0.05014
5.204,0.03393
5.208,0.01515
5.212,0.00724
5.216,0.0166
5.22,0.01145
5.224,0.01387
5.228,0.0111
5.232,-0.00257
5.236,0.03048
5.24,0.02683
5.244,0.02078
5.248,-0.00283
5.252,0.00492
5.256,0.00199
5.26,-0.00289
5.264,0.03174
5.268,0.01484
5.272,0.0148
5.276,0.01419
5.28,0.01264
5.284,0.02139
5.288,0.02389
5.292,0.01139
5.296,0.02911
5.3,0.01156
5.304,0.02168
5.308,0.04024
5.312,0.02576
5.316,0.01876
5.32,-0.01141
5.324,0.02007
5.328,0.02525
5.332,-0.01529
5.336,0.00083
5.34,0.01297
5.344,0.00999
5.348,0.02542
5.352,0.00863
5.356,0.01077
5.36,0.01195
5.364,0.01248
5.368,-0.0096
5.372,0.0303
5.376,-0.00124
5.38,0.01939
5.384,0.01937
5.388,0.02366
5.392,0.01381
5.396,0.03252
5.4,0.01498
5.404,0.01521
5.408,-0.00204
5.412,0.02694
5.416,0.01761
5.42,0.02034
5.424,0.02368
5.428,-0.00035
5.432,0.00651
5.436,0.03088
5.44,0.05758
5.444,0.01544
5.448,0.00976
5.452,0.0392
5.456,0.01423
5.46,0.00462
5.464,0.03618
5.468,-0.00331
5.472,0.02145
5.476,0.02861
5.48,0.01249
5.484,-0.00713
5.488,0.01394
5.492,0.01394
5.496,0.00568
5.5,0.00887
5.504,0.00066
5.508,0.05547
5.512,0.02279
5.516,0.02599
5.52,0.05485
5.524,0.0723
5.528,0.07232
5.532,0.12974
5.536,0.10932
5.54,0.10445
5.544,0.13643
5.548,0.13947
5.552,0.11681
5.556,0.13725
5.56,0.10671
5.564,0.0644
5.568,0.06998
5.572,0.09158
5.576,0.07013
5.58,0.06472
5.584,0.05987
5.588,0.02089
5.592,0.04663
5.596,0.05031
5.6,0.02914
5.604,0.02086
5.608,0.0179
5.612,0.00671
5.616,0.02715
5.62,0.02494
5.624,0.03361
5.628,0.02018
5.632,0.01691
5.636,0.00597
5.64,0.00606
5.644,0.02765
5.648,0.00238
5.652,0.03819
5.656,0.03085
5.66,0.02566
5.664,0.00734
5.668,-0.03775
5.672,-0.07547
5.676,-0.09849
5.68,-0.06304
5.684,0.07099
5.688,0.18696
5.692,0.43462
5.696,0.61666
5.7,0.85337
5.704,0.97049
5.708,1.01729
5.712,0.94531
5.716,0.80054
5.72,0.59655
5.724,0.344
5.728,0.13305
5.732,-0.00161
5.736,-0.08887
5.74,-0.15578
5.744,-0.13617
5.748,-0.08633
5.752,-0.02176
5.756,-0.0145
5.76,0.00028
5.764,0.02044
5.768,0.01551
5.772,0.02495
5.776,0.00183
5.78,0.00599
5.784,0.02125
5.788,0.04429
5.792,0.00041
5.796,0.05407
5.8,0.02841
5.804,0.0392
5.808,0.04038
5.812,0.03964
5.816,0.02082
5.82,0.03238
5.824,0.02235
5.828,-0.00658
5.832,0.02217
5.836,0.03569
5.84,0.03614
5.844,0.03188
5.848,0.01012
5.852,0.02607
5.856,0.04037
5.86,0.01565
5.864,0.0288
5.868,0.03283
5.872,0.01425
5.876,0.05071
5.88,0.02276
5.884,0.03635
5.888,0.06953
5.892,0.06673
5.896,0.04385
5.9,0.05087
5.904,0.07435
5.908,0.06806
5.912,0.06775
5.916,0.09337
5.92,0.08237
5.924,0.11477
5.928,0.13334
5.932,0.14411
5.936,0.14467
5.94,0.16228
5.944,0.15597
5.948,0.17982
5.952,0.16103
5.956,0.20573
5.96,0.2189
5.964,0.22159
5.968,0.23059
5.972,0.23591
5.976,0.23634
5.98,0.23167
5.984,0.24588
5.988,0.2354
5.992,0.22799
5.996,0.22396
6.0,0.27325
6.004,0.22458
6.008,0.224
6.012,0.24117
6.016,0.19772
6.02,0.2265
6.024,0.19137
6.028,0.14425
6.032,0.18941
6.036,0.16311
6.04,0.13548
6.044,0.12689
6.048,0.11074
6.052,0.10459
6.056,0.09411
6.06,0.05818
6.064,0.0559
6.068,0.07172
6.072,0.08899
6.076,0.05067
6.08,0.06796
6.084,0.05491
6.088,0.05527
6.092,0.02599
6.096,0.03369
6.1,0.04965
6.104,0.03464
6.108,0.04778
6.112,0.04203
6.116,0.04062
6.12,0.03278
6.124,0.05708
6.128,0.02794
6.132,0.00796
6.136,0.0315
6.14,0.03706
6.144,0.06762
6.148,0.02525
6.152,0.03664
6.156,0.0528
6.16,0.03176
6.164,0.02588
6.168,0.02405
6.172,0.03408
6.176,0.00775
6.18,0.04546
6.184,0.01115
6.188,0.04018
6.192,0.00829
6.196,0.02634
6.2,0.036
6.204,0.03305
6.208,0.02294
6.212,0.04524
6.216,0.0358
6.22,0.05758
6.224,0.03703
6.228,-0.00353
6.232,0.05126
6.236,0.03916
6.24,0.05024
6.244,0.00311
6.248,0.01151
6.252,0.06551
6.256,0.03707
6.26,0.05658
6.264,0.026
6.268,0.06359
6.272,0.01365
6.276,0.03325
6.28,0.03224
6.284,0.04463
6.288,0.05294
6.292,0.02357
6.296,0.02403
6.3,0.03372
6.304,0.04766
6.308,0.04433
6.312,0.036
6.316,0.03729
6.32,0.01366
6.324,0.01643
6.328,0.04451
6.332,0.06098
6.336,0.05172
6.34,0.02699
6.344,0.05346
6.348,0.06826
6.352,0.07072
6.356,0.07478
6.36,0.11022
6.364,0.10538
6.368,0.11245
6.372,0.12133
6.376,0.11415
6.38,0.15672
6.384,0.1442
6.388,0.1299
6.392,0.13351
6.396,0.10158
6.4,0.10822
6.404,0.089
6.408,0.0503
6.412,0.05841
6.416,0.04726
6.42,0.02294
6.424,0.0558
6.428,0.01374
6.432,0.05482
6.436,0.04055
6.44,0.0254
6.444,0.03794
6.448,0.03268
6.452,0.02209
6.456,0.0398
6.46,0.04436
6.464,0.02395
6.468,0.0458
6.472,0.04746
6.476,0.02215
6.48,0.05588
6.484,0.04227
6.488,0.04262
6.492,0.02427
6.496,-0.0218
6.5,0.00184
6.504,-0.05785
6.508,-0.07507
6.512,-0.05373
6.516,0.00436
6.52,0.15063
6.524,0.34658
6.528,0.53812
6.532,0.76453
6.536,0.92306
6.54,0.99886
6.544,0.99984
6.548,0.88493
6.552,0.69105
6.556,0.43816
6.56,0.22639
6.564,0.05236
6.568,-0.07087
6.572,-0.1337
6.576,-0.13562
6.58,-0.10143
6.584,-0.05371
6.588,-0.0351
6.592,0.00817
6.596,0.03514
6.6,0.02643
6.604,0.02337
6.608,0.0181
6.612,0.02621
6.616,0.04187
6.62,0.03612
6.624,0.04408
6.628,0.02994
6.632,0.02413
6.636,0.0091
6.64,0.02606
6.644,0.03136
6.648,0.02363
6.652,0.00557
6.656,0.02394
6.66,0.00422
6.664,0.03533
6.668,0.01395
6.672,0.02418
6.676,0.01825
6.68,0.05312
6.684,0.0255
6.688,0.04059
6.692,0.03653
6.696,0.06622
6.7,0.04165
6.704,0.02752
6.708,0.04483
6.712,0.0317
6.716,0.02862
6.72,0.06554
6.724,0.03633
6.728,0.06085
6.732,0.05765
6.736,0.06786
6.74,0.05677
6.744,0.08254
6.748,0.12079
6.752,0.07732
6.756,0.1239
6.76,0.12162
6.764,0.11333
6.768,0.11587
6.772,0.17142
6.776,0.17173
6.78,0.15356
6.784,0.18901
6.788,0.17398
6.792,0.19035
6.796,0.23285
6.8,0.22443
6.804,0.23139
6.808,0.24382
6.812,0.2299
6.816,0.2563
6.82,0.2559
6.824,0.24056
6.828,0.24676
6.832,0.21737
6.836,0.26731
6.84,0.23457
6.844,0.23065
6.848,0.20077
6.852,0.22945
6.856,0.18452
6.86,0.19969
6.864,0.14568
6.868,0.14461
6.872,0.12883
6.876,0.14072
6.88,0.1358
6.884,0.09757
6.888,0.08909
6.892,0.10018
6.896,0.06799
6.9,0.07132
6.904,0.09485
6.908,0.0875
6.912,0.0273
6.916,0.03795
6.92,0.02539
6.924,0.03362
6.928,0.0402
6.932,0.0173
6.936,0.03774
6.94,0.03761
6.944,0.0313
6.948,-0.00202
6.952,0.01432
6.956,-0.00119
6.96,0.0091
6.964,0.01537
6.968,0.06061
6.972,0.00627
6.976,0.00062
6.98,0.02249
6.984,0.0258
6.988,0.02271
6.992,0.02483
6.996,0.00211
7.0,0.01696
7.004,0.02978
7.008,0.02402
7.012,0.01935
7.016,0.01735
7.02,0.01943
7.024,0.0266
7.028,0.03151
7.032,0.02311
7.036,0.00942
7.04,0.03355
7.044,0.01882
7.048,0.03344
7.052,0.03427
7.056,0.02577
7.06,0.02616
7.064,0.02147
7.068,0.00272
7.072,0.05173
7.076,0.04794
7.08,0.03162
7.084,0.04871
7.088,0.05559
7.092,0.04061
7.096,0.06367
7.1,0.0771
7.104,0.08631
7.108,0.1356
7.112,0.10947
7.116,0.11363
7.12,0.10673
7.124,0.10262
7.128,0.12058
7.132,0.11683
7.136,0.09305
7.14,0.09506
7.144,0.07543
7.148,0.0387
7.152,0.04936
7.156,0.07285
7.16,0.04618
7.164,0.03863
7.168,0.02904
7.172,0.03847
7.176,0.01287
7.18,0.02008
7.184,0.02067
7.188,0.02075
7.192,0.03329
7.196,0.0066
7.2,0.01789
7.204,0.03131
7.208,0.02693
7.212,0.02008
7.216,0.05451
7.22,0.03444
7.224,0.00322
7.228,0.02919
7.232,0.01529
7.236,0.02451
7.24,-0.00659
7.244,-0.05603
7.248,-0.11708
7.252,-0.08511
7.256,-0.02962
7.26,0.08945
7.264,0.26434
7.268,0.44824
7.272,0.68725
7.276,0.89278
7.28,1.00195
7.284,1.00779
7.288,0.93881
7.292,0.75958
7.296,0.50878
7.3,0.28341
7.304,0.09661
7.308,-0.04541
7.312,-0.14542
7.316,-0.15629
7.32,-0.12167
7.324,-0.05887
7.328,-0.03242
7.332,-0.00961
7.336,-0.02616
7.34,0.03493
7.344,0.02705
7.348,0.03687
7.352,0.03205
7.356,0.02729
7.36,0.04415
7.364,0.03
7.368,-0.02538
7.372,0.02167
7.376,0.00925
7.38,-0.00373
7.384,0.02107
7.388,0.02771
7.392,0.02466
7.396,0.01432
7.4,0.00031
7.404,0.0432
7.408,0.02497
7.412,0.04026
7.416,-0.01589
7.42,-0.00073
7.424,-0.00386
7.428,0.01789
7.432,0.01284
7.436,0.04211
7.44,0.05006
7.444,0.04228
7.448,0.0189
7.452,0.03063
7.456,0.02952
7.46,0.00193
7.464,0.04203
7.468,0.05677
7.472,0.03652
7.476,0.05171
7.48,0.04195
7.484,0.03178
7.488,0.06745
7.492,0.08371
7.496,0.11166
7.5,0.12562
7.504,0.08878
7.508,0.13084
7.512,0.13698
7.516,0.14809
7.52,0.17085
7.524,0.15133
7.528,0.20607
7.532,0.18437
7.536,0.19499
7.54,0.21154
7.544,0.23799
7.548,0.19137
7.552,0.21929
7.556,0.20231
7.56,0.25489
7.564,0.23313
7.568,0.25043
7.572,0.21654
7.576,0.20631
7.58,0.21272
7.584,0.2169
7.588,0.20944
7.592,0.17379
7.596,0.17236
7.6,0.16084
7.604,0.16284
7.608,0.12059
7.612,0.1116
7.616,0.13676
7.62,0.11396
7.624,0.10148
7.628,0.08392
7.632,0.08045
7.636,0.0609
7.64,0.08499
7.644,0.08599
7.648,0.02006
7.652,0.02481
7.656,0.03969
7.66,0.01976
7.664,0.03541
7.668,0.01428
7.672,0.01488
7.676,0.01062
7.68,0.01319
7.684,0.0078
7.688,-0.00988
7.692,0.00825
7.696,0.04438
7.7,-0.00131
7.704,0.03233
7.708,-0.00798
7.712,-0.00048
7.716,0.01916
7.72,0.00063
7.724,-0.01114
7.728,-0.00257
7.732,0.01178
7.736,-0.00183
7.74,0.02886
7.744,0.00131
7.748,0.00147
7.752,0.00143
7.756,0.01095
7.76,0.00407
7.764,0.00466
7.768,0.02122
7.772,0.00458
7.776,-0.00482
7.78,0.01761
7.784,0.01087
7.788,0.01725
7.792,0.01705
7.796,0.01787
7.8,0.0189
7.804,0.01607
7.808,0.0081
7.812,0.00217
7.816,0.03808
7.82,0.05496
7.824,0.04063
7.828,0.09864
7.832,0.09532
7.836,0.0956
7.84,0.08255
7.844,0.11966
7.848,0.10633
7.852,0.10276
7.856,0.11041
7.86,0.06319
7.864,0.08998
7.868,0.03548
7.872,0.02005
7.876,0.06496
7.88,0.04899
7.884,0.04368
7.888,0.02074
7.892,0.01998
7.896,0.02618
7.9,0.01278
7.904,-0.00351
7.908,0.0003
7.912,-0.01326
7.916,0.01643
7.92,-0.00103
7.924,-0.00187
7.928,0.0065
7.932,0.00526
7.936,0.01302
7.94,0.00908
7.944,-0.01126
7.948,0.02337
7.952,-0.00165
7.956,-0.02633
7.96,0.00271
7.964,-0.02385
7.968,-0.11886
7.972,-0.10903
7.976,-0.12001
7.98,-0.0521
7.984,0.08253
7.988,0.24783
7.992,0.47694
7.996,0.67312
8.0,0.84888
8.004,0.96951
8.008,0.99586
8.012,0.88171
8.016,0.71638
8.02,0.48217
8.024,0.25979
8.028,0.0868
8.032,-0.0698
8.036,-0.13006
8.04,-0.16201
8.044,-0.14728
8.048,-0.11192
8.052,-0.07296
8.056,-0.03441
8.06,-0.00931
8.064,0.011
8.068,0.00228
8.072,0.01862
8.076,-0.02159
8.08,0.01178
8.084,-0.01665
8.088,-0.03016
8.092,-0.00025
8.096,0.01163
8.1,-0.00943
8.104,-0.00623
8.108,0.00506
8.112,0.00612
8.116,-0.01319
8.12,0.00225
8.124,-0.02106
8.128,0.0099
8.132,0.0115
8.136,-0.0167
8.14,0.01705
8.144,0.00467
8.148,-0.01288
8.152,0.00072
8.156,-0.0083
8.16,0.00315
8.164,0.01379
8.168,-0.01241
8.172,0.04876
8.176,-0.04188
8.18,0.00913
8.184,0.02918
8.188,0.01045
8.192,0.01907
8.196,0.0053
8.2,0.03115
8.204,0.01059
8.208,0.03868
8.212,0.06657
8.216,0.05985
8.22,0.0576
8.224,0.06019
8.228,0.08288
8.232,0.09613
8.236,0.11137
8.24,0.12449
8.244,0.13988
8.248,0.13038
8.252,0.16071
8.256,0.18704
8.26,0.19103
8.264,0.20859
8.268,0.21432
8.272,0.22003
8.276,0.20524
8.28,0.23647
8.284,0.21368
8.288,0.2096
8.292,0.22688
8.296,0.21397
8.3,0.22766
8.304,0.19045
8.308,0.19089
8.312,0.18331
8.316,0.19059
8.32,0.15789
8.324,0.17813
8.328,0.1571
8.332,0.13649
8.336,0.14861
8.34,0.10822
8.344,0.0902
8.348,0.05835
8.352,0.07781
8.356,0.05729
8.36,0.032
8.364,0.04595
8.368,0.06424
8.372,0.00016
8.376,0.01909
8.38,0.0201
8.384,0.04433
8.388,0.01021
8.392,0.03119
8.396,0.01242
8.4,0.00484
8.404,-0.00292
8.408,-0.01
8.412,-0.00885
8.416,-0.01562
8.42,-0.00753
8.424,0.00256
8.428,-0.00484
8.432,-0.00318
8.436,-0.0303
8.44,-0.0085
8.444,-0.02587
8.448,-0.0237
8.452,-0.0303
8.456,0.00087
8.46,-0.02408
8.464,0.03496
8.468,0.00684
8.472,0.02232
8.476,-0.01148
8.48,-0.01971
8.484,-0.0356
8.488,-0.00426
8.492,-0.0236
8.496,-0.00732
8.5,-0.01483
8.504,-0.01243
8.508,-0.00913
8.512,-0.0009
8.516,0.00909
8.52,0.00199
8.524,0.01835
8.528,0.03743
8.532,0.03204
8.536,0.03929
8.54,0.05562
8.544,0.07044
8.548,0.08925
8.552,0.07847
8.556,0.07071
8.56,0.07576
8.564,0.07142
8.568,0.0584
8.572,0.06695
8.576,0.04346
8.58,0.00485
8.584,0.03145
8.588,0.00644
8.592,0.02372
8.596,0.00089
8.6,-0.0036
8.604,-0.02239
8.608,-0.02917
8.612,-0.01121
8.616,-0.01394
8.62,-0.03819
8.624,-0.00814
8.628,-0.03569
8.632,0.00159
8.636,-0.01463
8.64,0.00973
8.644,-0.00127
8.648,-0.04402
8.652,-0.02987
8.656,-0.04435
8.66,-0.02578
8.664,-0.039
8.668,-0.00898
8.672,-0.04821
8.676,-0.09787
8.68,-0.14995
8.684,-0.15936
8.688,-0.08521
8.692,0.02846
8.696,0.20064
8.7,0.41134
8.704,0.63365
8.708,0.82529
8.712,0.97021
8.716,0.98237
8.72,0.89847
8.724,0.72592
8.728,0.51681
8.732,0.27546
8.736,0.06702
8.74,-0.05873
8.744,-0.14912
8.748,-0.14761
8.752,-0.16087
8.756,-0.11285
8.76,-0.09179
8.764,-0.03175
8.768,-0.01921
8.772,-0.0176
8.776,-0.02547
8.78,-0.04285
8.784,-0.03754
8.788,-0.02164
8.792,-0.02322
8.796,-0.01281
8.8,-0.02299
8.804,-0.0076
8.808,-0.03867
8.812,-0.02341
8.816,-0.00014
8.82,-0.00593
8.824,-0.01821
8.828,-0.01644
8.832,-0.02842
8.836,-0.02266
8.84,-0.03031
8.844,-0.019
8.848,-0.03711
8.852,-0.0179
8.856,-0.02842
8.86,-0.01701
8.864,-0.00507
8.868,-0.02862
8.872,0.00255
8.876,-0.02145
8.88,-0.02788
8.884,-0.01671
8.888,-0.00729
8.892,-0.0403
8.896,-0.00484
8.9,0.02745
8.904,0.00305
8.908,0.01533
8.912,0.01553
8.916,0.01041
8.92,0.0315
8.924,0.03272
8.928,0.02986
8.932,0.06051
8.936,0.09118
8.94,0.10091
8.944,0.09298
8.948,0.12747
8.952,0.11623
8.956,0.13514
8.96,0.13635
8.964,0.13798
8.968,0.15847
8.972,0.15528
8.976,0.17591
8.98,0.2052
8.984,0.21818
8.988,0.20773
8.992,0.21373
8.996,0.19019
9.0,0.1872
9.004,0.23342
9.008,0.19834
9.012,0.17266
9.016,0.17689
9.02,0.16678
9.024,0.14239
9.028,0.16362
9.032,0.1338
9.036,0.14091
9.04,0.10163
9.044,0.10415
9.048,0.08908
9.052,0.09134
9.056,0.06382
9.06,0.03945
9.064,0.0132
9.068,0.0504
9.072,0.02538
9.076,0.01653
9.08,0.02019
9.084,-0.00108
9.088,0.00037
9.092,-0.01097
9.096,-0.00823
9.1,-0.00105
9.104,-0.01391
9.108,-0.00903
9.112,-0.00109
9.116,0.00508
9.12,-0.01644
9.124,-0.05716
9.128,-0.04888
9.132,-0.00066
9.136,-0.0344
9.14,-0.02267
9.144,-0.0274
9.148,-0.01131
9.152,-0.02229
9.156,-0.03286
9.16,-0.01831
9.164,-0.04153
9.168,-0.03801
9.172,-0.0131
9.176,-0.01084
9.18,-0.0112
9.184,-0.0107
9.188,-0.03671
9.192,-0.03734
9.196,-0.00917
9.2,-0.01482
9.204,-0.04355
9.208,-0.04974
9.212,-0.02311
9.216,-0.02567
9.22,-0.01263
9.224,-0.03571
9.228,-0.01333
9.232,-0.00733
9.236,-0.02176
9.24,-0.02371
9.244,-0.01345
9.248,0.00604
9.252,0.00472
9.256,0.02655
9.26,0.03922
9.264,0.04027
9.268,0.04222
9.272,0.06408
9.276,0.0656
9.28,0.07639
9.284,0.05524
9.288,0.07733
9.292,0.05316
9.296,0.03011
9.3,0.04366
9.304,0.0331
9.308,0.02055
9.312,0.0504
9.316,-0.01406
9.32,-0.01273
9.324,-0.044
9.328,-0.02108
9.332,-0.02093
9.336,-0.04024
9.34,-0.04978
9.344,-0.02168
9.348,-0.0373
9.352,-0.0348
9.356,-0.01602
9.36,-0.01388
9.364,-0.06233
9.368,-0.0294
9.372,-0.04093
9.376,-0.00929
9.38,-0.00729
9.384,-0.01314
9.388,-0.03483
9.392,-0.04223
9.396,-0.04547
9.4,-0.04571
9.404,-0.12251
9.408,-0.12154
9.412,-0.15092
9.416,-0.10442
9.42,0.00336
9.424,0.13446
9.428,0.34029
9.432,0.55485
9.436,0.79466
9.44,0.91418
9.444,0.96382
9.448,0.94852
9.452,0.76534
9.456,0.54199
9.46,0.3035
9.464,0.11452
9.468,-0.03986
9.472,-0.14965
9.476,-0.17794
9.48,-0.20621
9.484,-0.13117
9.488,-0.08424
9.492,-0.08076
9.496,-0.06381
9.5,-0.05931
9.504,-0.04064
9.508,-0.03115
9.512,-0.04737
9.516,-0.02272
9.52,-0.02099
9.524,-0.04629
9.528,-0.00733
9.532,-0.0474
9.536,-0.04254
9.54,-0.06687
9.544,0.01771
9.548,-0.06267
9.552,-0.0063
9.556,-0.02533
9.56,-0.01352
9.564,-0.02456
9.568,-0.02944
9.572,-0.04178
9.576,-0.02251
9.58,-0.04139
9.584,-0.02778
9.588,0.00013
9.592,-0.03246
9.596,-0.02077
9.6,0.00204
9.604,-0.03138
9.608,-0.04967
9.612,-0.01502
9.616,-0.00422
9.62,-0.00324
9.624,0.00139
9.628,0.005
9.632,0.00322
9.636,0.01564
9.64,-0.00619
9.644,-0.01096
9.648,-0.00461
9.652,0.01304
9.656,0.065
9.66,0.03961
9.664,0.04594
9.668,0.03816
9.672,0.06045
9.676,0.0724
9.68,0.09691
9.684,0.11982
9.688,0.12736
9.692,0.15073
9.696,0.15361
9.7,0.18656
9.704,0.14931
9.708,0.1716
9.712,0.1738
9.716,0.21107
9.72,0.17603
9.724,0.20161
9.728,0.17226
9.732,0.2345
9.736,0.16501
9.74,0.19762
9.744,0.15972
9.748,0.17973
9.752,0.13666
9.756,0.13706
9.76,0.14164
9.764,0.11894
9.768,0.09632
9.772,0.10584
9.776,0.07306
9.78,0.05314
9.784,0.04985
9.788,0.03826
9.792,0.04878
9.796,0.05202
9.8,0.01922
9.804,0.01145
9.808,0.00406
9.812,0.00054
9.816,-0.00985
9.82,-0.01509
9.824,-0.01645
9.828,-0.03664
9.832,-0.01344
9.836,0.00074
9.84,0.00933
9.844,-0.01133
9.848,-0.01466
9.852,-0.05131
9.856,-0.06763
9.86,-0.01486
9.864,-0.04795
9.868,-0.00916
9.872,-0.03423
9.876,-0.03525
9.88,-0.03544
9.884,-0.023
9.888,-0.03966
9.892,-0.03566
9.896,-0.02074
9.9,-0.03128
9.904,-0.03224
9.908,-0.03209
9.912,-0.04998
9.916,-0.01889
9.92,-0.02699
9.924,-0.03699
9.928,-0.02829
9.932,-0.02539
9.936,-0.00534
9.94,-0.0239
9.944,-0.02347
9.948,-0.02657
9.952,-0.05839
9.956,-0.0318
9.96,-0.00295
9.964,-0.06167
9.968,-0.04721
9.972,-0.03039
9.976,-0.03921
9.98,-0.02967
9.984,-0.00244
9.988,-0.02692
9.992,-0.05161
9.996,-0.03767
