t_seg,ecg_mV
0.0,0.08531
0.004,0.1987
0.008,0.40424
0.012,0.67152
0.016,0.77989
0.02,0.95793
0.024,0.98881
0.028,1.00625
0.032,0.74968
0.036,0.55344
0.04,0.33728
0.044,0.07861
0.048,0.01444
0.052,-0.08016
0.056,-0.17141
0.06,-0.22602
0.064,-0.17617
0.068,-0.01354
0.072,-0.04623
0.076,0.00755
0.08,0.016
0.084,-0.02602
0.088,-0.00064
0.092,0.00981
0.096,0.03608
0.1,-0.00862
0.104,0.02894
0.108,0.01502
0.112,0.00486
0.116,-0.02486
0.12,0.03445
0.124,-0.01865
0.128,0.00046
0.132,-0.04075
0.136,-0.03995
0.14,-0.03148
0.144,0.01168
0.148,-0.0118
0.152,-0.00099
0.156,-0.0252
0.16,0.02644
0.164,-0.00366
0.168,-0.01259
0.172,0.0262
0.176,0.05358
0.18,0.04057
0.184,-0.02288
0.188,-0.006
0.192,0.02079
0.196,0.01266
0.2,-0.01956
0.204,0.03519
0.208,0.01252
0.212,0.05052
0.216,-0.00576
0.22,0.04989
0.224,0.01943
0.228,0.11263
0.232,0.0465
0.236,0.09492
0.24,0.0774
0.244,0.09305
0.248,0.10358
0.252,0.09023
0.256,0.1032
0.26,0.0749
0.264,0.14928
0.268,0.16681
0.272,0.18114
0.276,0.18933
0.28,0.178
0.284,0.17926
0.288,0.17913
0.292,0.16727
0.296,0.17798
0.3,0.2002
0.304,0.25178
0.308,0.231
0.312,0.275
0.316,0.21183
0.32,0.19067
0.324,0.19192
0.328,0.20327
0.332,0.18351
0.336,0.18613
0.34,0.09546
0.344,0.21034
0.348,0.13927
0.352,0.0683
0.356,0.06568
0.36,0.03172
0.364,0.08367
0.368,0.07432
0.372,0.06334
0.376,0.05902
0.38,0.06202
0.384,0.01336
0.388,0.04905
0.392,0.00494
0.396,0.08598
0.4,0.05925
0.404,0.06313
0.408,0.003
0.412,-0.00318
0.416,0.04345
0.42,0.00043
0.424,-0.00528
0.428,0.01209
0.432,-0.02982
0.436,-0.00019
0.44,-0.01972
0.444,0.03381
0.448,-0.02601
0.452,0.04817
0.456,-0.02932
0.46,-0.01934
0.464,0.00143
0.468,-0.00872
0.472,-0.00724
0.476,0.05064
0.48,0.01807
0.484,-0.08508
0.488,-0.07622
0.492,0.02175
0.496,-0.00779
0.5,-0.03547
0.504,-0.02115
0.508,-0.01957
0.512,0.01232
0.516,-0.03543
0.52,-0.04455
0.524,-0.01332
0.528,-0.01891
0.532,-0.03234
0.536,0.00657
0.54,-0.00645
0.544,-0.05413
0.548,0.03277
0.552,0.03359
0.556,-0.12226
0.56,0.00303
0.564,-0.0009
0.568,-0.01184
0.572,-0.02557
0.576,-0.01919
0.58,-0.00473
0.584,0.00293
0.588,-0.01846
0.592,-0.01877
0.596,-0.02698
0.6,0.04388
0.604,0.00175
0.608,-0.02983
0.612,0.06575
0.616,-0.02315
0.62,-0.03619
0.624,-0.08772
0.628,-0.0445
0.632,-0.03765
0.636,0.04878
0.64,-0.02017
0.644,-0.01196
0.648,-0.09084
0.652,-0.01769
0.656,0.01382
0.66,-0.02149
0.664,-0.03552
0.668,-0.03752
0.672,-0.05155
0.676,0.01548
0.68,0.00508
0.684,-0.01271
0.688,-0.07182
0.692,-0.00439
0.696,0.00383
0.7,0.02525
0.704,0.00167
0.708,-0.06044
0.712,0.01565
0.716,-0.0449
0.72,0.0741
0.724,0.02901
0.728,-0.03578
0.732,-0.00381
0.736,-0.01012
0.74,0.05275
0.744,0.00325
0.748,0.05594
0.752,0.03811
0.756,0.09684
0.76,0.02674
0.764,0.08635
0.768,0.05546
0.772,0.12995
0.776,0.08599
0.78,0.0411
0.784,0.07846
0.788,0.03814
0.792,0.02796
0.796,0.06544
0.8,-0.05322
0.804,0.00874
0.808,0.05604
0.812,-0.03132
0.816,-0.02664
0.82,-0.00589
0.824,-0.0065
0.828,0.03386
0.832,-0.11621
0.836,0.06863
0.84,0.01456
0.844,0.00993
0.848,-0.01159
0.852,-0.03194
0.856,-0.01055
0.86,0.0025
0.864,0.01191
0.868,0.01446
0.872,-0.02958
0.876,-0.01147
0.88,-0.00746
0.884,-0.08272
0.888,-0.05353
0.892,-0.09385
0.896,-0.12091
0.9,-0.11982
0.904,-0.10891
0.908,0.05236
0.912,0.30176
0.916,0.44328
0.92,0.711
0.924,0.85726
0.928,0.95809
0.932,0.90974
0.936,0.82137
0.94,0.57467
0.944,0.44045
0.948,0.23607
0.952,0.01261
0.956,-0.10654
0.96,-0.18409
0.964,-0.19569
0.968,-0.11148
0.972,-0.1126
0.976,-0.08992
0.98,-0.05189
0.984,-0.0247
0.988,-0.01744
0.992,-0.0671
0.996,-0.0299
1.0,-0.08859
1.004,-0.07226
1.008,-0.00967
1.012,-0.05751
1.016,-0.01078
1.02,0.02188
1.024,0.0164
1.028,-0.02485
1.032,-0.03931
1.036,-0.01645
1.04,-0.05867
1.044,-0.05382
1.048,-0.09086
1.052,-0.00867
1.056,-0.01487
1.06,-0.0883
1.064,-0.04725
1.068,-0.09605
1.072,-0.05802
1.076,-0.02587
1.08,-0.03009
1.084,-0.0043
1.088,-0.01767
1.092,-0.08198
1.096,-0.01857
1.1,-0.00186
1.104,-0.06123
1.108,-0.00173
1.112,0.05377
1.116,0.01931
1.12,-0.01807
1.124,0.03206
1.128,0.11811
1.132,0.03212
1.136,0.03738
1.14,0.13869
1.144,0.0115
1.148,0.0585
1.152,0.11455
1.156,0.05776
1.16,0.06111
1.164,0.09551
1.168,0.09433
1.172,0.14494
1.176,0.07256
1.18,0.10219
1.184,0.19465
1.188,0.18322
1.192,0.15115
1.196,0.20977
1.2,0.17861
1.204,0.2272
1.208,0.20704
1.212,0.15903
1.216,0.20149
1.22,0.19578
1.224,0.15033
1.228,0.2078
1.232,0.11942
1.236,0.14277
1.24,0.12855
1.244,0.16775
1.248,0.14563
1.252,0.12677
1.256,0.08514
1.26,0.10179
1.264,0.01354
1.268,0.05215
1.272,-0.0044
1.276,0.01872
1.28,0.04207
1.284,0.02772
1.288,-0.00505
1.292,-0.01943
1.296,0.0602
1.3,0.02831
1.304,-0.01314
1.308,-0.03274
1.312,-0.02349
1.316,0.04614
1.32,0.02973
1.324,-0.03066
1.328,0.07191
1.332,-0.00779
1.336,-0.04692
1.34,0.01446
1.344,-0.0368
1.348,0.02791
1.352,0.02966
1.356,-0.0862
1.36,-0.04875
1.364,-0.0478
1.368,-0.08012
1.372,-0.03446
1.376,-0.01923
1.38,0.0121
1.384,0.01704
1.388,-0.02824
1.392,-0.00545
1.396,0.00103
1.4,-0.0186
1.404,-0.02893
1.408,0.06434
1.412,0.01175
1.416,0.03548
1.42,0.00652
1.424,0.00266
1.428,0.03686
1.432,0.06023
1.436,0.09981
1.44,0.10383
1.444,0.09896
1.448,0.10105
1.452,0.11875
1.456,0.05619
1.46,0.02219
1.464,0.04098
1.468,0.00399
1.472,0.00387
1.476,-0.01038
1.48,-0.01861
1.484,0.0318
1.488,-0.07267
1.492,0.03209
1.496,-0.0173
1.5,-0.03253
1.504,-0.02431
1.508,-0.0819
1.512,-0.04976
1.516,-0.0806
1.52,0.0056
1.524,-0.01646
1.528,0.01131
1.532,-0.04151
1.536,-0.05763
1.54,0.00956
1.544,0.01816
1.548,-0.05908
1.552,-0.02515
1.556,-0.05576
1.56,-0.10547
1.564,-0.08342
1.568,-0.07657
1.572,-0.16691
1.576,-0.21407
1.58,-0.09751
1.584,0.02796
1.588,0.20368
1.592,0.37227
1.596,0.62701
1.6,0.79331
1.604,0.97206
1.608,0.92362
1.612,0.95204
1.616,0.66673
1.62,0.46183
1.624,0.24989
1.628,0.00885
1.632,-0.09386
1.636,-0.17613
1.64,-0.1779
1.644,-0.2251
1.648,-0.14491
1.652,-0.12345
1.656,-0.09742
1.66,0.01364
1.664,-0.06928
1.668,-0.04823
1.672,-0.09457
1.676,-0.05598
1.68,3e-05
1.684,-0.01919
1.688,-0.04801
1.692,0.01447
1.696,0.00677
1.7,-0.02145
1.704,-0.03584
1.708,-0.01829
1.712,-2e-05
1.716,-0.02931
1.72,-0.04927
1.724,-0.03426
1.728,-0.03491
1.732,-0.04668
1.736,-0.06646
1.74,-0.0094
1.744,-0.00464
1.748,-0.10065
1.752,-0.10949
1.756,-0.11104
1.76,0.01322
1.764,-0.01416
1.768,-0.03298
1.772,-0.07712
1.776,-0.02986
1.78,0.01404
1.784,-0.01314
1.788,0.04203
1.792,-0.03715
1.796,-0.05591
1.8,0.04057
1.804,0.02624
1.808,0.08615
1.812,9e-05
1.816,-0.00765
1.82,0.06421
1.824,0.03165
1.828,0.09764
1.832,0.09374
1.836,0.1061
1.84,0.06983
1.844,0.22723
1.848,0.19495
1.852,0.25771
1.856,0.18694
1.86,0.2123
1.864,0.21939
1.868,0.24655
1.872,0.32415
1.876,0.25143
1.88,0.27747
1.884,0.24554
1.888,0.29539
1.892,0.32754
1.896,0.24364
1.9,0.20542
1.904,0.16211
1.908,0.22491
1.912,0.21977
1.916,0.15395
1.92,0.12617
1.924,0.11786
1.928,0.15303
1.932,0.13223
1.936,0.03745
1.94,0.08215
1.944,0.05692
1.948,0.05724
1.952,0.00463
1.956,0.02037
1.96,0.06087
1.964,-0.04489
1.968,0.00622
1.972,-0.00611
1.976,-0.00967
1.98,0.01049
1.984,0.00301
1.988,-0.05339
1.992,-0.01915
1.996,-0.06404
2.0,-0.14253
2.004,-0.13002
2.008,-0.05697
2.012,-0.1295
2.016,0.04726
2.02,0.30806
2.024,0.53502
2.028,0.69367
2.032,0.82968
2.036,0.95745
2.04,0.92962
2.044,0.82693
2.048,0.62332
2.052,0.39052
2.056,0.12264
2.06,0.06813
2.064,-0.13249
2.068,-0.21221
2.072,-0.20565
2.076,-0.14014
2.08,-0.05726
2.084,-0.06584
2.088,-0.10406
2.092,0.01122
2.096,-0.02238
2.1,-0.0652
2.104,-0.01305
2.108,-0.06702
2.112,-0.0742
2.116,-0.00875
2.12,0.01717
2.124,-0.04417
2.128,0.01829
2.132,-0.04435
2.136,-0.04598
2.14,0.00024
2.144,-0.04154
2.148,-0.0786
2.152,-0.01969
2.156,-0.02675
2.16,-0.08566
2.164,-0.08032
2.168,-0.03165
2.172,0.00396
2.176,-0.07521
2.18,-0.01156
2.184,-0.00987
2.188,-0.07316
2.192,-0.09421
2.196,0.00624
2.2,0.04343
2.204,0.02858
2.208,-0.02068
2.212,-0.01351
2.216,0.02027
2.22,0.01771
2.224,0.03355
2.228,0.00996
2.232,-0.04409
2.236,-0.0516
2.24,0.02304
2.244,0.04114
2.248,0.02581
2.252,0.05859
2.256,0.12541
2.26,0.1003
2.264,0.06732
2.268,0.14564
2.272,0.09384
2.276,0.0635
2.28,0.1558
2.284,0.15588
2.288,0.14051
2.292,0.16398
2.296,0.10454
2.3,0.18761
2.304,0.11816
2.308,0.23805
2.312,0.18454
2.316,0.16314
2.32,0.18904
2.324,0.16844
2.328,0.22503
2.332,0.19826
2.336,0.19022
2.34,0.16378
2.344,0.12388
2.348,0.10478
2.352,0.0901
2.356,0.16297
2.36,0.10375
2.364,0.10579
2.368,0.09809
2.372,0.06808
2.376,0.06361
2.38,0.07818
2.384,0.05911
2.388,0.08902
2.392,0.04132
2.396,0.02377
2.4,0.00569
2.404,0.00047
2.408,0.02022
2.412,-0.02695
2.416,-0.01649
2.42,-0.00135
2.424,-0.05842
2.428,-0.01266
2.432,-0.01995
2.436,0.01527
2.44,-0.01643
2.444,-0.00925
2.448,-0.08597
2.452,-0.03724
2.456,-0.02452
2.46,-0.01353
2.464,-0.09557
2.468,0.03037
2.472,-0.01489
2.476,0.04422
2.48,-0.03125
2.484,-0.01382
2.488,-0.05284
2.492,-0.0581
2.496,-0.00491
2.5,0.00957
2.504,0.02952
2.508,-0.05388
2.512,-0.08169
2.516,0.008
2.52,0.01566
2.524,-0.02008
2.528,-0.03383
2.532,-0.01513
2.536,-0.03569
2.54,-0.05285
2.544,-0.00386
2.548,-0.01972
2.552,-0.08894
2.556,-0.06004
2.56,-0.00105
2.564,0.04475
2.568,-0.03879
2.572,-0.06494
2.576,-0.05735
2.58,0.02689
2.584,-0.05317
2.588,0.01165
2.592,-0.01637
2.596,0.01569
2.6,-0.02175
2.604,-0.02372
2.608,-0.03605
2.612,-0.00591
2.616,-0.03518
2.62,-0.0295
2.624,-0.05163
2.628,-0.03604
2.632,-0.05139
2.636,0.05449
2.64,-0.01228
2.644,-0.0005
2.648,-0.03864
2.652,0.01273
2.656,0.01994
2.66,-0.07877
2.664,0.01561
2.668,-0.0442
2.672,-0.04709
2.676,-0.04135
2.68,-0.0096
2.684,-0.00145
2.688,0.04791
2.692,0.00567
2.696,0.083
2.7,0.02988
2.704,0.06961
2.708,0.06011
2.712,0.0619
2.716,0.07787
2.72,0.00689
2.724,0.10279
2.728,0.06238
2.732,0.0926
2.736,0.06023
2.74,0.08232
2.744,0.09284
2.748,0.05829
2.752,-0.04343
2.756,-0.04781
2.76,-0.06257
2.764,-0.0138
2.768,0.01945
2.772,-0.01755
2.776,-0.02171
2.78,-0.00403
2.784,0.01025
2.788,-0.00302
2.792,-0.00838
2.796,0.0331
2.8,0.01764
2.804,-0.00419
2.808,0.00181
2.812,0.01046
2.816,-0.02633
2.82,-0.00076
2.824,-0.02755
2.828,-0.01003
2.832,-0.02977
2.836,-0.10665
2.84,-0.05065
2.844,-0.13625
2.848,-0.07249
2.852,-0.16174
2.856,-0.12612
2.86,0.02657
2.864,0.16412
2.868,0.38897
2.872,0.60715
2.876,0.83846
2.88,0.95154
2.884,1.01744
2.888,0.89091
2.892,0.6849
2.896,0.48324
2.9,0.22643
2.904,0.05316
2.908,-0.08348
2.912,-0.14229
2.916,-0.14976
2.92,-0.14008
2.924,-0.06707
2.928,-0.08704
2.932,-0.09534
2.936,0.0145
2.94,-0.0322
2.944,-0.01656
2.948,-0.01714
2.952,0.00905
2.956,-0.04892
2.96,0.02754
2.964,0.02654
2.968,-0.01779
2.972,-0.0271
2.976,0.01956
2.98,-0.0331
2.984,-0.03441
2.988,0.01674
2.992,-0.04617
2.996,0.00331
3.0,-0.04877
3.004,0.05565
3.008,0.02144
3.012,-0.02608
3.016,-0.00519
3.02,-0.01342
3.024,0.00319
3.028,-0.02112
3.032,0.01184
3.036,-0.01302
3.04,-0.05635
3.044,-0.04245
3.048,-0.05866
3.052,0.00773
3.056,-0.01368
3.06,0.00302
3.064,-0.02475
3.068,-0.00297
3.072,-0.00775
3.076,0.04037
3.08,0.04513
3.084,0.0528
3.088,0.0695
3.092,0.02154
3.096,0.05064
3.1,0.07212
3.104,0.04699
3.108,0.13374
3.112,0.01997
3.116,0.07903
3.12,0.13325
3.124,0.15918
3.128,0.14228
3.132,0.19446
3.136,0.13617
3.14,0.2325
3.144,0.15556
3.148,0.23785
3.152,0.22302
3.156,0.20576
3.16,0.17251
3.164,0.13908
3.168,0.24737
3.172,0.25571
3.176,0.16309
3.18,0.22372
3.184,0.16295
3.188,0.23773
3.192,0.17833
3.196,0.11951
3.2,0.1703
3.204,0.1526
3.208,0.18812
3.212,0.15509
3.216,0.0629
3.22,0.03124
3.224,0.02805
3.228,0.11675
3.232,0.03905
3.236,0.05804
3.24,-0.00736
3.244,0.01216
3.248,0.05677
3.252,0.01365
3.256,0.03546
3.26,0.08093
3.264,0.03285
3.268,-0.02273
3.272,0.06232
3.276,0.05224
3.28,-0.0508
3.284,0.02616
3.288,0.00875
3.292,-0.0266
3.296,0.00367
3.3,0.05956
3.304,-0.01906
3.308,0.02382
3.312,-0.01382
3.316,-0.00345
3.32,-0.03329
3.324,-0.03468
3.328,-0.02433
3.332,0.02047
3.336,0.0263
3.34,-0.01137
3.344,-0.00499
3.348,-0.01522
3.352,0.03977
3.356,0.01168
3.36,0.00247
3.364,0.00077
3.368,0.00316
3.372,-0.01073
3.376,-0.00197
3.38,-0.0255
3.384,0.00039
3.388,0.02527
3.392,-0.01909
3.396,-0.06395
3.4,-0.02773
3.404,-0.03043
3.408,0.02101
3.412,0.11039
3.416,-0.03279
3.42,-0.0596
3.424,0.00854
3.428,0.00891
3.432,0.00608
3.436,0.02843
3.44,0.00258
3.444,-0.05058
3.448,-0.09641
3.452,0.00826
3.456,0.01108
3.46,0.02764
3.464,0.04278
3.468,0.03974
3.472,-0.01204
3.476,0.03871
3.48,0.13436
3.484,-0.00094
3.488,0.0681
3.492,0.11046
3.496,-0.00964
3.5,0.09841
3.504,0.08842
3.508,0.0746
3.512,0.14044
3.516,0.04976
3.52,0.03027
3.524,0.03346
3.528,0.00137
3.532,0.04397
3.536,0.06679
3.54,0.02458
3.544,0.04468
3.548,0.00804
3.552,0.02594
3.556,-0.04685
3.56,0.04387
3.564,-0.03056
3.568,0.00383
3.572,0.0116
3.576,0.0165
3.58,0.01926
3.584,-0.00777
3.588,-0.01825
3.592,-0.01321
3.596,-0.05165
3.6,-0.00398
3.604,0.00165
3.608,0.01675
3.612,0.01926
3.616,-0.03844
3.62,-0.09319
3.624,-0.11332
3.628,-0.11427
3.632,-0.09632
3.636,-0.03888
3.64,0.15507
3.644,0.28497
3.648,0.49617
3.652,0.71863
3.656,0.95721
3.66,1.05093
3.664,0.9678
3.668,0.85195
3.672,0.68971
3.676,0.40067
3.68,0.26199
3.684,0.04599
3.688,-0.1354
3.692,-0.17565
3.696,-0.10522
3.7,-0.10346
3.704,-0.06182
3.708,-0.04712
3.712,0.02043
3.716,0.00755
3.72,-0.00262
3.724,0.04137
3.728,-0.02683
3.732,-0.00616
3.736,0.03351
3.74,-0.01909
3.744,0.04661
3.748,0.03896
3.752,0.02895
3.756,0.00274
3.76,0.0028
3.764,-0.03183
3.768,-0.01518
3.772,0.04875
3.776,0.04027
3.78,0.05016
3.784,-0.03715
3.788,0.04294
3.792,0.03692
3.796,0.00828
3.8,0.09045
3.804,0.05245
3.808,0.03944
3.812,0.02319
3.816,0.06387
3.82,-0.05039
3.824,0.03069
3.828,0.01994
3.832,0.01807
3.836,0.01237
3.84,0.04712
3.844,-0.00434
3.848,0.05451
3.852,0.01494
3.856,0.01048
3.86,0.06553
3.864,0.07258
3.868,0.05189
3.872,0.02514
3.876,0.11152
3.88,0.16786
3.884,0.11314
3.888,0.12016
3.892,0.11501
3.896,0.15466
3.9,0.06666
3.904,0.22562
3.908,0.15345
3.912,0.14697
3.916,0.22856
3.92,0.17994
3.924,0.2035
3.928,0.19135
3.932,0.17994
3.936,0.21763
3.94,0.19164
3.944,0.23944
3.948,0.21841
3.952,0.235
3.956,0.26107
3.96,0.20432
3.964,0.2303
3.968,0.19636
3.972,0.28404
3.976,0.18651
3.98,0.19164
3.984,0.21343
3.988,0.12402
3.992,0.14564
3.996,0.13737
4.0,0.14478
4.004,0.09234
4.008,0.08206
4.012,0.04934
4.016,0.09559
4.02,0.06992
4.024,0.09468
4.028,0.04978
4.032,-0.00432
4.036,0.05335
4.04,0.03416
4.044,0.04813
4.048,0.00953
4.052,-0.03937
4.056,-0.02401
4.06,-0.0341
4.064,0.09601
4.068,0.0322
4.072,0.03184
4.076,-0.02246
4.08,0.0193
4.084,0.03026
4.088,-0.01101
4.092,-0.02603
4.096,0.0076
4.1,-0.00582
4.104,-0.05541
4.108,0.01013
4.112,0.00583
4.116,0.08784
4.12,0.04999
4.124,-0.00779
4.128,0.02742
4.132,0.01579
4.136,0.00884
4.14,-0.00874
4.144,-0.00056
4.148,0.05585
4.152,-0.00507
4.156,-0.007
4.16,0.04149
4.164,0.00843
4.168,0.07142
4.172,-0.01672
4.176,0.00911
4.18,0.00285
4.184,-0.0149
4.188,-0.05112
4.192,0.01353
4.196,0.00068
4.2,0.03153
4.204,-0.03145
4.208,0.02724
4.212,0.02531
4.216,0.04071
4.22,0.05396
4.224,0.03669
4.228,0.06252
4.232,0.11726
4.236,0.15017
4.24,0.05929
4.244,0.09266
4.248,0.16986
4.252,0.11276
4.256,0.16033
4.26,0.12925
4.264,0.0813
4.268,0.08011
4.272,0.11281
4.276,0.076
4.28,0.10581
4.284,0.00721
4.288,-0.00886
4.292,0.10486
4.296,0.00493
4.3,0.04521
4.304,0.00192
4.308,0.00102
4.312,0.0604
4.316,0.00939
4.32,0.06568
4.324,0.03274
4.328,0.06506
4.332,0.05713
4.336,0.02742
4.34,0.05269
4.344,0.12261
4.348,0.03325
4.352,-0.01212
4.356,-0.10009
4.36,0.00202
4.364,-0.07558
4.368,-0.02609
4.372,-0.10028
4.376,-0.0816
4.38,-0.07435
4.384,-0.0432
4.388,0.02035
4.392,0.17502
4.396,0.4126
4.4,0.62566
4.404,0.87416
4.408,0.95121
4.412,1.04344
4.416,1.00931
4.42,0.77372
4.424,0.56003
4.428,0.31701
4.432,0.09977
4.436,0.02547
4.44,-0.10672
4.444,-0.22701
4.448,-0.07365
4.452,-0.14666
4.456,-0.04857
4.46,-0.00934
4.464,-0.03113
4.468,0.0678
4.472,0.0342
4.476,0.03483
4.48,-0.01378
4.484,0.03148
4.488,0.05967
4.492,0.0622
4.496,0.00017
4.5,0.11301
4.504,0.02252
4.508,0.04565
4.512,0.07118
4.516,0.04752
4.52,0.03066
4.524,-0.01704
4.528,0.00133
4.532,0.05788
4.536,-0.04516
4.54,0.02309
4.544,-0.01561
4.548,-0.01068
4.552,0.08356
4.556,-0.02
4.56,-0.00874
4.564,0.05739
4.568,0.05562
4.572,0.03014
4.576,0.0038
4.58,0.01152
4.584,0.0771
4.588,0.0218
4.592,0.05834
4.596,0.03466
4.6,-0.01402
4.604,0.12853
4.608,0.0919
4.612,-0.0145
4.616,0.04771
4.62,0.06847
4.624,0.13441
4.628,0.11062
4.632,0.12595
4.636,0.11687
4.64,0.10821
4.644,0.16655
4.648,0.20395
4.652,0.16534
4.656,0.16038
4.66,0.17562
4.664,0.20841
4.668,0.21555
4.672,0.22096
4.676,0.23704
4.68,0.27969
4.684,0.23348
4.688,0.27822
4.692,0.26257
4.696,0.27115
4.7,0.3553
4.704,0.25285
4.708,0.21763
4.712,0.26453
4.716,0.20356
4.72,0.1895
4.724,0.14546
4.728,0.17126
4.732,0.20986
4.736,0.18902
4.74,0.17977
4.744,0.12753
4.748,0.12776
4.752,0.16433
4.756,0.11136
4.76,0.15049
4.764,0.11939
4.768,0.00312
4.772,0.07296
4.776,0.08921
4.78,0.06422
4.784,0.0968
4.788,0.10361
4.792,0.03407
4.796,0.02038
4.8,0.03464
4.804,-0.03184
4.808,0.06468
4.812,0.06928
4.816,0.05547
4.82,0.05589
4.824,0.05024
4.828,0.08086
4.832,0.09475
4.836,0.09312
4.84,0.11657
4.844,0.09962
4.848,0.16061
4.852,0.09771
4.856,0.15915
4.86,0.11389
4.864,0.15022
4.868,0.03696
4.872,0.03416
4.876,0.03454
4.88,0.04328
4.884,0.0092
4.888,0.07753
4.892,0.05375
4.896,0.06714
4.9,0.05413
4.904,0.07222
4.908,0.0546
4.912,0.07126
4.916,0.0144
4.92,0.08497
4.924,0.04075
4.928,0.03319
4.932,0.12725
4.936,0.01971
4.94,0.00921
4.944,0.04456
4.948,0.04296
4.952,0.03261
4.956,0.0323
4.96,0.02733
4.964,-0.02062
4.968,-0.04236
4.972,-0.05773
4.976,-0.12627
4.98,-0.06986
4.984,0.01362
4.988,0.14229
4.992,0.37935
4.996,0.54735
5.0,0.703
5.004,0.95607
5.008,1.01119
5.012,0.96075
5.016,0.86611
5.02,0.66979
5.024,0.44986
5.028,0.24076
5.032,0.09124
5.036,-0.08944
5.04,-0.11757
5.044,-0.13001
5.048,-0.11927
5.052,-0.11374
5.056,-0.02847
5.06,0.02255
5.064,0.05362
5.068,0.03864
5.072,0.0191
5.076,0.04974
5.08,0.07876
5.084,0.00634
5.088,0.05258
5.092,0.04074
5.096,0.03362
5.1,0.01908
5.104,0.08118
5.108,0.08562
5.112,0.04531
5.116,0.02364
5.12,-0.00706
5.124,0.01877
5.128,0.05251
5.132,0.02598
5.136,-6e-05
5.14,0.08527
5.144,0.05964
5.148,0.06295
5.152,0.02932
5.156,0.04347
5.16,-0.04677
5.164,0.03601
5.168,0.02218
5.172,0.03567
5.176,0.02187
5.18,0.04597
5.184,0.10178
5.188,0.08161
5.192,0.06996
5.196,0.09686
5.2,0.023
5.204,0.07839
5.208,0.02959
5.212,0.12334
5.216,0.04875
5.22,0.1381
5.224,0.14622
5.228,0.14729
5.232,0.1062
5.236,0.18038
5.24,0.11894
5.244,0.20971
5.248,0.13152
5.252,0.22783
5.256,0.22578
5.26,0.21036
5.264,0.22997
5.268,0.22738
5.272,0.19012
5.276,0.23895
5.28,0.24542
5.284,0.2371
5.288,0.25985
5.292,0.27077
5.296,0.25934
5.3,0.23126
5.304,0.22578
5.308,0.22449
5.312,0.19868
5.316,0.2357
5.32,0.13432
5.324,0.21257
5.328,0.19977
5.332,0.2175
5.336,0.13402
5.34,0.17976
5.344,0.08484
5.348,0.1502
5.352,0.15748
5.356,0.06796
5.36,0.11074
5.364,0.07567
5.368,0.10174
5.372,0.0414
5.376,0.00791
5.38,0.03985
5.384,0.08071
5.388,0.07335
5.392,0.00375
5.396,0.08337
5.4,-0.00878
5.404,0.00371
5.408,0.02771
5.412,0.07728
5.416,0.07801
5.42,0.04601
5.424,0.09473
5.428,0.03467
5.432,-0.01027
5.436,0.0561
5.44,0.0595
5.444,-0.01707
5.448,0.04114
5.452,0.00356
5.456,0.05746
5.46,-0.03038
5.464,0.03664
5.468,0.01914
5.472,0.04154
5.476,0.04357
5.48,0.05857
5.484,0.11043
5.488,0.0519
5.492,0.05616
5.496,0.08613
5.5,0.11769
5.504,0.04145
5.508,0.14607
5.512,0.20749
5.516,0.13884
5.52,0.12249
5.524,0.1282
5.528,0.06523
5.532,0.05759
5.536,0.11911
5.54,0.07965
5.544,-0.00707
5.548,0.07571
5.552,0.08403
5.556,0.01965
5.56,0.00747
5.564,0.04944
5.568,0.0935
5.572,-0.00162
5.576,0.01954
5.58,-0.00575
5.584,-0.03356
5.588,0.02009
5.592,-0.03403
5.596,-0.00111
5.6,0.06404
5.604,-0.0003
5.608,0.03706
5.612,0.02939
5.616,0.03585
5.62,0.03544
5.624,-9e-05
5.628,-0.03472
5.632,-0.102
5.636,-0.13404
5.64,-0.13399
5.644,-0.04166
5.648,0.03791
5.652,0.31085
5.656,0.42647
5.66,0.615
5.664,0.8603
5.668,1.01362
5.672,0.94709
5.676,0.94353
5.68,0.80212
5.684,0.57225
5.688,0.34304
5.692,0.13602
5.696,-0.02973
5.7,-0.0592
5.704,-0.1874
5.708,-0.07819
5.712,-0.11182
5.716,-0.0689
5.72,-0.01144
5.724,0.02376
5.728,-0.01
5.732,0.01753
5.736,0.05483
5.74,0.06424
5.744,-0.01769
5.748,-0.01895
5.752,-0.01604
5.756,0.00012
5.76,-0.00953
5.764,0.0445
5.768,-0.04319
5.772,-0.04906
5.776,0.05797
5.78,0.01659
5.784,0.02876
5.788,0.06703
5.792,-0.00057
5.796,0.09744
5.8,0.03436
5.804,0.00501
5.808,0.00397
5.812,0.01348
5.816,0.00958
5.82,0.04568
5.824,0.06192
5.828,-0.02186
5.832,0.08471
5.836,0.00956
5.84,0.07296
5.844,0.07
5.848,0.0312
5.852,-0.00381
5.856,0.02927
5.86,0.0457
5.864,0.05815
5.868,0.10219
5.872,0.03214
5.876,0.0906
5.88,0.0998
5.884,0.11376
5.888,0.13061
5.892,0.07961
5.896,0.13124
5.9,0.1826
5.904,0.14584
5.908,0.14825
5.912,0.1101
5.916,0.23667
5.92,0.1812
5.924,0.23381
5.928,0.22918
5.932,0.28889
5.936,0.23159
5.94,0.23056
5.944,0.22475
5.948,0.30444
5.952,0.22822
5.956,0.23892
5.96,0.26409
5.964,0.20306
5.968,0.28055
5.972,0.26939
5.976,0.25256
5.98,0.28366
5.984,0.21193
5.988,0.19392
5.992,0.12874
5.996,0.12469
6.0,0.14294
6.004,0.09732
6.008,0.11781
6.012,0.11761
6.016,0.03229
6.02,0.06322
6.024,0.09174
6.028,0.06877
6.032,0.10227
6.036,0.09205
6.04,0.03908
6.044,0.10647
6.048,0.00054
6.052,0.02355
6.056,0.03596
6.06,-0.01093
6.064,0.07491
6.068,0.08049
6.072,0.01525
6.076,0.01047
6.08,-0.00116
6.084,-0.01186
6.088,0.01686
6.092,0.05851
6.096,0.00751
6.1,0.03122
6.104,-0.0013
6.108,0.09018
6.112,-0.01871
6.116,0.01314
6.12,-0.02349
6.124,0.02942
6.128,0.00762
6.132,-0.00944
6.136,-0.00625
6.14,0.04551
6.144,0.0208
6.148,-0.03453
6.152,-0.00624
6.156,0.04998
6.16,0.02232
6.164,0.04495
6.168,0.03354
6.172,-0.0061
6.176,0.0163
6.18,0.00729
6.184,-0.00934
6.188,0.01236
6.192,0.02555
6.196,-0.00987
6.2,0.05769
6.204,-0.01863
6.208,0.0139
6.212,0.05566
6.216,0.00267
6.22,0.03393
6.224,0.04857
6.228,0.09422
6.232,-0.04035
6.236,0.03575
6.24,0.11356
6.244,0.00782
6.248,0.05407
6.252,-0.0113
6.256,0.0313
6.26,-0.00483
6.264,0.04958
6.268,-0.03029
6.272,-0.03367
6.276,-0.01202
6.28,-0.01448
6.284,0.00359
6.288,0.02692
6.292,0.0153
6.296,0.0078
6.3,0.01836
6.304,0.05194
6.308,0.04028
6.312,0.08162
6.316,0.06848
6.32,0.05361
6.324,0.08649
6.328,0.08814
6.332,0.12767
6.336,0.12948
6.34,0.09674
6.344,0.12318
6.348,0.06779
6.352,0.09951
6.356,0.05307
6.36,0.04048
6.364,0.07255
6.368,0.07982
6.372,0.05042
6.376,0.10705
6.38,-0.02572
6.384,0.06777
6.388,-0.00711
6.392,0.009
6.396,-0.01215
6.4,0.02764
6.404,0.03284
6.408,-0.00467
6.412,0.01522
6.416,0.05102
6.42,-0.04044
6.424,0.01439
6.428,0.01235
6.432,0.05418
6.436,-0.01932
6.44,0.05638
6.444,-0.04039
6.448,-0.00126
6.452,-0.03898
6.456,-0.0842
6.46,-0.0196
6.464,-0.074
6.468,-0.04578
6.472,0.12377
6.476,0.25542
6.48,0.48997
6.484,0.66392
6.488,0.85067
6.492,1.01904
6.496,0.97667
6.5,0.94204
6.504,0.771
6.508,0.50154
6.512,0.3061
6.516,0.04196
6.52,-0.10537
6.524,-0.16287
6.528,-0.17179
6.532,-0.15787
6.536,-0.12138
6.54,-0.04386
6.544,-0.05892
6.548,-0.00828
6.552,-0.03205
6.556,0.02457
6.56,0.06872
6.564,-0.0274
6.568,-0.02825
6.572,0.01196
6.576,0.01184
6.58,0.01892
6.584,0.06255
6.588,-0.0106
6.592,-0.02024
6.596,0.03129
6.6,-0.02185
6.604,0.02497
6.608,-0.04664
6.612,-0.02052
6.616,0.04215
6.62,0.03759
6.624,0.03417
6.628,0.03745
6.632,-0.00207
6.636,-0.0191
6.64,0.04707
6.644,0.06893
6.648,0.01261
6.652,-0.0135
6.656,0.03052
6.66,-0.00581
6.664,0.05396
6.668,0.04774
6.672,-0.01726
6.676,9e-05
6.68,0.02014
6.684,0.04871
6.688,0.04994
6.692,0.03583
6.696,0.05822
6.7,0.04664
6.704,0.07836
6.708,0.08623
6.712,0.1234
6.716,0.07285
6.72,0.12454
6.724,0.15083
6.728,0.08452
6.732,0.24659
6.736,0.11438
6.74,0.14116
6.744,0.16493
6.748,0.1872
6.752,0.22363
6.756,0.16271
6.76,0.20619
6.764,0.2174
6.768,0.18547
6.772,0.15435
6.776,0.15459
6.78,0.2897
6.784,0.19109
6.788,0.20325
6.792,0.22083
6.796,0.19196
6.8,0.16866
6.804,0.22308
6.808,0.16161
6.812,0.16884
6.816,0.12755
6.82,0.15209
6.824,0.0765
6.828,0.08713
6.832,0.07281
6.836,0.09906
6.84,0.0707
6.844,0.07884
6.848,0.04402
6.852,0.0321
6.856,0.11072
6.86,-0.01126
6.864,0.04048
6.868,0.02021
6.872,0.02108
6.876,0.06638
6.88,0.02342
6.884,-0.00673
6.888,-0.02213
6.892,0.01546
6.896,0.05996
6.9,0.01363
6.904,0.02442
6.908,-0.03548
6.912,0.0041
6.916,-0.0018
6.92,0.01029
6.924,-0.02877
6.928,0.07496
6.932,-0.03032
6.936,-0.02291
6.94,-0.01061
6.944,0.04279
6.948,-0.00507
6.952,-0.04391
6.956,0.04834
6.96,0.02158
6.964,-0.01131
6.968,0.03253
6.972,-0.00794
6.976,-0.02817
6.98,-0.00435
6.984,-0.02509
6.988,-0.01348
6.992,-0.01546
6.996,0.00093
7.0,0.02131
7.004,0.01366
7.008,0.04464
7.012,0.01149
7.016,0.07691
7.02,0.12377
7.024,0.12924
7.028,0.0938
7.032,0.09386
7.036,0.14203
7.04,0.14
7.044,0.08135
7.048,0.02526
7.052,0.11459
7.056,0.11345
7.06,0.03836
7.064,0.01515
7.068,0.02571
7.072,0.00973
7.076,-0.03941
7.08,-0.07067
7.084,0.03544
7.088,-0.06351
7.092,-0.02201
7.096,-0.0162
7.1,-0.00245
7.104,-0.0304
7.108,0.00629
7.112,0.02562
7.116,0.0263
7.12,-0.01478
7.124,0.00641
7.128,0.03337
7.132,0.00251
7.136,0.0471
7.14,0.00086
7.144,0.01845
7.148,-0.03688
7.152,-0.06271
7.156,-0.08351
7.16,-0.05881
7.164,-0.08954
7.168,0.02661
7.172,0.19387
7.176,0.36363
7.18,0.5867
7.184,0.79045
7.188,0.90537
7.192,0.95804
7.196,0.91781
7.2,0.79302
7.204,0.58065
7.208,0.3083
7.212,0.15785
7.216,-0.04351
7.22,-0.17917
7.224,-0.13559
7.228,-0.14155
7.232,-0.12724
7.236,-0.11121
7.24,-0.09996
7.244,-0.05905
7.248,-0.07833
7.252,-0.02911
7.256,-0.06002
7.26,0.00584
7.264,-0.0034
7.268,-0.02992
7.272,-0.03618
7.276,-0.02973
7.28,-0.03718
7.284,-0.05826
7.288,-0.05354
7.292,-0.00411
7.296,0.03634
7.3,0.05214
7.304,0.00841
7.308,0.07173
7.312,-0.04244
7.316,-0.02438
7.32,-0.04755
7.324,0.007
7.328,-0.06603
7.332,-0.01161
7.336,5e-05
7.34,-0.00349
7.344,0.00719
7.348,0.03827
7.352,0.01685
7.356,0.01921
7.36,-0.02859
7.364,-0.0782
7.368,0.05488
7.372,0.03484
7.376,-0.01363
7.38,0.0136
7.384,-0.03891
7.388,0.05781
7.392,0.0391
7.396,0.02664
7.4,0.08369
7.404,-0.03655
7.408,0.10021
7.412,0.08094
7.416,0.0506
7.42,0.04355
7.424,-0.00152
7.428,0.08995
7.432,0.1479
7.436,0.14153
7.44,0.15542
7.444,0.14186
7.448,0.18921
7.452,0.21357
7.456,0.21142
7.46,0.16436
7.464,0.21866
7.468,0.14641
7.472,0.18714
7.476,0.20663
7.48,0.1782
7.484,0.18823
7.488,0.11604
7.492,0.13955
7.496,0.17888
7.5,0.15326
7.504,0.19312
7.508,0.1257
7.512,0.09691
7.516,0.10261
7.52,0.17005
7.524,0.08587
7.528,0.06227
7.532,0.12436
7.536,0.0356
7.54,0.04657
7.544,0.01339
7.548,0.00145
7.552,0.04342
7.556,0.01226
7.56,-0.02982
7.564,0.00845
7.568,0.03017
7.572,-0.02922
7.576,-0.0421
7.58,-0.07959
7.584,0.01735
7.588,0.01153
7.592,-0.06338
7.596,-0.00432
7.6,-0.08403
7.604,-0.02097
7.608,0.00798
7.612,-0.05521
7.616,-0.01976
7.62,0.0314
7.624,0.01506
7.628,0.04313
7.632,-0.03945
7.636,0.02815
7.64,0.0647
7.644,-0.02284
7.648,-0.01117
7.652,-0.00339
7.656,-0.04488
7.66,0.02927
7.664,0.02336
7.668,0.0012
7.672,-0.00138
7.676,-0.02542
7.68,-0.03114
7.684,-0.03595
7.688,-0.08498
7.692,-0.051
7.696,-0.06978
7.7,-0.04993
7.704,-0.04505
7.708,-0.06131
7.712,-0.10116
7.716,0.05729
7.72,0.01764
7.724,-0.09606
7.728,0.01511
7.732,-0.03486
7.736,0.00668
7.74,-0.09712
7.744,-0.0605
7.748,-0.03302
7.752,0.05567
7.756,0.02223
7.76,0.01031
7.764,0.00025
7.768,-0.01338
7.772,-0.03025
7.776,-0.01253
7.78,-0.02519
7.784,0.00627
7.788,-0.05549
7.792,-0.06646
7.796,-0.07944
7.8,-0.02903
7.804,-0.07954
7.808,-0.03224
7.812,-0.06514
7.816,-0.06578
7.82,0.01138
7.824,-0.02529
7.828,-0.00438
7.832,0.07074
7.836,-0.00477
7.84,-0.0428
7.844,0.0462
7.848,-0.00701
7.852,0.02821
7.856,0.0602
7.86,-0.00043
7.864,0.05826
7.868,0.02001
7.872,0.07932
7.876,0.0866
7.88,0.03631
7.884,-0.00282
7.888,0.10386
7.892,0.00037
7.896,0.03985
7.9,-0.0089
7.904,0.05177
7.908,0.04102
7.912,-0.00256
7.916,-0.032
7.92,0.0221
7.924,0.04468
7.928,-0.00118
7.932,-0.06763
7.936,0.03983
7.94,-0.06921
7.944,-0.04679
7.948,-0.10628
7.952,-0.05818
7.956,-0.02754
7.96,-0.03747
7.964,-0.01157
7.968,-0.01097
7.972,-0.03733
7.976,-0.02412
7.98,-0.09693
7.984,-0.04135
7.988,-0.00637
7.992,-0.02645
7.996,-0.05581
8.0,-0.09358
8.004,-0.16298
8.008,-0.16931
8.012,-0.07111
8.016,-0.07218
8.02,0.08133
8.024,0.30584
8.028,0.47184
8.032,0.72693
8.036,0.86414
8.04,0.94226
8.044,0.93792
8.048,0.78343
8.052,0.54382
8.056,0.35215
8.06,0.13912
8.064,0.00215
8.068,-0.14043
8.072,-0.15533
8.076,-0.1986
8.08,-0.13114
8.084,-0.15964
8.088,-0.07067
8.092,-0.0728
8.096,-0.07445
8.1,-0.02147
8.104,-0.00411
8.108,-0.09835
8.112,-0.07235
8.116,-0.01929
8.12,-0.00207
8.124,0.03417
8.128,-0.0049
8.132,-0.03241
8.136,-0.02936
8.14,-0.0702
8.144,0.01047
8.148,0.00451
8.152,-0.0077
8.156,-0.01536
8.16,0.01396
8.164,-0.05739
8.168,-0.02255
8.172,-0.04141
8.176,0.01921
8.18,-0.05412
8.184,-0.06296
8.188,-0.05377
8.192,-0.02828
8.196,-0.01373
8.2,-0.09835
8.204,-0.05346
8.208,-0.05978
8.212,-0.046
8.216,0.04977
8.22,0.01105
8.224,-0.03979
8.228,0.0277
8.232,-0.00053
8.236,0.03208
8.24,0.05174
8.244,-0.00208
8.248,0.02978
8.252,0.0117
8.256,0.05794
8.26,0.10919
8.264,0.06384
8.268,0.06191
8.272,0.10635
8.276,0.09225
8.28,0.09739
8.284,0.11073
8.288,0.08982
8.292,0.12606
8.296,0.13625
8.3,0.15428
8.304,0.11267
8.308,0.19625
8.312,0.15366
8.316,0.28874
8.32,0.13943
8.324,0.20571
8.328,0.20245
8.332,0.16776
8.336,0.19272
8.34,0.243
8.344,0.1894
8.348,0.17187
8.352,0.13482
8.356,0.07521
8.36,0.16937
8.364,0.08781
8.368,0.08853
8.372,0.11975
8.376,0.13163
8.38,0.04474
8.384,0.08474
8.388,0.06737
8.392,0.08323
8.396,-0.01318
8.4,0.04996
8.404,-0.00971
8.408,-0.00531
8.412,-0.00529
8.416,0.00604
8.42,-0.01474
8.424,0.01206
8.428,-0.0234
8.432,-0.05304
8.436,-0.01886
8.44,-0.012
8.444,-0.02453
8.448,-0.09226
8.452,-0.04436
8.456,-0.00902
8.46,-0.01484
8.464,-0.00072
8.468,-0.00633
8.472,-0.0296
8.476,-0.03767
8.48,-0.02549
8.484,0.01921
8.488,-0.00325
8.492,-0.0212
8.496,-0.0504
8.5,-0.02898
8.504,0.01079
8.508,0.01134
8.512,-0.01116
8.516,-0.01555
8.52,-0.03238
8.524,-0.00408
8.528,9e-05
8.532,0.05279
8.536,-0.08057
8.54,-0.01283
8.544,-0.04691
8.548,-0.09619
8.552,-0.02014
8.556,5e-05
8.56,0.01663
8.564,-0.06225
8.568,-0.01707
8.572,0.01843
8.576,0.00135
8.58,-0.04737
8.584,-0.02974
8.588,-0.07844
8.592,0.02695
8.596,-0.03831
8.6,-0.06813
8.604,0.01398
8.608,-0.00386
8.612,-0.00996
8.616,0.01519
8.62,-0.03267
8.624,-0.05017
8.628,-0.04723
8.632,-0.01732
8.636,-0.03396
8.64,-0.05509
8.644,-0.03603
8.648,-0.08078
8.652,-0.02651
8.656,-0.00035
8.66,-0.01062
8.664,-0.02547
8.668,-0.06622
8.672,0.02896
8.676,-0.01905
8.68,-0.0067
8.684,-0.04883
8.688,-0.04135
8.692,-0.01949
8.696,-0.01966
8.7,-0.01984
8.704,0.00977
8.708,-0.08836
8.712,-0.08638
8.716,-0.09907
8.72,-0.05851
8.724,-0.01473
8.728,-0.10668
8.732,-0.03315
8.736,-0.04874
8.74,-0.04339
8.744,0.02211
8.748,-0.0297
8.752,0.02225
8.756,-0.05841
8.76,-0.04204
8.764,0.00311
8.768,-0.06784
8.772,0.03883
8.776,0.02417
8.78,-0.01113
8.784,-0.04421
8.788,-0.06576
8.792,-0.02616
8.796,-0.05341
8.8,-0.02568
8.804,0.01904
8.808,0.00323
8.812,-0.04009
8.816,0.04022
8.82,-0.07476
8.824,-0.00276
8.828,-0.02267
8.832,-0.03572
8.836,-0.00173
8.84,-0.03156
8.844,-0.03343
8.848,-0.06406
8.852,-0.04445
8.856,0.01384
8.86,-0.04177
8.864,-0.05523
8.868,-0.04365
8.872,-0.03513
8.876,-0.02611
8.88,-0.0624
8.884,-0.04489
8.888,-0.03331
8.892,-0.03095
8.896,-0.03249
8.9,-0.00717
8.904,-0.03863
8.908,-0.04078
8.912,-0.01608
8.916,0.00168
8.92,-0.01927
8.924,-0.06152
8.928,-0.03881
8.932,0.00574
8.936,-0.03312
8.94,-0.00916
8.944,-0.02889
8.948,-0.01312
8.952,-0.06931
8.956,-0.01299
8.96,-0.01862
8.964,0.01464
8.968,0.01317
8.972,0.00343
8.976,0.03461
8.98,0.01527
8.984,-0.069
8.988,0.01017
8.992,-0.00811
8.996,-0.00275
9.0,-0.02373
9.004,0.03631
9.008,-0.00042
9.012,0.00948
9.016,0.04472
9.02,0.03002
9.024,0.06405
9.028,0.01922
9.032,0.05441
9.036,0.01919
9.04,0.07051
9.044,0.09799
9.048,0.11198
9.052,0.11172
9.056,0.09283
9.06,0.04296
9.064,0.0259
9.068,-0.05407
9.072,0.0554
9.076,-0.00509
9.08,0.05643
9.084,0.01817
9.088,-0.04697
9.092,-0.05242
9.096,-0.02144
9.1,-0.07983
9.104,-0.06778
9.108,-0.04141
9.112,-0.05695
9.116,-0.01634
9.12,-0.01335
9.124,0.00168
9.128,0.00994
9.132,-0.02972
9.136,0.02325
9.14,0.01629
9.144,-0.02882
9.148,-0.00524
9.152,-0.11935
9.156,-0.06126
9.16,-0.12932
9.164,-0.06242
9.168,-0.18484
9.172,-0.17292
9.176,-0.10345
9.18,0.01455
9.184,0.23324
9.188,0.44998
9.192,0.63775
9.196,0.78811
9.2,0.93354
9.204,0.93785
9.208,0.93687
9.212,0.74509
9.216,0.48507
9.22,0.2631
9.224,0.04714
9.228,-0.0468
9.232,-0.20482
9.236,-0.18953
9.24,-0.17151
9.244,-0.13046
9.248,-0.08052
9.252,-0.0619
9.256,-0.03376
9.26,-0.01925
9.264,-0.06428
9.268,0.00112
9.272,-0.06962
9.276,-0.06898
9.28,-0.01217
9.284,-0.01542
9.288,-0.00075
9.292,-0.0186
9.296,0.0084
9.3,-0.03239
9.304,-0.02139
9.308,-0.0397
9.312,-0.04879
9.316,0.00495
9.32,-0.01063
9.324,-0.07355
9.328,0.02582
9.332,-0.01519
9.336,-0.01623
9.34,-0.05072
9.344,0.02882
9.348,-0.10592
9.352,-0.00523
9.356,-0.05246
9.36,-0.04551
9.364,-0.00793
9.368,-0.01728
9.372,-0.03458
9.376,-0.03174
9.38,-0.00614
9.384,-0.00026
9.388,-0.03437
9.392,0.05581
9.396,-0.0284
9.4,0.08359
9.404,0.01001
9.408,0.04147
9.412,0.04131
9.416,0.08549
9.42,0.00149
9.424,0.04017
9.428,0.12772
9.432,0.12894
9.436,0.14142
9.44,0.14397
9.444,0.13901
9.448,0.14547
9.452,0.10527
9.456,0.14494
9.46,0.21677
9.464,0.21668
9.468,0.18099
9.472,0.24183
9.476,0.18935
9.48,0.25933
9.484,0.24496
9.488,0.21814
9.492,0.22669
9.496,0.19329
9.5,0.23807
9.504,0.26169
9.508,0.14838
9.512,0.158
9.516,0.1885
9.52,0.20307
9.524,0.29036
9.528,0.25799
9.532,0.24892
9.536,0.16283
9.54,0.19986
9.544,0.15584
9.548,0.10706
9.552,0.17231
9.556,0.1325
9.56,0.12216
9.564,0.04333
9.568,0.08835
9.572,0.06313
9.576,0.05051
9.58,0.06747
9.584,-0.02053
9.588,0.04275
9.592,-0.04237
9.596,-0.04286
9.6,-0.06547
9.604,0.00045
9.608,-0.06717
9.612,-0.00228
9.616,-0.00461
9.62,0.01337
9.624,0.01987
9.628,-0.06883
9.632,-0.02824
9.636,0.00493
9.64,0.01438
9.644,-0.00597
9.648,0.02681
9.652,-0.02233
9.656,-0.11088
9.66,-0.08106
9.664,-0.14517
9.668,-0.09372
9.672,0.03638
9.676,0.21008
9.68,0.44315
9.684,0.72327
9.688,0.86076
9.692,0.97415
9.696,0.95122
9.7,0.91857
9.704,0.65442
9.708,0.52238
9.712,0.23066
9.716,0.07325
9.72,-0.12977
9.724,-0.17941
9.728,-0.17997
9.732,-0.13856
9.736,-0.11823
9.74,-0.11539
9.744,-0.06854
9.748,0.02854
9.752,0.02571
9.756,-0.07696
9.76,0.03071
9.764,0.00121
9.768,-0.01139
9.772,0.00404
9.776,-0.04438
9.78,-0.0528
9.784,0.02369
9.788,-0.0765
9.792,0.01685
9.796,-0.02553
9.8,-0.00529
9.804,-0.00062
9.808,-0.01487
9.812,-0.04632
9.816,0.01833
9.82,-0.04124
9.824,-0.01871
9.828,-0.02194
9.832,-0.04597
9.836,-0.04992
9.84,0.07073
9.844,-0.06712
9.848,-0.05843
9.852,-0.00665
9.856,0.00566
9.86,0.02148
9.864,-0.01571
9.868,0.0813
9.872,0.0519
9.876,-0.01192
9.88,0.03237
9.884,0.07401
9.888,0.02267
9.892,0.00272
9.896,0.07828
9.9,0.08196
9.904,0.12447
9.908,0.03587
9.912,0.1273
9.916,0.10706
9.92,0.1404
9.924,0.09633
9.928,0.10304
9.932,0.16061
9.936,0.20647
9.94,0.14182
9.944,0.15711
9.948,0.16047
9.952,0.18962
9.956,0.214
9.96,0.22464
9.964,0.21583
9.968,0.17809
9.972,0.19354
9.976,0.21958
9.98,0.25157
9.984,0.19323
9.988,0.18596
9.992,0.23588
9.996,0.17687
