t_seg,ecg_mV
0.0,0.05363
0.004,0.00641
0.008,0.01334
0.012,0.04988
0.016,0.03045
0.02,0.03686
0.024,-0.01565
0.028,0.06215
0.032,0.0241
0.036,0.10324
0.04,0.00313
0.044,0.00587
0.048,0.01627
0.052,0.08014
0.056,0.03648
0.06,0.00602
0.064,0.07477
0.068,0.02267
0.072,-0.02228
0.076,0.03689
0.08,-0.00305
0.084,0.03308
0.088,-0.01665
0.092,-0.04084
0.096,0.02157
0.1,0.07468
0.104,0.0232
0.108,0.0517
0.112,0.10112
0.116,0.01512
0.12,-0.02509
0.124,0.04724
0.128,0.01392
0.132,0.03881
0.136,0.00825
0.14,0.0182
0.144,0.0205
0.148,-0.00407
0.152,0.05624
0.156,-0.00307
0.16,0.09123
0.164,0.03872
0.168,0.02525
0.172,0.10018
0.176,0.07556
0.18,-0.02654
0.184,0.06836
0.188,0.08809
0.192,0.0598
0.196,0.08994
0.2,0.07339
0.204,0.08877
0.208,-0.00563
0.212,0.06718
0.216,0.03958
0.22,0.02366
0.224,0.04962
0.228,-0.01562
0.232,0.02858
0.236,0.04302
0.24,0.02175
0.244,0.05365
0.248,0.01972
0.252,0.00849
0.256,0.01333
0.26,-0.01625
0.264,0.10658
0.268,0.00373
0.272,0.00953
0.276,0.06408
0.28,0.0386
0.284,0.04296
0.288,-0.01805
0.292,0.02477
0.296,-0.00638
0.3,0.02465
0.304,0.0637
0.308,0.02395
0.312,0.09057
0.316,0.05017
0.32,0.03612
0.324,0.0325
0.328,0.07448
0.332,0.10387
0.336,0.00423
0.34,0.04665
0.344,0.07208
0.348,0.10442
0.352,0.05545
0.356,0.141
0.36,0.0532
0.364,0.11651
0.368,0.15231
0.372,0.06833
0.376,0.06182
0.38,0.10438
0.384,0.17271
0.388,0.11794
0.392,0.12746
0.396,0.15874
0.4,0.12325
0.404,0.05032
0.408,0.03761
0.412,0.11691
0.416,0.04497
0.42,-0.02499
0.424,-0.05681
0.428,0.00092
0.432,0.03629
0.436,-0.01562
0.44,0.0444
0.444,0.02653
0.448,-0.00103
0.452,0.03326
0.456,0.07652
0.46,0.00675
0.464,-0.01468
0.468,-0.05653
0.472,0.00945
0.476,0.01956
0.48,0.02455
0.484,0.01593
0.488,0.07064
0.492,0.03807
0.496,0.02951
0.5,0.03994
0.504,-0.11016
0.508,-0.07279
0.512,-0.00874
0.516,0.02688
0.52,0.20863
0.524,0.47356
0.528,0.68578
0.532,0.88466
0.536,0.96787
0.54,0.91045
0.544,0.99019
0.548,0.72896
0.552,0.5304
0.556,0.33555
0.56,0.17206
0.564,-0.00219
0.568,-0.1588
0.572,-0.17084
0.576,-0.15283
0.58,-0.07904
0.584,0.03899
0.588,-0.02215
0.592,-0.03
0.596,-0.02202
0.6,0.0001
0.604,0.00862
0.608,0.04218
0.612,-0.03803
0.616,-0.01132
0.62,-0.02813
0.624,-0.02499
0.628,-0.03755
0.632,0.04892
0.636,0.04204
0.64,0.007
0.644,0.01742
0.648,0.09668
0.652,0.01704
0.656,0.01986
0.66,0.11008
0.664,0.00266
0.668,-0.02602
0.672,0.08687
0.676,0.00795
0.68,0.05178
0.684,0.09953
0.688,-0.00096
0.692,-0.00765
0.696,0.07657
0.7,0.01419
0.704,0.02165
0.708,0.01717
0.712,0.01314
0.716,-0.00139
0.72,-0.01638
0.724,0.00612
0.728,0.04918
0.732,0.08349
0.736,0.1395
0.74,0.10721
0.744,0.09546
0.748,0.05371
0.752,0.1356
0.756,0.12172
0.76,0.05276
0.764,0.13493
0.768,0.05184
0.772,0.12006
0.776,0.12051
0.78,0.15596
0.784,0.17631
0.788,0.22438
0.792,0.21789
0.796,0.28418
0.8,0.25924
0.804,0.23615
0.808,0.26506
0.812,0.2667
0.816,0.19141
0.82,0.2881
0.824,0.19185
0.828,0.25347
0.832,0.22755
0.836,0.21659
0.84,0.16501
0.844,0.19312
0.848,0.22514
0.852,0.15387
0.856,0.15307
0.86,0.18362
0.864,0.16322
0.868,0.12816
0.872,0.14456
0.876,0.04109
0.88,0.07051
0.884,0.05811
0.888,0.00504
0.892,0.0962
0.896,0.08659
0.9,0.0874
0.904,0.04066
0.908,0.02953
0.912,0.04707
0.916,0.04475
0.92,0.04798
0.924,0.06258
0.928,0.06904
0.932,-0.02904
0.936,0.00996
0.94,0.05147
0.944,0.05031
0.948,0.06523
0.952,0.00614
0.956,-0.0329
0.96,0.00868
0.964,-0.00155
0.968,0.05082
0.972,0.042
0.976,0.02326
0.98,0.07657
0.984,0.03922
0.988,0.02244
0.992,0.05447
0.996,-0.07319
1.0,0.10086
1.004,-0.06526
1.008,0.07058
1.012,0.02415
1.016,-0.02152
1.02,0.07523
1.024,0.02938
1.028,0.01881
1.032,0.02419
1.036,-0.03492
1.04,0.04154
1.044,0.01726
1.048,-0.00625
1.052,-0.02607
1.056,-0.06909
1.06,0.03272
1.064,0.05658
1.068,-0.06381
1.072,0.03721
1.076,0.03541
1.08,0.07786
1.084,-0.02342
1.088,0.05387
1.092,0.01212
1.096,0.02914
1.1,-0.0344
1.104,-0.06169
1.108,-0.0014
1.112,-0.00407
1.116,-0.00599
1.12,0.0069
1.124,0.03873
1.128,0.03305
1.132,0.01882
1.136,0.13782
1.14,0.03234
1.144,0.06059
1.148,0.13106
1.152,0.05426
1.156,0.10189
1.16,0.13118
1.164,0.13662
1.168,0.09077
1.172,0.15221
1.176,0.09146
1.18,0.08619
1.184,0.10423
1.188,0.02897
1.192,0.02249
1.196,-0.02201
1.2,-0.01462
1.204,0.04122
1.208,0.07727
1.212,0.00664
1.216,-0.00023
1.22,0.05617
1.224,-0.02526
1.228,-0.02251
1.232,0.01619
1.236,-0.02662
1.24,-0.00681
1.244,0.00181
1.248,-0.01942
1.252,-0.01018
1.256,0.04645
1.26,-0.04164
1.264,-0.01824
1.268,0.03044
1.272,0.03768
1.276,-0.02159
1.28,-0.01291
1.284,-0.06017
1.288,-0.06157
1.292,-0.12547
1.296,-0.08296
1.3,0.13281
1.304,0.38572
1.308,0.53019
1.312,0.74897
1.316,0.89791
1.32,0.9512
1.324,1.04377
1.328,0.82773
1.332,0.66454
1.336,0.39985
1.34,0.24583
1.344,0.00457
1.348,-0.06609
1.352,-0.24759
1.356,-0.16643
1.36,-0.10171
1.364,-0.11852
1.368,-0.00574
1.372,-0.01366
1.376,0.00092
1.38,0.02577
1.384,0.04991
1.388,0.01016
1.392,-0.0124
1.396,-0.02669
1.4,-0.02281
1.404,-0.01373
1.408,0.03076
1.412,-0.0044
1.416,0.00283
1.42,0.03837
1.424,0.05543
1.428,0.00613
1.432,0.02549
1.436,0.02762
1.44,-0.02678
1.444,-0.01162
1.448,0.01016
1.452,0.07295
1.456,-0.02338
1.46,0.06897
1.464,-0.0096
1.468,0.0252
1.472,-0.01825
1.476,-0.04573
1.48,-0.01023
1.484,0.07421
1.488,0.01081
1.492,-0.00122
1.496,-0.01848
1.5,0.06476
1.504,0.01927
1.508,-0.01998
1.512,0.00547
1.516,0.07414
1.52,-0.00529
1.524,0.02607
1.528,0.08702
1.532,0.11151
1.536,0.14984
1.54,0.11985
1.544,0.09808
1.548,0.11344
1.552,0.15534
1.556,0.15027
1.56,0.18607
1.564,0.13455
1.568,0.18868
1.572,0.21513
1.576,0.19098
1.58,0.257
1.584,0.19187
1.588,0.25695
1.592,0.18548
1.596,0.20235
1.6,0.22409
1.604,0.25345
1.608,0.19776
1.612,0.25535
1.616,0.24651
1.62,0.16763
1.624,0.13583
1.628,0.14184
1.632,0.16726
1.636,0.1951
1.64,0.1308
1.644,0.18141
1.648,0.13954
1.652,0.09182
1.656,0.1522
1.66,0.12431
1.664,0.09541
1.668,0.02983
1.672,0.0849
1.676,0.04253
1.68,0.08038
1.684,0.06849
1.688,0.06195
1.692,0.02476
1.696,-0.01462
1.7,0.0044
1.704,-0.00752
1.708,0.04633
1.712,0.01694
1.716,0.04903
1.72,0.04958
1.724,0.00471
1.728,0.00135
1.732,0.05221
1.736,0.01266
1.74,0.10933
1.744,0.05878
1.748,0.10922
1.752,0.11253
1.756,0.0885
1.76,0.12463
1.764,0.14691
1.768,0.05123
1.772,0.05355
1.776,0.00928
1.78,0.05259
1.784,-0.02367
1.788,0.00888
1.792,0.05462
1.796,0.01857
1.8,-0.02408
1.804,-0.06573
1.808,-0.08702
1.812,-0.03142
1.816,-0.01667
1.82,-0.01635
1.824,0.01752
1.828,0.03397
1.832,0.02241
1.836,-0.09316
1.84,-0.02186
1.844,-0.01328
1.848,0.01447
1.852,0.01644
1.856,-0.05503
1.86,-0.00778
1.864,-0.02109
1.868,0.00963
1.872,-0.03961
1.876,-0.09175
1.88,-0.18591
1.884,-0.13559
1.888,-0.0499
1.892,0.1375
1.896,0.22708
1.9,0.44546
1.904,0.67426
1.908,0.87739
1.912,0.96835
1.916,0.99118
1.92,0.86028
1.924,0.70985
1.928,0.45088
1.932,0.1935
1.936,0.03642
1.94,-0.08946
1.944,-0.15065
1.948,-0.24214
1.952,-0.12466
1.956,-0.10947
1.96,-0.1422
1.964,-0.06202
1.968,-0.05911
1.972,-0.06936
1.976,0.01068
1.98,-0.09352
1.984,-0.0625
1.988,-0.06188
1.992,-0.0197
1.996,-0.04578
2.0,0.02629
2.004,-0.03984
2.008,0.02224
2.012,0.02218
2.016,-0.01109
2.02,-0.00604
2.024,-0.01741
2.028,0.02512
2.032,-0.02431
2.036,0.01565
2.04,-0.04105
2.044,0.03899
2.048,-0.10049
2.052,-0.03933
2.056,-0.00767
2.06,-0.05144
2.064,-0.02924
2.068,-0.08811
2.072,-0.03756
2.076,0.00193
2.08,0.03327
2.084,-0.01766
2.088,0.0393
2.092,0.02496
2.096,0.02324
2.1,0.01781
2.104,0.04109
2.108,-0.01148
2.112,0.04167
2.116,0.04393
2.12,0.03971
2.124,0.08105
2.128,0.01846
2.132,0.04299
2.136,0.0581
2.14,0.12863
2.144,0.10092
2.148,0.06705
2.152,0.13369
2.156,0.16472
2.16,0.17615
2.164,0.16413
2.168,0.16219
2.172,0.12276
2.176,0.20262
2.18,0.16141
2.184,0.16931
2.188,0.24216
2.192,0.17615
2.196,0.19566
2.2,0.15547
2.204,0.1693
2.208,0.18578
2.212,0.24303
2.216,0.14142
2.22,0.16898
2.224,0.14648
2.228,0.1466
2.232,0.1111
2.236,0.14594
2.24,0.18893
2.244,0.06668
2.248,0.13844
2.252,0.14784
2.256,0.08801
2.26,0.07216
2.264,0.02629
2.268,-0.03249
2.272,0.09098
2.276,0.02981
2.28,0.04752
2.284,0.06367
2.288,0.00375
2.292,-0.04131
2.296,-0.03674
2.3,0.02043
2.304,-0.03502
2.308,-0.0493
2.312,0.01704
2.316,-0.01321
2.32,0.02927
2.324,-0.02833
2.328,-0.01389
2.332,-0.00718
2.336,-0.07069
2.34,0.0448
2.344,-0.03273
2.348,0.0138
2.352,-0.02488
2.356,-0.00221
2.36,-0.01696
2.364,-0.0216
2.368,-0.01905
2.372,0.00301
2.376,-0.04605
2.38,-0.05151
2.384,-0.06159
2.388,-0.01042
2.392,-0.02161
2.396,-0.04769
2.4,-0.01899
2.404,-0.02076
2.408,-0.07431
2.412,-0.01305
2.416,-0.05949
2.42,-0.00545
2.424,0.01558
2.428,-0.02405
2.432,0.07123
2.436,-0.00095
2.44,-0.06152
2.444,0.00055
2.448,0.01352
2.452,-0.01168
2.456,-0.0123
2.46,-0.03585
2.464,-0.058
2.468,0.03036
2.472,0.02936
2.476,-0.0043
2.48,-0.0042
2.484,-0.00384
2.488,-0.02246
2.492,-0.04072
2.496,-0.03351
2.5,0.00322
2.504,-0.04725
2.508,0.06342
2.512,-0.00562
2.516,0.05477
2.52,0.06762
2.524,0.09535
2.528,0.03087
2.532,0.06096
2.536,0.04013
2.54,0.01559
2.544,-0.01467
2.548,0.08723
2.552,0.0422
2.556,0.03566
2.56,-0.00873
2.564,0.00254
2.568,0.06199
2.572,-0.03823
2.576,-0.03131
2.58,-0.00789
2.584,-0.03966
2.588,-0.04709
2.592,0.01037
2.596,-0.0237
2.6,0.01506
2.604,-0.05297
2.608,-0.04095
2.612,-0.0375
2.616,-0.02576
2.62,-0.05479
2.624,-0.05509
2.628,-0.02984
2.632,-0.00269
2.636,-0.03018
2.64,-0.02293
2.644,-0.01401
2.648,-0.00474
2.652,-0.08129
2.656,-0.11324
2.66,-0.17663
2.664,-0.15059
2.668,-0.16775
2.672,0.09635
2.676,0.36643
2.68,0.52352
2.684,0.71281
2.688,0.8084
2.692,1.0283
2.696,0.96377
2.7,0.796
2.704,0.60339
2.708,0.35404
2.712,0.19822
2.716,-0.02884
2.72,-0.11216
2.724,-0.21669
2.728,-0.16225
2.732,-0.1315
2.736,-0.09039
2.74,-0.121
2.744,-0.14714
2.748,-0.04039
2.752,-0.06478
2.756,-0.00094
2.76,-0.03836
2.764,0.00778
2.768,-0.05072
2.772,-0.0576
2.776,0.00848
2.78,-0.05263
2.784,0.00513
2.788,-0.05273
2.792,-0.06362
2.796,-0.05525
2.8,-0.00975
2.804,0.02199
2.808,-0.01494
2.812,0.00719
2.816,-0.02888
2.82,-0.00457
2.824,-0.01457
2.828,-0.0829
2.832,-0.04528
2.836,-0.03363
2.84,0.00026
2.844,-0.03128
2.848,-0.02129
2.852,0.00634
2.856,0.00799
2.86,0.00304
2.864,0.01759
2.868,-0.04012
2.872,-0.03579
2.876,0.00259
2.88,0.0198
2.884,-0.02701
2.888,0.01699
2.892,-0.00478
2.896,0.05722
2.9,0.07781
2.904,0.00167
2.908,0.0748
2.912,0.08138
2.916,0.04579
2.92,0.06489
2.924,0.0941
2.928,0.05722
2.932,0.1049
2.936,0.12693
2.94,0.16769
2.944,0.1706
2.948,0.15055
2.952,0.18218
2.956,0.15931
2.96,0.18225
2.964,0.23642
2.968,0.20024
2.972,0.20842
2.976,0.14793
2.98,0.1884
2.984,0.19079
2.988,0.22355
2.992,0.21011
2.996,0.165
3.0,0.19432
3.004,0.09107
3.008,0.09155
3.012,0.15533
3.016,0.09776
3.02,0.11178
3.024,0.07185
3.028,0.01658
3.032,0.09186
3.036,0.00828
3.04,0.0254
3.044,0.01542
3.048,0.0104
3.052,0.04412
3.056,-0.01774
3.06,0.00721
3.064,-0.02786
3.068,-0.02625
3.072,-0.03211
3.076,-0.00786
3.08,0.00658
3.084,-0.01633
3.088,-0.04617
3.092,0.03783
3.096,-0.06355
3.1,-0.00465
3.104,-0.0064
3.108,-0.08325
3.112,-0.01443
3.116,-0.02203
3.12,-0.00494
3.124,0.00742
3.128,-0.00334
3.132,-0.03269
3.136,0.03788
3.14,-0.04646
3.144,-0.04436
3.148,-0.04106
3.152,-0.04454
3.156,0.01774
3.16,-0.05334
3.164,-0.00769
3.168,0.03855
3.172,-0.04986
3.176,-0.07727
3.18,0.0023
3.184,-0.01551
3.188,-0.02738
3.192,-0.01301
3.196,0.03089
3.2,0.03264
3.204,-0.03464
3.208,-0.02007
3.212,-0.09051
3.216,-0.06945
3.22,-0.04335
3.224,-0.00045
3.228,-0.07548
3.232,-0.07065
3.236,0.00056
3.24,-0.00939
3.244,-0.0592
3.248,-0.05759
3.252,-0.02253
3.256,0.01043
3.26,-0.07096
3.264,-0.03848
3.268,-0.02519
3.272,0.01138
3.276,-0.04199
3.28,-0.01324
3.284,-0.03617
3.288,-0.0912
3.292,-0.00544
3.296,-0.06275
3.3,-0.02821
3.304,0.03556
3.308,-0.01331
3.312,0.00036
3.316,-0.00372
3.32,-0.03152
3.324,-0.0365
3.328,-0.00344
3.332,-0.01821
3.336,0.09261
3.34,0.0109
3.344,0.06307
3.348,0.06025
3.352,0.06592
3.356,0.05399
3.36,0.09166
3.364,0.02032
3.368,0.09496
3.372,0.07935
3.376,0.10807
3.38,-0.00525
3.384,0.09202
3.388,0.00742
3.392,-0.00127
3.396,-0.05471
3.4,-0.02536
3.404,-0.06207
3.408,-0.00676
3.412,-0.03541
3.416,0.0065
3.42,-0.03053
3.424,-0.02808
3.428,-0.08013
3.432,0.03288
3.436,-0.03744
3.44,0.00469
3.444,-0.04303
3.448,-0.00118
3.452,0.00631
3.456,-0.04511
3.46,0.00293
3.464,-0.01788
3.468,-0.06871
3.472,-0.04207
3.476,-0.05396
3.48,-0.05948
3.484,-0.13854
3.488,-0.1387
3.492,-0.11278
3.496,-0.07638
3.5,0.0868
3.504,0.24303
3.508,0.44116
3.512,0.71207
3.516,0.83307
3.52,0.98404
3.524,0.97937
3.528,0.79627
3.532,0.66498
3.536,0.40247
3.54,0.19872
3.544,-0.01756
3.548,-0.10197
3.552,-0.23513
3.556,-0.18262
3.56,-0.16815
3.564,-0.08143
3.568,-0.06322
3.572,-0.09499
3.576,-0.02924
3.58,-0.04511
3.584,-0.03767
3.588,-0.08431
3.592,-0.02465
3.596,-0.08016
3.6,-0.07063
3.604,-0.06602
3.608,-0.03193
3.612,-0.00546
3.616,-0.13486
3.62,0.0357
3.624,-0.01431
3.628,-0.0089
3.632,-0.01533
3.636,-0.03233
3.64,0.03915
3.644,0.04743
3.648,0.00439
3.652,0.03439
3.656,-0.07014
3.66,-0.04888
3.664,-0.00297
3.668,0.02607
3.672,-0.06011
3.676,-0.05593
3.68,-0.0342
3.684,-0.02976
3.688,0.05002
3.692,-0.03174
3.696,-0.05883
3.7,0.03219
3.704,-0.02286
3.708,-0.02466
3.712,0.00194
3.716,0.02451
3.72,0.04174
3.724,-0.00461
3.728,-0.01821
3.732,0.0471
3.736,0.07524
3.74,0.07548
3.744,0.07633
3.748,0.02387
3.752,0.12596
3.756,0.10261
3.76,0.11811
3.764,0.15018
3.768,0.12468
3.772,0.12516
3.776,0.12618
3.78,0.21008
3.784,0.13183
3.788,0.10148
3.792,0.16401
3.796,0.17081
3.8,0.1695
3.804,0.21561
3.808,0.18989
3.812,0.17327
3.816,0.14792
3.82,0.14649
3.824,0.12607
3.828,0.22379
3.832,0.17722
3.836,0.13232
3.84,0.13621
3.844,0.15849
3.848,0.09121
3.852,0.17022
3.856,0.08778
3.86,0.05587
3.864,0.13598
3.868,0.10723
3.872,0.05774
3.876,-0.02649
3.88,0.05985
3.884,0.01326
3.888,-0.01722
3.892,0.02451
3.896,-0.00485
3.9,0.01771
3.904,-0.06653
3.908,0.02046
3.912,-0.05764
3.916,0.05689
3.92,0.00656
3.924,0.05072
3.928,-0.07466
3.932,-0.04405
3.936,0.02582
3.94,-0.01684
3.944,-0.0413
3.948,-0.10348
3.952,-0.02158
3.956,-0.02088
3.96,-0.02628
3.964,-0.01067
3.968,-0.06598
3.972,-0.02134
3.976,-0.02386
3.98,0.00608
3.984,-0.03609
3.988,-0.04562
3.992,-0.06904
3.996,-0.02172
4.0,0.03586
4.004,-0.00543
4.008,0.01413
4.012,0.0104
4.016,-0.00437
4.02,0.01773
4.024,-0.02929
4.028,-0.02048
4.032,-0.01
4.036,-0.03286
4.04,-0.09757
4.044,0.00546
4.048,-0.08427
4.052,-0.05546
4.056,-0.08675
4.06,-0.01271
4.064,-0.01275
4.068,-0.0344
4.072,-0.0058
4.076,-0.02589
4.08,0.00126
4.084,0.02254
4.088,0.02978
4.092,-0.03796
4.096,-0.02377
4.1,0.0033
4.104,0.06377
4.108,-0.00571
4.112,0.01508
4.116,0.02231
4.12,-0.05617
4.124,-0.0343
4.128,0.02158
4.132,0.04333
4.136,-0.00335
4.14,-0.02728
4.144,0.02528
4.148,-0.04543
4.152,-0.01982
4.156,-0.04161
4.16,-0.09288
4.164,-0.00785
4.168,-0.03234
4.172,0.06122
4.176,0.03863
4.18,0.01724
4.184,0.05058
4.188,-0.03687
4.192,0.02229
4.196,-0.01026
4.2,-0.03038
4.204,0.00452
4.208,0.01565
4.212,0.05344
4.216,0.00708
4.22,0.04011
4.224,0.00138
4.228,0.06472
4.232,0.0938
4.236,0.01115
4.24,0.04729
4.244,0.03471
4.248,0.08816
4.252,0.04627
4.256,0.16663
4.26,0.0628
4.264,0.06088
4.268,0.09434
4.272,0.09085
4.276,0.08143
4.28,0.04225
4.284,0.01143
4.288,-0.08564
4.292,0.01599
4.296,0.04919
4.3,0.00884
4.304,-0.00647
4.308,-0.01459
4.312,0.04989
4.316,-0.07819
4.32,0.00607
4.324,-0.03555
4.328,-0.06009
4.332,-0.00666
4.336,-0.03649
4.34,0.00804
4.344,-0.00953
4.348,0.00093
4.352,0.02478
4.356,-0.04038
4.36,0.0434
4.364,-0.0299
4.368,-0.08829
4.372,-0.00616
4.376,-0.02773
4.38,-0.07112
4.384,-0.08148
4.388,-0.13638
4.392,-0.0761
4.396,0.01092
4.4,0.25563
4.404,0.40508
4.408,0.68545
4.412,0.82603
4.416,0.95785
4.42,0.93999
4.424,0.89017
4.428,0.6664
4.432,0.49485
4.436,0.30465
4.44,0.01484
4.444,-0.15232
4.448,-0.22595
4.452,-0.15667
4.456,-0.15037
4.46,-0.04759
4.464,-0.14561
4.468,-0.08822
4.472,-0.0063
4.476,0.0364
4.48,-0.03692
4.484,-0.02593
4.488,0.02546
4.492,-0.0082
4.496,-0.03889
4.5,0.01919
4.504,-0.04149
4.508,-0.03784
4.512,-0.01728
4.516,0.04996
4.52,-0.02094
4.524,-0.00619
4.528,0.00592
4.532,0.01719
4.536,0.01761
4.54,0.05248
4.544,-0.01551
4.548,0.02836
4.552,0.03378
4.556,-0.01711
4.56,0.0085
4.564,0.01206
4.568,-0.03592
4.572,-0.02088
4.576,-0.00694
4.58,0.008
4.584,-0.02391
4.588,0.0683
4.592,-0.02788
4.596,0.06751
4.6,0.03784
4.604,-0.05461
4.608,-0.03796
4.612,-0.01938
4.616,0.06902
4.62,0.04899
4.624,0.09411
4.628,-0.02168
4.632,0.03765
4.636,0.00174
4.64,0.01617
4.644,0.13358
4.648,0.11921
4.652,0.15119
4.656,0.19126
4.66,0.11344
4.664,0.21894
4.668,0.25015
4.672,0.28913
4.676,0.28653
4.68,0.24369
4.684,0.27568
4.688,0.32548
4.692,0.38862
4.696,0.33698
4.7,0.3034
4.704,0.28157
4.708,0.26987
4.712,0.24411
4.716,0.21263
4.72,0.21216
4.724,0.26809
4.728,0.21559
4.732,0.21201
4.736,0.16811
4.74,0.13571
4.744,0.1603
4.748,0.08097
4.752,0.13063
4.756,0.16507
4.76,0.05099
4.764,0.10838
4.768,0.10138
4.772,0.05088
4.776,0.00326
4.78,0.04097
4.784,0.05622
4.788,0.04139
4.792,0.03277
4.796,0.05478
4.8,-0.02499
4.804,0.07053
4.808,0.02663
4.812,-0.06429
4.816,-0.09571
4.82,-0.14023
4.824,-0.13768
4.828,-0.02354
4.832,0.03467
4.836,0.1436
4.84,0.27113
4.844,0.3766
4.848,0.52672
4.852,0.52381
4.856,0.52167
4.86,0.43285
4.864,0.26476
4.868,0.14934
4.872,0.0553
4.876,-0.08017
4.88,-0.20468
4.884,-0.1811
4.888,-0.18154
4.892,-0.10701
4.896,-0.0586
4.9,0.00135
4.904,-0.05496
4.908,-0.08145
4.912,-0.04669
4.916,0.02436
4.92,-0.03286
4.924,-0.00209
4.928,0.03374
4.932,0.03865
4.936,0.04515
4.94,-0.00716
4.944,0.03023
4.948,0.02063
4.952,-0.04573
4.956,0.02742
4.96,0.00333
4.964,-0.03485
4.968,0.0247
4.972,0.03753
4.976,0.02926
4.98,-0.03508
4.984,-0.06467
4.988,-0.02927
4.992,-0.05359
4.996,0.04893
5.0,0.0484
5.004,-0.00641
5.008,0.04104
5.012,0.02021
5.016,0.02145
5.02,0.04877
5.024,-0.07191
5.028,0.03803
5.032,0.05676
5.036,0.06314
5.04,0.00267
5.044,0.02558
5.048,0.09866
5.052,0.08307
5.056,0.01589
5.06,0.08369
5.064,0.08295
5.068,0.0968
5.072,0.11332
5.076,0.13538
5.08,0.14129
5.084,0.18725
5.088,0.19214
5.092,0.12632
5.096,0.12736
5.1,0.17731
5.104,0.21374
5.108,0.20309
5.112,0.14762
5.116,0.17194
5.12,0.25276
5.124,0.14343
5.128,0.26667
5.132,0.27044
5.136,0.31381
5.14,0.25324
5.144,0.20456
5.148,0.23698
5.152,0.23255
5.156,0.17793
5.16,0.1733
5.164,0.23633
5.168,0.15502
5.172,0.12626
5.176,0.18968
5.18,0.17947
5.184,0.09543
5.188,0.09477
5.192,0.0978
5.196,0.15484
5.2,0.06397
5.204,0.15047
5.208,0.05857
5.212,0.0418
5.216,0.03614
5.22,0.03427
5.224,0.06062
5.228,0.09162
5.232,-0.01334
5.236,0.00439
5.24,0.00561
5.244,-0.01739
5.248,0.06609
5.252,-0.00829
5.256,0.01466
5.26,0.07467
5.264,0.00706
5.268,0.05242
5.272,-0.03613
5.276,0.03935
5.28,0.00606
5.284,0.08809
5.288,0.02698
5.292,0.01331
5.296,0.07558
5.3,0.11297
5.304,0.02809
5.308,0.02523
5.312,-0.02964
5.316,-0.01778
5.32,0.0364
5.324,0.01583
5.328,0.03518
5.332,0.00828
5.336,0.02403
5.34,0.00088
5.344,0.09174
5.348,0.05417
5.352,0.02663
5.356,-0.00788
5.36,0.05476
5.364,0.03305
5.368,0.1105
5.372,0.08837
5.376,0.03194
5.38,0.07331
5.384,0.08856
5.388,0.09332
5.392,0.09552
5.396,0.09416
5.4,0.11052
5.404,0.11512
5.408,0.05514
5.412,0.13079
5.416,0.11205
5.42,0.07298
5.424,-0.03115
5.428,0.08641
5.432,-0.01495
5.436,0.07152
5.44,0.0262
5.444,-0.04216
5.448,0.0236
5.452,-0.00455
5.456,0.01587
5.46,-0.00051
5.464,0.0654
5.468,0.01269
5.472,-0.0085
5.476,0.0412
5.48,0.04263
5.484,-0.03336
5.488,-0.00619
5.492,0.06129
5.496,0.04108
5.5,-0.04127
5.504,0.02332
5.508,-0.01873
5.512,-0.06391
5.516,-0.10398
5.52,-0.11704
5.524,-0.10939
5.528,0.05927
5.532,0.2253
5.536,0.41124
5.54,0.63132
5.544,0.89503
5.548,0.94574
5.552,1.0376
5.556,0.91259
5.56,0.76543
5.564,0.56101
5.568,0.36856
5.572,0.08094
5.576,0.02165
5.58,-0.14789
5.584,-0.11306
5.588,-0.13901
5.592,-0.06765
5.596,-0.06792
5.6,-0.04473
5.604,0.017
5.608,-0.00324
5.612,0.07492
5.616,-0.01159
5.62,0.03611
5.624,0.08312
5.628,-0.01139
5.632,-0.03465
5.636,0.01585
5.64,0.00852
5.644,0.01559
5.648,0.04968
5.652,0.03518
5.656,-0.0188
5.66,0.06674
5.664,0.02977
5.668,0.00692
5.672,0.0535
5.676,0.01059
5.68,0.01025
5.684,0.01818
5.688,0.01586
5.692,-0.00203
5.696,0.04198
5.7,0.08147
5.704,0.04997
5.708,0.07141
5.712,0.0453
5.716,-0.00109
5.72,0.0074
5.724,0.06247
5.728,-0.01194
5.732,0.01494
5.736,-0.01292
5.74,0.06964
5.744,-0.00181
5.748,0.09595
5.752,0.03809
5.756,0.05822
5.76,0.10148
5.764,0.16139
5.768,0.09762
5.772,0.1048
5.776,0.10743
5.78,0.16837
5.784,0.18968
5.788,0.21845
5.792,0.17913
5.796,0.15038
5.8,0.25258
5.804,0.20069
5.808,0.15763
5.812,0.20362
5.816,0.25271
5.82,0.29454
5.824,0.20212
5.828,0.20963
5.832,0.27702
5.836,0.29587
5.84,0.14749
5.844,0.24073
5.848,0.1917
5.852,0.32953
5.856,0.21015
5.86,0.23484
5.864,0.12884
5.868,0.19373
5.872,0.21716
5.876,0.15483
5.88,0.12963
5.884,0.13412
5.888,0.15608
5.892,0.13888
5.896,0.11778
5.9,0.07083
5.904,0.12255
5.908,0.04595
5.912,0.09749
5.916,0.01486
5.92,0.02872
5.924,0.00984
5.928,0.00931
5.932,0.08279
5.936,0.07133
5.94,-0.04394
5.944,0.06445
5.948,0.03408
5.952,0.04115
5.956,0.04479
5.96,-0.00154
5.964,-0.00488
5.968,0.02522
5.972,0.03895
5.976,0.0715
5.98,0.03452
5.984,-0.02859
5.988,0.05359
5.992,0.08726
5.996,0.06705
6.0,0.00813
6.004,0.0376
6.008,0.06008
6.012,0.04164
6.016,0.04549
6.02,0.03647
6.024,0.05907
6.028,-0.00902
6.032,0.04478
6.036,-0.05804
6.04,0.05254
6.044,0.00337
6.048,0.03193
6.052,0.01794
6.056,0.04574
6.06,-0.00729
6.064,0.06195
6.068,0.01092
6.072,0.01352
6.076,0.0756
6.08,-0.02461
6.084,-0.00649
6.088,-0.01112
6.092,0.03485
6.096,-0.00319
6.1,0.08475
6.104,-0.00559
6.108,0.04003
6.112,0.04639
6.116,0.00677
6.12,0.08724
6.124,0.03871
6.128,0.02403
6.132,0.00189
6.136,0.01219
6.14,0.02937
6.144,0.02608
6.148,0.00485
6.152,-0.02535
6.156,0.01414
6.16,0.02515
6.164,0.0598
6.168,0.06141
6.172,0.0166
6.176,-0.01089
6.18,0.0632
6.184,0.04871
6.188,0.12729
6.192,0.07938
6.196,0.08275
6.2,0.03584
6.204,0.05242
6.208,0.05183
6.212,0.04634
6.216,0.0585
6.22,0.15662
6.224,0.07958
6.228,0.09772
6.232,0.17062
6.236,0.12545
6.24,0.10576
6.244,0.10732
6.248,0.04918
6.252,0.06465
6.256,0.03039
6.26,0.09668
6.264,0.01673
6.268,0.03082
6.272,0.05363
6.276,0.0313
6.28,-0.02069
6.284,0.0377
6.288,-0.01159
6.292,0.05939
6.296,0.08547
6.3,0.08517
6.304,-0.03031
6.308,0.02414
6.312,0.00708
6.316,0.03298
6.32,0.09791
6.324,0.01608
6.328,0.05278
6.332,-0.01277
6.336,0.03783
6.34,0.03122
6.344,0.01223
6.348,0.07686
6.352,-0.01711
6.356,-0.04896
6.36,-0.04348
6.364,-0.07365
6.368,-0.09711
6.372,0.05478
6.376,0.2241
6.38,0.45605
6.384,0.6259
6.388,0.79478
6.392,0.99303
6.396,1.01425
6.4,0.96208
6.404,0.77264
6.408,0.55379
6.412,0.33046
6.416,0.10641
6.42,-0.04589
6.424,-0.07877
6.428,-0.16369
6.432,-0.16956
6.436,-0.07932
6.44,-0.0367
6.444,0.01047
6.448,0.01327
6.452,0.06917
6.456,0.04372
6.46,0.0271
6.464,0.0527
6.468,0.07642
6.472,-0.01792
6.476,0.05697
6.48,0.01217
6.484,-0.00224
6.488,0.0046
6.492,0.09059
6.496,0.06139
6.5,0.06864
6.504,0.05357
6.508,0.0742
6.512,0.05055
6.516,0.02201
6.52,0.03694
6.524,-0.02969
6.528,0.08448
6.532,-0.00867
6.536,0.02818
6.54,0.03277
6.544,0.07441
6.548,0.06985
6.552,0.08822
6.556,0.06995
6.56,0.04261
6.564,0.09125
6.568,0.08146
6.572,0.07407
6.576,0.07375
6.58,0.04879
6.584,0.09314
6.588,0.11536
6.592,0.12044
6.596,0.10297
6.6,0.06026
6.604,0.08989
6.608,0.13402
6.612,0.12552
6.616,0.10428
6.62,0.20042
6.624,0.16524
6.628,0.11906
6.632,0.10685
6.636,0.15703
6.64,0.2309
6.644,0.2156
6.648,0.22536
6.652,0.26469
6.656,0.21551
6.66,0.23873
6.664,0.36527
6.668,0.31901
6.672,0.3239
6.676,0.33803
6.68,0.35319
6.684,0.37549
6.688,0.34588
6.692,0.38644
6.696,0.29709
6.7,0.33392
6.704,0.25008
6.708,0.21929
6.712,0.21979
6.716,0.21412
6.72,0.14748
6.724,0.10891
6.728,0.16907
6.732,0.24792
6.736,0.12514
6.74,0.09466
6.744,0.10912
6.748,0.08844
6.752,0.02408
6.756,0.01717
6.76,0.05063
6.764,0.04092
6.768,0.07765
6.772,0.07067
6.776,0.02311
6.78,0.07793
6.784,0.06985
6.788,-0.01559
6.792,0.05281
6.796,0.05791
6.8,-0.0055
6.804,-0.08024
6.808,-0.11416
6.812,-0.03906
6.816,-0.07464
6.82,0.08637
6.824,0.21387
6.828,0.38628
6.832,0.66704
6.836,0.88064
6.84,0.84743
6.844,0.99635
6.848,1.01308
6.852,0.79812
6.856,0.57244
6.86,0.38136
6.864,0.21188
6.868,-0.03118
6.872,-0.163
6.876,-0.07221
6.88,-0.09288
6.884,-0.04363
6.888,-0.03416
6.892,0.00815
6.896,0.02873
6.9,0.07083
6.904,-0.02654
6.908,0.07303
6.912,-0.01132
6.916,0.05612
6.92,0.05575
6.924,0.05458
6.928,0.0331
6.932,-0.01096
6.936,0.06765
6.94,0.04138
6.944,0.04438
6.948,0.0088
6.952,0.05029
6.956,0.02003
6.96,-0.01019
6.964,-0.00107
6.968,0.05691
6.972,-0.01607
6.976,0.00726
6.98,-0.04491
6.984,0.05097
6.988,0.03565
6.992,0.04395
6.996,-0.00884
7.0,0.00798
7.004,0.00608
7.008,0.03153
7.012,0.01718
7.016,0.02698
7.02,0.04357
7.024,-0.01521
7.028,0.07097
7.032,0.0701
7.036,0.06108
7.04,0.06508
7.044,0.06786
7.048,0.10557
7.052,0.07618
7.056,0.05141
7.06,0.09924
7.064,0.0969
7.068,0.17965
7.072,0.13647
7.076,0.17169
7.08,0.2249
7.084,0.22385
7.088,0.20391
7.092,0.23951
7.096,0.20521
7.1,0.20955
7.104,0.20613
7.108,0.19944
7.112,0.25144
7.116,0.27187
7.12,0.26168
7.124,0.28427
7.128,0.20306
7.132,0.2482
7.136,0.19494
7.14,0.27109
7.144,0.20848
7.148,0.20424
7.152,0.21433
7.156,0.1699
7.16,0.16234
7.164,0.20207
7.168,0.18155
7.172,0.17032
7.176,0.1205
7.18,0.16703
7.184,0.0994
7.188,0.09013
7.192,0.13108
7.196,0.08964
7.2,0.07843
7.204,0.10931
7.208,0.09325
7.212,0.04778
7.216,0.06693
7.22,0.10514
7.224,0.06416
7.228,0.03284
7.232,0.06486
7.236,-0.01138
7.24,-0.07425
7.244,0.03505
7.248,0.04424
7.252,0.03074
7.256,0.04194
7.26,0.03376
7.264,0.04117
7.268,0.0782
7.272,0.02695
7.276,0.00056
7.28,0.0
7.284,-0.00391
7.288,-0.00536
7.292,0.01755
7.296,0.01588
7.3,-0.01486
7.304,-0.02531
7.308,0.03168
7.312,0.03199
7.316,0.0262
7.32,-0.01524
7.324,0.00893
7.328,-0.00164
7.332,0.04723
7.336,-0.03344
7.34,0.04573
7.344,0.00582
7.348,0.01389
7.352,0.02666
7.356,-0.02828
7.36,0.05793
7.364,0.03088
7.368,-0.02677
7.372,-0.00451
7.376,-0.02958
7.38,0.01191
7.384,0.00309
7.388,-0.016
7.392,-0.00928
7.396,-0.00697
7.4,-0.00272
7.404,0.02669
7.408,0.02166
7.412,0.02371
7.416,-0.0196
7.42,0.0471
7.424,0.0792
7.428,0.03445
7.432,0.03534
7.436,0.12422
7.44,0.04785
7.444,0.00397
7.448,0.00054
7.452,0.06713
7.456,0.02659
7.46,0.00436
7.464,0.00821
7.468,0.0212
7.472,0.05122
7.476,-0.01965
7.48,0.05271
7.484,0.00948
7.488,-0.01466
7.492,0.09975
7.496,0.10079
7.5,0.14441
7.504,0.10665
7.508,0.14008
7.512,0.20704
7.516,0.16267
7.52,0.06533
7.524,0.11513
7.528,0.04177
7.532,0.06861
7.536,0.08283
7.54,0.08226
7.544,0.02429
7.548,0.00204
7.552,-0.01583
7.556,0.07635
7.56,0.05341
7.564,-0.00856
7.568,0.03824
7.572,-0.01929
7.576,0.04486
7.58,0.04018
7.584,0.00912
7.588,-0.00317
7.592,0.0615
7.596,-0.0244
7.6,0.0357
7.604,-0.00367
7.608,0.03637
7.612,-0.01315
7.616,-0.00916
7.62,-0.00646
7.624,0.07404
7.628,0.00225
7.632,0.02734
7.636,-0.01814
7.64,-0.047
7.644,-0.08585
7.648,-0.13358
7.652,-0.00379
7.656,0.14176
7.66,0.29678
7.664,0.58858
7.668,0.75376
7.672,0.86386
7.676,1.00977
7.68,0.95423
7.684,0.80025
7.688,0.62969
7.692,0.35732
7.696,0.15416
7.7,0.06368
7.704,-0.14234
7.708,-0.21885
7.712,-0.13858
7.716,-0.09252
7.72,-0.08301
7.724,0.01071
7.728,0.0123
7.732,-0.05726
7.736,0.00041
7.74,0.03981
7.744,0.02423
7.748,-0.03366
7.752,0.04203
7.756,0.02341
7.76,-0.02612
7.764,0.0194
7.768,-0.0056
7.772,0.00125
7.776,-0.00806
7.78,0.05175
7.784,0.06051
7.788,0.00815
7.792,0.08491
7.796,-0.02173
7.8,0.00733
7.804,0.01032
7.808,0.05403
7.812,0.02843
7.816,0.02586
7.82,0.02617
7.824,-0.0063
7.828,0.00806
7.832,0.02466
7.836,-0.01071
7.84,0.00788
7.844,0.03492
7.848,0.03177
7.852,0.03514
7.856,0.06208
7.86,-0.01647
7.864,-0.0236
7.868,0.06742
7.872,0.01511
7.876,0.09357
7.88,0.06593
7.884,0.0716
7.888,0.15869
7.892,0.15817
7.896,0.04918
7.9,0.16178
7.904,0.08746
7.908,0.10134
7.912,0.095
7.916,0.15331
7.92,0.1554
7.924,0.16244
7.928,0.16826
7.932,0.17574
7.936,0.22707
7.94,0.20173
7.944,0.28932
7.948,0.2067
7.952,0.21401
7.956,0.24648
7.96,0.29106
7.964,0.18987
7.968,0.18497
7.972,0.23037
7.976,0.17104
7.98,0.20781
7.984,0.16954
7.988,0.2324
7.992,0.16173
7.996,0.13782
8.0,0.13656
8.004,0.10056
8.008,0.08946
8.012,0.08053
8.016,0.06445
8.02,0.03427
8.024,0.08787
8.028,0.041
8.032,0.03511
8.036,0.07383
8.04,0.08091
8.044,0.05869
8.048,-0.0023
8.052,0.06222
8.056,0.04608
8.06,0.03747
8.064,0.11205
8.068,0.00579
8.072,-0.01368
8.076,0.05264
8.08,-0.0268
8.084,0.06459
8.088,-0.00045
8.092,0.0228
8.096,0.02613
8.1,0.04095
8.104,0.04763
8.108,0.03237
8.112,-0.05794
8.116,0.0489
8.12,0.03683
8.124,0.03306
8.128,-0.00199
8.132,-0.01919
8.136,-0.05711
8.14,0.0044
8.144,0.0545
8.148,-0.05196
8.152,0.07669
8.156,-0.04561
8.16,0.0215
8.164,0.02258
8.168,-0.01357
8.172,0.04138
8.176,0.02175
8.18,0.00761
8.184,-0.02777
8.188,-0.03565
8.192,-0.07412
8.196,-0.0316
8.2,0.04634
8.204,0.01082
8.208,-0.00378
8.212,-0.00084
8.216,-0.00422
8.22,-0.02996
8.224,-0.01461
8.228,0.05048
8.232,-0.05364
8.236,0.02421
8.24,0.01164
8.244,0.03453
8.248,0.01597
8.252,0.0814
8.256,0.0264
8.26,0.02746
8.264,0.04585
8.268,0.08066
8.272,0.05565
8.276,0.09649
8.28,0.08852
8.284,0.04997
8.288,0.0379
8.292,0.13447
8.296,0.0314
8.3,0.09158
8.304,0.0256
8.308,0.00114
8.312,-0.01026
8.316,0.05205
8.32,0.02891
8.324,0.00223
8.328,-0.07177
8.332,0.02667
8.336,-0.03384
8.34,-0.02854
8.344,-0.07729
8.348,-0.04087
8.352,-0.06654
8.356,-0.02456
8.36,-0.01022
8.364,-0.01508
8.368,0.02348
8.372,-0.05615
8.376,0.01311
8.38,-0.00125
8.384,-0.03785
8.388,0.01397
8.392,0.02988
8.396,-0.01323
8.4,-0.0975
8.404,-0.14987
8.408,-0.08471
8.412,-0.03967
8.416,-0.03492
8.42,0.1167
8.424,0.34728
8.428,0.66269
8.432,0.71962
8.436,0.93688
8.44,0.98804
8.444,0.92896
8.448,0.78711
8.452,0.5854
8.456,0.34293
8.46,0.15385
8.464,-0.02082
8.468,-0.12365
8.472,-0.17573
8.476,-0.16372
8.48,-0.12985
8.484,-0.1176
8.488,0.03234
8.492,-0.04525
8.496,0.02321
8.5,-0.02229
8.504,-0.02573
8.508,-0.07359
8.512,0.00487
8.516,0.00386
8.52,-0.05809
8.524,-0.04911
8.528,-0.07642
8.532,0.05038
8.536,-0.06414
8.54,0.01211
8.544,-0.03227
8.548,0.01009
8.552,-0.02649
8.556,0.00137
8.56,-0.02147
8.564,0.00794
8.568,0.00973
8.572,-0.00996
8.576,0.02934
8.58,-0.0592
8.584,-0.00847
8.588,-0.01692
8.592,-0.06655
8.596,0.01884
8.6,-0.04882
8.604,-0.02691
8.608,-0.03217
8.612,-0.00317
8.616,0.02504
8.62,0.00087
8.624,0.00609
8.628,0.10936
8.632,-0.00348
8.636,0.00555
8.64,0.0256
8.644,0.0321
8.648,0.01936
8.652,0.04438
8.656,0.02638
8.66,0.09402
8.664,0.09654
8.668,0.10971
8.672,0.10658
8.676,0.13743
8.68,0.10434
8.684,0.11091
8.688,0.10693
8.692,0.15821
8.696,0.23822
8.7,0.23834
8.704,0.19792
8.708,0.2127
8.712,0.19238
8.716,0.15336
8.72,0.20327
8.724,0.17465
8.728,0.23063
8.732,0.13429
8.736,0.17189
8.74,0.16841
8.744,0.16315
8.748,0.20613
8.752,0.16947
8.756,0.11868
8.76,0.18913
8.764,0.0788
8.768,0.09083
8.772,0.12639
8.776,0.07436
8.78,0.05905
8.784,0.03331
8.788,0.10351
8.792,0.00928
8.796,0.07077
8.8,0.05734
8.804,-0.02794
8.808,0.03737
8.812,0.00867
8.816,0.02332
8.82,-0.00407
8.824,-0.01674
8.828,0.01179
8.832,-0.04433
8.836,0.02008
8.84,0.03545
8.844,-0.01441
8.848,-0.02244
8.852,0.0142
8.856,0.02913
8.86,-0.00798
8.864,0.01717
8.868,0.06199
8.872,-0.00713
8.876,0.01453
8.88,-0.11849
8.884,0.03239
8.888,-0.0212
8.892,-0.00074
8.896,-0.07408
8.9,-0.02401
8.904,-0.00389
8.908,0.03837
8.912,-0.02567
8.916,-0.04553
8.92,-0.07634
8.924,0.02559
8.928,0.00737
8.932,-0.0289
8.936,0.01057
8.94,-0.012
8.944,-0.0895
8.948,-0.02274
8.952,-0.05078
8.956,-0.00868
8.96,0.02088
8.964,-0.05051
8.968,-0.0058
8.972,0.06172
8.976,0.00941
8.98,0.03553
8.984,-0.03004
8.988,-0.02558
8.992,-0.06353
8.996,-0.00192
9.0,0.01966
9.004,-0.01758
9.008,-0.01617
9.012,-0.00244
9.016,-0.00651
9.02,0.07066
9.024,0.00112
9.028,-0.01325
9.032,-0.09174
9.036,0.02649
9.04,-0.02966
9.044,0.05027
9.048,0.06062
9.052,0.05326
9.056,0.0571
9.06,0.13707
9.064,0.06607
9.068,0.07015
9.072,0.02065
9.076,0.06559
9.08,0.07245
9.084,0.02901
9.088,0.07498
9.092,-0.00311
9.096,0.0093
9.1,-0.05666
9.104,-0.0466
9.108,0.00206
9.112,-0.04227
9.116,-0.03262
9.12,-0.04512
9.124,-0.101
9.128,-0.05502
9.132,0.01965
9.136,-0.01753
9.14,-0.06665
9.144,0.03949
9.148,-0.06718
9.152,-0.09547
9.156,0.02065
9.16,-0.0273
9.164,-0.00101
9.168,-0.03419
9.172,-0.05549
9.176,0.03182
9.18,-0.0335
9.184,0.00611
9.188,-0.09626
9.192,-0.15103
9.196,-0.09889
9.2,-0.09986
9.204,0.09424
9.208,0.29591
9.212,0.50177
9.216,0.65669
9.22,0.85417
9.224,0.959
9.228,0.93646
9.232,0.84138
9.236,0.59674
9.24,0.40918
9.244,0.17819
9.248,0.05039
9.252,-0.14675
9.256,-0.18939
9.26,-0.20055
9.264,-0.16239
9.268,-0.13782
9.272,-0.05143
9.276,-0.02334
9.28,-0.05449
9.284,-0.03621
9.288,-0.02833
9.292,-0.06539
9.296,-0.01175
9.3,-0.00338
9.304,-0.02324
9.308,-0.01458
9.312,-0.01345
9.316,0.00751
9.32,-0.05249
9.324,-0.06921
9.328,-0.04755
9.332,0.0178
9.336,-0.00269
9.34,-0.05501
9.344,-0.07883
9.348,-0.01006
9.352,-0.03754
9.356,-0.02225
9.36,-0.02927
9.364,-0.01371
9.368,0.01513
9.372,-0.00358
9.376,-0.03465
9.38,-0.06143
9.384,-0.07276
9.388,-0.07366
9.392,-0.02929
9.396,-0.0168
9.4,-0.00886
9.404,-0.04481
9.408,-0.0173
9.412,0.0028
9.416,-0.0052
9.42,-0.01169
9.424,0.02421
9.428,-0.02046
9.432,0.0775
9.436,0.00909
9.44,0.0691
9.444,0.08984
9.448,0.08012
9.452,0.05452
9.456,0.08494
9.46,0.06798
9.464,0.17386
9.468,0.10945
9.472,0.13848
9.476,0.11114
9.48,0.1249
9.484,0.1592
9.488,0.16207
9.492,0.21594
9.496,0.16627
9.5,0.18755
9.504,0.17832
9.508,0.20301
9.512,0.19931
9.516,0.20521
9.52,0.14372
9.524,0.14795
9.528,0.15057
9.532,0.14491
9.536,0.17217
9.54,0.11015
9.544,0.13766
9.548,0.12405
9.552,0.09153
9.556,0.16079
9.56,0.06078
9.564,-0.00754
9.568,0.08993
9.572,0.00998
9.576,0.07267
9.58,-0.00429
9.584,0.0581
9.588,0.03138
9.592,-0.03338
9.596,-0.00181
9.6,-0.0431
9.604,-0.00608
9.608,-0.02892
9.612,0.02358
9.616,-0.00268
9.62,0.01657
9.624,0.0075
9.628,0.00563
9.632,-0.02101
9.636,-0.01036
9.64,0.01173
9.644,0.03847
9.648,-0.04695
9.652,-0.00531
9.656,-0.02551
9.66,-0.03431
9.664,-0.05703
9.668,0.00963
9.672,0.01455
9.676,0.06701
9.68,0.02383
9.684,0.07326
9.688,0.07032
9.692,0.04331
9.696,0.064
9.7,0.12179
9.704,0.10102
9.708,0.03774
9.712,0.07799
9.716,0.05528
9.72,0.02542
9.724,0.03584
9.728,-0.04109
9.732,0.02811
9.736,-0.04579
9.74,-0.06182
9.744,-0.02964
9.748,-0.04041
9.752,-0.05699
9.756,-0.08213
9.76,-0.09077
9.764,-0.05219
9.768,-0.04275
9.772,-0.04092
9.776,0.01964
9.78,-0.0524
9.784,-0.06045
9.788,-0.057
9.792,-0.02791
9.796,-0.0644
9.8,-0.0625
9.804,-0.03585
9.808,-0.10309
9.812,-0.04641
9.816,-0.08289
9.82,-0.16482
9.824,-0.18191
9.828,-0.11757
9.832,-0.0924
9.836,0.05184
9.84,0.25435
9.844,0.52673
9.848,0.70357
9.852,0.88336
9.856,0.98065
9.86,0.96422
9.864,0.78743
9.868,0.60464
9.872,0.39308
9.876,0.21008
9.88,0.0131
9.884,-0.10749
9.888,-0.18788
9.892,-0.22147
9.896,-0.12982
9.9,-0.12056
9.904,-0.10458
9.908,-0.03746
9.912,-0.04921
9.916,-0.04052
9.92,-0.02388
9.924,-0.07713
9.928,0.00693
9.932,0.0303
9.936,-0.02648
9.94,-0.00739
9.944,-0.03678
9.948,-0.01555
9.952,0.01798
9.956,0.01688
9.96,-0.06411
9.964,-0.06692
9.968,-0.02757
9.972,-0.01576
9.976,0.05308
9.98,0.00094
9.984,0.03526
9.988,-0.00287
9.992,-0.03356
9.996,-0.01395
