t_seg,ecg_mV
0.0,0.01137
0.004,0.01394
0.008,0.0156
0.012,0.03861
0.016,0.03155
0.02,0.02202
0.024,0.00972
0.028,0.01829
0.032,0.02191
0.036,-0.01133
0.04,0.0157
0.044,0.02192
0.048,0.01909
0.052,-0.00717
0.056,0.03384
0.06,0.01631
0.064,0.01701
0.068,0.02415
0.072,0.02828
0.076,0.01601
0.08,-0.00465
0.084,0.00261
0.088,0.01903
0.092,0.02544
0.096,0.00386
0.1,0.01932
0.104,0.03095
0.108,0.01791
0.112,0.01586
0.116,-0.00038
0.12,-0.00374
0.124,-0.00974
0.128,-0.01184
0.132,0.03857
0.136,-0.00273
0.14,0.01185
0.144,-0.00885
0.148,0.0191
0.152,-0.01517
0.156,0.03415
0.16,0.00785
0.164,0.03411
0.168,-0.00059
0.172,0.00838
0.176,0.00257
0.18,0.00589
0.184,0.02198
0.188,0.00617
0.192,0.01338
0.196,0.02072
0.2,-0.02066
0.204,0.0112
0.208,0.00965
0.212,-0.00166
0.216,0.02365
0.22,-0.00682
0.224,-0.0162
0.228,0.01343
0.232,0.02197
0.236,0.01476
0.24,-0.01059
0.244,0.00064
0.248,0.00912
0.252,0.01448
0.256,0.01819
0.26,-0.00385
0.264,0.0138
0.268,0.00286
0.272,0.00427
0.276,-0.02224
0.28,0.02325
0.284,0.01061
0.288,0.00544
0.292,-0.00189
0.296,0.01126
0.3,0.01189
0.304,0.00253
0.308,0.01639
0.312,0.01747
0.316,0.00909
0.32,-0.0215
0.324,0.01118
0.328,0.00849
0.332,-0.0182
0.336,0.01481
0.34,0.02473
0.344,-0.00828
0.348,0.02426
0.352,0.00426
0.356,0.02899
0.36,0.00521
0.364,-0.0042
0.368,0.00952
0.372,0.00054
0.376,0.01862
0.38,0.02511
0.384,-0.00832
0.388,0.00648
0.392,0.00638
0.396,0.00127
0.4,-0.01101
0.404,0.00408
0.408,0.0067
0.412,-0.01698
0.416,0.008
0.42,-0.02291
0.424,0.00773
0.428,-0.00545
0.432,-0.00732
0.436,0.00874
0.44,0.02902
0.444,0.02509
0.448,0.0002
0.452,0.01299
0.456,0.0232
0.46,-0.00869
0.464,0.00191
0.468,0.00991
0.472,0.02692
0.476,-0.02573
0.48,0.00521
0.484,-0.00921
0.488,0.00186
0.492,-0.00474
0.496,0.02222
0.5,0.00923
0.504,0.00979
0.508,0.01448
0.512,0.02424
0.516,-0.01501
0.52,0.01775
0.524,0.0124
0.528,0.0227
0.532,0.01213
0.536,0.02063
0.54,0.01109
0.544,0.02298
0.548,0.03452
0.552,0.01789
0.556,0.01761
0.56,0.02734
0.564,0.04066
0.568,0.07742
0.572,0.08578
0.576,0.06883
0.58,0.0632
0.584,0.10768
0.588,0.10481
0.592,0.11676
0.596,0.07694
0.6,0.04723
0.604,0.07769
0.608,0.0474
0.612,0.05514
0.616,0.03342
0.62,0.01322
0.624,0.01202
0.628,0.00921
0.632,0.00742
0.636,0.01379
0.64,0.00888
0.644,0.00476
0.648,0.00133
0.652,-0.0098
0.656,-0.02788
0.66,0.00841
0.664,0.00034
0.668,-0.02493
0.672,-0.01126
0.676,-0.02567
0.68,-0.01161
0.684,0.00293
0.688,-0.01229
0.692,-0.02759
0.696,-0.01152
0.7,-0.01695
0.704,-0.05987
0.708,-0.08659
0.712,-0.13226
0.716,-0.1032
0.72,-0.0181
0.724,0.13775
0.728,0.31108
0.732,0.52031
0.736,0.7395
0.74,0.87027
0.744,0.96984
0.748,0.96762
0.752,0.85287
0.756,0.59491
0.76,0.41673
0.764,0.20054
0.768,0.01209
0.772,-0.11646
0.776,-0.15547
0.78,-0.18191
0.784,-0.11774
0.788,-0.07601
0.792,-0.07123
0.796,-0.03143
0.8,-0.01828
0.804,0.00537
0.808,-0.0237
0.812,-0.02316
0.816,-0.0153
0.82,-0.00639
0.824,-0.00217
0.828,0.02687
0.832,-0.00623
0.836,0.00301
0.84,-0.00863
0.844,0.00012
0.848,-0.01803
0.852,-0.03691
0.856,-0.01221
0.86,-0.01774
0.864,-0.03106
0.868,-0.00611
0.872,0.02246
0.876,0.01557
0.88,0.00152
0.884,0.00429
0.888,0.00084
0.892,-0.00727
0.896,0.01635
0.9,0.00139
0.904,0.00045
0.908,0.02035
0.912,0.0187
0.916,-0.02831
0.92,0.00089
0.924,-0.00502
0.928,0.01401
0.932,0.00571
0.936,0.01477
0.94,0.04186
0.944,0.0197
0.948,0.03979
0.952,0.03913
0.956,0.06497
0.96,0.06049
0.964,0.09001
0.968,0.09113
0.972,0.11085
0.976,0.11976
0.98,0.10817
0.984,0.10996
0.988,0.15197
0.992,0.14802
0.996,0.21017
1.0,0.15663
1.004,0.18425
1.008,0.18112
1.012,0.20457
1.016,0.2258
1.02,0.20356
1.024,0.17032
1.028,0.21106
1.032,0.21006
1.036,0.20281
1.04,0.18167
1.044,0.22143
1.048,0.18285
1.052,0.1686
1.056,0.1639
1.06,0.14278
1.064,0.13448
1.068,0.12994
1.072,0.1512
1.076,0.11129
1.08,0.0748
1.084,0.08899
1.088,0.09078
1.092,0.04108
1.096,0.07891
1.1,0.03759
1.104,0.0238
1.108,0.02215
1.112,0.02232
1.116,0.0033
1.12,0.03737
1.124,0.01379
1.128,-0.00311
1.132,0.02071
1.136,0.00191
1.14,-0.00744
1.144,-0.01411
1.148,0.01569
1.152,-0.03834
1.156,-0.01293
1.16,-0.00829
1.164,-0.01931
1.168,-0.00772
1.172,-0.02437
1.176,-0.02101
1.18,-0.02252
1.184,-0.01616
1.188,-0.01928
1.192,-0.00653
1.196,-0.01765
1.2,-0.01951
1.204,-0.0125
1.208,-0.00425
1.212,-0.02763
1.216,-0.00603
1.22,-0.01539
1.224,-0.02948
1.228,0.00526
1.232,0.00273
1.236,-0.01904
1.24,-0.00651
1.244,-0.02009
1.248,-0.01416
1.252,-0.00518
1.256,-0.00361
1.26,0.00823
1.264,-0.02174
1.268,-0.02285
1.272,-0.01225
1.276,0.00067
1.28,0.03188
1.284,0.04193
1.288,0.02884
1.292,0.04886
1.296,0.06619
1.3,0.06477
1.304,0.08584
1.308,0.0651
1.312,0.07908
1.316,0.06146
1.32,0.04154
1.324,0.03785
1.328,0.04084
1.332,0.04173
1.336,0.02625
1.34,0.02308
1.344,0.00237
1.348,-0.0245
1.352,-0.01235
1.356,-0.01396
1.36,-0.01837
1.364,-0.01133
1.368,-0.01695
1.372,-0.01719
1.376,-0.03875
1.38,0.00813
1.384,-0.00456
1.388,-0.02203
1.392,0.00894
1.396,-0.047
1.4,-0.02463
1.404,-0.02048
1.408,-0.02363
1.412,-0.03218
1.416,-0.01819
1.42,-0.04621
1.424,-0.03633
1.428,-0.06817
1.432,-0.10358
1.436,-0.1467
1.44,-0.11073
1.444,-0.03417
1.448,0.07894
1.452,0.24431
1.456,0.46822
1.46,0.68549
1.464,0.84872
1.468,0.94801
1.472,0.96312
1.476,0.83848
1.48,0.62375
1.484,0.39224
1.488,0.19609
1.492,-0.00741
1.496,-0.11947
1.5,-0.19554
1.504,-0.19024
1.508,-0.1637
1.512,-0.11516
1.516,-0.08452
1.52,-0.04061
1.524,-0.0608
1.528,-0.02054
1.532,0.0202
1.536,-0.00217
1.54,-0.01063
1.544,-0.0261
1.548,-0.0504
1.552,-0.02682
1.556,-0.05458
1.56,-0.01285
1.564,-0.03785
1.568,-0.04753
1.572,-0.03203
1.576,-0.01912
1.58,-0.02922
1.584,-0.00849
1.588,-0.01991
1.592,-0.02519
1.596,-0.0125
1.6,-0.03047
1.604,-0.03429
1.608,-0.02911
1.612,-0.04733
1.616,0.00213
1.62,-0.03153
1.624,0.00138
1.628,-0.01783
1.632,-0.03821
1.636,-0.00189
1.64,-0.00768
1.644,-0.02847
1.648,-0.00178
1.652,-0.00741
1.656,-0.02856
1.66,-0.01145
1.664,0.01191
1.668,0.02955
1.672,0.04345
1.676,0.0426
1.68,0.04656
1.684,0.06301
1.688,0.05528
1.692,0.06513
1.696,0.07621
1.7,0.07938
1.704,0.08661
1.708,0.09132
1.712,0.13282
1.716,0.1315
1.72,0.12447
1.724,0.1394
1.728,0.16861
1.732,0.15734
1.736,0.16429
1.74,0.20329
1.744,0.18914
1.748,0.21237
1.752,0.22861
1.756,0.17534
1.76,0.20579
1.764,0.18379
1.768,0.15921
1.772,0.16438
1.776,0.14566
1.78,0.15277
1.784,0.1555
1.788,0.14181
1.792,0.11515
1.796,0.10627
1.8,0.09307
1.804,0.07455
1.808,0.08212
1.812,0.04053
1.816,0.04011
1.82,0.02667
1.824,0.00671
1.828,0.00925
1.832,0.00618
1.836,0.00095
1.84,0.00835
1.844,-0.01185
1.848,0.00861
1.852,0.01031
1.856,-0.03704
1.86,-0.03158
1.864,-0.0207
1.868,0.00326
1.872,-0.00642
1.876,-0.02687
1.88,-0.0101
1.884,-0.02183
1.888,-0.03714
1.892,-0.00513
1.896,-0.01139
1.9,-0.00733
1.904,-0.00774
1.908,-0.04089
1.912,-0.02748
1.916,-0.01861
1.92,-0.03479
1.924,-0.04524
1.928,-0.0437
1.932,-0.01995
1.936,-0.03087
1.94,-0.02185
1.944,-0.02642
1.948,-0.03711
1.952,-0.0403
1.956,-0.00397
1.96,-0.02757
1.964,-0.00558
1.968,-0.03934
1.972,-0.02986
1.976,-0.04577
1.98,-0.0365
1.984,-0.02936
1.988,-0.02594
1.992,-0.01583
1.996,-0.02735
2.0,-0.03655
2.004,-0.02538
2.008,-0.05482
2.012,-0.03692
2.016,-0.03474
2.02,-0.02089
2.024,-0.01341
2.028,-0.02516
2.032,-0.05852
2.036,-0.03529
2.04,-0.02066
2.044,-0.02279
2.048,-0.04122
2.052,-0.01047
2.056,-0.04322
2.06,-0.02955
2.064,-0.01836
2.068,-0.0047
2.072,-0.01883
2.076,-0.05693
2.08,-0.01562
2.084,-0.00744
2.088,-0.0357
2.092,-0.03209
2.096,-0.03299
2.1,-0.03159
2.104,-0.03261
2.108,-0.05164
2.112,-0.00707
2.116,-0.02584
2.12,-0.02988
2.124,-0.01241
2.128,-0.04842
2.132,-0.01698
2.136,-0.02579
2.14,0.01551
2.144,0.01638
2.148,0.00172
2.152,0.02414
2.156,0.03092
2.16,0.07524
2.164,0.05964
2.168,0.0551
2.172,0.0708
2.176,0.05123
2.18,0.07356
2.184,0.08023
2.188,0.04457
2.192,0.03682
2.196,0.01617
2.2,0.03842
2.204,0.03891
2.208,-0.01502
2.212,-0.00441
2.216,-0.02541
2.22,-0.04487
2.224,-0.02152
2.228,-0.02976
2.232,-0.04845
2.236,-0.05469
2.24,-0.06152
2.244,-0.04898
2.248,-0.02617
2.252,-0.011
2.256,-0.02267
2.26,-0.02854
2.264,-0.03093
2.268,-0.02771
2.272,-0.03986
2.276,-0.02072
2.28,-0.02232
2.284,-0.02657
2.288,-0.07697
2.292,-0.06325
2.296,-0.08841
2.3,-0.13117
2.304,-0.12466
2.308,-0.11469
2.312,-0.00372
2.316,0.18879
2.32,0.36386
2.324,0.5831
2.328,0.76532
2.332,0.88752
2.336,0.9789
2.34,0.8906
2.344,0.72927
2.348,0.54458
2.352,0.28639
2.356,0.08105
2.36,-0.09533
2.364,-0.15718
2.368,-0.18614
2.372,-0.20568
2.376,-0.12403
2.38,-0.09804
2.384,-0.07562
2.388,-0.06694
2.392,-0.02014
2.396,-0.01405
2.4,-0.03253
2.404,-0.03822
2.408,-0.02692
2.412,-0.03305
2.416,-0.04396
2.42,-0.03752
2.424,-0.02439
2.428,-0.01021
2.432,-0.02989
2.436,-0.03998
2.44,-0.06207
2.444,-0.01851
2.448,-0.03549
2.452,-0.02079
2.456,-0.03086
2.46,-0.0345
2.464,0.00826
2.468,-0.01701
2.472,-0.01518
2.476,-0.04036
2.48,-0.0442
2.484,-0.03547
2.488,-0.02813
2.492,-0.03462
2.496,-0.02376
2.5,-0.03945
2.504,0.00196
2.508,-0.02337
2.512,-0.01339
2.516,-0.01875
2.52,-0.00343
2.524,-0.00514
2.528,0.00427
2.532,0.01859
2.536,0.02181
2.54,0.00827
2.544,0.02695
2.548,0.02223
2.552,0.0347
2.556,0.07462
2.56,0.07966
2.564,0.07055
2.568,0.09559
2.572,0.10154
2.576,0.12789
2.58,0.11228
2.584,0.15026
2.588,0.16326
2.592,0.17252
2.596,0.17149
2.6,0.17896
2.604,0.18845
2.608,0.20965
2.612,0.20011
2.616,0.18779
2.62,0.19533
2.624,0.16746
2.628,0.2186
2.632,0.19833
2.636,0.19144
2.64,0.15711
2.644,0.16981
2.648,0.13672
2.652,0.14428
2.656,0.10957
2.66,0.11367
2.664,0.10984
2.668,0.07971
2.672,0.08655
2.676,0.07825
2.68,0.04049
2.684,0.02429
2.688,0.02345
2.692,0.01514
2.696,0.01163
2.7,0.02723
2.704,0.01408
2.708,0.0047
2.712,0.00296
2.716,-0.02635
2.72,-0.03961
2.724,-0.00785
2.728,-0.03803
2.732,-0.04428
2.736,0.00248
2.74,-0.00924
2.744,-0.02255
2.748,-0.01284
2.752,-0.01453
2.756,-0.00349
2.76,0.00567
2.764,-0.04153
2.768,-0.02604
2.772,-0.04395
2.776,-0.02713
2.78,-0.01928
2.784,-0.03464
2.788,-0.04028
2.792,-0.03207
2.796,-0.05401
2.8,-0.03726
2.804,-0.04166
2.808,-0.02687
2.812,-0.02477
2.816,-0.02032
2.82,-0.0125
2.824,-0.02074
2.828,0.00192
2.832,-0.01888
2.836,-0.01521
2.84,-0.02612
2.844,-0.02893
2.848,-0.0206
2.852,-0.01098
2.856,-0.01808
2.86,-0.00474
2.864,0.00894
2.868,0.05263
2.872,0.0017
2.876,0.05803
2.88,0.04981
2.884,0.05181
2.888,0.07405
2.892,0.06193
2.896,0.06748
2.9,0.04172
2.904,0.06975
2.908,0.06348
2.912,0.06255
2.916,0.0614
2.92,0.00615
2.924,0.00689
2.928,-0.0058
2.932,-0.00777
2.936,-0.01245
2.94,-0.02763
2.944,-0.0169
2.948,-0.02068
2.952,-0.01204
2.956,-0.04063
2.96,-0.05101
2.964,-0.04159
2.968,-0.01668
2.972,-0.04064
2.976,-0.01873
2.98,-0.03109
2.984,-0.01482
2.988,-0.0215
2.992,-0.04462
2.996,-0.04009
3.0,-0.02504
3.004,-0.03009
3.008,-0.02952
3.012,-0.05917
3.016,-0.11773
3.02,-0.12361
3.024,-0.14297
3.028,-0.06233
3.032,0.04878
3.036,0.22787
3.04,0.44386
3.044,0.70557
3.048,0.83812
3.052,0.96279
3.056,0.95966
3.06,0.86972
3.064,0.69862
3.068,0.4248
3.072,0.239
3.076,0.02287
3.08,-0.12958
3.084,-0.18183
3.088,-0.19602
3.092,-0.1755
3.096,-0.1406
3.1,-0.08368
3.104,-0.03508
3.108,-0.05058
3.112,-0.00574
3.116,-0.01179
3.12,-0.04359
3.124,-0.06859
3.128,-0.02881
3.132,-0.03071
3.136,0.00805
3.14,-0.0258
3.144,-0.03013
3.148,-0.02962
3.152,-0.01811
3.156,-0.02042
3.16,-0.02745
3.164,-0.02685
3.168,-0.01018
3.172,-0.035
3.176,-0.01376
3.18,-0.01074
3.184,-0.00731
3.188,-0.02642
3.192,-0.03889
3.196,-0.0345
3.2,-0.04206
3.204,-0.01837
3.208,-0.02033
3.212,-0.03135
3.216,-0.02365
3.22,-0.03499
3.224,-0.01357
3.228,0.00162
3.232,-0.01187
3.236,0.00049
3.24,0.00649
3.244,-0.01025
3.248,0.029
3.252,0.02399
3.256,0.07267
3.26,0.00428
3.264,0.061
3.268,0.0426
3.272,0.07042
3.276,0.05097
3.28,0.09755
3.284,0.0941
3.288,0.10699
3.292,0.13082
3.296,0.16452
3.3,0.1507
3.304,0.13471
3.308,0.17844
3.312,0.17652
3.316,0.19494
3.32,0.20019
3.324,0.17981
3.328,0.18112
3.332,0.21788
3.336,0.21394
3.34,0.18344
3.344,0.19993
3.348,0.1924
3.352,0.18744
3.356,0.18497
3.36,0.16928
3.364,0.18894
3.368,0.11693
3.372,0.12422
3.376,0.14579
3.38,0.1225
3.384,0.09655
3.388,0.09438
3.392,0.07065
3.396,0.07301
3.4,0.06313
3.404,0.05008
3.408,0.04359
3.412,0.03602
3.416,0.03709
3.42,0.02395
3.424,0.01132
3.428,0.01275
3.432,-0.01993
3.436,0.02285
3.44,0.02529
3.444,-0.00785
3.448,-0.03465
3.452,0.00362
3.456,-0.02959
3.46,0.01366
3.464,-0.01565
3.468,-0.02267
3.472,-0.03429
3.476,-0.00619
3.48,-0.02693
3.484,-0.01611
3.488,-0.02369
3.492,-0.00596
3.496,-0.01236
3.5,-0.01113
3.504,-0.01086
3.508,-0.02623
3.512,-0.03133
3.516,-0.01848
3.52,-0.04859
3.524,0.00439
3.528,0.01522
3.532,-0.02264
3.536,-0.00426
3.54,-0.01918
3.544,0.00024
3.548,-0.00632
3.552,0.00645
3.556,-0.0028
3.56,0.00583
3.564,-0.00197
3.568,-0.03093
3.572,-0.01448
3.576,-0.02312
3.58,0.02758
3.584,-0.01542
3.588,0.01076
3.592,0.00642
3.596,0.01284
3.6,-0.02515
3.604,-0.00573
3.608,-0.01459
3.612,0.02631
3.616,-0.00361
3.62,-0.01295
3.624,-0.00427
3.628,-0.01123
3.632,-0.00537
3.636,-0.00246
3.64,-0.00193
3.644,-0.00252
3.648,-0.00509
3.652,-0.03047
3.656,0.00974
3.66,0.00819
3.664,-0.02156
3.668,0.01009
3.672,-0.03277
3.676,-0.01047
3.68,-0.00341
3.684,-0.01445
3.688,0.02288
3.692,-0.034
3.696,-0.00172
3.7,-0.00742
3.704,0.02831
3.708,0.01296
3.712,0.04136
3.716,0.03801
3.72,0.05477
3.724,0.05619
3.728,0.06931
3.732,0.07853
3.736,0.0761
3.74,0.08511
3.744,0.10176
3.748,0.09366
3.752,0.09418
3.756,0.05477
3.76,0.0867
3.764,0.03594
3.768,0.01985
3.772,0.02784
3.776,0.05474
3.78,0.01471
3.784,0.02273
3.788,-0.00203
3.792,0.0059
3.796,0.01103
3.8,-0.01554
3.804,-0.03815
3.808,-0.0061
3.812,0.0098
3.816,-0.02107
3.82,-0.01131
3.824,-0.01569
3.828,-0.00169
3.832,0.00602
3.836,0.00465
3.84,0.00537
3.844,-0.02798
3.848,0.01831
3.852,-0.00111
3.856,-0.02096
3.86,-0.03268
3.864,-0.08683
3.868,-0.09864
3.872,-0.11421
3.876,-0.07556
3.88,0.07004
3.884,0.22577
3.888,0.43496
3.892,0.67082
3.896,0.8487
3.9,0.98283
3.904,1.00078
3.908,0.89876
3.912,0.70758
3.916,0.4987
3.92,0.26004
3.924,0.08545
3.928,-0.07098
3.932,-0.17602
3.936,-0.16631
3.94,-0.16124
3.944,-0.09953
3.948,-0.06512
3.952,-0.04031
3.956,-0.00275
3.96,0.01687
3.964,-0.01205
3.968,0.03222
3.972,0.00112
3.976,0.02088
3.98,0.01189
3.984,0.01117
3.988,-0.02002
3.992,0.01452
3.996,-0.01403
4.0,0.01248
4.004,0.00508
4.008,0.00024
4.012,-0.00232
4.016,-0.00248
4.02,-0.01463
4.024,-0.00202
4.028,-0.02677
4.032,-3e-05
4.036,0.0078
4.04,0.00683
4.044,-0.01095
4.048,-0.00976
4.052,0.01642
4.056,0.00545
4.06,-0.01119
4.064,0.02587
4.068,0.00769
4.072,0.02306
4.076,0.03456
4.08,0.01476
4.084,0.00942
4.088,0.00683
4.092,0.02563
4.096,0.02459
4.1,0.05707
4.104,0.06358
4.108,0.08031
4.112,0.0602
4.116,0.0898
4.12,0.09062
4.124,0.09746
4.128,0.11111
4.132,0.10554
4.136,0.14471
4.14,0.14401
4.144,0.14044
4.148,0.18828
4.152,0.18616
4.156,0.18034
4.16,0.21206
4.164,0.22488
4.168,0.20854
4.172,0.18298
4.176,0.20404
4.18,0.2407
4.184,0.21871
4.188,0.22239
4.192,0.21949
4.196,0.18502
4.2,0.2067
4.204,0.20042
4.208,0.2176
4.212,0.16726
4.216,0.17448
4.22,0.15349
4.224,0.14004
4.228,0.11981
4.232,0.1246
4.236,0.12707
4.24,0.09711
4.244,0.07875
4.248,0.08146
4.252,0.07749
4.256,0.06887
4.26,0.04856
4.264,0.04775
4.268,0.01525
4.272,0.041
4.276,0.05006
4.28,0.01004
4.284,0.04094
4.288,0.00675
4.292,0.01796
4.296,0.00356
4.3,0.03001
4.304,0.03666
4.308,0.03553
4.312,-0.01675
4.316,0.009
4.32,0.01258
4.324,-0.00591
4.328,0.03174
4.332,-0.01699
4.336,0.04236
4.34,0.01426
4.344,0.01863
4.348,-0.0071
4.352,0.01043
4.356,0.01916
4.36,0.01821
4.364,0.04948
4.368,0.01959
4.372,0.02241
4.376,0.05064
4.38,0.05609
4.384,0.07201
4.388,0.09334
4.392,0.08052
4.396,0.09221
4.4,0.10171
4.404,0.09898
4.408,0.1077
4.412,0.09004
4.416,0.1035
4.42,0.07724
4.424,0.07316
4.428,0.0612
4.432,0.06585
4.436,0.05168
4.44,0.06234
4.444,0.01822
4.448,0.04775
4.452,0.0185
4.456,-0.01375
4.46,0.01267
4.464,-0.01702
4.468,0.03409
4.472,0.02737
4.476,0.00024
4.48,0.00749
4.484,0.01156
4.488,0.00241
4.492,0.0287
4.496,0.01424
4.5,0.02342
4.504,0.00905
4.508,0.02034
4.512,-0.00064
4.516,0.02086
4.52,0.00055
4.524,-0.01864
4.528,-0.08746
4.532,-0.07149
4.536,-0.12254
4.54,-0.06987
4.544,0.01279
4.548,0.16731
4.552,0.33711
4.556,0.59549
4.56,0.78827
4.564,0.93706
4.568,0.99234
4.572,0.95497
4.576,0.83568
4.58,0.60843
4.584,0.39107
4.588,0.20686
4.592,0.00942
4.596,-0.09651
4.6,-0.18879
4.604,-0.13983
4.608,-0.11583
4.612,-0.06071
4.616,-0.03713
4.62,-0.01501
4.624,0.00431
4.628,-0.0062
4.632,0.01847
4.636,0.02532
4.64,0.02789
4.644,0.01162
4.648,0.00866
4.652,0.01745
4.656,0.02603
4.66,0.00639
4.664,0.02333
4.668,0.02548
4.672,0.00224
4.676,0.01107
4.68,0.01087
4.684,0.04122
4.688,0.0143
4.692,0.02768
4.696,0.02375
4.7,0.01365
4.704,0.03831
4.708,0.02295
4.712,0.00235
4.716,0.03386
4.72,0.02029
4.724,0.01476
4.728,0.01261
4.732,0.039
4.736,0.04822
4.74,0.04454
4.744,0.04104
4.748,0.03894
4.752,0.02824
4.756,0.05625
4.76,0.05364
4.764,0.05453
4.768,0.04908
4.772,0.07827
4.776,0.06892
4.78,0.08447
4.784,0.1081
4.788,0.11216
4.792,0.13845
4.796,0.12911
4.8,0.12365
4.804,0.14968
4.808,0.18159
4.812,0.17451
4.816,0.18273
4.82,0.21425
4.824,0.19886
4.828,0.22994
4.832,0.24958
4.836,0.22248
4.84,0.23528
4.844,0.24614
4.848,0.25575
4.852,0.26061
4.856,0.22425
4.86,0.22761
4.864,0.23813
4.868,0.23414
4.872,0.19926
4.876,0.19522
4.88,0.2008
4.884,0.18263
4.888,0.15548
4.892,0.14677
4.896,0.12335
4.9,0.11761
4.904,0.10275
4.908,0.15187
4.912,0.10893
4.916,0.08311
4.92,0.09155
4.924,0.06373
4.928,0.06849
4.932,0.07207
4.936,0.05898
4.94,0.05467
4.944,0.05543
4.948,0.06838
4.952,0.03853
4.956,0.02405
4.96,0.06703
4.964,0.01264
4.968,0.02511
4.972,0.04404
4.976,0.03359
4.98,0.02807
4.984,0.02443
4.988,0.01761
4.992,0.01764
4.996,0.02415
5.0,0.00642
5.004,0.03179
5.008,0.03043
5.012,0.01441
5.016,0.0153
5.02,0.0107
5.024,0.03617
5.028,0.02057
5.032,0.03189
5.036,0.03351
5.04,0.02552
5.044,0.04462
5.048,0.01343
5.052,0.00916
5.056,0.01614
5.06,0.05164
5.064,0.04893
5.068,0.00967
5.072,0.03231
5.076,0.0364
5.08,0.01011
5.084,0.03267
5.088,0.03359
5.092,0.02148
5.096,0.01766
5.1,-0.00474
5.104,0.0174
5.108,0.02437
5.112,0.01543
5.116,-0.00179
5.12,0.04254
5.124,0.01262
5.128,0.00521
5.132,0.02678
5.136,0.01905
5.14,0.01776
5.144,0.02356
5.148,0.02991
5.152,0.01995
5.156,0.05857
5.16,0.03352
5.164,0.03725
5.168,0.03958
5.172,0.04029
5.176,0.07791
5.18,0.05803
5.184,0.09157
5.188,0.07744
5.192,0.10433
5.196,0.11704
5.2,0.12159
5.204,0.11268
5.208,0.15658
5.212,0.1098
5.216,0.09988
5.22,0.10823
5.224,0.11204
5.228,0.09732
5.232,0.0882
5.236,0.07441
5.24,0.05241
5.244,0.068
5.248,0.02358
5.252,0.04096
5.256,0.01296
5.26,0.03604
5.264,0.02245
5.268,0.01598
5.272,0.01853
5.276,0.00375
5.28,0.02429
5.284,0.03349
5.288,0.0452
5.292,0.00371
5.296,0.01493
5.3,-0.00846
5.304,0.0051
5.308,0.01612
5.312,0.02866
5.316,0.01734
5.32,0.04784
5.324,0.01453
5.328,-0.03714
5.332,-0.06859
5.336,-0.08029
5.34,-0.05125
5.344,0.03715
5.348,0.20778
5.352,0.39248
5.356,0.6454
5.36,0.85306
5.364,0.97636
5.368,1.0154
5.372,0.95682
5.376,0.79062
5.38,0.6015
5.384,0.38026
5.388,0.18608
5.392,0.01273
5.396,-0.07699
5.4,-0.12756
5.404,-0.1436
5.408,-0.09343
5.412,-0.03889
5.416,-0.03396
5.42,0.0279
5.424,0.01916
5.428,0.02354
5.432,0.01228
5.436,0.03827
5.44,0.02024
5.444,0.03661
5.448,0.03304
5.452,0.01265
5.456,0.04359
5.46,0.03971
5.464,0.0348
5.468,0.03552
5.472,0.0403
5.476,0.00146
5.48,-0.00255
5.484,0.04149
5.488,0.02182
5.492,0.04439
5.496,0.0395
5.5,0.06234
5.504,0.01553
5.508,-0.00037
5.512,0.04573
5.516,0.03577
5.52,0.01891
5.524,0.02756
5.528,0.04223
5.532,0.0478
5.536,0.00218
5.54,0.03939
5.544,0.06891
5.548,0.02217
5.552,0.05924
5.556,0.03633
5.56,0.06008
5.564,0.05036
5.568,0.09954
5.572,0.09509
5.576,0.07761
5.58,0.09714
5.584,0.08867
5.588,0.12898
5.592,0.14604
5.596,0.13077
5.6,0.13701
5.604,0.16853
5.608,0.17261
5.612,0.1825
5.616,0.19552
5.62,0.23253
5.624,0.2057
5.628,0.22744
5.632,0.22198
5.636,0.24411
5.64,0.26353
5.644,0.24943
5.648,0.26302
5.652,0.24627
5.656,0.23092
5.66,0.27151
5.664,0.2195
5.668,0.23185
5.672,0.24451
5.676,0.19159
5.68,0.20163
5.684,0.17289
5.688,0.19461
5.692,0.15259
5.696,0.15118
5.7,0.15398
5.704,0.13344
5.708,0.12262
5.712,0.12763
5.716,0.08899
5.72,0.07151
5.724,0.05655
5.728,0.08921
5.732,0.10006
5.736,0.07732
5.74,0.05931
5.744,0.0478
5.748,0.04818
5.752,0.04564
5.756,0.04511
5.76,0.04592
5.764,0.0234
5.768,0.0145
5.772,0.04842
5.776,0.01498
5.78,0.05671
5.784,0.02219
5.788,0.018
5.792,0.02211
5.796,0.02839
5.8,0.00882
5.804,0.03557
5.808,0.03293
5.812,-0.00147
5.816,0.02499
5.82,0.01766
5.824,0.01584
5.828,0.04756
5.832,0.04399
5.836,0.02496
5.84,0.04286
5.844,0.03857
5.848,0.01577
5.852,0.03458
5.856,0.03486
5.86,0.05028
5.864,0.00316
5.868,0.05116
5.872,0.03744
5.876,0.00991
5.88,0.04978
5.884,0.03255
5.888,0.02129
5.892,0.00455
5.896,0.01187
5.9,0.05133
5.904,0.04478
5.908,0.03448
5.912,0.02343
5.916,0.0598
5.92,0.02923
5.924,0.0576
5.928,0.05627
5.932,0.03116
5.936,0.03458
5.94,0.02707
5.944,0.0477
5.948,0.05354
5.952,0.06455
5.956,0.04983
5.96,0.05292
5.964,0.09299
5.968,0.10125
5.972,0.12785
5.976,0.15192
5.98,0.1373
5.984,0.11497
5.988,0.09953
5.992,0.11557
5.996,0.09208
6.0,0.0903
6.004,0.0951
6.008,0.07629
6.012,0.06718
6.016,0.06469
6.02,0.03609
6.024,0.03357
6.028,0.03799
6.032,0.01576
6.036,-0.0032
6.04,0.01905
6.044,0.03747
6.048,0.00622
6.052,0.04557
6.056,0.02697
6.06,0.02212
6.064,0.01091
6.068,0.03364
6.072,0.03104
6.076,0.04065
6.08,0.04137
6.084,0.01665
6.088,0.03029
6.092,-0.01032
6.096,0.01296
6.1,-0.01355
6.104,-0.06857
6.108,-0.06542
6.112,-0.07956
6.116,-0.05348
6.12,0.01293
6.124,0.19206
6.128,0.3757
6.132,0.58555
6.136,0.79435
6.14,0.94953
6.144,1.01835
6.148,0.96948
6.152,0.84019
6.156,0.59219
6.16,0.38579
6.164,0.17594
6.168,0.01348
6.172,-0.08862
6.176,-0.09953
6.18,-0.14327
6.184,-0.08994
6.188,-0.05836
6.192,-0.0131
6.196,0.0197
6.2,0.00931
6.204,0.0265
6.208,0.04991
6.212,-0.00491
6.216,0.03859
6.22,0.04527
6.224,0.0088
6.228,0.02696
6.232,0.00373
6.236,0.03372
6.24,0.01241
6.244,0.02115
6.248,0.03979
6.252,0.04729
6.256,0.02309
6.26,0.02617
6.264,0.03874
6.268,0.00776
6.272,0.0147
6.276,0.01338
6.28,0.02967
6.284,0.02323
6.288,0.00374
6.292,0.03673
6.296,0.01399
6.3,0.03789
6.304,0.025
6.308,0.02634
6.312,0.03272
6.316,0.00902
6.32,0.02297
6.324,0.05158
6.328,0.05525
6.332,0.05809
6.336,0.06151
6.34,0.02692
6.344,0.04298
6.348,0.08289
6.352,0.06625
6.356,0.09142
6.36,0.09452
6.364,0.12353
6.368,0.15006
6.372,0.13023
6.376,0.11846
6.38,0.15241
6.384,0.14183
6.388,0.16948
6.392,0.19291
6.396,0.20746
6.4,0.21436
6.404,0.22061
6.408,0.2214
6.412,0.2447
6.416,0.25725
6.42,0.23151
6.424,0.25559
6.428,0.23631
6.432,0.22553
6.436,0.23306
6.44,0.22988
6.444,0.20456
6.448,0.21224
6.452,0.19824
6.456,0.20606
6.46,0.19585
6.464,0.17044
6.468,0.13874
6.472,0.12361
6.476,0.12098
6.48,0.10528
6.484,0.09152
6.488,0.10053
6.492,0.0891
6.496,0.08356
6.5,0.0855
6.504,0.05687
6.508,0.05768
6.512,0.06504
6.516,0.0541
6.52,0.01448
6.524,0.0519
6.528,0.04576
6.532,0.0329
6.536,0.04637
6.54,0.04003
6.544,0.01649
6.548,0.02675
6.552,0.02844
6.556,0.03655
6.56,0.03235
6.564,0.02378
6.568,0.01579
6.572,0.00188
6.576,0.01155
6.58,0.00827
6.584,-0.01125
6.588,0.02062
6.592,-0.001
6.596,0.01437
6.6,-0.00623
6.604,0.04384
6.608,0.01929
6.612,0.01096
6.616,0.03271
6.62,0.00761
6.624,0.02726
6.628,0.01625
6.632,0.02222
6.636,0.02489
6.64,0.00313
6.644,0.02485
6.648,0.02863
6.652,-0.00184
6.656,0.01996
6.66,0.0079
6.664,0.0131
6.668,-0.01083
6.672,0.01812
6.676,0.03788
6.68,0.02752
6.684,0.00839
6.688,0.02283
6.692,0.01107
6.696,0.03644
6.7,0.01682
6.704,0.00889
6.708,0.02428
6.712,0.01308
6.716,0.01644
6.72,0.01273
6.724,0.04504
6.728,0.04973
6.732,0.06666
6.736,0.07347
6.74,0.08031
6.744,0.11428
6.748,0.13538
6.752,0.10301
6.756,0.1146
6.76,0.10323
6.764,0.1147
6.768,0.1254
6.772,0.07508
6.776,0.05871
6.78,0.08976
6.784,0.03875
6.788,0.02557
6.792,0.03611
6.796,0.02634
6.8,-0.00407
6.804,0.02553
6.808,0.01247
6.812,0.00951
6.816,0.02361
6.82,0.01938
6.824,0.01429
6.828,-0.01807
6.832,0.025
6.836,0.0267
6.84,0.01974
6.844,0.00831
6.848,0.01308
6.852,0.01399
6.856,0.02199
6.86,-0.00245
6.864,0.0076
6.868,-0.00011
6.872,-0.0081
6.876,-0.05867
6.88,-0.10035
6.884,-0.11245
6.888,-0.04296
6.892,0.05352
6.896,0.2026
6.9,0.43723
6.904,0.6363
6.908,0.80758
6.912,0.95857
6.916,0.99713
6.92,0.93255
6.924,0.76365
6.928,0.52918
6.932,0.32668
6.936,0.09992
6.94,-0.07291
6.944,-0.11527
6.948,-0.16616
6.952,-0.1477
6.956,-0.09419
6.96,-0.04274
6.964,-0.04932
6.968,-0.04169
6.972,-0.00757
6.976,0.00296
6.98,0.00694
6.984,0.01908
6.988,0.00887
6.992,0.02192
6.996,0.00952
7.0,0.00876
7.004,0.0134
7.008,-0.00821
7.012,0.02087
7.016,-0.00021
7.02,0.01573
7.024,0.00617
7.028,-0.03428
7.032,-0.0038
7.036,-0.02155
7.04,0.03109
7.044,0.01748
7.048,0.00331
7.052,0.00959
7.056,0.00422
7.06,0.00479
7.064,0.01463
7.068,0.02042
7.072,3e-05
7.076,0.02407
7.08,0.01024
7.084,0.01007
7.088,0.03705
7.092,0.03166
7.096,0.02407
7.1,0.03148
7.104,0.02937
7.108,0.03566
7.112,0.06297
7.116,0.04846
7.12,0.05604
7.124,0.05839
7.128,0.08763
7.132,0.08688
7.136,0.07031
7.14,0.10021
7.144,0.13449
7.148,0.12878
7.152,0.1591
7.156,0.17018
7.16,0.17836
7.164,0.17209
7.168,0.1698
7.172,0.21586
7.176,0.19827
7.18,0.22672
7.184,0.20275
7.188,0.20511
7.192,0.22374
7.196,0.2338
7.2,0.25895
7.204,0.2364
7.208,0.22975
7.212,0.21567
7.216,0.18786
7.22,0.22139
7.224,0.18659
7.228,0.17826
7.232,0.15202
7.236,0.16557
7.24,0.13369
7.244,0.11995
7.248,0.09688
7.252,0.09266
7.256,0.09609
7.26,0.06572
7.264,0.07669
7.268,0.05314
7.272,0.0396
7.276,0.04888
7.28,0.02988
7.284,0.0244
7.288,0.00302
7.292,0.03222
7.296,0.01452
7.3,0.03207
7.304,-0.00854
7.308,0.00628
7.312,0.00025
7.316,0.01442
7.32,0.01391
7.324,0.01867
7.328,0.00943
7.332,0.0056
7.336,-0.01931
7.34,0.01972
7.344,0.02564
7.348,-0.00681
7.352,0.02089
7.356,-0.0064
7.36,0.01527
7.364,0.022
7.368,9e-05
7.372,0.00139
7.376,-0.00019
7.38,0.02101
7.384,-0.00653
7.388,0.01611
7.392,-0.01098
7.396,-0.01242
7.4,-0.00264
7.404,-0.00817
7.408,-0.0282
7.412,0.00061
7.416,-0.0262
7.42,-0.00819
7.424,-0.02948
7.428,-0.02263
7.432,-0.00676
7.436,0.0213
7.44,-0.00607
7.444,-0.00633
7.448,0.00892
7.452,-0.00425
7.456,0.02042
7.46,-0.00924
7.464,0.02069
7.468,4e-05
7.472,0.01048
7.476,0.01012
7.48,-0.00833
7.484,0.00356
7.488,-0.00429
7.492,0.01561
7.496,-0.00444
7.5,0.00534
7.504,0.02243
7.508,0.00066
7.512,-0.01854
7.516,-0.01955
7.52,-0.01845
7.524,0.00168
7.528,0.01315
7.532,0.00836
7.536,-0.00343
7.54,0.01914
7.544,0.0311
7.548,0.03802
7.552,0.05656
7.556,0.05109
7.56,0.05293
7.564,0.05369
7.568,0.10326
7.572,0.09279
7.576,0.118
7.58,0.09448
7.584,0.07336
7.588,0.05673
7.592,0.03079
7.596,0.05167
7.6,0.02481
7.604,0.01755
7.608,0.02526
7.612,-0.00485
7.616,-0.00947
7.62,-0.01611
7.624,0.00942
7.628,-0.01687
7.632,-0.0168
7.636,-0.02433
7.64,0.0132
7.644,-0.01141
7.648,-0.02375
7.652,-0.00823
7.656,-0.02374
7.66,0.01252
7.664,0.00307
7.668,-0.00809
7.672,-0.03314
7.676,-0.02513
7.68,0.00522
7.684,0.00042
7.688,-0.03127
7.692,-0.03079
7.696,-0.08374
7.7,-0.11652
7.704,-0.12597
7.708,-0.07284
7.712,0.06015
7.716,0.2542
7.72,0.46457
7.724,0.66487
7.728,0.84612
7.732,1.00284
7.736,0.97259
7.74,0.87604
7.744,0.70276
7.748,0.46215
7.752,0.21126
7.756,0.04555
7.76,-0.06626
7.764,-0.14139
7.768,-0.19786
7.772,-0.12679
7.776,-0.1262
7.78,-0.06172
7.784,-0.03991
7.788,-0.02175
7.792,-0.01233
7.796,-0.01342
7.8,-0.00815
7.804,-0.01545
7.808,-0.02612
7.812,0.00771
7.816,-0.00883
7.82,-0.02699
7.824,-0.01695
7.828,-0.01494
7.832,-0.01633
7.836,0.0052
7.84,-0.02369
7.844,-0.01032
7.848,-0.02184
7.852,-0.01561
7.856,-0.00388
7.86,-0.00311
7.864,-0.01387
7.868,-0.01388
7.872,-0.0231
7.876,-0.02412
7.88,0.00366
7.884,0.0141
7.888,-0.00716
7.892,-0.03403
7.896,0.00791
7.9,-0.0142
7.904,-0.00209
7.908,0.01847
7.912,0.00642
7.916,0.00649
7.92,0.04654
7.924,0.03933
7.928,0.0275
7.932,0.01828
7.936,0.02192
7.94,0.02572
7.944,0.04903
7.948,0.04381
7.952,0.0536
7.956,0.08272
7.96,0.09541
7.964,0.11982
7.968,0.09627
7.972,0.1217
7.976,0.12405
7.98,0.15583
7.984,0.14922
7.988,0.16931
7.992,0.18494
7.996,0.18703
8.0,0.21881
8.004,0.17837
8.008,0.20692
8.012,0.23353
8.016,0.19986
8.02,0.17993
8.024,0.20211
8.028,0.19358
8.032,0.20032
8.036,0.18758
8.04,0.15943
8.044,0.15506
8.048,0.16539
8.052,0.13461
8.056,0.12701
8.06,0.09588
8.064,0.10336
8.068,0.08005
8.072,0.08693
8.076,0.05874
8.08,0.08061
8.084,0.03441
8.088,0.03956
8.092,0.03696
8.096,0.05356
8.1,0.00883
8.104,0.01835
8.108,0.00371
8.112,-0.00326
8.116,-0.01649
8.12,0.0073
8.124,0.0033
8.128,-0.01288
8.132,-0.01157
8.136,-0.02492
8.14,0.00463
8.144,0.004
8.148,-0.03404
8.152,-0.01446
8.156,-0.00519
8.16,-0.01018
8.164,-0.01379
8.168,-0.02874
8.172,0.01016
8.176,-0.00281
8.18,-0.00218
8.184,0.00738
8.188,-0.01437
8.192,-0.00593
8.196,0.01994
8.2,0.02974
8.204,0.03332
8.208,0.03847
8.212,0.05732
8.216,0.0727
8.22,0.05977
8.224,0.07959
8.228,0.06927
8.232,0.08076
8.236,0.07792
8.24,0.0474
8.244,0.06249
8.248,0.02266
8.252,0.01865
8.256,-0.02646
8.26,-0.0226
8.264,-0.00507
8.268,-0.03229
8.272,-0.02285
8.276,-0.02459
8.28,-0.0386
8.284,-0.00552
8.288,-0.00986
8.292,-0.00141
8.296,-0.0172
8.3,-0.0249
8.304,0.00886
8.308,-0.01126
8.312,0.00446
8.316,0.00506
8.32,-0.02542
8.324,-0.0146
8.328,-0.02498
8.332,-0.04482
8.336,-0.04456
8.34,-0.04195
8.344,-0.08452
8.348,-0.11431
8.352,-0.13362
8.356,-0.11242
8.36,-0.01878
8.364,0.12882
8.368,0.38158
8.372,0.53649
8.376,0.78735
8.38,0.90534
8.384,0.97649
8.388,0.92398
8.392,0.763
8.396,0.53002
8.4,0.32919
8.404,0.08937
8.408,-0.0476
8.412,-0.14152
8.416,-0.17344
8.42,-0.18378
8.424,-0.14035
8.428,-0.08981
8.432,-0.0638
8.436,-0.06063
8.44,-0.02963
8.444,-0.03182
8.448,-0.00703
8.452,-0.04502
8.456,-0.02857
8.46,-0.03126
8.464,-0.00309
8.468,-0.04915
8.472,-0.04541
8.476,0.00873
8.48,-0.03025
8.484,-0.04287
8.488,-0.04366
8.492,0.00076
8.496,-0.00535
8.5,-0.01087
8.504,-0.02732
8.508,-0.03124
8.512,0.02445
8.516,-0.02225
8.52,-0.00233
8.524,-0.01477
8.528,-0.02622
8.532,-0.00139
8.536,-0.02014
8.54,-0.03012
8.544,-0.01593
8.548,-0.0292
8.552,-0.00266
8.556,-0.04925
8.56,-0.00439
8.564,-0.00355
8.568,-0.00612
8.572,0.00229
8.576,0.02646
8.58,0.01765
8.584,0.0118
8.588,0.01733
8.592,0.0346
8.596,0.06183
8.6,0.04677
8.604,0.06967
8.608,0.0871
8.612,0.08904
8.616,0.07455
8.62,0.11502
8.624,0.112
8.628,0.12666
8.632,0.14044
8.636,0.16324
8.64,0.15934
8.644,0.19866
8.648,0.18265
8.652,0.18997
8.656,0.19442
8.66,0.20743
8.664,0.17068
8.668,0.19211
8.672,0.16797
8.676,0.18232
8.68,0.18161
8.684,0.15268
8.688,0.17104
8.692,0.16795
8.696,0.12599
8.7,0.12351
8.704,0.10022
8.708,0.12053
8.712,0.10524
8.716,0.08852
8.72,0.09578
8.724,0.06784
8.728,0.02435
8.732,0.03785
8.736,0.01879
8.74,0.04146
8.744,0.02028
8.748,-0.02581
8.752,-0.00363
8.756,-0.00694
8.76,0.0009
8.764,0.00446
8.768,-0.02339
8.772,-0.03053
8.776,-0.02912
8.78,-0.02004
8.784,-0.01837
8.788,-0.01967
8.792,-0.03434
8.796,-0.02761
8.8,-0.01211
8.804,-0.03463
8.808,-0.03359
8.812,-0.04058
8.816,-0.01241
8.82,-0.01816
8.824,-0.03152
8.828,-0.0536
8.832,-0.03541
8.836,-0.03858
8.84,-0.068
8.844,-0.00799
8.848,-0.02389
8.852,-0.06319
8.856,-0.05847
8.86,0.02366
8.864,-0.03305
8.868,-0.04473
8.872,-0.03766
8.876,-0.03212
8.88,-0.01796
8.884,-0.03078
8.888,-0.05946
8.892,-0.05665
8.896,-0.04861
8.9,-0.04945
8.904,-0.03163
8.908,-0.04975
8.912,-0.01508
8.916,-0.01136
8.92,-0.00621
8.924,-0.01645
8.928,0.01655
8.932,-0.0003
8.936,0.03381
8.94,0.01963
8.944,0.02714
8.948,0.06807
8.952,0.08775
8.956,0.07977
8.96,0.04498
8.964,0.06441
8.968,0.05836
8.972,0.06309
8.976,0.04455
8.98,0.03811
8.984,0.04137
8.988,0.00503
8.992,0.00587
8.996,0.00167
9.0,-0.01186
9.004,-0.01788
9.008,-0.00034
9.012,-0.04441
9.016,-0.04694
9.02,-0.04191
9.024,-0.01903
9.028,-0.02909
9.032,-0.03661
9.036,-0.02665
9.04,-0.02968
9.044,-0.03096
9.048,-0.04625
9.052,-0.02137
9.056,-0.01492
9.06,-0.04033
9.064,-0.01546
9.068,-0.05614
9.072,-0.03681
9.076,-0.04897
9.08,-0.10939
9.084,-0.1567
9.088,-0.11794
9.092,-0.09812
9.096,0.02703
9.1,0.18318
9.104,0.41754
9.108,0.64553
9.112,0.79825
9.116,0.92352
9.12,0.96271
9.124,0.86818
9.128,0.68466
9.132,0.48465
9.136,0.25851
9.14,0.04635
9.144,-0.10229
9.148,-0.21001
9.152,-0.23458
9.156,-0.18172
9.16,-0.15098
9.164,-0.08439
9.168,-0.07366
9.172,-0.04698
9.176,0.00024
9.18,-0.05232
9.184,-0.04044
9.188,-0.03135
9.192,-0.02224
9.196,-0.06918
9.2,-0.04104
9.204,-0.03977
9.208,-0.03428
9.212,-0.04284
9.216,-0.00881
9.22,-0.02451
9.224,-0.02611
9.228,-0.01753
9.232,-0.02872
9.236,-0.01597
9.24,-0.03985
9.244,-0.02329
9.248,-0.02463
9.252,-0.01833
9.256,-0.03182
9.26,-0.02839
9.264,-0.02741
9.268,-0.02381
9.272,-0.03031
9.276,-0.02485
9.28,-0.0187
9.284,0.014
9.288,-0.03094
9.292,0.01499
9.296,-0.01209
9.3,0.00305
9.304,0.01124
9.308,-0.02171
9.312,0.0018
9.316,0.02532
9.32,0.01466
9.324,0.00236
9.328,0.02315
9.332,0.04921
9.336,0.05327
9.34,0.0533
9.344,0.08745
9.348,0.08148
9.352,0.1011
9.356,0.14191
9.36,0.13675
9.364,0.13601
9.368,0.17425
9.372,0.16641
9.376,0.16826
9.38,0.16804
9.384,0.18637
9.388,0.17147
9.392,0.21326
9.396,0.16039
9.4,0.1852
9.404,0.17757
9.408,0.16483
9.412,0.16971
9.416,0.16737
9.42,0.16555
9.424,0.1549
9.428,0.14345
9.432,0.17184
9.436,0.13373
9.44,0.13661
9.444,0.08131
9.448,0.10122
9.452,0.079
9.456,0.07416
9.46,0.04728
9.464,0.06477
9.468,0.05425
9.472,0.04015
9.476,0.0134
9.48,0.01233
9.484,0.02267
9.488,0.01617
9.492,0.02518
9.496,0.02229
9.5,0.02835
9.504,0.0197
9.508,0.05287
9.512,0.05827
9.516,0.06358
9.52,0.07716
9.524,0.06275
9.528,0.09274
9.532,0.07728
9.536,0.07607
9.54,0.05688
9.544,0.06283
9.548,0.03117
9.552,0.03131
9.556,0.04752
9.56,0.01604
9.564,-0.01002
9.568,-0.01804
9.572,0.00532
9.576,-0.01412
9.58,-0.02513
9.584,-0.02067
9.588,-0.02355
9.592,-0.01227
9.596,-0.02691
9.6,-0.01867
9.604,-0.01571
9.608,-0.04421
9.612,-0.03611
9.616,-0.02282
9.62,-0.0299
9.624,-0.0244
9.628,-0.01383
9.632,-0.04234
9.636,-0.0197
9.64,-0.04843
9.644,-0.04688
9.648,-0.06601
9.652,-0.10961
9.656,-0.13172
9.66,-0.12923
9.664,-0.03394
9.668,0.10856
9.672,0.28865
9.676,0.51874
9.68,0.71929
9.684,0.88367
9.688,0.97325
9.692,0.96244
9.696,0.81514
9.7,0.60363
9.704,0.39821
9.708,0.1521
9.712,-0.02007
9.716,-0.14025
9.72,-0.18622
9.724,-0.20289
9.728,-0.19392
9.732,-0.10142
9.736,-0.05868
9.74,-0.04614
9.744,-0.03037
9.748,-0.01295
9.752,-0.03013
9.756,-0.05386
9.76,0.00484
9.764,-0.0108
9.768,-0.03785
9.772,-0.00496
9.776,-0.01996
9.78,-0.01577
9.784,-0.02803
9.788,-0.03942
9.792,-0.03167
9.796,-0.00262
9.8,-0.03422
9.804,-0.00994
9.808,-0.03948
9.812,-0.01043
9.816,-0.05455
9.82,-0.02466
9.824,0.00855
9.828,-0.00627
9.832,-0.0268
9.836,-0.00872
9.84,-0.00018
9.844,0.00333
9.848,0.00767
9.852,0.00332
9.856,-3e-05
9.86,0.00387
9.864,-0.00037
9.868,-0.00168
9.872,-0.01621
9.876,0.00432
9.88,0.01524
9.884,0.02611
9.888,0.03898
9.892,0.02703
9.896,0.00621
9.9,0.05427
9.904,0.03092
9.908,0.06244
9.912,0.06503
9.916,0.08487
9.92,0.0739
9.924,0.10687
9.928,0.14633
9.932,0.12456
9.936,0.17086
9.94,0.16678
9.944,0.16913
9.948,0.1692
9.952,0.21054
9.956,0.18251
9.96,0.19105
9.964,0.22346
9.968,0.19367
9.972,0.18465
9.976,0.21779
9.98,0.19205
9.984,0.19957
9.988,0.17767
9.992,0.15121
9.996,0.15981
