t_seg,ecg_mV
0.0,0.13982
0.004,0.12575
0.008,0.13141
0.012,0.09066
0.016,0.04876
0.02,0.03661
0.024,0.01975
0.028,0.07396
0.032,-0.01583
0.036,0.04495
0.04,0.04899
0.044,0.05663
0.048,0.06587
0.052,0.04432
0.056,0.00654
0.06,-0.01574
0.064,0.00647
0.068,0.03379
0.072,0.07205
0.076,0.07012
0.08,0.06143
0.084,0.08451
0.088,0.02756
0.092,-0.04084
0.096,-0.01466
0.1,0.03838
0.104,-0.00838
0.108,-0.04246
0.112,-0.11471
0.116,-0.11587
0.12,-0.07558
0.124,-0.00519
0.128,0.16772
0.132,0.37488
0.136,0.57643
0.14,0.7991
0.144,0.93574
0.148,1.08104
0.152,1.01078
0.156,0.8459
0.16,0.65425
0.164,0.41485
0.168,0.21158
0.172,0.0547
0.176,-0.01842
0.18,-0.14342
0.184,-0.15064
0.188,-0.03587
0.192,-0.06334
0.196,-0.04874
0.2,0.06341
0.204,-0.06264
0.208,0.03483
0.212,0.06538
0.216,0.06212
0.22,0.081
0.224,0.05587
0.228,0.04653
0.232,-0.02032
0.236,0.10173
0.24,0.07155
0.244,0.08775
0.248,0.05676
0.252,0.03502
0.256,0.11696
0.26,0.06742
0.264,0.09872
0.268,0.08547
0.272,0.03569
0.276,0.11646
0.28,0.14727
0.284,0.08536
0.288,0.0732
0.292,0.17524
0.296,0.10103
0.3,0.06992
0.304,0.09791
0.308,0.09462
0.312,0.05373
0.316,0.07699
0.32,0.11415
0.324,0.07277
0.328,0.02901
0.332,0.07618
0.336,0.10162
0.34,0.06853
0.344,0.08749
0.348,0.07669
0.352,0.1033
0.356,0.02771
0.36,0.07778
0.364,0.02895
0.368,0.12453
0.372,0.06119
0.376,0.12273
0.38,0.08911
0.384,0.19196
0.388,0.14549
0.392,0.10262
0.396,0.08477
0.4,0.0308
0.404,0.06664
0.408,0.19346
0.412,0.34305
0.416,0.51275
0.42,0.70238
0.424,0.91736
0.428,1.09014
0.432,1.24933
0.436,1.21001
0.44,1.08157
0.444,0.92356
0.448,0.66368
0.452,0.50162
0.456,0.30293
0.46,0.0718
0.464,0.00422
0.468,-0.01398
0.472,0.00826
0.476,-0.0021
0.48,0.04765
0.484,0.12059
0.488,0.10259
0.492,0.09903
0.496,0.10774
0.5,0.05342
0.504,0.09252
0.508,0.05168
0.512,0.14401
0.516,0.05694
0.52,-0.02567
0.524,0.08628
0.528,-0.03304
0.532,0.09169
0.536,0.03273
0.54,0.00811
0.544,0.05833
0.548,0.07178
0.552,0.03855
0.556,0.03983
0.56,-0.0183
0.564,0.02271
0.568,0.0453
0.572,0.07179
0.576,0.07267
0.58,0.03961
0.584,0.08139
0.588,0.0119
0.592,-0.02096
0.596,0.04949
0.6,0.06727
0.604,0.0139
0.608,0.07336
0.612,0.08554
0.616,0.01454
0.62,0.08499
0.624,0.09946
0.628,0.06659
0.632,0.06588
0.636,0.05816
0.64,0.05639
0.644,0.10369
0.648,0.07407
0.652,0.06809
0.656,0.09538
0.66,0.08537
0.664,0.18542
0.668,0.19133
0.672,0.15886
0.676,0.10655
0.68,0.17066
0.684,0.20039
0.688,0.20708
0.692,0.21066
0.696,0.21546
0.7,0.16877
0.704,0.15907
0.708,0.22581
0.712,0.18945
0.716,0.25956
0.72,0.2724
0.724,0.26069
0.728,0.26568
0.732,0.14924
0.736,0.20404
0.74,0.2686
0.744,0.20283
0.748,0.15992
0.752,0.21858
0.756,0.20167
0.76,0.19978
0.764,0.14365
0.768,0.13528
0.772,0.16486
0.776,0.02951
0.78,0.09826
0.784,0.07763
0.788,0.10538
0.792,0.01434
0.796,0.06116
0.8,0.07107
0.804,0.10418
0.808,0.05033
0.812,0.11142
0.816,0.11548
0.82,0.1379
0.824,0.09766
0.828,0.04879
0.832,0.10552
0.836,0.12572
0.84,0.12383
0.844,0.12412
0.848,0.14872
0.852,0.11559
0.856,0.12901
0.86,0.06978
0.864,0.04251
0.868,0.02924
0.872,0.05242
0.876,0.01158
0.88,0.05642
0.884,0.06318
0.888,0.01187
0.892,0.02177
0.896,0.01334
0.9,0.03836
0.904,0.10157
0.908,-0.02848
0.912,0.01865
0.916,0.0767
0.92,0.07049
0.924,0.10877
0.928,0.01125
0.932,0.00745
0.936,-0.00941
0.94,0.00497
0.944,0.01686
0.948,-0.05601
0.952,-0.07188
0.956,-0.0125
0.96,-0.10093
0.964,-0.08845
0.968,-0.10269
0.972,0.072
0.976,0.13746
0.98,0.3109
0.984,0.57474
0.988,0.74793
0.992,0.97171
0.996,0.96425
1.0,0.99661
1.004,0.79962
1.008,0.65367
1.012,0.47807
1.016,0.16763
1.02,0.0376
1.024,-0.1467
1.028,-0.1174
1.032,-0.10664
1.036,-0.14067
1.04,-0.05419
1.044,-0.05173
1.048,-0.03075
1.052,0.03678
1.056,0.01459
1.06,0.01777
1.064,0.04774
1.068,0.06402
1.072,-0.00396
1.076,-0.00681
1.08,-0.01763
1.084,-0.02086
1.088,0.019
1.092,0.00488
1.096,-0.01091
1.1,0.00754
1.104,0.06282
1.108,0.09054
1.112,0.02622
1.116,0.04242
1.12,0.00555
1.124,0.02845
1.128,0.02656
1.132,0.03854
1.136,0.01561
1.14,0.05385
1.144,0.02461
1.148,0.04093
1.152,0.03857
1.156,0.018
1.16,0.0359
1.164,-0.01459
1.168,0.01527
1.172,0.05076
1.176,0.0337
1.18,-0.01244
1.184,0.02473
1.188,0.01981
1.192,0.03147
1.196,0.04187
1.2,0.08989
1.204,0.10055
1.208,0.08665
1.212,0.11825
1.216,0.1537
1.22,0.19441
1.224,0.16775
1.228,0.19313
1.232,0.265
1.236,0.21235
1.24,0.31274
1.244,0.31877
1.248,0.31253
1.252,0.3026
1.256,0.31105
1.26,0.25759
1.264,0.30179
1.268,0.31359
1.272,0.24013
1.276,0.29533
1.28,0.26248
1.284,0.24234
1.288,0.17576
1.292,0.24205
1.296,0.22332
1.3,0.17796
1.304,0.20675
1.308,0.21054
1.312,0.14036
1.316,0.08609
1.32,0.19189
1.324,0.14177
1.328,0.089
1.332,0.08684
1.336,0.14132
1.34,0.09712
1.344,0.04075
1.348,0.05994
1.352,0.05103
1.356,0.02543
1.36,0.06548
1.364,-0.02764
1.368,-0.09694
1.372,-0.0492
1.376,-0.11598
1.38,0.1178
1.384,0.25386
1.388,0.46786
1.392,0.68185
1.396,0.90299
1.4,0.97751
1.404,0.9739
1.408,0.86571
1.412,0.67567
1.416,0.47213
1.42,0.23696
1.424,0.04104
1.428,-0.06395
1.432,-0.15206
1.436,-0.19694
1.44,-0.1898
1.444,-0.02875
1.448,-0.04801
1.452,-0.05023
1.456,0.03927
1.46,-0.06598
1.464,-0.0088
1.468,0.04017
1.472,0.01539
1.476,-0.00497
1.48,0.03188
1.484,-0.02341
1.488,-0.05158
1.492,0.05756
1.496,-0.00957
1.5,-0.00244
1.504,-0.00744
1.508,-0.06277
1.512,-0.04495
1.516,0.02709
1.52,-0.01919
1.524,-0.00157
1.528,0.02505
1.532,-0.04129
1.536,-0.06262
1.54,0.02749
1.544,-0.00644
1.548,-0.08359
1.552,-0.01667
1.556,0.03404
1.56,0.0204
1.564,0.04559
1.568,0.07362
1.572,0.04018
1.576,-0.00613
1.58,0.00081
1.584,0.05965
1.588,0.05194
1.592,0.05657
1.596,0.05404
1.6,0.05811
1.604,0.09893
1.608,0.07984
1.612,0.16328
1.616,0.26425
1.62,0.17466
1.624,0.19351
1.628,0.24373
1.632,0.20517
1.636,0.19016
1.64,0.22283
1.644,0.24129
1.648,0.22403
1.652,0.15987
1.656,0.17334
1.66,0.22897
1.664,0.19727
1.668,0.29723
1.672,0.27023
1.676,0.16595
1.68,0.2801
1.684,0.22392
1.688,0.24041
1.692,0.26996
1.696,0.16326
1.7,0.17998
1.704,0.14918
1.708,0.16983
1.712,0.17265
1.716,0.1947
1.72,0.14781
1.724,0.15465
1.728,0.13732
1.732,0.18222
1.736,0.11338
1.74,0.11627
1.744,0.03678
1.748,0.01892
1.752,-0.04091
1.756,-0.05588
1.76,-0.02213
1.764,0.10726
1.768,0.17437
1.772,0.43609
1.776,0.71133
1.78,0.83717
1.784,0.96081
1.788,1.00077
1.792,0.96748
1.796,0.75925
1.8,0.52672
1.804,0.27484
1.808,0.09095
1.812,-0.09838
1.816,-0.19676
1.82,-0.18008
1.824,-0.16533
1.828,-0.12844
1.832,-0.0414
1.836,-0.09936
1.84,-0.04623
1.844,0.01404
1.848,-0.06363
1.852,-0.02524
1.856,0.00429
1.86,-0.03612
1.864,-0.03307
1.868,0.03671
1.872,-0.00997
1.876,0.04141
1.88,-0.05495
1.884,-0.02705
1.888,-0.05224
1.892,-0.0225
1.896,-0.04423
1.9,-0.00694
1.904,0.05062
1.908,0.00141
1.912,-0.04704
1.916,-0.00839
1.92,0.01311
1.924,-0.06107
1.928,0.02636
1.932,-0.07781
1.936,0.03278
1.94,0.0125
1.944,0.01184
1.948,-0.00129
1.952,0.02954
1.956,0.06737
1.96,0.0048
1.964,0.00347
1.968,0.03918
1.972,-0.00189
1.976,0.00698
1.98,0.07048
1.984,0.02786
1.988,0.06584
1.992,0.00865
1.996,0.04591
2.0,0.03798
2.004,0.01068
2.008,0.11336
2.012,0.09896
2.016,0.07381
2.02,0.09458
2.024,0.15075
2.028,0.13678
2.032,0.11652
2.036,0.18526
2.04,0.21234
2.044,0.22359
2.048,0.19264
2.052,0.26557
2.056,0.25875
2.06,0.19798
2.064,0.24381
2.068,0.16887
2.072,0.20035
2.076,0.23657
2.08,0.20199
2.084,0.20638
2.088,0.24972
2.092,0.20572
2.096,0.21388
2.1,0.10893
2.104,0.14886
2.108,0.18147
2.112,0.09011
2.116,0.12781
2.12,0.07795
2.124,0.06824
2.128,0.10147
2.132,0.10645
2.136,0.03508
2.14,0.0734
2.144,0.02709
2.148,0.05623
2.152,0.02002
2.156,-0.00548
2.16,-0.0165
2.164,0.07174
2.168,-0.01928
2.172,0.00036
2.176,-0.04879
2.18,-0.05305
2.184,-0.00682
2.188,-0.02034
2.192,-0.05058
2.196,-0.02277
2.2,0.06771
2.204,-0.05737
2.208,-0.02075
2.212,-0.01726
2.216,-0.06662
2.22,-0.06715
2.224,-0.10209
2.228,-0.02206
2.232,-0.04442
2.236,-0.05388
2.24,0.05913
2.244,-0.03802
2.248,0.05536
2.252,-0.00135
2.256,0.00902
2.26,0.00975
2.264,0.04946
2.268,0.05443
2.272,0.08011
2.276,0.07312
2.28,0.10092
2.284,0.0812
2.288,0.08243
2.292,0.07286
2.296,0.0899
2.3,0.11498
2.304,0.06617
2.308,0.03501
2.312,-0.02458
2.316,0.03856
2.32,0.07012
2.324,0.0403
2.328,-0.02672
2.332,0.01823
2.336,-0.08176
2.34,-0.0272
2.344,-0.05359
2.348,-0.03337
2.352,-0.00847
2.356,0.03119
2.36,-0.01734
2.364,-0.00929
2.368,-0.00096
2.372,-0.02042
2.376,-0.03504
2.38,-0.02713
2.384,-0.01026
2.388,0.00191
2.392,0.01014
2.396,0.01313
2.4,-0.09627
2.404,-0.06492
2.408,-0.04933
2.412,-0.11006
2.416,-0.09807
2.42,-0.07758
2.424,0.00051
2.428,0.28113
2.432,0.47732
2.436,0.74671
2.44,0.92227
2.444,0.9555
2.448,1.00384
2.452,0.90427
2.456,0.67222
2.46,0.49722
2.464,0.24932
2.468,0.04681
2.472,-0.12627
2.476,-0.12655
2.48,-0.20942
2.484,-0.11523
2.488,-0.08679
2.492,-0.05753
2.496,-0.06157
2.5,-0.04953
2.504,-0.06682
2.508,-0.00869
2.512,-0.0177
2.516,-0.02683
2.52,-0.04297
2.524,0.01578
2.528,-0.00255
2.532,-0.03347
2.536,-0.00463
2.54,-0.01227
2.544,-0.02159
2.548,0.00023
2.552,-0.033
2.556,-0.01758
2.56,-0.02634
2.564,0.028
2.568,-0.00503
2.572,0.04083
2.576,-0.06449
2.58,0.01691
2.584,-0.08498
2.588,-0.02145
2.592,0.01386
2.596,-0.05093
2.6,0.01718
2.604,0.00473
2.608,-0.02603
2.612,-0.03412
2.616,-0.03287
2.62,-0.06548
2.624,-0.0368
2.628,0.02485
2.632,0.02371
2.636,-0.06982
2.64,0.019
2.644,0.02711
2.648,0.02974
2.652,0.01201
2.656,0.07856
2.66,0.10947
2.664,0.08239
2.668,0.17234
2.672,0.0944
2.676,0.1787
2.68,0.14369
2.684,0.24306
2.688,0.24433
2.692,0.26839
2.696,0.23084
2.7,0.26104
2.704,0.31515
2.708,0.26598
2.712,0.3092
2.716,0.31345
2.72,0.24967
2.724,0.22421
2.728,0.23899
2.732,0.25341
2.736,0.14597
2.74,0.19836
2.744,0.19262
2.748,0.25936
2.752,0.20155
2.756,0.13211
2.76,0.13317
2.764,0.11132
2.768,0.13046
2.772,0.09099
2.776,0.07303
2.78,0.07158
2.784,0.09897
2.788,0.05626
2.792,-0.00126
2.796,0.10562
2.8,0.03762
2.804,0.04009
2.808,0.04953
2.812,0.0345
2.816,-0.00375
2.82,-0.04301
2.824,-0.15272
2.828,-0.15489
2.832,-0.06293
2.836,0.0597
2.84,0.21451
2.844,0.49116
2.848,0.66798
2.852,0.8429
2.856,0.96815
2.86,0.93942
2.864,0.81931
2.868,0.67351
2.872,0.43265
2.876,0.22415
2.88,0.00486
2.884,-0.08119
2.888,-0.17791
2.892,-0.1929
2.896,-0.14865
2.9,-0.19677
2.904,-0.09018
2.908,-0.00046
2.912,-0.04949
2.916,-0.09333
2.92,-0.02892
2.924,-0.00638
2.928,0.0887
2.932,-0.04405
2.936,-0.09503
2.94,-0.00809
2.944,-0.02778
2.948,-0.05297
2.952,0.03684
2.956,-0.03828
2.96,-0.03772
2.964,-0.02782
2.968,-0.05988
2.972,0.05407
2.976,-0.0141
2.98,-0.01131
2.984,-0.05379
2.988,-0.00318
2.992,0.03507
2.996,-0.10226
3.0,-0.02105
3.004,0.06496
3.008,-0.00756
3.012,-0.06724
3.016,-0.05431
3.02,-0.03236
3.024,-0.12933
3.028,-0.0311
3.032,-0.00296
3.036,0.00293
3.04,-0.02307
3.044,-0.00969
3.048,0.00452
3.052,-0.00059
3.056,0.01573
3.06,0.06111
3.064,-0.05556
3.068,0.00761
3.072,0.05535
3.076,0.03353
3.08,0.11146
3.084,0.06993
3.088,0.04441
3.092,0.10539
3.096,0.08542
3.1,0.09902
3.104,0.10796
3.108,0.14462
3.112,0.21471
3.116,0.13151
3.12,0.17812
3.124,0.13069
3.128,0.2075
3.132,0.22203
3.136,0.18798
3.14,0.17499
3.144,0.17475
3.148,0.1269
3.152,0.22276
3.156,0.171
3.16,0.17364
3.164,0.1368
3.168,0.15528
3.172,0.16071
3.176,0.11744
3.18,0.19244
3.184,0.04891
3.188,0.03242
3.192,0.03576
3.196,0.10377
3.2,0.04418
3.204,0.01578
3.208,0.05907
3.212,0.07359
3.216,-0.00652
3.22,0.03562
3.224,-0.02318
3.228,-0.0319
3.232,0.03438
3.236,0.06095
3.24,-0.04384
3.244,-0.00933
3.248,-0.02014
3.252,-0.05133
3.256,-0.0329
3.26,-0.04439
3.264,-0.01342
3.268,-0.06669
3.272,-0.06985
3.276,0.0037
3.28,-0.00759
3.284,-0.03953
3.288,-0.01401
3.292,0.00804
3.296,-0.00565
3.3,-0.01527
3.304,-0.11586
3.308,0.00386
3.312,-0.06269
3.316,-0.00237
3.32,-0.00663
3.324,0.00091
3.328,-0.03099
3.332,0.01753
3.336,0.04614
3.34,-0.0089
3.344,0.03223
3.348,0.02325
3.352,0.00968
3.356,0.13992
3.36,0.09589
3.364,0.08931
3.368,0.07509
3.372,0.05661
3.376,0.03462
3.38,0.03555
3.384,0.04022
3.388,0.07004
3.392,-0.02559
3.396,0.00051
3.4,-0.03764
3.404,-0.01649
3.408,-0.05686
3.412,-0.00972
3.416,-0.0013
3.42,0.01778
3.424,-0.02018
3.428,0.04524
3.432,-0.00426
3.436,0.01167
3.44,-0.04526
3.444,0.02167
3.448,-0.02426
3.452,-0.04889
3.456,-0.09987
3.46,-0.07879
3.464,-0.05213
3.468,-0.01447
3.472,-0.04655
3.476,-0.09497
3.48,-0.0622
3.484,-0.08993
3.488,-0.1427
3.492,-0.02365
3.496,0.03362
3.5,0.14045
3.504,0.33321
3.508,0.52837
3.512,0.7828
3.516,0.95628
3.52,1.01133
3.524,0.92694
3.528,0.81822
3.532,0.50561
3.536,0.3346
3.54,0.10887
3.544,-0.01478
3.548,-0.11856
3.552,-0.16453
3.556,-0.19537
3.56,-0.1475
3.564,-0.04985
3.568,-0.05914
3.572,-0.03012
3.576,-0.06515
3.58,-0.11784
3.584,-0.01693
3.588,-0.05237
3.592,-0.01115
3.596,0.00361
3.6,-0.01778
3.604,-0.08813
3.608,-0.02618
3.612,-0.02281
3.616,-0.07716
3.62,-0.07548
3.624,-0.08353
3.628,-0.03485
3.632,-0.066
3.636,-0.07346
3.64,-0.02996
3.644,-0.01421
3.648,-0.0276
3.652,-0.01192
3.656,-0.11003
3.66,-0.05894
3.664,0.01276
3.668,0.03549
3.672,-0.02205
3.676,0.01554
3.68,-0.08887
3.684,-0.00114
3.688,-0.05122
3.692,-0.05678
3.696,0.0222
3.7,-0.07992
3.704,-0.0344
3.708,-0.02582
3.712,0.05722
3.716,0.00085
3.72,0.04697
3.724,0.03333
3.728,0.11756
3.732,0.05524
3.736,0.05431
3.74,0.05276
3.744,0.04461
3.748,0.07312
3.752,0.14155
3.756,0.13324
3.76,0.11099
3.764,0.08063
3.768,0.13813
3.772,0.12957
3.776,0.19709
3.78,0.18772
3.784,0.22939
3.788,0.22066
3.792,0.2676
3.796,0.23033
3.8,0.28839
3.804,0.26431
3.808,0.32174
3.812,0.24223
3.816,0.24379
3.82,0.27003
3.824,0.22148
3.828,0.29923
3.832,0.22406
3.836,0.24069
3.84,0.22241
3.844,0.11994
3.848,0.14898
3.852,0.05076
3.856,0.05197
3.86,0.08175
3.864,0.06484
3.868,0.06692
3.872,-0.00666
3.876,0.05357
3.88,-0.0104
3.884,-0.03862
3.888,0.04456
3.892,-0.01903
3.896,0.00635
3.9,-0.03576
3.904,-0.02299
3.908,0.00772
3.912,-0.01986
3.916,0.02735
3.92,-0.01768
3.924,-0.00287
3.928,-0.02064
3.932,-0.07079
3.936,-0.10224
3.94,-0.16957
3.944,-0.16535
3.948,-0.12152
3.952,-0.03028
3.956,0.04493
3.96,0.22945
3.964,0.48664
3.968,0.69604
3.972,0.88869
3.976,0.92295
3.98,1.04473
3.984,0.81059
3.988,0.59456
3.992,0.39898
3.996,0.18841
4.0,-0.02271
4.004,-0.15789
4.008,-0.20111
4.012,-0.24748
4.016,-0.171
4.02,-0.08999
4.024,-0.03566
4.028,-0.09712
4.032,0.04496
4.036,-0.03372
4.04,0.00057
4.044,-0.04047
4.048,0.01987
4.052,-0.03782
4.056,-0.02371
4.06,-0.06395
4.064,-0.00776
4.068,-0.03995
4.072,-0.0312
4.076,-0.0544
4.08,-0.01126
4.084,-0.02902
4.088,-0.02024
4.092,-0.01836
4.096,0.00307
4.1,-0.01004
4.104,-0.03867
4.108,-0.05478
4.112,-0.02299
4.116,-0.07141
4.12,-0.02387
4.124,0.02402
4.128,-0.00947
4.132,0.02301
4.136,-0.0744
4.14,0.01321
4.144,-0.00561
4.148,-0.01779
4.152,0.032
4.156,-0.03452
4.16,0.00376
4.164,0.02842
4.168,0.06137
4.172,0.05389
4.176,-0.00091
4.18,0.00591
4.184,0.04667
4.188,0.02452
4.192,0.05826
4.196,0.05015
4.2,0.02972
4.204,0.06616
4.208,0.08971
4.212,0.10811
4.216,0.14426
4.22,0.16047
4.224,0.12444
4.228,0.10821
4.232,0.16964
4.236,0.22706
4.24,0.19101
4.244,0.12824
4.248,0.24239
4.252,0.19331
4.256,0.19332
4.26,0.24099
4.264,0.20989
4.268,0.19669
4.272,0.19736
4.276,0.22475
4.28,0.16164
4.284,0.17034
4.288,0.17328
4.292,0.12975
4.296,0.15175
4.3,0.14476
4.304,0.09138
4.308,0.08549
4.312,0.08079
4.316,0.00809
4.32,0.02388
4.324,0.03766
4.328,0.04447
4.332,0.02389
4.336,0.04811
4.34,0.04999
4.344,-0.01806
4.348,0.10636
4.352,-0.00736
4.356,0.01399
4.36,0.01731
4.364,-0.04713
4.368,-0.03754
4.372,0.00148
4.376,0.0162
4.38,-0.00458
4.384,0.00461
4.388,0.01256
4.392,-0.05453
4.396,0.04466
4.4,0.01257
4.404,0.02982
4.408,-0.03917
4.412,-0.00306
4.416,-0.04047
4.42,0.00329
4.424,-0.02292
4.428,-0.08479
4.432,-0.00408
4.436,0.02947
4.44,-0.02255
4.444,0.01957
4.448,-0.04637
4.452,0.01784
4.456,-0.07861
4.46,0.00815
4.464,-0.01037
4.468,-0.01086
4.472,-0.05429
4.476,-0.03009
4.48,-0.00657
4.484,-0.03546
4.488,0.01343
4.492,0.02936
4.496,0.06304
4.5,-0.05102
4.504,-0.07538
4.508,0.02466
4.512,0.0536
4.516,0.01934
4.52,-0.01302
4.524,-0.03485
4.528,-0.01907
4.532,0.02432
4.536,-0.0064
4.54,-0.00161
4.544,-0.00184
4.548,-0.00658
4.552,-0.00832
4.556,0.06202
4.56,-0.01328
4.564,0.04144
4.568,-0.05837
4.572,0.04727
4.576,0.00157
4.58,-0.01386
4.584,-0.03922
4.588,-0.01695
4.592,0.04783
4.596,-0.00906
4.6,-0.03296
4.604,-0.0351
4.608,-0.01037
4.612,-0.0755
4.616,-0.0279
4.62,-0.0313
4.624,-0.00068
4.628,0.03016
4.632,-0.02044
4.636,0.00377
4.64,0.01588
4.644,-0.01872
4.648,-0.06273
4.652,0.06343
4.656,-0.03805
4.66,-0.02412
4.664,0.00955
4.668,-0.02424
4.672,-0.07948
4.676,-0.01584
4.68,0.0264
4.684,0.00802
4.688,-0.00589
4.692,-0.02049
4.696,-0.00773
4.7,0.04341
4.704,0.02276
4.708,0.02586
4.712,0.0182
4.716,0.00257
4.72,0.00364
4.724,-0.02929
4.728,0.00296
4.732,0.06655
4.736,0.04358
4.74,0.06843
4.744,0.08122
4.748,0.09528
4.752,0.06484
4.756,0.08701
4.76,0.14729
4.764,0.05483
4.768,0.12654
4.772,0.08714
4.776,0.09497
4.78,0.07607
4.784,0.11266
4.788,0.04016
4.792,0.04149
4.796,0.06382
4.8,0.03478
4.804,0.09584
4.808,0.02175
4.812,0.05819
4.816,0.06754
4.82,0.01803
4.824,0.02975
4.828,-0.01427
4.832,0.02188
4.836,0.06584
4.84,-0.01159
4.844,-0.01488
4.848,0.03698
4.852,-0.02017
4.856,0.0357
4.86,-0.05769
4.864,0.01306
4.868,0.02619
4.872,0.06974
4.876,-0.02988
4.88,-0.02909
4.884,-0.04929
4.888,-0.12914
4.892,-0.07916
4.896,-0.10706
4.9,-0.01013
4.904,0.08801
4.908,0.32706
4.912,0.57774
4.916,0.71352
4.92,0.86555
4.924,1.02315
4.928,0.9834
4.932,0.81736
4.936,0.69933
4.94,0.41797
4.944,0.23135
4.948,0.01017
4.952,-0.08389
4.956,-0.16513
4.96,-0.21947
4.964,-0.15405
4.968,-0.11385
4.972,-0.08409
4.976,-0.00632
4.98,0.01209
4.984,0.04991
4.988,0.01597
4.992,-0.00445
4.996,0.04356
5.0,0.06874
5.004,0.01316
5.008,0.01334
5.012,-0.00406
5.016,-0.00411
5.02,0.04784
5.024,-0.043
5.028,0.03841
5.032,-0.03247
5.036,-0.03561
5.04,0.00023
5.044,0.0096
5.048,-0.00576
5.052,-0.0366
5.056,-0.0172
5.06,0.0188
5.064,0.02302
5.068,-0.04806
5.072,-0.0122
5.076,0.00892
5.08,0.00318
5.084,-0.00809
5.088,-0.06257
5.092,0.07031
5.096,0.0008
5.1,0.04564
5.104,-0.02428
5.108,-0.00099
5.112,-0.02449
5.116,0.02434
5.12,0.01609
5.124,0.00942
5.128,0.05373
5.132,0.01514
5.136,0.12942
5.14,0.04849
5.144,0.06146
5.148,0.0984
5.152,0.15934
5.156,0.10317
5.16,0.0938
5.164,0.08708
5.168,0.18984
5.172,0.22339
5.176,0.11272
5.18,0.13499
5.184,0.20427
5.188,0.18026
5.192,0.22253
5.196,0.23783
5.2,0.21708
5.204,0.18177
5.208,0.25968
5.212,0.16924
5.216,0.27156
5.22,0.19311
5.224,0.25757
5.228,0.1996
5.232,0.19317
5.236,0.18975
5.24,0.20536
5.244,0.15634
5.248,0.17121
5.252,0.20976
5.256,0.12069
5.26,0.15977
5.264,0.02514
5.268,0.05269
5.272,0.15952
5.276,0.05149
5.28,0.02814
5.284,0.08722
5.288,0.03545
5.292,0.02212
5.296,0.09731
5.3,0.02442
5.304,0.03224
5.308,0.07221
5.312,0.06901
5.316,0.02157
5.32,-0.00774
5.324,0.02798
5.328,0.03548
5.332,0.03387
5.336,-0.00731
5.34,0.02184
5.344,0.04256
5.348,-0.02318
5.352,0.04321
5.356,-0.02148
5.36,-0.03416
5.364,0.01786
5.368,0.01475
5.372,0.02628
5.376,0.0462
5.38,-0.04344
5.384,-0.03021
5.388,-0.01527
5.392,0.05648
5.396,-0.03738
5.4,0.00972
5.404,-0.00892
5.408,0.04619
5.412,-0.01318
5.416,-0.04229
5.42,0.07807
5.424,0.00211
5.428,0.05251
5.432,-0.00054
5.436,-0.07589
5.44,0.04878
5.444,0.07975
5.448,-0.01747
5.452,0.05881
5.456,0.04039
5.46,-0.04809
5.464,-0.01286
5.468,-0.0511
5.472,0.01408
5.476,-0.01321
5.48,0.03406
5.484,0.08576
5.488,0.00961
5.492,0.0589
5.496,-0.01396
5.5,0.02796
5.504,0.04618
5.508,0.01868
5.512,-0.01956
5.516,0.02122
5.52,0.02939
5.524,0.07872
5.528,0.04444
5.532,0.10751
5.536,0.08509
5.54,0.06512
5.544,0.09638
5.548,0.07672
5.552,0.05659
5.556,0.19241
5.56,0.1333
5.564,0.05546
5.568,0.03511
5.572,0.10862
5.576,0.12435
5.58,0.11302
5.584,0.06577
5.588,0.10555
5.592,0.07467
5.596,-0.00193
5.6,0.029
5.604,0.02431
5.608,0.02061
5.612,-0.03773
5.616,-0.03918
5.62,0.0663
5.624,0.04848
5.628,0.018
5.632,0.04654
5.636,0.02418
5.64,-0.026
5.644,0.03732
5.648,0.04774
5.652,0.05361
5.656,0.02398
5.66,0.04814
5.664,0.06729
5.668,0.04422
5.672,0.10486
5.676,-0.01202
5.68,-0.01241
5.684,-0.07348
5.688,-0.1081
5.692,-0.05408
5.696,-0.00689
5.7,0.14471
5.704,0.32844
5.708,0.34573
5.712,0.48537
5.716,0.5558
5.72,0.70371
5.724,0.52936
5.728,0.41983
5.732,0.28275
5.736,0.12701
5.74,-0.00545
5.744,-0.09338
5.748,-0.10872
5.752,-0.17571
5.756,-0.11527
5.76,-0.07349
5.764,-0.0269
5.768,0.0201
5.772,-0.07876
5.776,0.00199
5.78,-0.03026
5.784,0.04884
5.788,0.05141
5.792,0.02328
5.796,0.04873
5.8,-0.0031
5.804,-0.03908
5.808,-0.01622
5.812,0.0861
5.816,0.00714
5.82,-0.00467
5.824,0.01691
5.828,-0.01496
5.832,0.05078
5.836,0.00773
5.84,-0.00406
5.844,0.0665
5.848,0.06703
5.852,0.01798
5.856,0.0759
5.86,0.02674
5.864,0.04289
5.868,0.0134
5.872,0.01276
5.876,-0.00874
5.88,0.02255
5.884,0.00204
5.888,0.06749
5.892,0.02684
5.896,-0.00161
5.9,0.05668
5.904,0.03041
5.908,0.05326
5.912,0.08462
5.916,0.15799
5.92,0.09379
5.924,0.07162
5.928,-0.01602
5.932,0.06612
5.936,0.1099
5.94,0.09583
5.944,0.10317
5.948,0.13889
5.952,0.09876
5.956,0.14126
5.96,0.21963
5.964,0.24238
5.968,0.22243
5.972,0.20197
5.976,0.20667
5.98,0.23265
5.984,0.20274
5.988,0.17159
5.992,0.21346
5.996,0.19896
6.0,0.24477
6.004,0.24724
6.008,0.23995
6.012,0.21018
6.016,0.25706
6.02,0.25797
6.024,0.22369
6.028,0.19341
6.032,0.18279
6.036,0.13947
6.04,0.17116
6.044,0.14942
6.048,0.08616
6.052,0.20074
6.056,0.08464
6.06,0.15244
6.064,0.08824
6.068,0.06205
6.072,0.08286
6.076,0.09847
6.08,0.0669
6.084,0.06589
6.088,0.03931
6.092,0.04776
6.096,0.02606
6.1,0.0946
6.104,-0.05415
6.108,0.0382
6.112,0.02995
6.116,0.07702
6.12,0.07447
6.124,0.09272
6.128,0.02179
6.132,0.00434
6.136,0.03383
6.14,0.04193
6.144,0.00034
6.148,0.04003
6.152,0.03152
6.156,0.05821
6.16,0.06304
6.164,0.01249
6.168,-0.01391
6.172,0.05475
6.176,0.04642
6.18,-0.01103
6.184,0.02105
6.188,0.03451
6.192,-0.0032
6.196,0.0385
6.2,0.02494
6.204,0.02832
6.208,0.01693
6.212,0.00067
6.216,0.06787
6.22,0.05985
6.224,0.01385
6.228,-0.02126
6.232,0.00485
6.236,0.04971
6.24,0.0254
6.244,0.08586
6.248,0.05818
6.252,0.08483
6.256,0.07406
6.26,0.04545
6.264,0.08776
6.268,0.11687
6.272,0.16895
6.276,0.10164
6.28,0.11338
6.284,0.11914
6.288,0.12118
6.292,0.15719
6.296,0.08945
6.3,0.14039
6.304,0.03848
6.308,0.11618
6.312,0.12594
6.316,0.079
6.32,0.08788
6.324,0.08921
6.328,0.04422
6.332,-0.03966
6.336,0.004
6.34,-0.00083
6.344,0.04742
6.348,0.04775
6.352,0.01772
6.356,0.05069
6.36,0.01612
6.364,-0.01926
6.368,0.10895
6.372,0.04421
6.376,-0.01921
6.38,0.00315
6.384,0.04516
6.388,0.02029
6.392,-0.01227
6.396,0.05822
6.4,-0.04623
6.404,0.00739
6.408,-0.10974
6.412,-0.03811
6.416,-0.02969
6.42,-0.03246
6.424,0.11876
6.428,0.21582
6.432,0.41881
6.436,0.60427
6.44,0.86294
6.444,1.02134
6.448,0.98298
6.452,1.00626
6.456,0.84077
6.46,0.62093
6.464,0.44291
6.468,0.1894
6.472,-0.01387
6.476,-0.10791
6.48,-0.09401
6.484,-0.11756
6.488,-0.08204
6.492,-0.04859
6.496,0.04741
6.5,0.04164
6.504,-0.00578
6.508,-0.00175
6.512,0.01585
6.516,0.04813
6.52,0.0636
6.524,-0.02562
6.528,0.01292
6.532,-0.00058
6.536,0.07725
6.54,0.00275
6.544,0.01512
6.548,0.06453
6.552,0.01023
6.556,0.02906
6.56,0.04811
6.564,0.01805
6.568,0.11913
6.572,0.00011
6.576,-0.00351
6.58,-0.04286
6.584,0.03434
6.588,-0.00031
6.592,0.07506
6.596,0.01545
6.6,0.08374
6.604,0.00966
6.608,0.01732
6.612,0.04822
6.616,0.00529
6.62,0.06051
6.624,-0.00445
6.628,0.08641
6.632,0.02626
6.636,0.03389
6.64,0.04285
6.644,0.1274
6.648,0.12357
6.652,0.11201
6.656,0.11482
6.66,0.11945
6.664,0.12077
6.668,0.16711
6.672,0.13451
6.676,0.12822
6.68,0.1363
6.684,0.25085
6.688,0.14818
6.692,0.19473
6.696,0.18841
6.7,0.19739
6.704,0.20119
6.708,0.21194
6.712,0.24941
6.716,0.2355
6.72,0.21573
6.724,0.26504
6.728,0.26162
6.732,0.22408
6.736,0.20682
6.74,0.18364
6.744,0.21202
6.748,0.31811
6.752,0.25205
6.756,0.1849
6.76,0.23906
6.764,0.15554
6.768,0.10349
6.772,0.10802
6.776,0.10265
6.78,0.12243
6.784,0.15783
6.788,0.1569
6.792,0.04234
6.796,0.07927
6.8,0.0804
6.804,0.16871
6.808,0.10214
6.812,0.01022
6.816,0.08492
6.82,0.06614
6.824,0.02616
6.828,0.02024
6.832,0.01601
6.836,0.10991
6.84,0.02993
6.844,0.05345
6.848,-0.05002
6.852,0.01049
6.856,0.04557
6.86,0.02174
6.864,0.08503
6.868,-0.00979
6.872,0.11425
6.876,0.0049
6.88,-0.00642
6.884,0.01313
6.888,0.12927
6.892,0.06979
6.896,0.06162
6.9,0.07384
6.904,0.04827
6.908,0.08373
6.912,0.02126
6.916,0.00254
6.92,0.00124
6.924,0.0184
6.928,0.03578
6.932,-0.00916
6.936,0.0476
6.94,0.0472
6.944,0.04992
6.948,0.15898
6.952,0.09111
6.956,0.08068
6.96,0.1504
6.964,0.10978
6.968,0.09229
6.972,0.0689
6.976,0.10644
6.98,0.05321
6.984,0.04237
6.988,0.10129
6.992,0.03048
6.996,0.02003
7.0,0.01021
7.004,0.05243
7.008,-0.00987
7.012,0.06774
7.016,0.0189
7.02,0.07942
7.024,0.02677
7.028,0.05408
7.032,-0.01163
7.036,0.0507
7.04,-0.00602
7.044,0.00244
7.048,0.01743
7.052,0.10341
7.056,0.03401
7.06,0.05306
7.064,0.01129
7.068,-0.01795
7.072,0.0508
7.076,0.0629
7.08,0.0588
7.084,0.07962
7.088,-0.03229
7.092,0.02965
7.096,-0.07204
7.1,-0.1699
7.104,-0.05786
7.108,0.08526
7.112,0.18123
7.116,0.43474
7.12,0.61703
7.124,0.81813
7.128,0.99191
7.132,1.01184
7.136,0.99533
7.14,0.80926
7.144,0.5977
7.148,0.34224
7.152,0.18372
7.156,-0.02004
7.16,-0.03503
7.164,-0.13981
7.168,-0.19219
7.172,-0.10489
7.176,-0.03759
7.18,-0.06625
7.184,-0.02115
7.188,0.01914
7.192,-0.0248
7.196,0.00216
7.2,0.03274
7.204,-0.01287
7.208,0.00575
7.212,0.01872
7.216,0.04056
7.22,0.06849
7.224,0.05971
7.228,0.01104
7.232,0.08988
7.236,-0.01705
7.24,0.03821
7.244,0.05502
7.248,-0.01723
7.252,0.02372
7.256,0.05759
7.26,0.01508
7.264,0.01363
7.268,0.05714
7.272,0.01188
7.276,0.03779
7.28,0.11024
7.284,0.06029
7.288,0.01838
7.292,0.02871
7.296,0.03672
7.3,0.0975
7.304,0.09882
7.308,0.05158
7.312,0.05776
7.316,0.03805
7.32,0.07152
7.324,0.02701
7.328,0.15441
7.332,0.14202
7.336,0.03276
7.34,-0.03101
7.344,0.10742
7.348,0.10312
7.352,0.18679
7.356,0.13109
7.36,0.20181
7.364,0.09316
7.368,0.17894
7.372,0.16596
7.376,0.15669
7.38,0.18171
7.384,0.23714
7.388,0.20437
7.392,0.16547
7.396,0.24296
7.4,0.22432
7.404,0.22346
7.408,0.23749
7.412,0.22582
7.416,0.22319
7.42,0.24185
7.424,0.23729
7.428,0.27566
7.432,0.2924
7.436,0.21725
7.44,0.18126
7.444,0.18917
7.448,0.23674
7.452,0.23927
7.456,0.19852
7.46,0.24532
7.464,0.25959
7.468,0.22426
7.472,0.20705
7.476,0.23523
7.48,0.17919
7.484,0.12575
7.488,0.17346
7.492,0.12595
7.496,0.14521
7.5,0.04187
7.504,0.11988
7.508,0.14625
7.512,0.01995
7.516,0.03487
7.52,0.03043
7.524,0.0482
7.528,0.01337
7.532,0.07401
7.536,0.00614
7.54,-0.00825
7.544,0.05181
7.548,-0.01737
7.552,0.02915
7.556,0.00684
7.56,-0.00809
7.564,0.01188
7.568,0.00633
7.572,0.05428
7.576,-0.02146
7.58,-0.00278
7.584,0.00566
7.588,-0.02037
7.592,-0.06588
7.596,-0.15144
7.6,-0.14042
7.604,-0.0382
7.608,0.13203
7.612,0.31459
7.616,0.44647
7.62,0.73935
7.624,0.90022
7.628,1.0713
7.632,1.03918
7.636,0.8777
7.64,0.62006
7.644,0.46602
7.648,0.25355
7.652,0.08927
7.656,-0.08224
7.66,-0.14979
7.664,-0.17379
7.668,-0.18249
7.672,-0.07815
7.676,-0.10785
7.68,-0.03563
7.684,0.01145
7.688,0.01972
7.692,-0.01642
7.696,-0.04918
7.7,0.01377
7.704,0.01782
7.708,0.03409
7.712,0.0571
7.716,-0.00385
7.72,-0.05604
7.724,0.00966
7.728,0.00297
7.732,3e-05
7.736,0.06996
7.74,0.01928
7.744,-0.00164
7.748,-0.01146
7.752,0.02482
7.756,0.01068
7.76,-0.00675
7.764,0.00793
7.768,0.00974
7.772,0.06727
7.776,0.06301
7.78,0.03158
7.784,0.05756
7.788,0.01234
7.792,0.02717
7.796,0.03693
7.8,-0.00151
7.804,0.03419
7.808,0.05596
7.812,0.06962
7.816,-0.02467
7.82,0.01722
7.824,0.04638
7.828,0.05569
7.832,0.03873
7.836,0.07586
7.84,0.06779
7.844,0.08646
7.848,0.09146
7.852,0.14783
7.856,0.16156
7.86,0.13145
7.864,0.06661
7.868,0.18698
7.872,0.18717
7.876,0.19701
7.88,0.26546
7.884,0.17091
7.888,0.23445
7.892,0.21686
7.896,0.20372
7.9,0.2542
7.904,0.19084
7.908,0.20789
7.912,0.25946
7.916,0.25657
7.92,0.19965
7.924,0.23581
7.928,0.18485
7.932,0.2128
7.936,0.16781
7.94,0.21195
7.944,0.17591
7.948,0.14233
7.952,0.17505
7.956,0.16943
7.96,0.18364
7.964,0.14622
7.968,0.11142
7.972,0.09203
7.976,0.1044
7.98,0.07021
7.984,0.084
7.988,0.08455
7.992,0.03513
7.996,0.03243
8.0,0.01262
8.004,0.02223
8.008,0.07823
8.012,0.05663
8.016,0.00564
8.02,0.02043
8.024,0.058
8.028,0.03308
8.032,0.04464
8.036,0.06132
8.04,-0.00348
8.044,0.05685
8.048,0.01785
8.052,0.0064
8.056,-0.01637
8.06,0.03902
8.064,-0.06894
8.068,0.04035
8.072,0.01833
8.076,0.00769
8.08,0.09956
8.084,0.07343
8.088,0.05896
8.092,0.10742
8.096,0.11275
8.1,0.05687
8.104,0.09181
8.108,0.15681
8.112,0.13222
8.116,0.09381
8.12,0.16683
8.124,0.0234
8.128,0.0615
8.132,0.08576
8.136,0.09441
8.14,-0.01583
8.144,0.04458
8.148,0.04503
8.152,0.02934
8.156,-0.0564
8.16,0.04833
8.164,0.00884
8.168,0.02138
8.172,-0.0202
8.176,0.06177
8.18,0.01091
8.184,-0.0157
8.188,0.05399
8.192,0.05953
8.196,-0.01069
8.2,-0.01275
8.204,-0.02174
8.208,-0.02037
8.212,-0.01282
8.216,0.01374
8.22,-0.01101
8.224,-0.04857
8.228,0.03436
8.232,-0.08059
8.236,-0.05548
8.24,-0.07637
8.244,-0.09606
8.248,0.0378
8.252,0.30664
8.256,0.44339
8.26,0.73597
8.264,0.89551
8.268,1.01502
8.272,0.9545
8.276,0.93264
8.28,0.68353
8.284,0.48989
8.288,0.24337
8.292,0.06292
8.296,-0.07642
8.3,-0.19825
8.304,-0.18944
8.308,-0.13757
8.312,-0.10888
8.316,-0.04083
8.32,-0.0661
8.324,0.0092
8.328,-0.0767
8.332,0.05672
8.336,-0.03762
8.34,0.02359
8.344,-0.01954
8.348,-0.00209
8.352,-0.02205
8.356,0.0088
8.36,0.0386
8.364,-0.00657
8.368,-0.0288
8.372,-0.0253
8.376,-0.0403
8.38,0.01528
8.384,-0.043
8.388,-0.02504
8.392,0.00076
8.396,-0.03038
8.4,-0.00429
8.404,-0.03334
8.408,0.02391
8.412,0.02174
8.416,-0.0431
8.42,-0.04434
8.424,0.02804
8.428,-0.00371
8.432,0.07174
8.436,0.08468
8.44,0.09906
8.444,0.10056
8.448,0.08612
8.452,0.08594
8.456,0.13632
8.46,0.13787
8.464,0.09287
8.468,0.11538
8.472,0.16085
8.476,0.07777
8.48,0.04593
8.484,0.14502
8.488,0.16723
8.492,0.11503
8.496,0.10559
8.5,0.08276
8.504,0.12467
8.508,0.13826
8.512,0.17674
8.516,0.15296
8.52,0.15933
8.524,0.19617
8.528,0.1368
8.532,0.15415
8.536,0.22834
8.54,0.23809
8.544,0.19207
8.548,0.32562
8.552,0.26078
8.556,0.28729
8.56,0.17428
8.564,0.19334
8.568,0.17176
8.572,0.14109
8.576,0.13721
8.58,0.13208
8.584,0.0524
8.588,-0.03673
8.592,0.05976
8.596,0.15374
8.6,0.40563
8.604,0.5098
8.608,0.71806
8.612,0.91254
8.616,1.06153
8.62,1.04898
8.624,1.03591
8.628,0.87482
8.632,0.56535
8.636,0.27351
8.64,0.09249
8.644,-0.03507
8.648,-0.13861
8.652,-0.13704
8.656,-0.23778
8.66,-0.14981
8.664,-0.10397
8.668,0.0333
8.672,-0.07235
8.676,0.02267
8.68,0.03568
8.684,0.0232
8.688,0.00533
8.692,-0.01059
8.696,-0.05028
8.7,0.02193
8.704,-0.02796
8.708,0.01967
8.712,0.03085
8.716,-0.01659
8.72,-0.0358
8.724,-0.02383
8.728,0.01332
8.732,0.01431
8.736,-0.01865
8.74,0.01043
8.744,-0.00477
8.748,0.04547
8.752,0.0114
8.756,-0.04031
8.76,-0.00223
8.764,-0.02869
8.768,0.03984
8.772,0.03029
8.776,0.05748
8.78,0.04621
8.784,-0.03376
8.788,0.01139
8.792,-0.00145
8.796,0.02044
8.8,-0.04285
8.804,-0.02131
8.808,0.08674
8.812,0.0128
8.816,0.08378
8.82,-0.03892
8.824,0.05502
8.828,0.07319
8.832,0.01297
8.836,0.04694
8.84,0.04702
8.844,0.14574
8.848,0.11008
8.852,0.10303
8.856,0.119
8.86,0.13467
8.864,0.14245
8.868,0.13224
8.872,0.11428
8.876,0.15034
8.88,0.1942
8.884,0.17213
8.888,0.15853
8.892,0.15999
8.896,0.2127
8.9,0.21058
8.904,0.23653
8.908,0.21514
8.912,0.19202
8.916,0.14759
8.92,0.19524
8.924,0.14891
8.928,0.1615
8.932,0.07841
8.936,0.16336
8.94,0.15472
8.944,0.12731
8.948,0.09821
8.952,0.04409
8.956,0.07282
8.96,0.03723
8.964,0.12981
8.968,-0.01177
8.972,0.0389
8.976,0.06308
8.98,0.05331
8.984,0.02348
8.988,0.111
8.992,0.13666
8.996,0.10304
9.0,0.10735
9.004,0.02348
9.008,0.05829
9.012,0.14795
9.016,0.00413
9.02,0.063
9.024,0.03363
9.028,0.02506
9.032,0.00786
9.036,-0.01599
9.04,-0.04982
9.044,0.00872
9.048,-0.05337
9.052,-0.06421
9.056,-0.03762
9.06,0.00328
9.064,-0.04962
9.068,-0.00312
9.072,-0.1036
9.076,-0.00805
9.08,0.02684
9.084,-0.07207
9.088,-0.06647
9.092,-0.02269
9.096,0.00411
9.1,-0.01864
9.104,-0.04509
9.108,0.0034
9.112,0.00242
9.116,-0.01147
9.12,-0.10057
9.124,-0.17921
9.128,-0.15366
9.132,-0.02267
9.136,0.01187
9.14,0.20758
9.144,0.48703
9.148,0.58839
9.152,0.92315
9.156,0.94474
9.16,0.96687
9.164,0.81625
9.168,0.60414
9.172,0.38701
9.176,0.23423
9.18,0.00998
9.184,-0.12844
9.188,-0.15342
9.192,-0.18981
9.196,-0.1431
9.2,-0.16825
9.204,-0.10299
9.208,-0.05054
9.212,0.00375
9.216,-0.0367
9.22,0.04404
9.224,0.01857
9.228,0.02563
9.232,0.05677
9.236,0.10197
9.24,0.12415
9.244,0.02192
9.248,0.09244
9.252,0.05189
9.256,0.13261
9.26,0.08302
9.264,0.11161
9.268,0.12308
9.272,0.02065
9.276,0.0026
9.28,0.07525
9.284,0.05408
9.288,0.01427
9.292,0.02105
9.296,0.00958
9.3,-0.11387
9.304,0.00393
9.308,0.00885
9.312,-0.05929
9.316,0.00874
9.32,0.03115
9.324,-0.00817
9.328,-0.00073
9.332,-0.00433
9.336,-0.01393
9.34,0.04704
9.344,-0.02386
9.348,-0.01295
9.352,0.01203
9.356,-0.00116
9.36,0.01866
9.364,0.09809
9.368,-0.06287
9.372,-0.04939
9.376,-0.11402
9.38,0.04739
9.384,0.06791
9.388,0.33164
9.392,0.44699
9.396,0.66503
9.4,0.9348
9.404,1.06881
9.408,1.16677
9.412,1.08566
9.416,0.9927
9.42,0.77875
9.424,0.55903
9.428,0.29451
9.432,0.12711
9.436,0.00113
9.44,0.06007
9.444,0.04221
9.448,0.11548
9.452,0.08029
9.456,0.14741
9.46,0.1586
9.464,0.1478
9.468,0.18443
9.472,0.099
9.476,0.07652
9.48,0.05552
9.484,0.11674
9.488,0.09361
9.492,0.05464
9.496,0.04528
9.5,0.06965
9.504,0.03209
9.508,0.05047
9.512,-0.01634
9.516,-0.00224
9.52,-0.05361
9.524,0.04626
9.528,0.01114
9.532,0.06572
9.536,0.00575
9.54,0.038
9.544,-0.03623
9.548,-0.07449
9.552,-0.03121
9.556,0.0248
9.56,0.04653
9.564,0.0528
9.568,-0.00627
9.572,0.01936
9.576,0.00651
9.58,0.04766
9.584,-0.0374
9.588,0.05906
9.592,-0.03986
9.596,0.00594
9.6,0.039
9.604,0.0692
9.608,0.02846
9.612,0.00573
9.616,0.05521
9.62,0.10306
9.624,0.10468
9.628,0.10247
9.632,0.04116
9.636,0.08645
9.64,0.13665
9.644,0.0885
9.648,0.13542
9.652,0.05998
9.656,0.1017
9.66,0.13029
9.664,0.18535
9.668,0.16177
9.672,0.20786
9.676,0.1851
9.68,0.26084
9.684,0.18509
9.688,0.15911
9.692,0.17336
9.696,0.20789
9.7,0.17561
9.704,0.1571
9.708,0.23405
9.712,0.16609
9.716,0.09843
9.72,0.13356
9.724,0.16255
9.728,0.08504
9.732,0.08557
9.736,0.08834
9.74,0.1061
9.744,0.05278
9.748,0.06229
9.752,0.08879
9.756,-0.03822
9.76,0.07162
9.764,0.03833
9.768,-0.00814
9.772,-0.00451
9.776,-0.06527
9.78,-0.00069
9.784,-0.09441
9.788,-0.02115
9.792,-0.0288
9.796,-0.05496
9.8,-0.03573
9.804,-0.01476
9.808,0.05892
9.812,0.00714
9.816,-0.02337
9.82,-0.07432
9.824,-0.00331
9.828,0.007
9.832,0.01455
9.836,-0.04792
9.84,-0.06045
9.844,-0.05146
9.848,0.03004
9.852,-0.10003
9.856,-0.03572
9.86,-0.08812
9.864,-0.09646
9.868,-0.0267
9.872,-0.0471
9.876,0.00884
9.88,-0.0173
9.884,-0.01864
9.888,0.03635
9.892,-0.03284
9.896,-0.02846
9.9,-0.04518
9.904,-0.03315
9.908,-0.04515
9.912,-0.02334
9.916,0.00296
9.92,0.00803
9.924,-0.04323
9.928,-0.05013
9.932,-0.06118
9.936,0.0315
9.94,-0.03719
9.944,0.03588
9.948,-0.12145
9.952,0.00768
9.956,-0.06487
9.96,-0.03101
9.964,-0.05298
9.968,-0.01226
9.972,0.05503
9.976,-0.10309
9.98,-0.02016
9.984,-0.03842
9.988,0.00808
9.992,-0.07266
9.996,-0.00661
