t_seg,ecg_mV
0.0,0.01829
0.004,0.0374
0.008,0.02518
0.012,-0.00033
0.016,0.01557
0.02,-0.00043
0.024,0.04525
0.028,-0.00287
0.032,0.0182
0.036,-0.00559
0.04,0.0153
0.044,0.02984
0.048,0.02206
0.052,0.0233
0.056,0.02703
0.06,-0.00083
0.064,-0.00281
0.068,-0.00019
0.072,0.00844
0.076,-0.00317
0.08,-0.02037
0.084,0.01075
0.088,-0.00437
0.092,0.01808
0.096,0.00171
0.1,-0.01258
0.104,0.02107
0.108,0.02609
0.112,0.00957
0.116,0.00209
0.12,-0.01206
0.124,0.03244
0.128,-0.01012
0.132,0.01867
0.136,0.03878
0.14,0.008
0.144,-0.02068
0.148,0.02068
0.152,0.01827
0.156,0.0358
0.16,-0.00721
0.164,0.02123
0.168,-0.01771
0.172,0.01321
0.176,0.03364
0.18,0.02807
0.184,0.00834
0.188,0.00269
0.192,0.01175
0.196,0.00261
0.2,0.00772
0.204,0.01124
0.208,-0.00851
0.212,0.00378
0.216,0.01883
0.22,-0.0069
0.224,0.0259
0.228,0.03388
0.232,0.01056
0.236,0.03059
0.24,0.03068
0.244,0.01087
0.248,0.06441
0.252,0.07219
0.256,0.05642
0.26,0.08024
0.264,0.08325
0.268,0.11875
0.272,0.10038
0.276,0.12005
0.28,0.10816
0.284,0.0689
0.288,0.09945
0.292,0.06926
0.296,0.07252
0.3,0.0787
0.304,0.04797
0.308,0.02542
0.312,0.02432
0.316,0.00977
0.32,0.02751
0.324,0.02993
0.328,-0.03355
0.332,-0.00482
0.336,-0.00197
0.34,0.02141
0.344,0.00328
0.348,0.02404
0.352,0.02384
0.356,-0.01278
0.36,0.00106
0.364,0.00519
0.368,-0.01446
0.372,-0.00791
0.376,-0.01778
0.38,0.0052
0.384,-0.01095
0.388,0.00028
0.392,-0.02145
0.396,-0.06474
0.4,-0.09649
0.404,-0.11481
0.408,-0.02832
0.412,0.07665
0.416,0.23325
0.42,0.42553
0.424,0.65062
0.428,0.83486
0.432,0.99042
0.436,0.99226
0.44,0.88509
0.444,0.71497
0.448,0.48171
0.452,0.27267
0.456,0.08855
0.46,-0.05611
0.464,-0.14567
0.468,-0.16193
0.472,-0.12428
0.476,-0.09539
0.48,-0.06277
0.484,-0.05964
0.488,-0.02276
0.492,-0.00603
0.496,0.02277
0.5,-0.01584
0.504,-0.00152
0.508,-0.02085
0.512,-0.03116
0.516,0.00747
0.52,-0.02469
0.524,-0.00287
0.528,-0.0174
0.532,-0.04304
0.536,-0.0011
0.54,-0.02088
0.544,-0.05189
0.548,0.0083
0.552,0.02964
0.556,-0.01526
0.56,-0.00718
0.564,-0.00828
0.568,-0.02063
0.572,0.00389
0.576,-0.02711
0.58,-0.01069
0.584,0.03125
0.588,0.01581
0.592,0.01081
0.596,0.01849
0.6,0.00946
0.604,0.00028
0.608,0.00823
0.612,-0.00564
0.616,-0.01456
0.62,0.02281
0.624,0.00933
0.628,0.0348
0.632,0.05173
0.636,0.04402
0.64,0.05308
0.644,0.04571
0.648,0.05665
0.652,0.0714
0.656,0.0791
0.66,0.10467
0.664,0.09648
0.668,0.13935
0.672,0.12814
0.676,0.1502
0.68,0.16796
0.684,0.16488
0.688,0.18735
0.692,0.17561
0.696,0.21034
0.7,0.22062
0.704,0.21863
0.708,0.20602
0.712,0.23465
0.716,0.19728
0.72,0.21395
0.724,0.21219
0.728,0.22266
0.732,0.18551
0.736,0.18551
0.74,0.17296
0.744,0.14532
0.748,0.13698
0.752,0.15931
0.756,0.14126
0.76,0.11974
0.764,0.12288
0.768,0.10328
0.772,0.07638
0.776,0.06102
0.78,0.07396
0.784,0.03468
0.788,0.05569
0.792,0.04556
0.796,0.06078
0.8,0.05427
0.804,0.0166
0.808,0.01732
0.812,0.03811
0.816,0.00916
0.82,-0.02221
0.824,-0.01918
0.828,-0.00204
0.832,-0.02294
0.836,-0.02125
0.84,-0.01178
0.844,-0.01746
0.848,-0.00278
0.852,0.00964
0.856,-0.01783
0.86,-0.00982
0.864,-0.02992
0.868,-0.00808
0.872,-0.03678
0.876,-0.00915
0.88,0.00236
0.884,-0.01535
0.888,-0.02123
0.892,-0.01141
0.896,-0.01402
0.9,-0.03206
0.904,-0.01519
0.908,0.01742
0.912,0.00352
0.916,-0.00463
0.92,-0.0176
0.924,-0.00475
0.928,-0.03245
0.932,0.01711
0.936,0.00577
0.94,-0.01727
0.944,-0.00762
0.948,-0.02807
0.952,-0.03425
0.956,-0.02226
0.96,-0.00576
0.964,-0.00896
0.968,-0.01406
0.972,-0.02458
0.976,-0.00155
0.98,0.02358
0.984,-0.01837
0.988,-0.0158
0.992,-0.02044
0.996,-0.01618
1.0,-0.03993
1.004,-0.00329
1.008,-0.0314
1.012,-0.03763
1.016,-0.01353
1.02,0.00405
1.024,-0.01428
1.028,-0.0453
1.032,-0.00932
1.036,-0.00109
1.04,-0.02355
1.044,0.00291
1.048,-0.01012
1.052,0.00336
1.056,0.00923
1.06,-0.01091
1.064,-0.00238
1.068,0.01177
1.072,0.02443
1.076,0.01318
1.08,0.03127
1.084,0.05881
1.088,0.07742
1.092,0.04298
1.096,0.07869
1.1,0.10333
1.104,0.11256
1.108,0.06042
1.112,0.05606
1.116,0.05263
1.12,0.05152
1.124,0.03813
1.128,0.02025
1.132,0.00387
1.136,-0.00547
1.14,-0.00648
1.144,0.00098
1.148,0.01491
1.152,-0.00596
1.156,-0.01323
1.16,-0.02825
1.164,-0.01836
1.168,-0.05377
1.172,-0.01718
1.176,-0.01095
1.18,-0.0277
1.184,-0.02608
1.188,-0.0199
1.192,-0.02266
1.196,-0.01871
1.2,-0.01052
1.204,-0.01615
1.208,-0.02305
1.212,-0.02652
1.216,-0.05727
1.22,-0.07593
1.224,-0.09564
1.228,-0.12913
1.232,-0.13763
1.236,-0.05236
1.24,0.04374
1.244,0.25548
1.248,0.45428
1.252,0.66927
1.256,0.8591
1.26,0.96673
1.264,0.93115
1.268,0.8247
1.272,0.63694
1.276,0.42936
1.28,0.21235
1.284,0.02789
1.288,-0.12093
1.292,-0.17371
1.296,-0.18211
1.3,-0.17658
1.304,-0.13116
1.308,-0.06375
1.312,-0.05796
1.316,-0.02764
1.32,-0.04313
1.324,-0.03114
1.328,-0.03388
1.332,-0.01711
1.336,-0.02623
1.34,-0.00145
1.344,-0.02269
1.348,-0.02299
1.352,-0.04288
1.356,-0.01781
1.36,-0.02808
1.364,-0.00662
1.368,-0.02473
1.372,-0.04311
1.376,-0.02967
1.38,-0.07016
1.384,-0.00854
1.388,-0.02096
1.392,-0.00888
1.396,-0.03393
1.4,0.00436
1.404,0.01812
1.408,-0.00364
1.412,-0.0539
1.416,-0.00967
1.42,-0.0127
1.424,-0.01682
1.428,-0.02986
1.432,-0.01242
1.436,-0.01385
1.44,-0.04483
1.444,-0.02364
1.448,-0.02006
1.452,-0.01429
1.456,0.00617
1.46,0.02791
1.464,0.02933
1.468,0.04449
1.472,0.03995
1.476,0.01327
1.48,0.07171
1.484,0.07811
1.488,0.0997
1.492,0.07282
1.496,0.09588
1.5,0.12137
1.504,0.13079
1.508,0.13832
1.512,0.14611
1.516,0.13964
1.52,0.16352
1.524,0.19199
1.528,0.20194
1.532,0.1913
1.536,0.18628
1.54,0.19399
1.544,0.18863
1.548,0.20626
1.552,0.19861
1.556,0.19041
1.56,0.16546
1.564,0.16215
1.568,0.18276
1.572,0.14741
1.576,0.13783
1.58,0.17154
1.584,0.10652
1.588,0.0818
1.592,0.09947
1.596,0.07952
1.6,0.089
1.604,0.05396
1.608,0.05686
1.612,0.04994
1.616,0.03324
1.62,-0.00122
1.624,0.01608
1.628,0.01208
1.632,0.0074
1.636,-6e-05
1.64,-0.04816
1.644,0.00459
1.648,-0.00681
1.652,0.00086
1.656,-0.03046
1.66,-0.01445
1.664,-0.01306
1.668,-0.02583
1.672,-0.01454
1.676,-0.03666
1.68,-0.00679
1.684,-0.00017
1.688,-0.0141
1.692,-0.01822
1.696,-0.05278
1.7,-0.03066
1.704,-0.02181
1.708,-0.02801
1.712,-0.02236
1.716,-0.03661
1.72,-0.02316
1.724,-0.01738
1.728,-0.02604
1.732,-0.02241
1.736,-0.01429
1.74,-0.047
1.744,-0.05232
1.748,-0.03154
1.752,-0.02823
1.756,-0.04596
1.76,-0.00817
1.764,-0.05031
1.768,-0.04666
1.772,-0.02735
1.776,-0.03147
1.78,-0.03518
1.784,-0.03651
1.788,-0.02813
1.792,-0.03259
1.796,-0.01541
1.8,-0.01378
1.804,-0.03895
1.808,-0.0422
1.812,-0.03198
1.816,-0.02571
1.82,-0.06963
1.824,-0.01867
1.828,-0.0181
1.832,-0.03745
1.836,-0.04063
1.84,0.00949
1.844,-0.03786
1.848,-0.03513
1.852,-0.0266
1.856,-0.00808
1.86,-0.04628
1.864,-0.00961
1.868,-0.02716
1.872,-0.03924
1.876,-0.05572
1.88,-0.00155
1.884,-0.03834
1.888,-0.03847
1.892,-0.01972
1.896,-0.05827
1.9,-0.03178
1.904,-0.05115
1.908,-0.0239
1.912,-0.03291
1.916,-0.00875
1.92,-0.02968
1.924,-0.02041
1.928,-0.03354
1.932,-0.02573
1.936,-0.031
1.94,-0.03809
1.944,-0.01162
1.948,-0.02789
1.952,-0.02385
1.956,-0.01771
1.96,-0.03576
1.964,-0.01997
1.968,-0.02404
1.972,-0.04429
1.976,-0.0364
1.98,-0.01493
1.984,-0.02253
1.988,-0.0286
1.992,-0.02279
1.996,-0.05564
2.0,-0.01321
2.004,-0.03385
2.008,-0.02734
2.012,-0.02869
2.016,-0.04226
2.02,-0.04738
2.024,-0.02035
2.028,-0.01816
2.032,-0.00263
2.036,-0.02415
2.04,-0.03698
2.044,-0.02302
2.048,-0.05089
2.052,-0.02316
2.056,-0.04172
2.06,-0.01803
2.064,-0.04294
2.068,-0.02673
2.072,-0.01114
2.076,-0.02019
2.08,-0.01266
2.084,-0.01221
2.088,-0.00654
2.092,-0.02586
2.096,0.00711
2.1,0.05302
2.104,0.00758
2.108,0.02195
2.112,0.04425
2.116,0.02067
2.12,0.02719
2.124,0.06999
2.128,0.07229
2.132,0.07804
2.136,0.07863
2.14,0.0443
2.144,0.04048
2.148,0.03919
2.152,0.02255
2.156,0.02786
2.16,0.02962
2.164,0.01198
2.168,-0.02161
2.172,-0.04007
2.176,-0.0157
2.18,-0.00698
2.184,-0.01581
2.188,-0.03478
2.192,-0.00179
2.196,-0.04007
2.2,-0.02537
2.204,-0.0189
2.208,-0.03779
2.212,-0.0322
2.216,-0.02954
2.22,-0.04044
2.224,-0.03956
2.228,-0.05177
2.232,-0.02813
2.236,-0.00204
2.24,-0.04542
2.244,-0.05924
2.248,-0.06383
2.252,-0.09075
2.256,-0.13348
2.26,-0.175
2.264,-0.08333
2.268,-0.01091
2.272,0.22031
2.276,0.39502
2.28,0.64114
2.284,0.80085
2.288,0.9371
2.292,0.97165
2.296,0.87197
2.3,0.69614
2.304,0.48908
2.308,0.22312
2.312,0.05648
2.316,-0.06543
2.32,-0.15988
2.324,-0.21725
2.328,-0.18216
2.332,-0.14124
2.336,-0.11072
2.34,-0.04558
2.344,-0.04361
2.348,-0.03149
2.352,-0.05545
2.356,-0.03914
2.36,-0.0163
2.364,-0.01149
2.368,-0.0489
2.372,-0.02781
2.376,-0.01826
2.38,-0.02043
2.384,-0.03161
2.388,-0.02915
2.392,-0.01579
2.396,-0.0144
2.4,-0.0466
2.404,-0.01213
2.408,-0.03166
2.412,-0.02319
2.416,-0.03971
2.42,-0.04224
2.424,-0.03138
2.428,0.00651
2.432,0.00068
2.436,-0.02393
2.44,-0.02124
2.444,-0.00183
2.448,-0.04443
2.452,-0.02867
2.456,-0.03305
2.46,-0.0015
2.464,-0.02315
2.468,-0.0333
2.472,-0.00827
2.476,-0.0182
2.48,-0.00603
2.484,0.01611
2.488,0.01424
2.492,0.02115
2.496,0.0171
2.5,0.037
2.504,0.04423
2.508,0.03789
2.512,0.05014
2.516,0.06986
2.52,0.0872
2.524,0.07182
2.528,0.10991
2.532,0.11073
2.536,0.10414
2.54,0.15482
2.544,0.1776
2.548,0.16884
2.552,0.1703
2.556,0.19088
2.56,0.18631
2.564,0.18068
2.568,0.20122
2.572,0.21146
2.576,0.19485
2.58,0.17007
2.584,0.18885
2.588,0.18069
2.592,0.18792
2.596,0.1608
2.6,0.16
2.604,0.13247
2.608,0.10569
2.612,0.12508
2.616,0.09039
2.62,0.09708
2.624,0.08192
2.628,0.06981
2.632,0.06562
2.636,0.03826
2.64,0.03205
2.644,0.0362
2.648,0.02431
2.652,-0.00123
2.656,0.02046
2.66,0.01872
2.664,0.0196
2.668,-0.00153
2.672,-0.02361
2.676,0.00294
2.68,-0.00383
2.684,-0.03691
2.688,-0.01269
2.692,-0.03242
2.696,-0.00898
2.7,-0.03392
2.704,-0.00939
2.708,-0.00242
2.712,-0.0145
2.716,-0.00956
2.72,-0.04363
2.724,-0.05208
2.728,-0.00481
2.732,-0.01173
2.736,-0.02126
2.74,-0.0126
2.744,0.00256
2.748,-0.02267
2.752,-0.01554
2.756,-0.00244
2.76,-0.02801
2.764,-0.03434
2.768,-0.03158
2.772,-0.0398
2.776,-0.04002
2.78,-0.05316
2.784,-0.02135
2.788,-0.03669
2.792,-0.02619
2.796,-0.02995
2.8,-0.0157
2.804,-0.02794
2.808,-0.02206
2.812,0.00149
2.816,-0.00844
2.82,-0.01467
2.824,-0.02883
2.828,-0.04077
2.832,-0.03218
2.836,-0.00637
2.84,-0.04189
2.844,-0.03322
2.848,-0.04135
2.852,-0.03531
2.856,-0.01336
2.86,-0.0303
2.864,-0.0497
2.868,-0.01788
2.872,-0.01509
2.876,-0.02563
2.88,0.0146
2.884,-0.00975
2.888,-0.06255
2.892,-0.01287
2.896,-0.00386
2.9,-0.02448
2.904,-0.01703
2.908,-0.04337
2.912,-0.01487
2.916,-0.02401
2.92,-0.03053
2.924,-0.0176
2.928,-0.04186
2.932,-0.02468
2.936,-0.01714
2.94,-0.00041
2.944,-0.02179
2.948,-0.05623
2.952,-0.07029
2.956,-0.03982
2.96,-0.02188
2.964,-0.03122
2.968,-0.0325
2.972,-0.02673
2.976,-0.03209
2.98,-0.01251
2.984,-0.01101
2.988,-0.02223
2.992,-0.01342
2.996,-0.02014
3.0,-0.02343
3.004,-0.02776
3.008,-0.0137
3.012,0.00453
3.016,0.01952
3.02,0.00451
3.024,0.01391
3.028,0.04252
3.032,0.06041
3.036,0.04826
3.04,0.05732
3.044,0.09324
3.048,0.06385
3.052,0.07603
3.056,0.08248
3.06,0.05382
3.064,0.04344
3.068,0.06387
3.072,0.03844
3.076,0.04338
3.08,0.01215
3.084,0.00197
3.088,-0.01271
3.092,-0.00989
3.096,0.00545
3.1,-0.0213
3.104,-0.01293
3.108,-0.00856
3.112,-0.02722
3.116,-0.02634
3.12,-0.02383
3.124,-0.01523
3.128,-0.0092
3.132,-0.02754
3.136,-0.05211
3.14,0.00077
3.144,-0.02118
3.148,-0.01483
3.152,-0.00416
3.156,-0.01472
3.16,-0.03823
3.164,-0.05174
3.168,-0.06814
3.172,-0.11669
3.176,-0.1423
3.18,-0.1001
3.184,-0.03739
3.188,0.14961
3.192,0.32009
3.196,0.5448
3.2,0.74753
3.204,0.91092
3.208,0.98217
3.212,0.92328
3.216,0.78944
3.22,0.58792
3.224,0.36588
3.228,0.13872
3.232,-0.05718
3.236,-0.14606
3.24,-0.19081
3.244,-0.13119
3.248,-0.13015
3.252,-0.08781
3.256,-0.05397
3.26,-0.0253
3.264,-0.03203
3.268,-0.00233
3.272,-0.01007
3.276,-0.0123
3.28,-0.03563
3.284,-0.01396
3.288,-0.01704
3.292,-0.0233
3.296,-0.0113
3.3,-0.0047
3.304,-0.01681
3.308,0.00859
3.312,-0.02104
3.316,-0.00063
3.32,0.00793
3.324,0.00249
3.328,-0.00849
3.332,-0.04032
3.336,-0.00589
3.34,-0.01453
3.344,-0.0019
3.348,0.02044
3.352,-0.02499
3.356,-0.03208
3.36,-0.00865
3.364,-0.01145
3.368,0.00356
3.372,-0.00973
3.376,-0.01617
3.38,-0.0085
3.384,0.00658
3.388,-0.00278
3.392,0.00323
3.396,0.03019
3.4,0.00563
3.404,0.02451
3.408,0.02393
3.412,0.01326
3.416,0.0511
3.42,0.06887
3.424,0.07463
3.428,0.09165
3.432,0.07525
3.436,0.11371
3.44,0.1011
3.444,0.11662
3.448,0.13109
3.452,0.13775
3.456,0.15028
3.46,0.18165
3.464,0.1701
3.468,0.20809
3.472,0.21394
3.476,0.19112
3.48,0.20789
3.484,0.20713
3.488,0.21717
3.492,0.22503
3.496,0.20013
3.5,0.20546
3.504,0.21361
3.508,0.20476
3.512,0.1912
3.516,0.18299
3.52,0.17384
3.524,0.1633
3.528,0.14315
3.532,0.14555
3.536,0.12102
3.54,0.11784
3.544,0.12189
3.548,0.07557
3.552,0.07878
3.556,0.05059
3.56,0.05843
3.564,0.02001
3.568,0.01853
3.572,0.03878
3.576,0.01714
3.58,0.01708
3.584,0.01443
3.588,0.03795
3.592,0.00632
3.596,-0.01592
3.6,0.0304
3.604,-0.00865
3.608,0.01516
3.612,0.00515
3.616,0.0206
3.62,-0.01579
3.624,-0.01651
3.628,-0.02722
3.632,0.00479
3.636,0.02111
3.64,-0.00063
3.644,-0.00601
3.648,0.00967
3.652,0.01823
3.656,0.00066
3.66,0.01325
3.664,-0.00766
3.668,-0.0191
3.672,0.00956
3.676,-0.01897
3.68,-0.00693
3.684,-0.01182
3.688,-0.01529
3.692,-0.02407
3.696,0.00219
3.7,-0.00039
3.704,-0.01588
3.708,-0.03206
3.712,-0.0011
3.716,-0.00065
3.72,0.00565
3.724,0.00807
3.728,-0.02651
3.732,-0.01257
3.736,-0.02512
3.74,0.00054
3.744,0.0119
3.748,0.00969
3.752,0.0058
3.756,-0.0139
3.76,0.00297
3.764,0.00231
3.768,-0.0148
3.772,-0.00545
3.776,-0.02444
3.78,-0.00161
3.784,-0.01157
3.788,0.00966
3.792,0.00706
3.796,-0.00438
3.8,0.01863
3.804,-0.01558
3.808,-0.00322
3.812,-0.00398
3.816,0.01566
3.82,0.03373
3.824,0.03201
3.828,0.01755
3.832,0.04512
3.836,0.05656
3.84,0.07745
3.844,0.06387
3.848,0.08639
3.852,0.06791
3.856,0.09446
3.86,0.1004
3.864,0.09568
3.868,0.08612
3.872,0.07551
3.876,0.06453
3.88,0.06507
3.884,0.04111
3.888,0.04778
3.892,0.07815
3.896,0.0245
3.9,0.03668
3.904,0.01781
3.908,0.02235
3.912,0.00724
3.916,-0.00129
3.92,0.00519
3.924,0.01001
3.928,0.00726
3.932,-0.00109
3.936,-0.00172
3.94,0.03596
3.944,0.01189
3.948,0.01301
3.952,-0.00552
3.956,0.01924
3.96,0.00545
3.964,0.00877
3.968,0.02509
3.972,0.00898
3.976,-0.00715
3.98,-0.02656
3.984,-0.07205
3.988,-0.07488
3.992,-0.13664
3.996,-0.08189
4.0,-0.00638
4.004,0.15324
4.008,0.34847
4.012,0.54868
4.016,0.76757
4.02,0.90352
4.024,0.99924
4.028,0.9731
4.032,0.82468
4.036,0.6341
4.04,0.41404
4.044,0.18156
4.048,-0.01473
4.052,-0.0969
4.056,-0.17223
4.06,-0.14801
4.064,-0.12826
4.068,-0.07306
4.072,-0.05527
4.076,-0.00735
4.08,-0.02459
4.084,0.00954
4.088,0.01781
4.092,0.00849
4.096,0.03009
4.1,0.0161
4.104,0.00632
4.108,-0.01672
4.112,0.01545
4.116,0.01575
4.12,0.03769
4.124,0.022
4.128,-0.01157
4.132,0.02213
4.136,0.00897
4.14,0.02532
4.144,0.02222
4.148,-0.00268
4.152,0.02959
4.156,-0.00858
4.16,0.00013
4.164,0.01822
4.168,0.02804
4.172,0.03294
4.176,0.00179
4.18,0.01516
4.184,0.01928
4.188,0.01747
4.192,0.02142
4.196,0.04717
4.2,0.03466
4.204,0.0305
4.208,0.04051
4.212,0.0491
4.216,0.03644
4.22,0.05568
4.224,0.0799
4.228,0.09754
4.232,0.04159
4.236,0.07508
4.24,0.08173
4.244,0.10983
4.248,0.08453
4.252,0.14049
4.256,0.14753
4.26,0.15981
4.264,0.15889
4.268,0.1826
4.272,0.20065
4.276,0.20174
4.28,0.18238
4.284,0.19076
4.288,0.21652
4.292,0.22058
4.296,0.21435
4.3,0.21496
4.304,0.21539
4.308,0.21198
4.312,0.26347
4.316,0.23909
4.32,0.22189
4.324,0.21236
4.328,0.21941
4.332,0.19911
4.336,0.18273
4.34,0.16816
4.344,0.16595
4.348,0.15078
4.352,0.12866
4.356,0.11259
4.36,0.12114
4.364,0.09536
4.368,0.11312
4.372,0.13533
4.376,0.06621
4.38,0.04974
4.384,0.05975
4.388,0.04737
4.392,0.0474
4.396,0.06412
4.4,0.04714
4.404,0.07048
4.408,0.02187
4.412,0.07503
4.416,0.02773
4.42,0.01817
4.424,0.03645
4.428,0.01594
4.432,0.01933
4.436,0.01976
4.44,0.00391
4.444,-0.0052
4.448,0.02766
4.452,0.01197
4.456,0.00121
4.46,-0.00061
4.464,0.0438
4.468,0.0235
4.472,0.02808
4.476,0.03687
4.48,0.04579
4.484,0.03958
4.488,0.02964
4.492,0.03133
4.496,0.01906
4.5,0.0344
4.504,0.00612
4.508,0.03127
4.512,0.032
4.516,0.03891
4.52,-0.00233
4.524,0.0116
4.528,0.02653
4.532,0.01861
4.536,0.0187
4.54,0.00798
4.544,0.03991
4.548,0.03268
4.552,0.03326
4.556,0.0215
4.56,0.03613
4.564,0.04693
4.568,0.06025
4.572,0.07025
4.576,0.07397
4.58,0.08828
4.584,0.07389
4.588,0.1247
4.592,0.13227
4.596,0.11187
4.6,0.10406
4.604,0.09758
4.608,0.10671
4.612,0.1171
4.616,0.06248
4.62,0.0716
4.624,0.06926
4.628,0.03422
4.632,0.04565
4.636,0.0508
4.64,0.03079
4.644,0.02165
4.648,0.00027
4.652,0.0261
4.656,0.04817
4.66,0.03229
4.664,0.04501
4.668,0.03479
4.672,0.04316
4.676,0.01625
4.68,0.02463
4.684,0.00679
4.688,0.0125
4.692,0.03461
4.696,0.01716
4.7,0.01816
4.704,0.00171
4.708,0.00477
4.712,-0.03814
4.716,-0.04195
4.72,-0.10168
4.724,-0.08622
4.728,-0.01294
4.732,0.11682
4.736,0.28195
4.74,0.50484
4.744,0.70443
4.748,0.9034
4.752,1.00593
4.756,1.00483
4.76,0.90386
4.764,0.74582
4.768,0.49789
4.772,0.26491
4.776,0.0746
4.78,-0.05028
4.784,-0.12653
4.788,-0.13922
4.792,-0.10406
4.796,-0.06845
4.8,-0.0332
4.804,-0.02024
4.808,0.01472
4.812,0.03419
4.816,0.02811
4.82,0.02347
4.824,0.01743
4.828,0.03052
4.832,0.02238
4.836,0.02935
4.84,0.02578
4.844,0.03625
4.848,0.01782
4.852,0.03309
4.856,0.01839
4.86,0.02352
4.864,0.04169
4.868,0.01843
4.872,0.0217
4.876,0.02531
4.88,0.02832
4.884,0.01193
4.888,0.0239
4.892,0.02722
4.896,0.03798
4.9,0.01539
4.904,0.03363
4.908,0.04051
4.912,0.03402
4.916,0.01173
4.92,0.02946
4.924,0.01849
4.928,0.02221
4.932,0.01299
4.936,0.04329
4.94,0.04087
4.944,0.07257
4.948,0.08387
4.952,0.06783
4.956,0.04653
4.96,0.07109
4.964,0.08673
4.968,0.08704
4.972,0.09556
4.976,0.09864
4.98,0.1511
4.984,0.14222
4.988,0.14408
4.992,0.13864
4.996,0.20573
5.0,0.14992
5.004,0.19299
5.008,0.16648
5.012,0.21973
5.016,0.21969
5.02,0.24677
5.024,0.2243
5.028,0.26414
5.032,0.2483
5.036,0.22594
5.04,0.25741
5.044,0.24662
5.048,0.2532
5.052,0.23966
5.056,0.22469
5.06,0.21175
5.064,0.17718
5.068,0.20237
5.072,0.19938
5.076,0.17901
5.08,0.16208
5.084,0.15333
5.088,0.1453
5.092,0.11352
5.096,0.1406
5.1,0.08631
5.104,0.11662
5.108,0.07942
5.112,0.07028
5.116,0.07848
5.12,0.07299
5.124,0.06899
5.128,0.06631
5.132,0.0462
5.136,0.03873
5.14,0.04322
5.144,0.03824
5.148,0.03939
5.152,0.02246
5.156,0.07189
5.16,0.04029
5.164,0.01207
5.168,0.00188
5.172,0.01556
5.176,0.0197
5.18,0.06372
5.184,0.04623
5.188,0.00186
5.192,0.02054
5.196,0.03544
5.2,0.00769
5.204,0.04208
5.208,0.01415
5.212,0.01125
5.216,0.03074
5.22,0.02194
5.224,0.05025
5.228,0.00628
5.232,0.05636
5.236,0.04195
5.24,0.03747
5.244,-0.00896
5.248,0.02301
5.252,0.00315
5.256,0.03699
5.26,0.02689
5.264,0.03731
5.268,-0.00143
5.272,0.05368
5.276,0.06349
5.28,0.06714
5.284,0.02289
5.288,0.06486
5.292,0.06936
5.296,0.07017
5.3,0.04811
5.304,0.09332
5.308,0.11616
5.312,0.09185
5.316,0.12588
5.32,0.13815
5.324,0.11121
5.328,0.14681
5.332,0.14815
5.336,0.11986
5.34,0.11009
5.344,0.10188
5.348,0.073
5.352,0.06514
5.356,0.05948
5.36,0.01715
5.364,0.00889
5.368,0.05081
5.372,0.03553
5.376,0.05347
5.38,0.02764
5.384,0.00137
5.388,0.02762
5.392,0.03191
5.396,0.01783
5.4,0.02095
5.404,0.02629
5.408,0.01959
5.412,0.06587
5.416,0.04046
5.42,0.02348
5.424,0.02054
5.428,-0.00025
5.432,0.01538
5.436,0.01443
5.44,-0.01579
5.444,-0.01669
5.448,-0.0639
5.452,-0.07321
5.456,-0.06343
5.46,0.00883
5.464,0.17865
5.468,0.36573
5.472,0.56147
5.476,0.79955
5.48,0.94976
5.484,1.04455
5.488,0.98827
5.492,0.8618
5.496,0.6613
5.5,0.43029
5.504,0.20098
5.508,0.03463
5.512,-0.06856
5.516,-0.15274
5.52,-0.12589
5.524,-0.08434
5.528,-0.04571
5.532,-0.01334
5.536,0.0171
5.54,0.03945
5.544,0.01264
5.548,0.02566
5.552,0.03788
5.556,0.02183
5.56,0.03595
5.564,0.02223
5.568,0.03527
5.572,0.03468
5.576,0.03932
5.58,0.01455
5.584,-0.00258
5.588,0.04436
5.592,0.05398
5.596,0.02951
5.6,0.01684
5.604,0.05234
5.608,0.05674
5.612,0.03969
5.616,0.01965
5.62,0.0366
5.624,0.05578
5.628,0.03206
5.632,0.02754
5.636,0.01425
5.64,0.02832
5.644,0.07362
5.648,0.04472
5.652,0.03917
5.656,0.0161
5.66,0.02815
5.664,0.04163
5.668,0.05915
5.672,0.06283
5.676,0.09169
5.68,0.07361
5.684,0.07221
5.688,0.07689
5.692,0.09163
5.696,0.08192
5.7,0.11793
5.704,0.08763
5.708,0.14368
5.712,0.15778
5.716,0.14646
5.72,0.16583
5.724,0.16137
5.728,0.19618
5.732,0.21767
5.736,0.20722
5.74,0.22487
5.744,0.22113
5.748,0.21116
5.752,0.23108
5.756,0.26631
5.76,0.24552
5.764,0.22358
5.768,0.26901
5.772,0.22969
5.776,0.22394
5.78,0.2576
5.784,0.22843
5.788,0.216
5.792,0.20743
5.796,0.20769
5.8,0.2229
5.804,0.16998
5.808,0.1945
5.812,0.14293
5.816,0.15062
5.82,0.12014
5.824,0.12413
5.828,0.10936
5.832,0.08723
5.836,0.09281
5.84,0.0854
5.844,0.0785
5.848,0.04584
5.852,0.06732
5.856,0.05012
5.86,0.02065
5.864,0.06141
5.868,0.04248
5.872,0.03666
5.876,0.03077
5.88,0.05516
5.884,0.03544
5.888,0.01218
5.892,0.03128
5.896,0.05413
5.9,0.01996
5.904,0.05963
5.908,0.02381
5.912,0.01486
5.916,0.0217
5.92,0.03258
5.924,0.00909
5.928,0.02624
5.932,0.03803
5.936,0.01981
5.94,0.01772
5.944,0.0247
5.948,0.03731
5.952,0.03716
5.956,0.03364
5.96,0.0368
5.964,0.01951
5.968,0.01746
5.972,0.01699
5.976,0.02407
5.98,0.02897
5.984,0.01918
5.988,0.02812
5.992,0.03031
5.996,0.00625
6.0,0.0211
6.004,0.02929
6.008,0.02778
6.012,0.01464
6.016,0.02589
6.02,0.00917
6.024,0.01528
6.028,0.02406
6.032,0.00195
6.036,0.02992
6.04,0.03993
6.044,0.028
6.048,0.01825
6.052,0.01194
6.056,0.03848
6.06,0.01912
6.064,0.01012
6.068,0.04904
6.072,0.02784
6.076,0.03545
6.08,0.02546
6.084,0.03249
6.088,0.01463
6.092,0.05889
6.096,0.01853
6.1,0.04178
6.104,0.02776
6.108,0.04067
6.112,0.02691
6.116,-0.00107
6.12,-0.00349
6.124,0.01539
6.128,0.04382
6.132,0.04163
6.136,0.06026
6.14,0.05363
6.144,0.08061
6.148,0.07587
6.152,0.10325
6.156,0.12003
6.16,0.12643
6.164,0.09264
6.168,0.13013
6.172,0.10629
6.176,0.11297
6.18,0.09887
6.184,0.11034
6.188,0.11617
6.192,0.06453
6.196,0.05546
6.2,0.02785
6.204,0.04716
6.208,0.03229
6.212,0.03388
6.216,0.02104
6.22,0.00723
6.224,0.01613
6.228,0.02864
6.232,0.03467
6.236,0.03351
6.24,-0.01069
6.244,0.01867
6.248,0.00487
6.252,0.05668
6.256,0.00904
6.26,0.02892
6.264,0.02778
6.268,0.01586
6.272,0.03167
6.276,0.01159
6.28,-0.01092
6.284,-0.02085
6.288,-0.01653
6.292,-0.07879
6.296,-0.09586
6.3,-0.09251
6.304,0.02134
6.308,0.17446
6.312,0.40749
6.316,0.62465
6.32,0.81692
6.324,0.96135
6.328,1.00311
6.332,0.95726
6.336,0.81268
6.34,0.62164
6.344,0.37024
6.348,0.16143
6.352,-0.00341
6.356,-0.10262
6.36,-0.14758
6.364,-0.14136
6.368,-0.08304
6.372,-0.05892
6.376,-0.03654
6.38,0.0203
6.384,0.00072
6.388,0.02311
6.392,0.041
6.396,0.02122
6.4,0.01326
6.404,0.03376
6.408,0.03397
6.412,0.0063
6.416,0.01252
6.42,0.04306
6.424,0.00493
6.428,0.01197
6.432,0.02639
6.436,0.00473
6.44,0.01939
6.444,0.02906
6.448,-0.00946
6.452,0.03656
6.456,0.02065
6.46,0.05294
6.464,0.01265
6.468,0.03328
6.472,0.04754
6.476,0.03744
6.48,0.02972
6.484,0.01629
6.488,0.00544
6.492,0.01778
6.496,0.03513
6.5,0.04138
6.504,0.03097
6.508,0.05017
6.512,0.0284
6.516,0.03425
6.52,0.03389
6.524,0.05639
6.528,0.07561
6.532,0.06343
6.536,0.10873
6.54,0.09272
6.544,0.09257
6.548,0.10241
6.552,0.1093
6.556,0.11086
6.56,0.10371
6.564,0.15428
6.568,0.1446
6.572,0.17817
6.576,0.19208
6.58,0.18556
6.584,0.19683
6.588,0.21539
6.592,0.23841
6.596,0.24314
6.6,0.20308
6.604,0.21364
6.608,0.22597
6.612,0.23326
6.616,0.23907
6.62,0.22998
6.624,0.19185
6.628,0.22645
6.632,0.20995
6.636,0.17765
6.64,0.18468
6.644,0.16529
6.648,0.15805
6.652,0.17178
6.656,0.16612
6.66,0.12546
6.664,0.12314
6.668,0.08325
6.672,0.0765
6.676,0.05735
6.68,0.08502
6.684,0.05237
6.688,0.06476
6.692,0.05319
6.696,0.03597
6.7,0.03824
6.704,0.01922
6.708,0.03257
6.712,0.01326
6.716,0.01154
6.72,0.04643
6.724,0.01961
6.728,0.00289
6.732,0.03161
6.736,0.01616
6.74,0.02699
6.744,0.00792
6.748,0.00607
6.752,0.00407
6.756,0.06288
6.76,0.03643
6.764,0.07575
6.768,0.06151
6.772,0.06266
6.776,0.07776
6.78,0.09617
6.784,0.12024
6.788,0.10084
6.792,0.12679
6.796,0.1049
6.8,0.08566
6.804,0.0691
6.808,0.08293
6.812,0.08168
6.816,0.05321
6.82,0.06279
6.824,0.04365
6.828,0.03396
6.832,0.01027
6.836,0.01305
6.84,0.00671
6.844,0.00488
6.848,0.00635
6.852,0.05366
6.856,0.03584
6.86,0.00316
6.864,0.01741
6.868,0.01059
6.872,0.01716
6.876,-0.02279
6.88,-0.00051
6.884,-0.00181
6.888,-0.01321
6.892,-0.01774
6.896,-0.00345
6.9,0.01002
6.904,0.00635
6.908,-0.02423
6.912,-0.0611
6.916,-0.08554
6.92,-0.11122
6.924,-0.09476
6.928,0.06104
6.932,0.21814
6.936,0.40684
6.94,0.63655
6.944,0.84802
6.948,0.9457
6.952,1.02821
6.956,0.90886
6.96,0.76093
6.964,0.55023
6.968,0.30774
6.972,0.09238
6.976,-0.04769
6.98,-0.13032
6.984,-0.15926
6.988,-0.12339
6.992,-0.10896
6.996,-0.07406
7.0,-0.02356
7.004,-0.03442
7.008,0.02414
7.012,0.00684
7.016,0.03688
7.02,0.00944
7.024,0.00675
7.028,-0.01156
7.032,-0.00846
7.036,0.02604
7.04,-0.00868
7.044,-0.01282
7.048,-0.00644
7.052,0.01546
7.056,0.00275
7.06,0.0224
7.064,0.00836
7.068,0.01384
7.072,-0.01162
7.076,0.00781
7.08,0.01149
7.084,0.01219
7.088,0.00682
7.092,0.03322
7.096,0.00123
7.1,0.00249
7.104,-0.03956
7.108,-0.01189
7.112,-0.00232
7.116,-0.0082
7.12,0.01247
7.124,0.03812
7.128,-0.0
7.132,0.02945
7.136,0.05435
7.14,0.01127
7.144,0.02135
7.148,0.05176
7.152,0.05002
7.156,0.05376
7.16,0.07174
7.164,0.07749
7.168,0.06418
7.172,0.06911
7.176,0.1218
7.18,0.12038
7.184,0.14392
7.188,0.13065
7.192,0.17502
7.196,0.14625
7.2,0.17421
7.204,0.16415
7.208,0.18337
7.212,0.2092
7.216,0.20145
7.22,0.21159
7.224,0.19477
7.228,0.21868
7.232,0.21352
7.236,0.22347
7.24,0.21718
7.244,0.22837
7.248,0.20384
7.252,0.18175
7.256,0.19184
7.26,0.18319
7.264,0.16722
7.268,0.14167
7.272,0.16064
7.276,0.11478
7.28,0.1331
7.284,0.09289
7.288,0.0849
7.292,0.09317
7.296,0.09554
7.3,0.09429
7.304,0.03822
7.308,0.0473
7.312,0.04289
7.316,0.02968
7.32,0.01952
7.324,0.00075
7.328,0.01812
7.332,-0.0019
7.336,0.02932
7.34,-0.00953
7.344,-0.01372
7.348,-0.00962
7.352,0.00427
7.356,0.00917
7.36,0.01773
7.364,0.00624
7.368,-0.01507
7.372,0.00022
7.376,-0.03371
7.38,0.0029
7.384,0.01315
7.388,-0.01866
7.392,-0.02196
7.396,-1e-05
7.4,-0.00674
7.404,0.00877
7.408,-0.01661
7.412,0.00326
7.416,-0.02762
7.42,-0.00343
7.424,-0.0312
7.428,-0.01825
7.432,-0.02049
7.436,0.01636
7.44,0.00683
7.444,-0.02026
7.448,-0.00489
7.452,-0.00741
7.456,-0.00892
7.46,0.02055
7.464,-0.00618
7.468,-0.02541
7.472,-0.00598
7.476,-0.02035
7.48,-0.03175
7.484,-0.01369
7.488,0.0232
7.492,-0.00699
7.496,-0.00658
7.5,-0.02383
7.504,-0.02926
7.508,-0.00083
7.512,0.01654
7.516,0.00556
7.52,-0.00943
7.524,-0.01224
7.528,0.0037
7.532,-0.02269
7.536,0.02354
7.54,-0.01775
7.544,-0.02711
7.548,-0.01076
7.552,-0.039
7.556,-0.03949
7.56,-0.02048
7.564,-0.01236
7.568,0.00984
7.572,0.02472
7.576,0.02266
7.58,0.01883
7.584,0.00395
7.588,0.00428
7.592,0.03574
7.596,0.06509
7.6,0.06923
7.604,0.0924
7.608,0.09539
7.612,0.06743
7.616,0.08482
7.62,0.06292
7.624,0.06998
7.628,0.04486
7.632,0.0603
7.636,0.06004
7.64,0.02766
7.644,0.01534
7.648,-0.00491
7.652,0.01151
7.656,-0.03372
7.66,0.00869
7.664,0.00121
7.668,-0.03511
7.672,-0.01316
7.676,-0.01199
7.68,-0.0266
7.684,-0.01345
7.688,-0.01813
7.692,-0.02012
7.696,-0.02179
7.7,-0.00384
7.704,-0.0356
7.708,-0.0237
7.712,-0.02036
7.716,-0.00117
7.72,-0.03433
7.724,-0.00159
7.728,-0.05028
7.732,-0.09311
7.736,-0.09102
7.74,-0.13115
7.744,-0.10745
7.748,-0.02402
7.752,0.11521
7.756,0.30806
7.76,0.51993
7.764,0.72381
7.768,0.89175
7.772,0.98457
7.776,0.94313
7.78,0.78774
7.784,0.63289
7.788,0.39054
7.792,0.15499
7.796,-0.03014
7.8,-0.13385
7.804,-0.2062
7.808,-0.19125
7.812,-0.14915
7.816,-0.09787
7.82,-0.0759
7.824,-0.03506
7.828,-0.02412
7.832,-0.01467
7.836,-0.0136
7.84,-0.02459
7.844,0.00099
7.848,-0.02294
7.852,-0.02792
7.856,-0.03419
7.86,-0.00574
7.864,-0.03645
7.868,-0.054
7.872,-0.02957
7.876,-0.03877
7.88,-0.04841
7.884,-0.02086
7.888,0.00288
7.892,-0.01561
7.896,-0.01943
7.9,-0.03314
7.904,-0.02179
7.908,-0.01865
7.912,-0.02074
7.916,-0.00851
7.92,-0.01113
7.924,-0.02341
7.928,-0.00371
7.932,0.00021
7.936,-0.00862
7.94,-0.02187
7.944,-0.01303
7.948,-0.00063
7.952,7e-05
7.956,-0.00961
7.96,-0.00887
7.964,0.01241
7.968,0.00113
7.972,-0.00195
7.976,0.02635
7.98,0.03277
7.984,0.03991
7.988,0.07857
7.992,0.04703
7.996,0.09033
8.0,0.11469
8.004,0.09989
8.008,0.12412
8.012,0.12244
8.016,0.12466
8.02,0.13864
8.024,0.14608
8.028,0.17573
8.032,0.18327
8.036,0.19139
8.04,0.1653
8.044,0.20362
8.048,0.18655
8.052,0.19675
8.056,0.17705
8.06,0.1836
8.064,0.19261
8.068,0.16904
8.072,0.1716
8.076,0.16023
8.08,0.14843
8.084,0.15155
8.088,0.12331
8.092,0.1245
8.096,0.1044
8.1,0.09253
8.104,0.07848
8.108,0.10549
8.112,0.0657
8.116,0.06217
8.12,0.05939
8.124,0.04502
8.128,0.01488
8.132,0.02136
8.136,0.03081
8.14,0.00379
8.144,0.01722
8.148,0.00608
8.152,-0.02689
8.156,-0.00028
8.16,-0.01411
8.164,-0.02452
8.168,0.00808
8.172,-0.01201
8.176,-0.00174
8.18,-0.01717
8.184,-0.0265
8.188,-0.03022
8.192,-0.03838
8.196,-0.01284
8.2,-0.04372
8.204,-0.03004
8.208,-0.01037
8.212,-0.02398
8.216,-0.02289
8.22,-0.03476
8.224,-0.03321
8.228,-0.0384
8.232,-0.03537
8.236,-0.02497
8.24,-0.01216
8.244,-0.01739
8.248,-0.0366
8.252,-0.02349
8.256,-0.01657
8.26,-0.01744
8.264,-0.0128
8.268,0.01429
8.272,0.01312
8.276,0.04047
8.28,0.03316
8.284,0.0384
8.288,0.04644
8.292,0.05693
8.296,0.06405
8.3,0.07932
8.304,0.06006
8.308,0.06495
8.312,0.0537
8.316,0.03783
8.32,0.02862
8.324,-0.01079
8.328,0.02028
8.332,-0.02455
8.336,0.00236
8.34,-0.00625
8.344,-0.02096
8.348,-0.05242
8.352,-0.04711
8.356,-0.03157
8.36,-0.02014
8.364,-0.01399
8.368,-0.02252
8.372,-0.03092
8.376,-0.01073
8.38,-0.02971
8.384,-0.03321
8.388,-0.01924
8.392,-0.03162
8.396,-0.01573
8.4,-0.02233
8.404,-0.00356
8.408,-0.03624
8.412,-0.01345
8.416,-0.08798
8.42,-0.12149
8.424,-0.14923
8.428,-0.12431
8.432,-0.00895
8.436,0.14211
8.44,0.31669
8.444,0.52522
8.448,0.71234
8.452,0.92197
8.456,0.96999
8.46,0.90972
8.464,0.79692
8.468,0.51638
8.472,0.34048
8.476,0.11576
8.48,-0.06896
8.484,-0.14716
8.488,-0.17053
8.492,-0.16579
8.496,-0.15165
8.5,-0.1297
8.504,-0.07563
8.508,-0.01825
8.512,-0.04115
8.516,-0.04599
8.52,-0.00689
8.524,-0.04686
8.528,-0.03916
8.532,-0.01575
8.536,-0.06109
8.54,-0.04567
8.544,-0.03108
8.548,-0.02549
8.552,-0.02896
8.556,-0.04187
8.56,-0.0115
8.564,-0.01687
8.568,-0.01962
8.572,-0.02591
8.576,-0.0491
8.58,-0.02345
8.584,-0.03118
8.588,-0.04218
8.592,-0.03108
8.596,-0.0371
8.6,-0.02701
8.604,-0.04134
8.608,-0.01501
8.612,-0.01363
8.616,-0.018
8.62,0.00093
8.624,-0.0186
8.628,0.00631
8.632,-0.01877
8.636,0.00705
8.64,-0.01035
8.644,0.00768
8.648,3e-05
8.652,0.02408
8.656,0.01802
8.66,0.00786
8.664,0.02129
8.668,0.04323
8.672,0.03979
8.676,0.04059
8.68,0.03653
8.684,0.08576
8.688,0.1032
8.692,0.08108
8.696,0.1325
8.7,0.15214
8.704,0.14399
8.708,0.14556
8.712,0.16019
8.716,0.1741
8.72,0.18495
8.724,0.18236
8.728,0.18139
8.732,0.18775
8.736,0.17073
8.74,0.20882
8.744,0.19459
8.748,0.20933
8.752,0.16782
8.756,0.17839
8.76,0.15615
8.764,0.17385
8.768,0.14672
8.772,0.13066
8.776,0.13151
8.78,0.1063
8.784,0.11106
8.788,0.07141
8.792,0.07343
8.796,0.05845
8.8,0.04226
8.804,0.04799
8.808,0.03822
8.812,0.02681
8.816,0.02924
8.82,0.04552
8.824,0.01776
8.828,-0.01275
8.832,-0.02097
8.836,-0.03077
8.84,0.00571
8.844,-0.03105
8.848,-0.01215
8.852,0.01097
8.856,-0.01455
8.86,-0.00892
8.864,-0.03092
8.868,-0.01407
8.872,-0.0181
8.876,-0.06675
8.88,-0.04506
8.884,-0.0183
8.888,-0.02465
8.892,-0.01208
8.896,-0.02434
8.9,-0.03552
8.904,-0.02899
8.908,-0.01117
8.912,-0.02195
8.916,-0.0417
8.92,-0.06713
8.924,-0.0388
8.928,-0.0208
8.932,-0.05887
8.936,-0.0397
8.94,-0.01084
8.944,-0.03608
8.948,-0.06214
8.952,-0.03408
8.956,-0.03227
8.96,-0.02361
8.964,-0.03111
8.968,-0.02315
8.972,-0.02485
8.976,-0.02541
8.98,-0.04455
8.984,0.01084
8.988,-0.00456
8.992,0.01308
8.996,0.02479
9.0,0.00527
9.004,0.04153
9.008,0.07047
9.012,0.06258
9.016,0.07617
9.02,0.09659
9.024,0.07669
9.028,0.05991
9.032,0.0903
9.036,0.04732
9.04,0.03192
9.044,0.04456
9.048,0.0273
9.052,0.00762
9.056,-0.00391
9.06,-0.02655
9.064,-0.0152
9.068,-0.04023
9.072,-0.02097
9.076,0.00781
9.08,-0.02712
9.084,-0.01706
9.088,-0.03306
9.092,-0.03968
9.096,-0.03795
9.1,-0.05435
9.104,-0.01007
9.108,-0.01964
9.112,-0.03888
9.116,-0.03242
9.12,-0.04424
9.124,-0.02743
9.128,-0.0351
9.132,-0.03687
9.136,-0.02771
9.14,-0.07035
9.144,-0.09536
9.148,-0.11237
9.152,-0.13745
9.156,-0.07889
9.16,0.03562
9.164,0.21853
9.168,0.44671
9.172,0.63783
9.176,0.82694
9.18,0.93495
9.184,0.97547
9.188,0.86418
9.192,0.68216
9.196,0.44558
9.2,0.22827
9.204,0.05606
9.208,-0.08272
9.212,-0.18225
9.216,-0.18878
9.22,-0.17004
9.224,-0.12187
9.228,-0.0838
9.232,-0.06555
9.236,-0.03042
9.24,-0.03102
9.244,-0.02472
9.248,-0.00151
9.252,-0.05074
9.256,-0.05301
9.26,-0.00112
9.264,-0.02547
9.268,-0.00457
9.272,-0.06177
9.276,-0.02348
9.28,-0.03324
9.284,-0.00883
9.288,-0.02235
9.292,-0.0374
9.296,-0.03976
9.3,-0.0153
9.304,-0.02366
9.308,-0.00807
9.312,-0.02059
9.316,-0.03885
9.32,-0.02265
9.324,-0.03834
9.328,-0.0295
9.332,-0.01049
9.336,-0.05152
9.34,-0.00184
9.344,-0.02059
9.348,-0.02549
9.352,0.00716
9.356,0.02427
9.36,0.01405
9.364,-0.01988
9.368,0.0102
9.372,-0.0223
9.376,0.00049
9.38,0.02096
9.384,0.01853
9.388,0.0187
9.392,0.04735
9.396,0.02468
9.4,0.03783
9.404,0.06783
9.408,0.10334
9.412,0.09527
9.416,0.13672
9.42,0.14449
9.424,0.15972
9.428,0.13354
9.432,0.15939
9.436,0.18683
9.44,0.1705
9.444,0.19575
9.448,0.18327
9.452,0.20294
9.456,0.17434
9.46,0.20051
9.464,0.16516
9.468,0.20966
9.472,0.18316
9.476,0.18306
9.48,0.18711
9.484,0.17503
9.488,0.16941
9.492,0.16347
9.496,0.15192
9.5,0.11614
9.504,0.11467
9.508,0.10914
9.512,0.10368
9.516,0.0891
9.52,0.06607
9.524,0.05835
9.528,0.04486
9.532,0.06817
9.536,0.05681
9.54,0.02774
9.544,0.02259
9.548,0.00697
9.552,-0.0098
9.556,0.00546
9.56,-0.01643
9.564,0.01314
9.568,-0.01079
9.572,-0.00377
9.576,-0.0273
9.58,0.01195
9.584,-0.02547
9.588,-0.03707
9.592,0.00065
9.596,-0.01408
9.6,-0.02466
9.604,-0.00827
9.608,-0.02154
9.612,-0.00922
9.616,-0.01796
9.62,-0.03906
9.624,-0.03027
9.628,-0.00257
9.632,-0.01946
9.636,-0.0299
9.64,0.0055
9.644,-0.03831
9.648,-0.02265
9.652,-0.02107
9.656,-0.0241
9.66,-0.03688
9.664,-0.03017
9.668,-0.00128
9.672,-0.01945
9.676,-0.0186
9.68,-0.01207
9.684,-0.01804
9.688,-0.01993
9.692,-0.03697
9.696,-0.00478
9.7,-0.00244
9.704,-0.01136
9.708,-0.02569
9.712,-0.01705
9.716,-0.01442
9.72,-0.02535
9.724,-0.0235
9.728,-0.01461
9.732,-0.01694
9.736,-0.01437
9.74,-0.01953
9.744,0.01855
9.748,-0.02755
9.752,0.00429
9.756,0.01635
9.76,0.00661
9.764,-0.01352
9.768,0.02921
9.772,0.0463
9.776,0.05919
9.78,0.07344
9.784,0.06614
9.788,0.10439
9.792,0.09763
9.796,0.07516
9.8,0.07047
9.804,0.07045
9.808,0.06172
9.812,0.07118
9.816,0.04898
9.82,0.0512
9.824,0.01616
9.828,0.01888
9.832,0.00729
9.836,-0.02528
9.84,-0.02502
9.844,-0.00314
9.848,-0.02286
9.852,-0.01365
9.856,-0.02416
9.86,-0.00787
9.864,-0.02413
9.868,0.00389
9.872,-0.01695
9.876,-0.01648
9.88,-0.02477
9.884,-0.03716
9.888,-0.00895
9.892,-0.01847
9.896,0.01721
9.9,-0.02522
9.904,-0.03764
9.908,-0.01556
9.912,-0.03926
9.916,-0.07998
9.92,-0.14312
9.924,-0.10769
9.928,-0.04075
9.932,0.07607
9.936,0.23931
9.94,0.46456
9.944,0.66641
9.948,0.85137
9.952,0.97907
9.956,0.98978
9.96,0.85809
9.964,0.70035
9.968,0.44489
9.972,0.22536
9.976,0.04754
9.98,-0.11556
9.984,-0.14938
9.988,-0.16422
9.992,-0.15854
9.996,-0.08053
