t_seg,ecg_mV
0.0,0.00342
0.004,-0.00452
0.008,0.03698
0.012,0.01082
0.016,0.04972
0.02,0.05824
0.024,0.0191
0.028,0.04776
0.032,0.01789
0.036,0.05644
0.04,0.03803
0.044,7e-05
0.048,0.01787
0.052,0.02224
0.056,0.03099
0.06,0.0486
0.064,-0.00204
0.068,0.02562
0.072,0.07138
0.076,0.01979
0.08,0.01583
0.084,0.028
0.088,0.007
0.092,0.03867
0.096,0.02998
0.1,0.04168
0.104,0.0446
0.108,0.05791
0.112,0.02191
0.116,0.03289
0.12,-0.00074
0.124,0.04394
0.128,0.03119
0.132,0.03496
0.136,0.02248
0.14,0.0269
0.144,0.04404
0.148,0.02553
0.152,0.02976
0.156,0.02358
0.16,0.0264
0.164,0.04035
0.168,0.01857
0.172,0.02039
0.176,0.01692
0.18,0.02267
0.184,0.02766
0.188,0.01866
0.192,0.02371
0.196,0.04064
0.2,0.01806
0.204,0.01965
0.208,0.04244
0.212,0.02589
0.216,0.03404
0.22,0.00813
0.224,0.02235
0.228,0.06346
0.232,0.03848
0.236,0.02952
0.24,0.03325
0.244,0.01312
0.248,0.01545
0.252,0.02746
0.256,0.0398
0.26,-0.00411
0.264,0.063
0.268,0.0168
0.272,0.02305
0.276,-0.00718
0.28,0.0101
0.284,0.02924
0.288,0.0352
0.292,0.00844
0.296,0.00573
0.3,0.01151
0.304,0.05153
0.308,0.01975
0.312,0.04292
0.316,0.03224
0.32,0.05296
0.324,0.03831
0.328,0.02112
0.332,0.01645
0.336,0.04538
0.34,0.03304
0.344,0.03585
0.348,0.04938
0.352,0.03302
0.356,0.03983
0.36,0.02033
0.364,0.0129
0.368,0.01334
0.372,0.02061
0.376,0.05065
0.38,0.03435
0.384,0.02818
0.388,0.01489
0.392,0.02872
0.396,0.05446
0.4,0.04536
0.404,0.03282
0.408,0.0289
0.412,0.04147
0.416,0.03138
0.42,0.04451
0.424,0.04414
0.428,0.04608
0.432,0.0217
0.436,0.01402
0.44,0.05392
0.444,0.01472
0.448,0.01659
0.452,0.02818
0.456,0.03771
0.46,0.02845
0.464,0.04692
0.468,0.01179
0.472,0.0119
0.476,0.01997
0.48,0.03933
0.484,0.03753
0.488,0.02421
0.492,0.04207
0.496,0.03453
0.5,0.02852
0.504,0.02241
0.508,0.03908
0.512,0.02855
0.516,0.04098
0.52,0.03268
0.524,0.04598
0.528,0.05986
0.532,0.06526
0.536,0.09019
0.54,0.09771
0.544,0.105
0.548,0.12999
0.552,0.10656
0.556,0.14822
0.56,0.10691
0.564,0.1441
0.568,0.13944
0.572,0.13349
0.576,0.1063
0.58,0.09974
0.584,0.08886
0.588,0.06819
0.592,0.06121
0.596,0.06169
0.6,0.04749
0.604,0.03781
0.608,0.03941
0.612,0.03644
0.616,0.05283
0.62,0.02003
0.624,0.02217
0.628,0.04186
0.632,0.02358
0.636,0.01718
0.64,0.0314
0.644,0.03916
0.648,0.04631
0.652,0.01426
0.656,0.02255
0.66,0.03072
0.664,0.03217
0.668,0.03301
0.672,0.01764
0.676,-0.01455
0.68,-0.06552
0.684,-0.08626
0.688,-0.05684
0.692,-0.00217
0.696,0.10769
0.7,0.25916
0.704,0.47365
0.708,0.70966
0.712,0.86129
0.716,0.99041
0.72,1.02567
0.724,0.89731
0.728,0.75443
0.732,0.51089
0.736,0.32434
0.74,0.09751
0.744,-0.03293
0.748,-0.11285
0.752,-0.11352
0.756,-0.1168
0.76,-0.06538
0.764,-0.03908
0.768,-0.02473
0.772,0.01577
0.776,0.02618
0.78,0.01807
0.784,0.0157
0.788,0.03327
0.792,0.03112
0.796,0.02562
0.8,0.0691
0.804,0.02818
0.808,0.04671
0.812,0.01299
0.816,0.05319
0.82,0.02422
0.824,0.0192
0.828,0.02161
0.832,0.02591
0.836,0.01846
0.84,0.0122
0.844,0.02454
0.848,0.01278
0.852,0.02349
0.856,0.02357
0.86,0.01512
0.864,0.03158
0.868,0.02805
0.872,0.02686
0.876,0.01694
0.88,-0.00207
0.884,0.06996
0.888,0.04433
0.892,0.03498
0.896,0.05011
0.9,0.04762
0.904,0.04956
0.908,0.03322
0.912,0.0419
0.916,0.07813
0.92,0.09164
0.924,0.10279
0.928,0.07344
0.932,0.11429
0.936,0.14935
0.94,0.13239
0.944,0.14347
0.948,0.15269
0.952,0.12941
0.956,0.1823
0.96,0.19515
0.964,0.19043
0.968,0.19177
0.972,0.2069
0.976,0.22679
0.98,0.24601
0.984,0.23788
0.988,0.24668
0.992,0.24643
0.996,0.23837
1.0,0.23418
1.004,0.24934
1.008,0.23992
1.012,0.24037
1.016,0.26692
1.02,0.23611
1.024,0.19618
1.028,0.21424
1.032,0.19773
1.036,0.21383
1.04,0.18098
1.044,0.18049
1.048,0.16005
1.052,0.14504
1.056,0.09821
1.06,0.13111
1.064,0.13334
1.068,0.08901
1.072,0.11141
1.076,0.0584
1.08,0.07363
1.084,0.06939
1.088,0.07527
1.092,0.06764
1.096,0.04138
1.1,0.07543
1.104,0.02149
1.108,0.02916
1.112,0.02845
1.116,0.00368
1.12,0.01635
1.124,0.03298
1.128,0.05963
1.132,0.05161
1.136,0.02875
1.14,0.03667
1.144,-0.01143
1.148,0.03075
1.152,0.04869
1.156,0.01202
1.16,0.0414
1.164,0.00702
1.168,0.02555
1.172,0.0263
1.176,0.03207
1.18,0.03258
1.184,0.04785
1.188,0.03739
1.192,0.02457
1.196,0.02104
1.2,0.00964
1.204,0.01715
1.208,-0.00267
1.212,-0.00193
1.216,0.03428
1.22,0.03331
1.224,0.03428
1.228,0.0153
1.232,0.03006
1.236,-0.00442
1.24,0.03616
1.244,0.03409
1.248,0.04472
1.252,0.02816
1.256,0.02584
1.26,0.00294
1.264,0.04326
1.268,0.02531
1.272,0.01552
1.276,0.02879
1.28,0.0472
1.284,0.06096
1.288,0.024
1.292,0.00361
1.296,0.02019
1.3,0.02615
1.304,0.02293
1.308,0.03308
1.312,0.02323
1.316,0.02395
1.32,0.03953
1.324,0.00137
1.328,0.02804
1.332,0.03828
1.336,0.01794
1.34,0.02344
1.344,0.03519
1.348,0.05298
1.352,-0.00288
1.356,0.03207
1.36,0.02518
1.364,-0.02248
1.368,0.02711
1.372,0.00577
1.376,0.05478
1.38,0.04797
1.384,0.00146
1.388,0.03535
1.392,0.01133
1.396,0.025
1.4,0.04674
1.404,0.03966
1.408,0.04743
1.412,0.01602
1.416,0.03631
1.42,0.05519
1.424,0.09631
1.428,0.11215
1.432,0.11335
1.436,0.12144
1.44,0.10604
1.444,0.12844
1.448,0.12716
1.452,0.09564
1.456,0.09456
1.46,0.10245
1.464,0.05143
1.468,0.04629
1.472,0.05045
1.476,0.0345
1.48,0.01314
1.484,0.02453
1.488,0.02029
1.492,0.03033
1.496,0.0376
1.5,-0.00233
1.504,0.00283
1.508,0.03821
1.512,0.01625
1.516,0.01158
1.52,0.00736
1.524,0.02659
1.528,0.00438
1.532,0.02564
1.536,0.01126
1.54,0.01288
1.544,-0.0001
1.548,0.02985
1.552,0.02425
1.556,-0.02684
1.56,-0.0392
1.564,-0.03356
1.568,-0.11427
1.572,-0.0767
1.576,0.03892
1.58,0.1646
1.584,0.38771
1.588,0.61253
1.592,0.81449
1.596,0.95248
1.6,1.01655
1.604,0.96271
1.608,0.81656
1.612,0.59688
1.616,0.36177
1.62,0.18355
1.624,-0.00612
1.628,-0.14652
1.632,-0.15221
1.636,-0.13982
1.64,-0.08887
1.644,-0.07316
1.648,-0.03916
1.652,-0.00574
1.656,0.01925
1.66,0.01823
1.664,0.00262
1.668,0.02258
1.672,0.00322
1.676,-0.01204
1.68,-0.00402
1.684,0.01605
1.688,0.00258
1.692,0.02126
1.696,0.00653
1.7,0.01343
1.704,-0.00058
1.708,0.02939
1.712,0.0156
1.716,0.03532
1.72,0.02669
1.724,0.01193
1.728,0.02638
1.732,0.00475
1.736,0.01005
1.74,0.00852
1.744,-0.0078
1.748,-0.00358
1.752,0.02351
1.756,0.01098
1.76,0.02372
1.764,0.00169
1.768,0.02571
1.772,0.03334
1.776,0.02061
1.78,0.03927
1.784,0.03735
1.788,0.0401
1.792,0.03157
1.796,0.08471
1.8,0.04954
1.804,0.07307
1.808,0.06696
1.812,0.06631
1.816,0.09086
1.82,0.12932
1.824,0.10206
1.828,0.14385
1.832,0.14189
1.836,0.14048
1.84,0.16578
1.844,0.16893
1.848,0.1802
1.852,0.19609
1.856,0.20617
1.86,0.19681
1.864,0.22722
1.868,0.22902
1.872,0.24044
1.876,0.2227
1.88,0.24219
1.884,0.217
1.888,0.23841
1.892,0.21412
1.896,0.22531
1.9,0.21292
1.904,0.1806
1.908,0.19983
1.912,0.15836
1.916,0.15733
1.92,0.16846
1.924,0.15704
1.928,0.16188
1.932,0.12123
1.936,0.12649
1.94,0.11869
1.944,0.07493
1.948,0.08669
1.952,0.07633
1.956,0.06018
1.96,0.04688
1.964,0.06223
1.968,0.04546
1.972,0.04275
1.976,0.03649
1.98,0.00386
1.984,-0.0066
1.988,0.05276
1.992,0.00678
1.996,0.02001
2.0,0.01505
2.004,0.02871
2.008,-0.00439
2.012,-0.0151
2.016,-0.00981
2.02,0.00291
2.024,0.00615
2.028,-0.00975
2.032,0.02223
2.036,0.00943
2.04,-0.02599
2.044,0.01007
2.048,0.00615
2.052,0.00365
2.056,0.00519
2.06,0.02322
2.064,0.00648
2.068,0.01023
2.072,0.01015
2.076,-0.01012
2.08,0.01532
2.084,0.00194
2.088,0.00816
2.092,0.01284
2.096,-0.00724
2.1,0.002
2.104,0.02012
2.108,-0.00763
2.112,0.00061
2.116,0.01698
2.12,-0.00575
2.124,0.02937
2.128,-0.01625
2.132,-0.01125
2.136,0.01387
2.14,0.01357
2.144,-0.00754
2.148,0.00457
2.152,0.01654
2.156,0.00687
2.16,0.01298
2.164,0.01325
2.168,0.00256
2.172,0.01857
2.176,0.00053
2.18,0.01529
2.184,-0.00346
2.188,0.00313
2.192,0.01681
2.196,-0.00886
2.2,-0.00479
2.204,-0.0057
2.208,0.01419
2.212,0.02153
2.216,0.00686
2.22,0.01142
2.224,0.01417
2.228,-0.00964
2.232,-0.0089
2.236,0.00933
2.24,0.02953
2.244,0.0017
2.248,-0.01297
2.252,-0.02298
2.256,0.01737
2.26,-0.01819
2.264,-0.00597
2.268,-0.01355
2.272,-0.00291
2.276,0.03708
2.28,0.01347
2.284,-0.0225
2.288,-0.03229
2.292,-0.00643
2.296,-0.01246
2.3,0.0076
2.304,0.01225
2.308,0.00184
2.312,0.01502
2.316,0.00987
2.32,-0.00306
2.324,0.00256
2.328,-0.02214
2.332,0.0199
2.336,0.01086
2.34,-0.01837
2.344,-0.01405
2.348,-0.01045
2.352,0.0007
2.356,-0.02854
2.36,-0.03997
2.364,-0.02982
2.368,-0.01798
2.372,-0.02037
2.376,0.02554
2.38,0.01881
2.384,0.00581
2.388,-0.01805
2.392,-0.00966
2.396,0.0052
2.4,0.03139
2.404,-0.0193
2.408,-0.00803
2.412,-0.00418
2.416,0.01588
2.42,0.01297
2.424,0.00216
2.428,0.02174
2.432,0.02809
2.436,0.03161
2.44,0.05067
2.444,0.05759
2.448,0.05352
2.452,0.08222
2.456,0.07803
2.46,0.10313
2.464,0.08534
2.468,0.09295
2.472,0.07769
2.476,0.07178
2.48,0.07426
2.484,0.03825
2.488,0.02323
2.492,0.06032
2.496,0.04058
2.5,0.01504
2.504,-0.00132
2.508,0.005
2.512,-0.01021
2.516,0.00338
2.52,-0.00755
2.524,-0.00339
2.528,-0.01135
2.532,0.005
2.536,-0.01871
2.54,-0.03044
2.544,-0.0248
2.548,-0.03269
2.552,-0.01454
2.556,-0.01096
2.56,-0.0121
2.564,-0.02322
2.568,0.00368
2.572,-0.01759
2.576,-0.01912
2.58,-0.03983
2.584,-0.08623
2.588,-0.08802
2.592,-0.14622
2.596,-0.12512
2.6,-0.01697
2.604,0.13555
2.608,0.32183
2.612,0.51628
2.616,0.76734
2.62,0.93166
2.624,0.97416
2.628,0.93609
2.632,0.81877
2.636,0.60203
2.64,0.34191
2.644,0.12515
2.648,-0.03005
2.652,-0.13901
2.656,-0.16836
2.66,-0.16103
2.664,-0.14813
2.668,-0.1364
2.672,-0.08195
2.676,-0.02117
2.68,0.00754
2.684,-0.01489
2.688,-0.01699
2.692,-0.03007
2.696,-0.01716
2.7,-0.0305
2.704,-0.02941
2.708,-0.01003
2.712,0.02737
2.716,-0.02922
2.72,-0.03272
2.724,-0.01792
2.728,-0.03101
2.732,-0.01344
2.736,-0.00966
2.74,-0.00774
2.744,-0.01093
2.748,-0.00976
2.752,-0.01571
2.756,-0.01375
2.76,0.00387
2.764,-0.02163
2.768,-0.00337
2.772,-0.02339
2.776,0.01277
2.78,-0.01955
2.784,-0.01203
2.788,-0.02124
2.792,-0.00942
2.796,-0.01485
2.8,-0.01475
2.804,0.02293
2.808,-0.00752
2.812,0.01806
2.816,0.02694
2.82,0.03568
2.824,0.02146
2.828,0.06459
2.832,0.01662
2.836,0.05334
2.84,0.05639
2.844,0.061
2.848,0.10802
2.852,0.11264
2.856,0.08048
2.86,0.11572
2.864,0.14484
2.868,0.14544
2.872,0.1521
2.876,0.14091
2.88,0.19542
2.884,0.14541
2.888,0.16037
2.892,0.20039
2.896,0.19321
2.9,0.18434
2.904,0.21251
2.908,0.19403
2.912,0.20692
2.916,0.20736
2.92,0.1819
2.924,0.14561
2.928,0.15218
2.932,0.14953
2.936,0.15688
2.94,0.14684
2.944,0.11537
2.948,0.1139
2.952,0.10727
2.956,0.08921
2.96,0.09977
2.964,0.08174
2.968,0.05549
2.972,0.04773
2.976,0.02877
2.98,0.03191
2.984,0.00686
2.988,0.04382
2.992,0.02221
2.996,0.006
3.0,0.00018
3.004,0.00207
3.008,-0.00147
3.012,-0.01626
3.016,0.03046
3.02,-0.01114
3.024,-0.03663
3.028,-0.0309
3.032,-0.03367
3.036,-0.01546
3.04,-0.02826
3.044,-0.0138
3.048,-0.01141
3.052,-0.01872
3.056,-0.02204
3.06,-0.01654
3.064,-0.02497
3.068,-0.02438
3.072,0.00689
3.076,-0.01856
3.08,-0.01259
3.084,-0.00702
3.088,-0.02132
3.092,-0.02931
3.096,-0.01852
3.1,-0.01892
3.104,-0.00953
3.108,-0.0244
3.112,-0.02411
3.116,-0.02515
3.12,-0.0322
3.124,-0.02575
3.128,-0.02265
3.132,0.00253
3.136,-0.00745
3.14,-0.0199
3.144,-0.02924
3.148,-0.00411
3.152,-0.00111
3.156,-0.04924
3.16,-0.01684
3.164,-0.04459
3.168,-0.01195
3.172,-0.01644
3.176,-0.02434
3.18,-0.01207
3.184,-0.04469
3.188,-0.04322
3.192,-0.02296
3.196,-0.02267
3.2,-0.00939
3.204,-0.01897
3.208,-0.04394
3.212,-0.04416
3.216,-0.01263
3.22,-0.01168
3.224,-0.02903
3.228,-0.04803
3.232,-0.04384
3.236,-0.01853
3.24,-0.02557
3.244,-0.01575
3.248,-0.03355
3.252,-0.02129
3.256,-0.02807
3.26,-0.03071
3.264,-0.05659
3.268,-0.02171
3.272,-0.03178
3.276,-0.02911
3.28,-0.04311
3.284,0.01019
3.288,-0.0462
3.292,-0.01947
3.296,-0.05558
3.3,-0.04267
3.304,-0.02193
3.308,-0.02938
3.312,-0.03316
3.316,-0.02738
3.32,-0.01543
3.324,-0.05344
3.328,-0.05806
3.332,-0.03406
3.336,-0.03088
3.34,-0.02907
3.344,-0.02048
3.348,-0.02546
3.352,0.00553
3.356,-0.03519
3.36,-0.01225
3.364,-0.05743
3.368,-0.03225
3.372,-0.05467
3.376,-0.0444
3.38,-0.002
3.384,0.00275
3.388,-0.0365
3.392,-0.01892
3.396,-0.00283
3.4,-0.03208
3.404,-0.04086
3.408,-0.01078
3.412,-0.03188
3.416,-0.02727
3.42,-0.04448
3.424,-0.01442
3.428,-0.03877
3.432,-0.02192
3.436,-0.02133
3.44,-0.03878
3.444,-0.05624
3.448,-0.01639
3.452,0.00423
3.456,-0.01115
3.46,-0.03955
3.464,-0.02194
3.468,-0.04528
3.472,-0.03026
3.476,-0.044
3.48,-0.03773
3.484,-0.01548
3.488,-0.02927
3.492,-0.03027
3.496,-0.06236
3.5,-0.03753
3.504,-0.03079
3.508,-0.0323
3.512,-0.01478
3.516,-0.01813
3.52,-0.01121
3.524,-0.03016
3.528,-0.0351
3.532,-0.00177
3.536,-0.0068
3.54,0.01617
3.544,0.02779
3.548,0.04755
3.552,0.04991
3.556,0.06273
3.56,0.04612
3.564,0.06444
3.568,0.08587
3.572,0.07272
3.576,0.05127
3.58,0.04345
3.584,0.01858
3.588,0.03963
3.592,-0.00668
3.596,0.00501
3.6,-0.0097
3.604,0.00446
3.608,-0.02938
3.612,-0.03458
3.616,-0.03209
3.62,-0.02294
3.624,-0.035
3.628,-0.05845
3.632,-0.03183
3.636,-0.03032
3.64,-0.00552
3.644,-0.02374
3.648,-0.05368
3.652,0.00027
3.656,-0.02297
3.66,-0.0161
3.664,-0.02234
3.668,-0.05374
3.672,-0.02803
3.676,-0.01109
3.68,-0.06918
3.684,-0.07451
3.688,-0.10235
3.692,-0.13678
3.696,-0.11964
3.7,-0.04877
3.704,0.09465
3.708,0.26327
3.712,0.47476
3.716,0.69379
3.72,0.86876
3.724,0.96145
3.728,0.96679
3.732,0.81351
3.736,0.59744
3.74,0.37404
3.744,0.16629
3.748,-0.03851
3.752,-0.13793
3.756,-0.18797
3.76,-0.18283
3.764,-0.16146
3.768,-0.09962
3.772,-0.06784
3.776,-0.06799
3.78,-0.06003
3.784,-0.01208
3.788,-0.02182
3.792,-0.05245
3.796,-0.04907
3.8,-0.02352
3.804,-0.04009
3.808,-0.02019
3.812,-0.00492
3.816,-0.03227
3.82,-0.04354
3.824,-0.01562
3.828,-0.03218
3.832,-0.05377
3.836,-0.02888
3.84,-0.06193
3.844,-0.0181
3.848,-0.02612
3.852,0.00357
3.856,-0.01358
3.86,-0.02343
3.864,-0.02171
3.868,-0.0093
3.872,-0.00921
3.876,-0.01677
3.88,-0.0055
3.884,-0.03236
3.888,-0.02892
3.892,-0.05849
3.896,-0.00451
3.9,-0.01788
3.904,-0.02794
3.908,-0.01903
3.912,0.00232
3.916,0.0085
3.92,0.01588
3.924,0.01599
3.928,0.03377
3.932,0.01513
3.936,0.02201
3.94,0.03669
3.944,0.03504
3.948,0.05705
3.952,0.05978
3.956,0.10134
3.96,0.13915
3.964,0.13693
3.968,0.1092
3.972,0.13751
3.976,0.14191
3.98,0.16041
3.984,0.18165
3.988,0.17881
3.992,0.19576
3.996,0.15641
4.0,0.17747
4.004,0.17967
4.008,0.16829
4.012,0.16947
4.016,0.17621
4.02,0.18641
4.024,0.17827
4.028,0.15441
4.032,0.16488
4.036,0.15164
4.04,0.10312
4.044,0.10672
4.048,0.08519
4.052,0.09042
4.056,0.08722
4.06,0.07312
4.064,0.05963
4.068,0.067
4.072,0.03379
4.076,0.03397
4.08,0.04285
4.084,0.02397
4.088,-0.00104
4.092,0.01344
4.096,0.00633
4.1,0.00569
4.104,-0.01205
4.108,-0.02885
4.112,-0.01303
4.116,-0.01162
4.12,-0.02114
4.124,-0.04695
4.128,-0.03182
4.132,-0.01379
4.136,-0.02489
4.14,-0.02624
4.144,-0.03779
4.148,-0.04414
4.152,-0.02689
4.156,-0.01037
4.16,-0.00542
4.164,-0.04396
4.168,-0.00538
4.172,-0.01603
4.176,-0.06586
4.18,-0.03567
4.184,-0.02828
4.188,-0.02269
4.192,0.00242
4.196,-0.00999
4.2,-0.04073
4.204,-0.0325
4.208,-0.04543
4.212,-0.05677
4.216,-0.01305
4.22,-0.02732
4.224,-0.00698
4.228,-0.03473
4.232,-0.0188
4.236,-0.01564
4.24,-0.02868
4.244,-0.02727
4.248,-0.03005
4.252,-0.04916
4.256,-0.027
4.26,-0.01555
4.264,-0.05422
4.268,-0.05307
4.272,-0.01608
4.276,-0.03444
4.28,-0.01137
4.284,-0.03472
4.288,-0.00102
4.292,-0.01846
4.296,-0.03431
4.3,-0.05379
4.304,-0.03563
4.308,-0.0163
4.312,-0.00513
4.316,-0.02552
4.32,-0.03819
4.324,-0.04417
4.328,-0.01813
4.332,-0.00118
4.336,-0.00464
4.34,-0.00475
4.344,-0.00987
4.348,0.01068
4.352,-0.02402
4.356,0.00354
4.36,0.04022
4.364,0.06446
4.368,0.04858
4.372,0.0583
4.376,0.07139
4.38,0.07561
4.384,0.08702
4.388,0.08061
4.392,0.06475
4.396,0.0537
4.4,0.0636
4.404,0.01608
4.408,0.02512
4.412,0.01138
4.416,0.01062
4.42,-0.00818
4.424,-0.00784
4.428,-0.01531
4.432,-0.00295
4.436,-0.02982
4.44,-0.0376
4.444,-0.01186
4.448,-0.01074
4.452,-0.04999
4.456,-0.04483
4.46,-0.01731
4.464,-0.02668
4.468,-0.0105
4.472,-0.04935
4.476,-0.02984
4.48,-0.02125
4.484,-0.03134
4.488,-0.00501
4.492,-0.0498
4.496,-0.05735
4.5,-0.05639
4.504,-0.14509
4.508,-0.1427
4.512,-0.13041
4.516,-0.06575
4.52,0.07397
4.524,0.26191
4.528,0.43852
4.532,0.68415
4.536,0.8611
4.54,0.9461
4.544,0.94814
4.548,0.85243
4.552,0.64687
4.556,0.40512
4.56,0.2082
4.564,0.03335
4.568,-0.12734
4.572,-0.19184
4.576,-0.1962
4.58,-0.16478
4.584,-0.11846
4.588,-0.05799
4.592,-0.03608
4.596,-0.04158
4.6,-0.02131
4.604,-0.03463
4.608,-0.01284
4.612,-0.0457
4.616,-0.03869
4.62,-0.02551
4.624,-0.04523
4.628,0.00834
4.632,-0.02122
4.636,-0.03385
4.64,-0.01285
4.644,-0.0255
4.648,-0.02674
4.652,0.00277
4.656,-0.01326
4.66,-0.01667
4.664,-0.02979
4.668,-0.0242
4.672,-0.0152
4.676,-0.01295
4.68,-0.01102
4.684,-0.01296
4.688,0.00212
4.692,-0.03878
4.696,0.00295
4.7,0.00151
4.704,0.00921
4.708,-0.00687
4.712,0.00454
4.716,-0.00114
4.72,0.02239
4.724,-0.01115
4.728,0.00261
4.732,-0.00667
4.736,0.01677
4.74,0.04717
4.744,0.02296
4.748,0.0404
4.752,0.05642
4.756,0.07344
4.76,0.04208
4.764,0.05529
4.768,0.06844
4.772,0.11464
4.776,0.09645
4.78,0.13208
4.784,0.15306
4.788,0.12767
4.792,0.16052
4.796,0.16191
4.8,0.1746
4.804,0.19433
4.808,0.19428
4.812,0.19932
4.816,0.16988
4.82,0.19768
4.824,0.1893
4.828,0.17425
4.832,0.19071
4.836,0.17145
4.84,0.18362
4.844,0.16285
4.848,0.1818
4.852,0.16956
4.856,0.14533
4.86,0.12526
4.864,0.14388
4.868,0.09216
4.872,0.11305
4.876,0.08061
4.88,0.06713
4.884,0.0648
4.888,0.06123
4.892,0.04217
4.896,0.07044
4.9,0.04973
4.904,0.037
4.908,0.03102
4.912,0.00544
4.916,0.01753
4.92,0.01556
4.924,-0.0049
4.928,0.00376
4.932,-0.02253
4.936,-0.00124
4.94,-0.01839
4.944,-0.01371
4.948,-0.03181
4.952,-0.00922
4.956,-0.00026
4.96,-0.00836
4.964,-0.01762
4.968,-0.01176
4.972,-0.02575
4.976,-0.02675
4.98,-0.01479
4.984,-0.04176
4.988,-0.01587
4.992,-0.03105
4.996,-0.02643
5.0,-0.00994
5.004,0.0039
5.008,-0.02841
5.012,-0.02016
5.016,-0.00028
5.02,-0.01184
5.024,0.0168
5.028,-0.02459
5.032,-0.04175
5.036,-0.00317
5.04,-0.02839
5.044,-0.01899
5.048,-0.03465
5.052,-0.01581
5.056,-0.01658
5.06,-0.02303
5.064,-0.03419
5.068,-0.02438
5.072,-0.02186
5.076,0.01499
5.08,-0.00685
5.084,-0.0089
5.088,-0.0018
5.092,-0.00092
5.096,-0.02094
5.1,-0.00108
5.104,-0.03803
5.108,0.01079
5.112,0.01458
5.116,0.00992
5.12,-0.01555
5.124,0.01209
5.128,-0.01521
5.132,-0.01596
5.136,-0.04726
5.14,-0.02414
5.144,-0.00652
5.148,0.00297
5.152,-0.00173
5.156,0.00898
5.16,-0.00231
5.164,-0.02026
5.168,-0.03349
5.172,-0.01451
5.176,-0.00975
5.18,0.00823
5.184,-0.00209
5.188,0.0308
5.192,-0.02125
5.196,-0.02178
5.2,-0.01205
5.204,-0.03827
5.208,0.00447
5.212,-0.01045
5.216,0.00467
5.22,-0.00518
5.224,-0.01357
5.228,-0.0169
5.232,0.02334
5.236,-0.01192
5.24,-0.00574
5.244,-0.00756
5.248,-0.01233
5.252,0.00237
5.256,0.00308
5.26,-0.03127
5.264,0.00988
5.268,-0.00927
5.272,-0.00365
5.276,-0.0135
5.28,0.00052
5.284,0.00749
5.288,-0.00568
5.292,-0.01929
5.296,-0.01008
5.3,-0.00385
5.304,-0.03676
5.308,-0.02318
5.312,-0.00917
5.316,-0.02759
5.32,-0.05103
5.324,-0.01287
5.328,-0.01513
5.332,0.00257
5.336,-0.01199
5.34,-0.00596
5.344,-0.05043
5.348,-0.01434
5.352,-0.00513
5.356,0.01338
5.36,0.01251
5.364,-0.01175
5.368,-0.00981
5.372,0.00201
5.376,0.00357
5.38,0.00477
5.384,0.01506
5.388,-0.01793
5.392,0.00399
5.396,0.01939
5.4,0.00255
5.404,-0.00094
5.408,-0.00489
5.412,-0.00711
5.416,0.00801
5.42,-0.00085
5.424,0.00197
5.428,0.00665
5.432,0.01121
5.436,-0.01019
5.44,0.01298
5.444,-0.00676
5.448,-0.00342
5.452,-0.01654
5.456,0.00851
5.46,0.00968
5.464,-0.04103
5.468,-0.00968
5.472,-0.02378
5.476,0.00438
5.48,-0.00667
5.484,0.01841
5.488,0.00136
5.492,-0.02903
5.496,-0.00841
5.5,-0.01496
5.504,0.02272
5.508,0.00038
5.512,-0.0012
5.516,0.03194
5.52,0.03471
5.524,0.0384
5.528,0.05241
5.532,0.05494
5.536,0.07534
5.54,0.07213
5.544,0.09278
5.548,0.10749
5.552,0.08686
5.556,0.06299
5.56,0.10676
5.564,0.06688
5.568,0.08028
5.572,0.0456
5.576,0.05113
5.58,0.02832
5.584,0.01774
5.588,0.00747
5.592,0.02737
5.596,0.02367
5.6,0.02348
5.604,0.01184
5.608,0.00125
5.612,-0.02304
5.616,-0.00931
5.62,0.00813
5.624,-0.00608
5.628,-0.00933
5.632,0.01062
5.636,-0.00282
5.64,0.00994
5.644,0.00232
5.648,-0.01299
5.652,-0.00058
5.656,-0.00795
5.66,-0.00664
5.664,-0.00752
5.668,-0.02591
5.672,-0.06883
5.676,-0.11723
5.68,-0.08783
5.684,-0.04051
5.688,0.06454
5.692,0.23677
5.696,0.43168
5.7,0.6593
5.704,0.84935
5.708,0.97693
5.712,0.99087
5.716,0.8919
5.72,0.72542
5.724,0.5105
5.728,0.2681
5.732,0.08091
5.736,-0.06462
5.74,-0.12535
5.744,-0.15863
5.748,-0.12099
5.752,-0.08585
5.756,-0.02982
5.76,-0.02177
5.764,-0.03504
5.768,-0.00539
5.772,-0.00768
5.776,0.01
5.78,0.01348
5.784,-0.00882
5.788,-0.00591
5.792,-0.0089
5.796,0.02178
5.8,-0.00712
5.804,0.00444
5.808,0.01794
5.812,0.01716
5.816,0.01902
5.82,-0.00501
5.824,0.0048
5.828,0.01859
5.832,0.00956
5.836,0.03266
5.84,0.02746
5.844,0.03816
5.848,0.01016
5.852,-0.01415
5.856,-0.00618
5.86,0.00116
5.864,0.02435
5.868,0.01956
5.872,0.0233
5.876,0.0191
5.88,0.03019
5.884,0.03052
5.888,0.03696
5.892,0.02011
5.896,0.04971
5.9,0.02471
5.904,0.02712
5.908,0.0579
5.912,0.08964
5.916,0.02953
5.92,0.07026
5.924,0.08605
5.928,0.10119
5.932,0.13634
5.936,0.10389
5.94,0.12287
5.944,0.14232
5.948,0.14218
5.952,0.175
5.956,0.15165
5.96,0.19906
5.964,0.19597
5.968,0.21986
5.972,0.17513
5.976,0.22642
5.98,0.24033
5.984,0.23116
5.988,0.25141
5.992,0.23386
5.996,0.25144
6.0,0.22796
6.004,0.22598
6.008,0.21549
6.012,0.21674
6.016,0.24721
6.02,0.18076
6.024,0.16423
6.028,0.17875
6.032,0.14988
6.036,0.11531
6.04,0.1237
6.044,0.11754
6.048,0.10946
6.052,0.1129
6.056,0.0871
6.06,0.1221
6.064,0.0711
6.068,0.07929
6.072,0.03648
6.076,0.03233
6.08,0.04517
6.084,0.03443
6.088,0.01221
6.092,0.03231
6.096,0.02152
6.1,0.02508
6.104,0.03196
6.108,0.02257
6.112,0.01315
6.116,0.01903
6.12,0.03921
6.124,0.02492
6.128,0.0345
6.132,0.01436
6.136,0.02865
6.14,0.02863
6.144,0.00609
6.148,-0.00485
6.152,0.02569
6.156,-0.01567
6.16,0.01089
6.164,0.01453
6.168,0.00478
6.172,0.02708
6.176,0.0157
6.18,0.04021
6.184,0.0393
6.188,0.02843
6.192,0.01809
6.196,0.02187
6.2,0.01944
6.204,0.04136
6.208,0.03904
6.212,-0.00953
6.216,0.02734
6.22,0.0164
6.224,-0.00847
6.228,0.0285
6.232,0.05158
6.236,0.01454
6.24,0.03838
6.244,0.00588
6.248,0.0256
6.252,0.01317
6.256,-0.0016
6.26,0.01599
6.264,0.03727
6.268,-0.0057
6.272,0.01395
6.276,0.03808
6.28,0.01133
6.284,0.03699
6.288,0.0102
6.292,0.0129
6.296,0.02373
6.3,0.00163
6.304,0.01058
6.308,0.03455
6.312,0.01443
6.316,0.0203
6.32,0.03412
6.324,0.01986
6.328,0.05175
6.332,0.02569
6.336,0.04971
6.34,0.02495
6.344,0.00629
6.348,0.0186
6.352,0.04619
6.356,0.02557
6.36,0.01333
6.364,0.02971
6.368,0.03428
6.372,0.02212
6.376,0.01863
6.38,0.0138
6.384,0.02474
6.388,0.03366
6.392,-0.00778
6.396,0.01931
6.4,0.01441
6.404,0.00169
6.408,0.05041
6.412,0.02712
6.416,0.03573
6.42,0.02542
6.424,0.01506
6.428,-0.00631
6.432,0.02895
6.436,-0.00483
6.44,0.02347
6.444,0.00563
6.448,0.0
6.452,0.01963
6.456,0.00558
6.46,0.0244
6.464,0.02698
6.468,0.0246
6.472,0.03101
6.476,0.04009
6.48,0.03165
6.484,0.01981
6.488,0.03559
6.492,0.02472
6.496,0.03124
6.5,0.02731
6.504,-0.00645
6.508,0.01018
6.512,0.04664
6.516,0.03176
6.52,0.01864
6.524,0.03025
6.528,0.03524
6.532,0.01136
6.536,0.06456
6.54,0.04835
6.544,0.04387
6.548,0.08825
6.552,0.09491
6.556,0.11591
6.56,0.10446
6.564,0.08957
6.568,0.10675
6.572,0.12324
6.576,0.11965
6.58,0.12028
6.584,0.10352
6.588,0.12361
6.592,0.11736
6.596,0.08625
6.6,0.06705
6.604,0.05609
6.608,0.03418
6.612,0.04521
6.616,0.05451
6.62,0.02306
6.624,0.00589
6.628,-0.00974
6.632,0.02261
6.636,0.03022
6.64,0.03764
6.644,0.04263
6.648,0.01697
6.652,0.03243
6.656,0.03409
6.66,0.02569
6.664,0.01721
6.668,0.01452
6.672,0.03452
6.676,0.02931
6.68,0.02217
6.684,0.01773
6.688,-0.01351
6.692,-0.01496
6.696,-0.08874
6.7,-0.09564
6.704,-0.05722
6.708,0.02814
6.712,0.17981
6.716,0.38409
6.72,0.61541
6.724,0.79353
6.728,0.95878
6.732,1.03423
6.736,0.97906
6.74,0.80185
6.744,0.58491
6.748,0.40562
6.752,0.16567
6.756,0.003
6.76,-0.11643
6.764,-0.13601
6.768,-0.12574
6.772,-0.09384
6.776,-0.05248
6.78,-0.01922
6.784,0.02229
6.788,-0.00216
6.792,0.00986
6.796,0.02447
6.8,0.01444
6.804,0.04287
6.808,0.03981
6.812,0.05078
6.816,0.03762
6.82,0.02355
6.824,0.01677
6.828,0.03579
6.832,0.03772
6.836,0.00493
6.84,0.01355
6.844,0.04363
6.848,-0.00036
6.852,0.01374
6.856,0.02081
6.86,0.02993
6.864,0.0237
6.868,0.02259
6.872,0.01237
6.876,0.04458
6.88,0.02296
6.884,0.03963
6.888,0.04495
6.892,0.03245
6.896,0.03644
6.9,0.02071
6.904,0.02152
6.908,0.06
6.912,0.04407
6.916,0.04503
6.92,0.06272
6.924,0.04553
6.928,0.08176
6.932,0.10895
6.936,0.09792
6.94,0.09384
6.944,0.08276
6.948,0.0996
6.952,0.09925
6.956,0.10382
6.96,0.13338
6.964,0.1908
6.968,0.16834
6.972,0.16549
6.976,0.19468
6.98,0.23776
6.984,0.22963
6.988,0.20976
6.992,0.24456
6.996,0.24038
7.0,0.23867
7.004,0.26054
7.008,0.24984
7.012,0.24715
7.016,0.24974
7.02,0.25269
7.024,0.25974
7.028,0.2546
7.032,0.20315
7.036,0.22306
7.04,0.18644
7.044,0.19261
7.048,0.17922
7.052,0.15606
7.056,0.14513
7.06,0.15849
7.064,0.15711
7.068,0.1708
7.072,0.12534
7.076,0.10045
7.08,0.11623
7.084,0.12501
7.088,0.07253
7.092,0.03128
7.096,0.08946
7.1,0.05301
7.104,0.04367
7.108,0.04588
7.112,0.06046
7.116,0.04883
7.12,0.02489
7.124,0.02689
7.128,0.05469
7.132,0.03846
7.136,0.0416
7.14,0.04537
7.144,0.04355
7.148,0.01756
7.152,0.03647
7.156,0.04485
7.16,0.03811
7.164,0.04003
7.168,0.05132
7.172,0.03932
7.176,0.06741
7.18,0.04225
7.184,0.02953
7.188,0.0612
7.192,0.05372
7.196,0.0224
7.2,0.03422
7.204,0.03232
7.208,0.03643
7.212,0.05166
7.216,0.02784
7.22,0.05001
7.224,0.01705
7.228,0.04768
7.232,0.04877
7.236,0.03109
7.24,0.04418
7.244,0.04265
7.248,0.03171
7.252,0.03096
7.256,0.06002
7.26,0.01649
7.264,0.02104
7.268,0.01153
7.272,0.0513
7.276,0.00853
7.28,0.03499
7.284,0.00291
7.288,0.02338
7.292,0.03438
7.296,0.03588
7.3,0.00472
7.304,0.01532
7.308,0.0361
7.312,0.01832
7.316,0.03449
7.32,0.0186
7.324,0.02077
7.328,0.02991
7.332,0.05633
7.336,0.0415
7.34,0.05258
7.344,0.02558
7.348,0.06174
7.352,0.01815
7.356,0.04732
7.36,0.04187
7.364,0.05748
7.368,0.06727
7.372,0.06359
7.376,0.07769
7.38,0.08685
7.384,0.1232
7.388,0.1314
7.392,0.10861
7.396,0.09478
7.4,0.12486
7.404,0.11199
7.408,0.14017
7.412,0.07345
7.416,0.10135
7.42,0.07146
7.424,0.10678
7.428,0.05328
7.432,0.06422
7.436,0.0432
7.44,0.02198
7.444,0.04072
7.448,0.03692
7.452,0.01867
7.456,0.05373
7.46,0.03253
7.464,0.0279
7.468,0.02519
7.472,0.02897
7.476,0.05043
7.48,0.01257
7.484,0.03572
7.488,0.01281
7.492,0.04272
7.496,0.01785
7.5,0.03479
7.504,0.04153
7.508,0.03383
7.512,0.04301
7.516,-0.01522
7.52,-0.03852
7.524,-0.08116
7.528,-0.0706
7.532,-0.05254
7.536,0.05887
7.54,0.19911
7.544,0.36977
7.548,0.61201
7.552,0.80842
7.556,0.95844
7.56,1.01421
7.564,0.98102
7.568,0.83251
7.572,0.62044
7.576,0.36135
7.58,0.16014
7.584,0.04333
7.588,-0.08489
7.592,-0.13307
7.596,-0.14944
7.6,-0.09859
7.604,-0.03889
7.608,-0.03738
7.612,0.02954
7.616,0.02755
7.62,0.02317
7.624,0.02121
7.628,0.03752
7.632,0.02463
7.636,0.03974
7.64,0.04158
7.644,0.02725
7.648,0.02134
7.652,0.02306
7.656,0.04774
7.66,0.0281
7.664,0.02146
7.668,0.02538
7.672,0.02023
7.676,0.01691
7.68,0.04637
7.684,0.00408
7.688,0.01756
7.692,0.01731
7.696,0.04903
7.7,0.00292
7.704,0.03952
7.708,0.01702
7.712,0.01352
7.716,0.05898
7.72,0.04201
7.724,0.06621
7.728,0.0356
7.732,0.05336
7.736,0.03429
7.74,0.06877
7.744,0.03039
7.748,0.05696
7.752,0.08468
7.756,0.06133
7.76,0.07296
7.764,0.07446
7.768,0.08087
7.772,0.10936
7.776,0.1133
7.78,0.1417
7.784,0.15223
7.788,0.11976
7.792,0.14482
7.796,0.13471
7.8,0.19139
7.804,0.19229
7.808,0.20063
7.812,0.19829
7.816,0.20391
7.82,0.21659
7.824,0.24361
7.828,0.24639
7.832,0.22036
7.836,0.24059
7.84,0.2511
7.844,0.24182
7.848,0.23275
7.852,0.24203
7.856,0.23911
7.86,0.22998
7.864,0.21049
7.868,0.1947
7.872,0.18816
7.876,0.1773
7.88,0.19311
7.884,0.15581
7.888,0.16941
7.892,0.1641
7.896,0.1142
7.9,0.10605
7.904,0.10457
7.908,0.08396
7.912,0.1107
7.916,0.07415
7.92,0.06083
7.924,0.06366
7.928,0.07547
7.932,0.07237
7.936,0.05173
7.94,0.03318
7.944,0.05844
7.948,0.02453
7.952,0.07279
7.956,0.02848
7.96,0.02968
7.964,0.0405
7.968,0.0337
7.972,0.00956
7.976,0.04037
7.98,0.03439
7.984,0.01301
7.988,0.04767
7.992,0.01252
7.996,0.03139
8.0,0.03958
8.004,0.02073
8.008,0.00925
8.012,0.01912
8.016,0.01138
8.02,0.0234
8.024,0.03266
8.028,0.01526
8.032,0.01199
8.036,0.01705
8.04,0.01661
8.044,0.04678
8.048,0.01541
8.052,0.00272
8.056,0.03772
8.06,0.01633
8.064,0.01859
8.068,0.00361
8.072,0.02912
8.076,0.0362
8.08,0.03104
8.084,0.01032
8.088,0.01335
8.092,0.03558
8.096,0.01267
8.1,0.03493
8.104,0.01842
8.108,0.02231
8.112,0.02891
8.116,0.00771
8.12,0.01275
8.124,-0.00048
8.128,0.01207
8.132,-0.00382
8.136,0.00851
8.14,0.02022
8.144,0.04801
8.148,-0.0061
8.152,0.01247
8.156,0.02484
8.16,0.0217
8.164,0.05443
8.168,0.04061
8.172,0.04449
8.176,0.03125
8.18,0.0128
8.184,0.03434
8.188,0.03372
8.192,0.02555
8.196,0.05957
8.2,0.06035
8.204,0.07154
8.208,0.12033
8.212,0.11333
8.216,0.09892
8.22,0.11185
8.224,0.09739
8.228,0.07578
8.232,0.0838
8.236,0.11373
8.24,0.07199
8.244,0.09525
8.248,0.05393
8.252,0.06857
8.256,0.02186
8.26,0.07421
8.264,0.0138
8.268,0.03551
8.272,0.04585
8.276,0.01454
8.28,0.02753
8.284,-0.01494
8.288,-0.00911
8.292,0.0035
8.296,0.02382
8.3,0.00477
8.304,0.0369
8.308,0.00225
8.312,0.03258
8.316,0.01366
8.32,0.02428
8.324,0.00442
8.328,-0.00607
8.332,0.02761
8.336,0.00858
8.34,-0.01257
8.344,-0.03579
8.348,-0.0846
8.352,-0.10554
8.356,-0.09703
8.36,-0.02433
8.364,0.11506
8.368,0.32162
8.372,0.55961
8.376,0.75312
8.38,0.91466
8.384,1.01268
8.388,0.99168
8.392,0.83867
8.396,0.66215
8.4,0.41334
8.404,0.22229
8.408,0.00023
8.412,-0.10609
8.416,-0.14467
8.42,-0.1274
8.424,-0.11486
8.428,-0.06202
8.432,-0.05583
8.436,-0.03156
8.44,-0.01667
8.444,-0.00398
8.448,0.05345
8.452,0.03018
8.456,0.00967
8.46,0.03425
8.464,0.01607
8.468,-0.01109
8.472,0.02026
8.476,-0.00634
8.48,0.00454
8.484,0.01775
8.488,0.0154
8.492,0.02376
8.496,0.00851
8.5,0.00362
8.504,0.01083
8.508,-0.00904
8.512,0.01254
8.516,0.02851
8.52,0.01512
8.524,0.04268
8.528,0.00098
8.532,0.00158
8.536,0.01322
8.54,0.02574
8.544,0.01321
8.548,0.00111
8.552,0.03306
8.556,0.02089
8.56,0.02617
8.564,0.03662
8.568,0.01639
8.572,0.06399
8.576,0.02885
8.58,0.01586
8.584,0.02911
8.588,0.04313
8.592,0.0867
8.596,0.06573
8.6,0.07622
8.604,0.07971
8.608,0.09903
8.612,0.11092
8.616,0.12342
8.62,0.15124
8.624,0.15937
8.628,0.1346
8.632,0.18532
8.636,0.19786
8.64,0.19037
8.644,0.19433
8.648,0.21276
8.652,0.23475
8.656,0.22955
8.66,0.2149
8.664,0.25336
8.668,0.23868
8.672,0.22875
8.676,0.21387
8.68,0.20435
8.684,0.2095
8.688,0.21478
8.692,0.19742
8.696,0.16212
8.7,0.1718
8.704,0.15219
8.708,0.16465
8.712,0.12823
8.716,0.13478
8.72,0.09631
8.724,0.10801
8.728,0.1069
8.732,0.08018
8.736,0.0699
8.74,0.06073
8.744,0.04118
8.748,0.05468
8.752,0.03608
8.756,0.02032
8.76,0.02281
8.764,0.03471
8.768,0.03008
8.772,0.01586
8.776,0.02255
8.78,0.02649
8.784,-0.00193
8.788,0.00057
8.792,0.004
8.796,0.0054
8.8,0.00543
8.804,0.00173
8.808,0.01769
8.812,0.00835
8.816,0.00114
8.82,-0.00033
8.824,-0.00764
8.828,-0.00388
8.832,-0.01062
8.836,-0.01077
8.84,-0.01614
8.844,0.02356
8.848,0.03605
8.852,-0.00476
8.856,0.00557
8.86,-0.00178
8.864,0.00033
8.868,0.0027
8.872,-0.00629
8.876,-0.00967
8.88,-0.0092
8.884,-0.03108
8.888,0.01087
8.892,0.02154
8.896,-0.02312
8.9,0.02141
8.904,0.0353
8.908,-0.01865
8.912,-0.01095
8.916,0.02417
8.92,0.02196
8.924,-0.01507
8.928,-0.00732
8.932,0.03302
8.936,-0.01035
8.94,0.00181
8.944,0.02063
8.948,0.03386
8.952,-0.00527
8.956,-0.03914
8.96,0.02075
8.964,-0.00596
8.968,-0.00517
8.972,0.01154
8.976,-0.01164
8.98,0.00755
8.984,0.01441
8.988,0.01087
8.992,0.02096
8.996,0.00176
9.0,0.01119
9.004,-0.0287
9.008,0.02468
9.012,0.01217
9.016,0.01248
9.02,-0.02701
9.024,-0.00828
9.028,0.02774
9.032,0.01954
9.036,-0.00563
9.04,-0.00991
9.044,-0.00713
9.048,-0.00542
9.052,-0.02774
9.056,0.00428
9.06,-0.00544
9.064,0.00122
9.068,-0.01617
9.072,-0.02288
9.076,0.00252
9.08,-0.01143
9.084,-0.00328
9.088,0.0184
9.092,-0.0026
9.096,-0.00778
9.1,0.00781
9.104,0.01781
9.108,0.02105
9.112,0.03601
9.116,0.05562
9.12,0.07434
9.124,0.08651
9.128,0.10759
9.132,0.09208
9.136,0.06738
9.14,0.09638
9.144,0.07997
9.148,0.05933
9.152,0.06088
9.156,0.04953
9.16,0.03862
9.164,0.02763
9.168,0.00969
9.172,0.017
9.176,0.0155
9.18,-0.00903
9.184,0.00175
9.188,0.02714
9.192,-0.02029
9.196,-0.02141
9.2,-0.00464
9.204,-0.02073
9.208,-0.0277
9.212,-0.01055
9.216,-0.01157
9.22,0.02469
9.224,-0.01202
9.228,-0.01396
9.232,-0.01866
9.236,-0.00515
9.24,-0.04333
9.244,-0.01217
9.248,-0.02348
9.252,-0.0441
9.256,-0.0844
9.26,-0.1298
9.264,-0.10236
9.268,-0.06064
9.272,0.07619
9.276,0.23146
9.28,0.46429
9.284,0.66837
9.288,0.82238
9.292,0.97017
9.296,0.96059
9.3,0.91005
9.304,0.69403
9.308,0.47778
9.312,0.2555
9.316,0.05649
9.32,-0.09914
9.324,-0.15696
9.328,-0.21834
9.332,-0.14982
9.336,-0.12038
9.34,-0.07916
9.344,-0.06729
9.348,-0.00425
9.352,-0.01243
9.356,-0.01385
9.36,-0.03104
9.364,-0.0041
9.368,-0.02144
9.372,-0.04204
9.376,-0.0045
9.38,-0.02808
9.384,0.00223
9.388,-0.0219
9.392,-0.01151
9.396,-0.02412
9.4,-0.00907
9.404,-0.01612
9.408,-0.01261
9.412,-0.00324
9.416,-0.03046
9.42,-0.01602
9.424,-0.01207
9.428,0.00643
9.432,-0.00845
9.436,-0.0099
9.44,-0.0121
9.444,-0.01161
9.448,-0.02341
9.452,-0.02508
9.456,-0.01684
9.46,-0.02793
9.464,-0.00756
9.468,-0.04419
9.472,0.0281
9.476,-0.01268
9.48,0.01833
9.484,0.02374
9.488,0.01477
9.492,0.03873
9.496,0.02658
9.5,0.02693
9.504,0.0549
9.508,0.07856
9.512,0.0689
9.516,0.07772
9.52,0.10831
9.524,0.09473
9.528,0.11675
9.532,0.11247
9.536,0.11052
9.54,0.14156
9.544,0.16731
9.548,0.18025
9.552,0.18195
9.556,0.20901
9.56,0.1806
9.564,0.18849
9.568,0.20877
9.572,0.20809
9.576,0.21285
9.58,0.17588
9.584,0.18096
9.588,0.19783
9.592,0.19906
9.596,0.16147
9.6,0.18539
9.604,0.1532
9.608,0.14988
9.612,0.13095
9.616,0.12134
9.62,0.11206
9.624,0.10036
9.628,0.06533
9.632,0.11063
9.636,0.06752
9.64,0.06876
9.644,0.03635
9.648,0.0139
9.652,0.0602
9.656,0.01025
9.66,0.00783
9.664,0.00585
9.668,-0.01028
9.672,0.00133
9.676,0.00756
9.68,-0.00489
9.684,0.01765
9.688,-0.01453
9.692,-0.02659
9.696,-0.0118
9.7,-0.02588
9.704,4e-05
9.708,-0.01533
9.712,0.00608
9.716,0.00068
9.72,-1e-05
9.724,-0.04874
9.728,-0.03432
9.732,-0.0148
9.736,-0.02594
9.74,-0.00455
9.744,-0.00349
9.748,-0.00506
9.752,-0.00244
9.756,-0.03041
9.76,-0.03261
9.764,-0.03328
9.768,-0.03241
9.772,-0.01232
9.776,-0.05
9.78,-0.01139
9.784,-0.00213
9.788,-0.0498
9.792,-0.02507
9.796,-0.00048
9.8,-0.01039
9.804,-0.01863
9.808,-0.01891
9.812,-0.03407
9.816,-0.04127
9.82,-0.0266
9.824,-0.00556
9.828,-0.03414
9.832,-0.04554
9.836,-0.03308
9.84,-0.03298
9.844,-0.03409
9.848,-0.01323
9.852,-0.02229
9.856,-0.0358
9.86,-0.03159
9.864,-0.03466
9.868,-0.0027
9.872,-0.02246
9.876,-0.01519
9.88,-0.00399
9.884,-0.00179
9.888,-0.04773
9.892,-0.0168
9.896,-0.056
9.9,-0.01436
9.904,-0.03193
9.908,-0.02169
9.912,-0.02296
9.916,-0.0313
9.92,-0.01559
9.924,-0.01427
9.928,-0.00447
9.932,-0.0192
9.936,-0.02659
9.94,-0.03068
9.944,-0.02596
9.948,-0.01886
9.952,-0.02598
9.956,-0.00093
9.96,-0.03815
9.964,-0.0269
9.968,-0.02357
9.972,-0.05794
9.976,-0.06007
9.98,-0.03984
9.984,-0.02719
9.988,-0.02453
9.992,-0.02898
9.996,-0.02916
