t_seg,ecg_mV
0.0,-0.00907
0.004,-0.03837
0.008,0.00409
0.012,0.00886
0.016,0.01674
0.02,0.03408
0.024,0.01237
0.028,0.0663
0.032,0.05882
0.036,0.05266
0.04,0.06798
0.044,0.05882
0.048,0.04725
0.052,0.02881
0.056,0.06188
0.06,0.04503
0.064,0.00951
0.068,0.01594
0.072,0.00708
0.076,0.01095
0.08,-0.02596
0.084,-0.02361
0.088,-0.01451
0.092,-0.02988
0.096,-0.07221
0.1,-0.0384
0.104,-0.04942
0.108,-0.02908
0.112,-0.03237
0.116,-0.06221
0.12,-0.01909
0.124,-0.0445
0.128,0.02768
0.132,-0.01274
0.136,-0.04338
0.14,-0.03828
0.144,-0.02109
0.148,-0.01635
0.152,-0.05018
0.156,-0.06263
0.16,-0.0767
0.164,-0.12172
0.168,-0.16474
0.172,-0.15799
0.176,-0.04849
0.18,0.12005
0.184,0.31452
0.188,0.54265
0.192,0.73748
0.196,0.89198
0.2,0.95222
0.204,0.96968
0.208,0.80543
0.212,0.583
0.216,0.33641
0.22,0.11753
0.224,-0.0521
0.228,-0.14801
0.232,-0.2046
0.236,-0.18382
0.24,-0.15592
0.244,-0.10189
0.248,-0.07033
0.252,-0.06072
0.256,-0.04235
0.26,-0.03697
0.264,-0.04518
0.268,-0.02078
0.272,-0.05855
0.276,-0.02553
0.28,-0.02705
0.284,-0.03403
0.288,-0.02748
0.292,-0.06121
0.296,-0.03396
0.3,-0.03261
0.304,-0.05071
0.308,-0.05243
0.312,-0.04188
0.316,-0.03737
0.32,-0.0207
0.324,-0.02819
0.328,-0.02865
0.332,-0.03695
0.336,-0.04021
0.34,-0.02838
0.344,-0.02893
0.348,-0.02
0.352,0.00021
0.356,-0.02705
0.36,-0.03744
0.364,-0.04716
0.368,-0.02519
0.372,0.00717
0.376,-0.01398
0.38,-0.02085
0.384,-0.0042
0.388,0.00105
0.392,-0.02631
0.396,0.01799
0.4,0.01026
0.404,0.02891
0.408,0.03193
0.412,0.05837
0.416,0.08443
0.42,0.06449
0.424,0.08976
0.428,0.09665
0.432,0.11956
0.436,0.10726
0.44,0.12559
0.444,0.15653
0.448,0.12473
0.452,0.17232
0.456,0.16168
0.46,0.19077
0.464,0.16267
0.468,0.17827
0.472,0.18579
0.476,0.20501
0.48,0.21149
0.484,0.20622
0.488,0.19815
0.492,0.17208
0.496,0.16903
0.5,0.17589
0.504,0.18535
0.508,0.17179
0.512,0.16097
0.516,0.1603
0.52,0.12728
0.524,0.11292
0.528,0.09298
0.532,0.09903
0.536,0.08843
0.54,0.09335
0.544,0.07602
0.548,0.03875
0.552,0.05287
0.556,0.00467
0.56,0.00976
0.564,-0.00572
0.568,0.03164
0.572,0.00034
0.576,-0.00028
0.58,0.01329
0.584,0.00123
0.588,-0.03256
0.592,-0.00194
0.596,0.01335
0.6,-0.03222
0.604,-0.03067
0.608,-0.02629
0.612,-0.02461
0.616,-0.02294
0.62,-0.00058
0.624,-0.03001
0.628,-0.02904
0.632,-0.04185
0.636,-0.0094
0.64,-0.01716
0.644,-0.02744
0.648,-0.03418
0.652,-0.033
0.656,-0.03135
0.66,-0.01595
0.664,-0.03433
0.668,-0.038
0.672,-0.00599
0.676,-0.00349
0.68,0.01949
0.684,-0.0093
0.688,0.02868
0.692,0.05065
0.696,0.03335
0.7,0.0493
0.704,0.06939
0.708,0.08726
0.712,0.06594
0.716,0.07442
0.72,0.05029
0.724,0.0611
0.728,0.05515
0.732,0.04938
0.736,0.04482
0.74,0.03447
0.744,0.04076
0.748,-0.0174
0.752,-0.01112
0.756,-0.01858
0.76,-0.03003
0.764,-0.01542
0.768,-0.01646
0.772,-0.00151
0.776,-0.00149
0.78,0.01059
0.784,-0.0321
0.788,-0.03453
0.792,-0.02159
0.796,-0.014
0.8,-0.01088
0.804,-0.03474
0.808,-0.03121
0.812,-0.00425
0.816,0.0157
0.82,-0.00132
0.824,-0.01549
0.828,-0.02688
0.832,-0.07673
0.836,-0.08825
0.84,-0.13483
0.844,-0.11335
0.848,-0.06905
0.852,0.06027
0.856,0.21287
0.86,0.40635
0.864,0.63316
0.868,0.83311
0.872,0.95037
0.876,0.9743
0.88,0.90026
0.884,0.73303
0.888,0.49631
0.892,0.26435
0.896,0.064
0.9,-0.07876
0.904,-0.13879
0.908,-0.17929
0.912,-0.16414
0.916,-0.10326
0.92,-0.08503
0.924,-0.01828
0.928,-0.03481
0.932,-0.02194
0.936,-0.03285
0.94,0.0079
0.944,-0.0415
0.948,-0.04214
0.952,-0.0446
0.956,-0.0205
0.96,0.0079
0.964,-0.01413
0.968,0.00374
0.972,-0.03293
0.976,0.03836
0.98,-0.02374
0.984,-0.00563
0.988,-0.02046
0.992,-0.00657
0.996,-0.03201
1.0,-0.0108
1.004,-0.00013
1.008,0.00635
1.012,-0.0194
1.016,-0.01473
1.02,-0.02456
1.024,0.02257
1.028,-0.01194
1.032,0.01213
1.036,0.01137
1.04,-0.02875
1.044,-0.009
1.048,0.01537
1.052,0.02234
1.056,-0.00669
1.06,0.01648
1.064,0.00768
1.068,0.01994
1.072,0.05501
1.076,0.02592
1.08,0.03261
1.084,0.05469
1.088,0.04192
1.092,0.07547
1.096,0.11111
1.1,0.1225
1.104,0.09617
1.108,0.14004
1.112,0.11144
1.116,0.1643
1.12,0.14294
1.124,0.16309
1.128,0.16266
1.132,0.18739
1.136,0.20148
1.14,0.20635
1.144,0.19296
1.148,0.20032
1.152,0.2142
1.156,0.20432
1.16,0.19886
1.164,0.20803
1.168,0.19634
1.172,0.20512
1.176,0.19001
1.18,0.17788
1.184,0.17228
1.188,0.1621
1.192,0.14271
1.196,0.12368
1.2,0.13595
1.204,0.14995
1.208,0.10484
1.212,0.08657
1.216,0.07985
1.22,0.08992
1.224,0.07306
1.228,0.07215
1.232,0.06306
1.236,0.06791
1.24,0.01179
1.244,0.00401
1.248,0.02094
1.252,0.02002
1.256,0.03415
1.26,0.03732
1.264,0.0238
1.268,0.06526
1.272,0.06985
1.276,0.08286
1.28,0.06841
1.284,0.09487
1.288,0.08476
1.292,0.08633
1.296,0.0836
1.3,0.0873
1.304,0.06706
1.308,0.04276
1.312,0.07184
1.316,0.05202
1.32,0.04731
1.324,0.00277
1.328,0.01367
1.332,0.00071
1.336,0.02597
1.34,0.02108
1.344,0.0139
1.348,0.01339
1.352,-0.02447
1.356,0.02311
1.36,-0.00994
1.364,-0.01076
1.368,-0.01115
1.372,0.00094
1.376,-0.01183
1.38,-0.01857
1.384,-0.0067
1.388,0.0245
1.392,-3e-05
1.396,0.01081
1.4,0.01073
1.404,-0.00414
1.408,-0.0241
1.412,-0.05036
1.416,-0.0992
1.42,-0.15549
1.424,-0.10449
1.428,-0.01385
1.432,0.14658
1.436,0.32618
1.44,0.53557
1.444,0.74992
1.448,0.93116
1.452,0.99451
1.456,0.96725
1.46,0.84983
1.464,0.63854
1.468,0.41679
1.472,0.2074
1.476,0.03077
1.48,-0.10024
1.484,-0.16909
1.488,-0.20334
1.492,-0.13971
1.496,-0.07709
1.5,-0.04476
1.504,-0.02629
1.508,0.00021
1.512,0.0104
1.516,0.00559
1.52,0.02825
1.524,-0.01966
1.528,0.00905
1.532,0.01469
1.536,0.01827
1.54,0.00768
1.544,0.01676
1.548,0.0388
1.552,-0.00351
1.556,0.02823
1.56,0.00436
1.564,-0.02168
1.568,0.01057
1.572,0.00285
1.576,-0.00496
1.58,-0.00412
1.584,-0.01585
1.588,0.02031
1.592,-0.00497
1.596,0.00778
1.6,0.02336
1.604,0.01217
1.608,-0.00186
1.612,-0.00879
1.616,-0.00196
1.62,-0.00278
1.624,0.01029
1.628,0.0186
1.632,0.02714
1.636,0.01801
1.64,0.03316
1.644,0.01949
1.648,0.00901
1.652,0.05856
1.656,0.05762
1.66,0.05043
1.664,0.09906
1.668,0.08019
1.672,0.10373
1.676,0.0991
1.68,0.1172
1.684,0.10224
1.688,0.14254
1.692,0.15166
1.696,0.16114
1.7,0.18726
1.704,0.19878
1.708,0.18707
1.712,0.20398
1.716,0.19426
1.72,0.21261
1.724,0.22512
1.728,0.24733
1.732,0.24686
1.736,0.22654
1.74,0.19883
1.744,0.19435
1.748,0.20639
1.752,0.18615
1.756,0.18457
1.76,0.16792
1.764,0.18772
1.768,0.18542
1.772,0.13819
1.776,0.17096
1.78,0.10517
1.784,0.10063
1.788,0.10804
1.792,0.11462
1.796,0.09923
1.8,0.06904
1.804,0.06902
1.808,0.04285
1.812,0.05056
1.816,0.04642
1.82,0.05009
1.824,0.02624
1.828,0.01037
1.832,0.04173
1.836,0.06654
1.84,0.01204
1.844,0.01992
1.848,0.00341
1.852,0.00277
1.856,0.01542
1.86,0.01169
1.864,-0.00045
1.868,0.00728
1.872,0.01257
1.876,0.02038
1.88,0.02025
1.884,-0.00102
1.888,0.00282
1.892,0.00551
1.896,0.02704
1.9,0.00094
1.904,-0.004
1.908,-0.0086
1.912,0.02078
1.916,0.02035
1.92,0.00334
1.924,-0.03545
1.928,0.03424
1.932,0.01981
1.936,-0.00915
1.94,0.02458
1.944,0.00408
1.948,0.03417
1.952,0.06339
1.956,0.07275
1.96,0.04314
1.964,0.0697
1.968,0.09629
1.972,0.08643
1.976,0.11292
1.98,0.12966
1.984,0.09709
1.988,0.11354
1.992,0.08426
1.996,0.08402
2.0,0.08013
2.004,0.09179
2.008,0.03884
2.012,0.03485
2.016,0.03719
2.02,0.03751
2.024,0.04845
2.028,0.01325
2.032,0.04136
2.036,0.00252
2.04,0.02213
2.044,0.01591
2.048,0.0181
2.052,0.0355
2.056,0.00433
2.06,0.02527
2.064,0.01568
2.068,0.00065
2.072,0.03036
2.076,-0.00977
2.08,0.01833
2.084,0.01288
2.088,0.01134
2.092,0.00847
2.096,0.03358
2.1,0.00437
2.104,-0.06518
2.108,-0.06902
2.112,-0.10761
2.116,-0.0696
2.12,-0.02547
2.124,0.14346
2.128,0.34207
2.132,0.54398
2.136,0.7707
2.14,0.951
2.144,0.99186
2.148,0.97677
2.152,0.87068
2.156,0.63861
2.16,0.41258
2.164,0.19238
2.168,0.0033
2.172,-0.08608
2.176,-0.13591
2.18,-0.14222
2.184,-0.1217
2.188,-0.05362
2.192,-0.04304
2.196,-0.00497
2.2,0.01149
2.204,0.0329
2.208,0.00989
2.212,0.03169
2.216,0.00644
2.22,-0.01519
2.224,0.04071
2.228,0.00346
2.232,0.02649
2.236,0.0487
2.24,0.01843
2.244,0.00966
2.248,0.00965
2.252,0.00802
2.256,0.03153
2.26,0.02455
2.264,0.01802
2.268,0.00929
2.272,-0.00959
2.276,0.02019
2.28,0.03645
2.284,-0.00805
2.288,-0.0019
2.292,0.02679
2.296,0.03811
2.3,0.04355
2.304,0.03558
2.308,0.05029
2.312,0.03995
2.316,0.02092
2.32,0.02713
2.324,0.03601
2.328,0.03206
2.332,0.0235
2.336,0.07286
2.34,0.05396
2.344,0.05596
2.348,0.08312
2.352,0.07385
2.356,0.09224
2.36,0.09163
2.364,0.08361
2.368,0.11897
2.372,0.15226
2.376,0.13748
2.38,0.16459
2.384,0.17133
2.388,0.17086
2.392,0.1946
2.396,0.22595
2.4,0.21802
2.404,0.22642
2.408,0.24384
2.412,0.2441
2.416,0.26588
2.42,0.24742
2.424,0.23825
2.428,0.23057
2.432,0.23871
2.436,0.23003
2.44,0.24255
2.444,0.24063
2.448,0.23201
2.452,0.21166
2.456,0.22056
2.46,0.16899
2.464,0.20207
2.468,0.18683
2.472,0.15151
2.476,0.13256
2.48,0.13518
2.484,0.13026
2.488,0.10174
2.492,0.07593
2.496,0.13535
2.5,0.09289
2.504,0.08069
2.508,0.05689
2.512,0.07159
2.516,0.04493
2.52,0.06828
2.524,0.02832
2.528,0.0674
2.532,0.0547
2.536,0.02353
2.54,0.02295
2.544,0.03041
2.548,0.06537
2.552,0.0255
2.556,0.02214
2.56,0.03127
2.564,0.00051
2.568,0.03357
2.572,0.02335
2.576,-0.00265
2.58,0.02233
2.584,0.02505
2.588,0.02365
2.592,0.00998
2.596,0.05826
2.6,0.01278
2.604,0.02621
2.608,0.02508
2.612,0.01322
2.616,0.03113
2.62,0.02974
2.624,0.00591
2.628,0.00953
2.632,0.04027
2.636,0.04262
2.64,0.03033
2.644,0.05419
2.648,0.04269
2.652,0.06657
2.656,0.0714
2.66,0.08386
2.664,0.07385
2.668,0.09582
2.672,0.15219
2.676,0.11625
2.68,0.1627
2.684,0.11347
2.688,0.1331
2.692,0.11693
2.696,0.12138
2.7,0.08455
2.704,0.05817
2.708,0.05133
2.712,0.09348
2.716,0.06861
2.72,0.04799
2.724,0.03169
2.728,0.02437
2.732,0.05127
2.736,0.00726
2.74,0.02814
2.744,0.0216
2.748,0.04916
2.752,0.03215
2.756,0.03747
2.76,0.02279
2.764,0.00295
2.768,0.01832
2.772,0.03667
2.776,0.02992
2.78,0.02036
2.784,0.03871
2.788,0.02911
2.792,0.0023
2.796,0.00168
2.8,-0.02128
2.804,-0.06972
2.808,-0.10083
2.812,-0.04768
2.816,0.02855
2.82,0.15234
2.824,0.36528
2.828,0.54904
2.832,0.77619
2.836,0.94716
2.84,1.00084
2.844,0.99252
2.848,0.86352
2.852,0.64483
2.856,0.41909
2.86,0.22384
2.864,0.03189
2.868,-0.06345
2.872,-0.13738
2.876,-0.14959
2.88,-0.10778
2.884,-0.03788
2.888,-0.03467
2.892,0.00795
2.896,0.02459
2.9,0.00216
2.904,-0.00978
2.908,0.02373
2.912,0.03915
2.916,0.02808
2.92,0.04777
2.924,0.03138
2.928,0.01026
2.932,0.05843
2.936,0.00407
2.94,0.01992
2.944,0.00566
2.948,0.04314
2.952,0.03362
2.956,0.0279
2.96,0.04909
2.964,0.01741
2.968,0.05868
2.972,0.0107
2.976,0.04117
2.98,0.04261
2.984,0.0501
2.988,0.05078
2.992,0.01156
2.996,0.01358
3.0,0.03286
3.004,0.04022
3.008,0.02194
3.012,0.03244
3.016,0.03112
3.02,0.06064
3.024,0.0713
3.028,0.0541
3.032,0.0742
3.036,0.09268
3.04,0.08609
3.044,0.065
3.048,0.06495
3.052,0.10429
3.056,0.10544
3.06,0.11456
3.064,0.14227
3.068,0.14982
3.072,0.15798
3.076,0.14263
3.08,0.18801
3.084,0.17129
3.088,0.19052
3.092,0.18369
3.096,0.22567
3.1,0.23925
3.104,0.24473
3.108,0.23446
3.112,0.2303
3.116,0.25603
3.12,0.26204
3.124,0.26897
3.128,0.24561
3.132,0.24763
3.136,0.25587
3.14,0.24757
3.144,0.21902
3.148,0.24274
3.152,0.23242
3.156,0.25218
3.16,0.20189
3.164,0.20247
3.168,0.21787
3.172,0.18364
3.176,0.20342
3.18,0.22782
3.184,0.20292
3.188,0.2156
3.192,0.18181
3.196,0.17629
3.2,0.19341
3.204,0.14799
3.208,0.15318
3.212,0.14478
3.216,0.11261
3.22,0.08406
3.224,0.07616
3.228,0.06978
3.232,0.04091
3.236,0.04815
3.24,0.02521
3.244,0.05287
3.248,0.05871
3.252,0.04498
3.256,0.0148
3.26,0.02948
3.264,0.03758
3.268,0.06074
3.272,0.03426
3.276,0.03794
3.28,0.01937
3.284,0.01143
3.288,0.04662
3.292,0.01867
3.296,0.03132
3.3,0.03421
3.304,0.04048
3.308,0.00995
3.312,-0.03986
3.316,-0.04254
3.32,-0.09724
3.324,-0.05387
3.328,0.03621
3.332,0.18438
3.336,0.41576
3.34,0.61765
3.344,0.78893
3.348,0.94653
3.352,1.0161
3.356,0.97465
3.36,0.85412
3.364,0.63345
3.368,0.39728
3.372,0.15652
3.376,0.02675
3.38,-0.06333
3.384,-0.11264
3.388,-0.13765
3.392,-0.07013
3.396,-0.02851
3.4,-0.01667
3.404,-0.01094
3.408,0.0538
3.412,0.01934
3.416,0.04505
3.42,0.04296
3.424,0.0253
3.428,0.02565
3.432,0.00625
3.436,0.02704
3.44,0.04275
3.444,0.04432
3.448,0.01542
3.452,0.03101
3.456,0.04144
3.46,0.03789
3.464,0.04162
3.468,0.01478
3.472,0.02985
3.476,0.03409
3.48,0.02114
3.484,0.02443
3.488,0.04537
3.492,0.03531
3.496,0.04209
3.5,0.04883
3.504,0.039
3.508,0.03306
3.512,0.02762
3.516,0.02622
3.52,0.04242
3.524,0.04207
3.528,0.01762
3.532,0.06957
3.536,0.03629
3.54,0.06307
3.544,0.06329
3.548,0.06179
3.552,0.06572
3.556,0.08358
3.56,0.07989
3.564,0.10308
3.568,0.1154
3.572,0.12282
3.576,0.0993
3.58,0.1448
3.584,0.14983
3.588,0.18837
3.592,0.17923
3.596,0.1663
3.6,0.19683
3.604,0.20019
3.608,0.22435
3.612,0.20535
3.616,0.22171
3.62,0.2298
3.624,0.24122
3.628,0.25382
3.632,0.23488
3.636,0.22108
3.64,0.2387
3.644,0.25133
3.648,0.2317
3.652,0.22471
3.656,0.20855
3.66,0.19865
3.664,0.2039
3.668,0.17257
3.672,0.19385
3.676,0.18809
3.68,0.15779
3.684,0.14446
3.688,0.08731
3.692,0.09206
3.696,0.08064
3.7,0.12071
3.704,0.08034
3.708,0.07665
3.712,0.09448
3.716,0.04108
3.72,0.04996
3.724,0.06418
3.728,0.03665
3.732,0.05665
3.736,0.03609
3.74,0.02334
3.744,0.02309
3.748,0.05495
3.752,0.00965
3.756,0.003
3.76,0.05464
3.764,0.04381
3.768,0.01693
3.772,0.05898
3.776,0.02256
3.78,0.05609
3.784,0.0421
3.788,0.02762
3.792,0.06523
3.796,0.03065
3.8,0.01763
3.804,0.03363
3.808,0.04341
3.812,-0.00507
3.816,0.03644
3.82,0.04347
3.824,0.02898
3.828,0.02161
3.832,0.03267
3.836,0.03394
3.84,0.04157
3.844,0.01423
3.848,0.06137
3.852,0.04511
3.856,0.05108
3.86,0.05152
3.864,0.03405
3.868,0.07292
3.872,0.1008
3.876,0.08041
3.88,0.1431
3.884,0.1207
3.888,0.12926
3.892,0.13538
3.896,0.09757
3.9,0.12383
3.904,0.09419
3.908,0.10439
3.912,0.08762
3.916,0.05187
3.92,0.04008
3.924,0.03588
3.928,0.06039
3.932,0.03577
3.936,0.04222
3.94,0.03544
3.944,0.03278
3.948,0.02227
3.952,0.01542
3.956,0.01079
3.96,0.01498
3.964,0.00366
3.968,-0.0001
3.972,0.00125
3.976,0.00816
3.98,0.03769
3.984,0.01396
3.988,0.0362
3.992,0.01687
3.996,0.02952
4.0,0.03358
4.004,-0.01386
4.008,-0.01625
4.012,-0.04933
4.016,-0.10191
4.02,-0.09685
4.024,-0.03825
4.028,0.09125
4.032,0.2379
4.036,0.45686
4.04,0.65071
4.044,0.84069
4.048,0.98191
4.052,1.03261
4.056,0.91009
4.06,0.77114
4.064,0.5169
4.068,0.31475
4.072,0.07865
4.076,-0.0248
4.08,-0.11671
4.084,-0.14897
4.088,-0.12228
4.092,-0.12985
4.096,-0.02565
4.1,0.0004
4.104,0.00435
4.108,0.02727
4.112,0.02138
4.116,0.03251
4.12,0.02535
4.124,-0.0007
4.128,0.0332
4.132,0.0287
4.136,-0.01127
4.14,0.03139
4.144,0.00913
4.148,0.03312
4.152,0.01599
4.156,0.01208
4.16,0.02881
4.164,0.03889
4.168,-0.00854
4.172,0.02974
4.176,0.02474
4.18,0.0146
4.184,0.03946
4.188,0.01213
4.192,0.01847
4.196,0.01591
4.2,0.01776
4.204,0.03313
4.208,0.04497
4.212,0.02076
4.216,0.01576
4.22,0.063
4.224,0.03719
4.228,0.02287
4.232,0.04704
4.236,0.03139
4.24,0.03037
4.244,0.03277
4.248,0.08114
4.252,0.0447
4.256,0.06882
4.26,0.08021
4.264,0.06662
4.268,0.09573
4.272,0.12215
4.276,0.106
4.28,0.12655
4.284,0.14059
4.288,0.13373
4.292,0.18866
4.296,0.15604
4.3,0.17357
4.304,0.20146
4.308,0.20129
4.312,0.21926
4.316,0.20253
4.32,0.24911
4.324,0.2539
4.328,0.23281
4.332,0.23612
4.336,0.23918
4.34,0.23741
4.344,0.24563
4.348,0.20997
4.352,0.20943
4.356,0.21127
4.36,0.18788
4.364,0.1532
4.368,0.16165
4.372,0.16056
4.376,0.17125
4.38,0.14618
4.384,0.09989
4.388,0.12755
4.392,0.0838
4.396,0.06869
4.4,0.09634
4.404,0.069
4.408,0.05312
4.412,0.04815
4.416,0.03657
4.42,0.04706
4.424,0.01705
4.428,0.02655
4.432,0.025
4.436,0.03389
4.44,0.0651
4.444,0.03797
4.448,0.03405
4.452,0.02065
4.456,0.04363
4.46,0.03101
4.464,0.06889
4.468,0.06965
4.472,0.05855
4.476,0.06015
4.48,0.11251
4.484,0.12127
4.488,0.09879
4.492,0.11693
4.496,0.13045
4.5,0.10707
4.504,0.07961
4.508,0.0921
4.512,0.04842
4.516,0.05382
4.52,0.06739
4.524,0.04687
4.528,0.01103
4.532,0.0433
4.536,0.00147
4.54,0.01846
4.544,0.04553
4.548,0.00618
4.552,0.02128
4.556,0.0155
4.56,0.02806
4.564,-0.02618
4.568,0.02424
4.572,0.01896
4.576,0.02731
4.58,0.05229
4.584,0.00507
4.588,0.01947
4.592,0.0135
4.596,0.0033
4.6,0.01063
4.604,-0.01491
4.608,-0.05123
4.612,-0.09188
4.616,-0.10122
4.62,-0.10914
4.624,-0.01899
4.628,0.1315
4.632,0.29635
4.636,0.54181
4.64,0.75177
4.644,0.92095
4.648,0.98718
4.652,0.98135
4.656,0.85204
4.66,0.67442
4.664,0.40549
4.668,0.18108
4.672,0.03265
4.676,-0.11273
4.68,-0.16163
4.684,-0.17732
4.688,-0.14975
4.692,-0.09813
4.696,-0.04429
4.7,-0.03089
4.704,-0.0041
4.708,-0.00879
4.712,0.00697
4.716,-0.02657
4.72,0.01831
4.724,-0.01347
4.728,0.00753
4.732,0.01642
4.736,0.00338
4.74,-0.00413
4.744,-0.03702
4.748,-0.01643
4.752,-0.01427
4.756,-0.00489
4.76,0.01253
4.764,0.00641
4.768,0.01596
4.772,0.00651
4.776,0.01088
4.78,0.00986
4.784,-0.01537
4.788,0.00539
4.792,-0.00559
4.796,-0.02147
4.8,0.01816
4.804,0.0251
4.808,0.01693
4.812,-0.00841
4.816,-0.001
4.82,0.0388
4.824,0.01243
4.828,0.03312
4.832,-0.01179
4.836,0.00987
4.84,0.04538
4.844,0.01621
4.848,0.04897
4.852,0.02159
4.856,0.09035
4.86,0.07654
4.864,0.06877
4.868,0.09584
4.872,0.08293
4.876,0.11062
4.88,0.10639
4.884,0.12505
4.888,0.13861
4.892,0.14254
4.896,0.14859
4.9,0.15588
4.904,0.17766
4.908,0.20498
4.912,0.18566
4.916,0.17853
4.92,0.21173
4.924,0.21378
4.928,0.22662
4.932,0.20084
4.936,0.19794
4.94,0.22615
4.944,0.19869
4.948,0.2002
4.952,0.18822
4.956,0.15428
4.96,0.16828
4.964,0.15712
4.968,0.15632
4.972,0.14651
4.976,0.133
4.98,0.12713
4.984,0.12492
4.988,0.09289
4.992,0.0729
4.996,0.07325
5.0,0.08495
5.004,0.05564
5.008,0.06687
5.012,0.05351
5.016,0.03969
5.02,0.03185
5.024,-0.01465
5.028,0.00223
5.032,-0.00643
5.036,0.01484
5.04,0.03811
5.044,-0.00925
5.048,0.00312
5.052,-0.00134
5.056,-0.00958
5.06,-0.00616
5.064,-0.00301
5.068,-0.01196
5.072,-0.01363
5.076,0.00229
5.08,-0.00468
5.084,-0.00893
5.088,-0.01749
5.092,0.00303
5.096,0.02303
5.1,-0.00276
5.104,-0.05612
5.108,-0.02999
5.112,-0.00122
5.116,0.01791
5.12,0.01545
5.124,-0.00747
5.128,0.02271
5.132,0.01226
5.136,0.0047
5.14,-0.01198
5.144,-0.03218
5.148,-0.00926
5.152,-0.01575
5.156,0.01076
5.16,-0.01255
5.164,-0.01079
5.168,-0.02415
5.172,0.00194
5.176,-0.02706
5.18,-0.03149
5.184,-0.02466
5.188,-0.00758
5.192,-0.01531
5.196,0.01203
5.2,-0.00987
5.204,0.00024
5.208,0.0027
5.212,0.02951
5.216,0.01802
5.22,0.02563
5.224,0.04905
5.228,0.07606
5.232,0.05312
5.236,0.09493
5.24,0.08026
5.244,0.09055
5.248,0.08022
5.252,0.10146
5.256,0.05149
5.26,0.0714
5.264,0.05274
5.268,0.05417
5.272,0.03291
5.276,0.02828
5.28,-0.01243
5.284,-0.01208
5.288,0.00903
5.292,-0.00273
5.296,-0.0055
5.3,-0.01937
5.304,-0.01338
5.308,-0.01997
5.312,-0.0494
5.316,0.01008
5.32,-0.03101
5.324,-0.02141
5.328,0.00229
5.332,-0.03361
5.336,-0.02566
5.34,-0.00287
5.344,-0.00474
5.348,-0.02367
5.352,-0.02219
5.356,-0.04221
5.36,-0.05552
5.364,-0.07635
5.368,-0.11229
5.372,-0.12758
5.376,-0.08553
5.38,0.04284
5.384,0.22204
5.388,0.42068
5.392,0.64221
5.396,0.8344
5.4,0.95344
5.404,0.99248
5.408,0.89308
5.412,0.71923
5.416,0.49629
5.42,0.28337
5.424,0.04899
5.428,-0.06472
5.432,-0.15215
5.436,-0.15991
5.44,-0.13383
5.444,-0.12816
5.448,-0.0834
5.452,-0.04849
5.456,-0.00923
5.46,-0.01236
5.464,-0.00887
5.468,-0.03316
5.472,-0.02982
5.476,-0.024
5.48,0.00509
5.484,-0.00481
5.488,0.01543
5.492,-0.04333
5.496,-0.01336
5.5,-0.00539
5.504,-0.01359
5.508,-0.01197
5.512,-0.02455
5.516,0.00112
5.52,-0.02074
5.524,-0.07983
5.528,-0.00917
5.532,-0.03371
5.536,-0.01301
5.54,-0.01326
5.544,-0.02478
5.548,-0.01485
5.552,-0.0189
5.556,-0.00559
5.56,-0.02379
5.564,-0.02242
5.568,0.00818
5.572,-0.00706
5.576,-0.00013
5.58,-0.02216
5.584,-0.01387
5.588,0.01898
5.592,0.02762
5.596,0.00959
5.6,0.02106
5.604,0.04822
5.608,0.01541
5.612,0.02638
5.616,0.04375
5.62,0.06894
5.624,0.09639
5.628,0.09755
5.632,0.08934
5.636,0.11044
5.64,0.13299
5.644,0.14228
5.648,0.15045
5.652,0.13973
5.656,0.17983
5.66,0.16417
5.664,0.17513
5.668,0.1752
5.672,0.18393
5.676,0.19454
5.68,0.18858
5.684,0.212
5.688,0.17076
5.692,0.20699
5.696,0.16684
5.7,0.17601
5.704,0.20146
5.708,0.18534
5.712,0.16537
5.716,0.12576
5.72,0.11325
5.724,0.1262
5.728,0.08428
5.732,0.08196
5.736,0.11865
5.74,0.09757
5.744,0.06564
5.748,0.05936
5.752,0.03561
5.756,0.01972
5.76,0.04243
5.764,0.01158
5.768,0.01113
5.772,-0.00179
5.776,0.00812
5.78,-0.01141
5.784,-0.00544
5.788,-0.00268
5.792,-0.00607
5.796,-0.01046
5.8,-0.00282
5.804,-0.0229
5.808,-0.02251
5.812,-0.05636
5.816,-0.01091
5.82,0.01584
5.824,-0.01118
5.828,-0.02169
5.832,-0.03746
5.836,0.0066
5.84,0.01286
5.844,0.00381
5.848,0.0153
5.852,0.05843
5.856,0.05594
5.86,0.05031
5.864,0.10476
5.868,0.07884
5.872,0.0913
5.876,0.05091
5.88,0.08795
5.884,0.06263
5.888,0.07941
5.892,0.04582
5.896,0.03847
5.9,0.03095
5.904,0.01694
5.908,0.01342
5.912,0.01964
5.916,0.00994
5.92,-0.01247
5.924,-0.03465
5.928,-0.06764
5.932,-0.00281
5.936,-0.04369
5.94,-0.0012
5.944,-0.01585
5.948,-0.04943
5.952,-0.04532
5.956,0.0098
5.96,-0.02734
5.964,-0.03157
5.968,-0.04544
5.972,-0.03601
5.976,-0.02363
5.98,-0.02092
5.984,-0.04142
5.988,-0.05403
5.992,-0.09181
5.996,-0.07711
6.0,-0.14294
6.004,-0.13631
6.008,-0.069
6.012,0.08197
6.016,0.20799
6.02,0.43575
6.024,0.65923
6.028,0.83874
6.032,0.93199
6.036,0.93665
6.04,0.84546
6.044,0.68206
6.048,0.43358
6.052,0.22162
6.056,0.0299
6.06,-0.11404
6.064,-0.18391
6.068,-0.17909
6.072,-0.14771
6.076,-0.13439
6.08,-0.08413
6.084,-0.07045
6.088,-0.02607
6.092,-0.02219
6.096,-0.00445
6.1,-0.04728
6.104,-0.01512
6.108,-0.02684
6.112,-0.02408
6.116,0.00552
6.12,-0.04948
6.124,-0.04667
6.128,-0.01156
6.132,-0.01957
6.136,-0.00536
6.14,-0.03162
6.144,-0.04762
6.148,-0.01442
6.152,-0.06157
6.156,-0.02763
6.16,-0.02705
6.164,-0.03196
6.168,-0.01375
6.172,-0.05189
6.176,-0.02189
6.18,-0.02191
6.184,-0.03744
6.188,-0.03895
6.192,-0.01925
6.196,-0.01513
6.2,-0.00773
6.204,-0.02796
6.208,-0.02111
6.212,-0.02314
6.216,-0.02447
6.22,-0.01162
6.224,-0.00549
6.228,0.00308
6.232,-0.00279
6.236,0.00147
6.24,0.03449
6.244,0.03783
6.248,0.04849
6.252,0.06329
6.256,0.08014
6.26,0.08403
6.264,0.08294
6.268,0.10224
6.272,0.13627
6.276,0.11358
6.28,0.11996
6.284,0.14568
6.288,0.16101
6.292,0.14845
6.296,0.18289
6.3,0.17568
6.304,0.20278
6.308,0.21005
6.312,0.1827
6.316,0.18698
6.32,0.20768
6.324,0.18527
6.328,0.18963
6.332,0.18905
6.336,0.16744
6.34,0.16177
6.344,0.12051
6.348,0.12429
6.352,0.14281
6.356,0.15999
6.36,0.1066
6.364,0.0999
6.368,0.0714
6.372,0.07624
6.376,0.05043
6.38,0.06494
6.384,0.05024
6.388,0.02644
6.392,0.04431
6.396,0.01888
6.4,0.0154
6.404,0.02616
6.408,0.04603
6.412,0.05454
6.416,0.05198
6.42,0.02165
6.424,0.04838
6.428,0.08492
6.432,0.07482
6.436,0.0739
6.44,0.05157
6.444,0.07813
6.448,0.04475
6.452,0.02527
6.456,0.02803
6.46,0.0171
6.464,0.01673
6.468,0.00221
6.472,-0.00082
6.476,-0.00411
6.48,-0.00697
6.484,-0.04253
6.488,-0.0228
6.492,-0.03062
6.496,-0.00031
6.5,-0.0003
6.504,0.0036
6.508,-0.01879
6.512,-0.05434
6.516,-0.01318
6.52,-0.0532
6.524,-0.02774
6.528,-0.05281
6.532,-0.0165
6.536,-0.04547
6.54,-0.05608
6.544,-0.04653
6.548,-0.03617
6.552,-0.05437
6.556,-0.09664
6.56,-0.12425
6.564,-0.14063
6.568,-0.15321
6.572,-0.0441
6.576,0.07218
6.58,0.24922
6.584,0.51327
6.588,0.69005
6.592,0.84454
6.596,0.95482
6.6,0.94762
6.604,0.78382
6.608,0.65673
6.612,0.40579
6.616,0.15752
6.62,-0.00558
6.624,-0.11869
6.628,-0.17662
6.632,-0.18275
6.636,-0.16383
6.64,-0.09687
6.644,-0.08145
6.648,-0.05701
6.652,-0.03457
6.656,-0.01914
6.66,-0.02305
6.664,-0.0257
6.668,-0.02696
6.672,-0.03341
6.676,-0.00594
6.68,-0.02467
6.684,-0.06313
6.688,-0.0487
6.692,-0.03834
6.696,-0.02706
6.7,-0.05584
6.704,-0.03176
6.708,-0.01511
6.712,-0.02296
6.716,-0.01635
6.72,-0.03483
6.724,-0.00373
6.728,-0.03108
6.732,-0.01216
6.736,-0.02304
6.74,-0.00385
6.744,-0.0361
6.748,-0.03016
6.752,-0.03158
6.756,-0.03574
6.76,-0.01728
6.764,-0.05252
6.768,-0.0315
6.772,-0.02378
6.776,0.02295
6.78,-0.02712
6.784,-0.02619
6.788,0.01357
6.792,-0.00287
6.796,0.02101
6.8,0.02306
6.804,0.02344
6.808,0.03034
6.812,0.06668
6.816,0.05334
6.82,0.05145
6.824,0.09235
6.828,0.07859
6.832,0.11989
6.836,0.12669
6.84,0.13041
6.844,0.15234
6.848,0.13247
6.852,0.14152
6.856,0.17403
6.86,0.17956
6.864,0.16337
6.868,0.16764
6.872,0.16171
6.876,0.18679
6.88,0.1844
6.884,0.17412
6.888,0.18249
6.892,0.17869
6.896,0.17572
6.9,0.17134
6.904,0.16387
6.908,0.13343
6.912,0.14166
6.916,0.1134
6.92,0.1024
6.924,0.11142
6.928,0.09891
6.932,0.07848
6.936,0.04518
6.94,0.05884
6.944,0.04183
6.948,0.05601
6.952,0.0287
6.956,0.01913
6.96,0.01523
6.964,-0.01826
6.968,0.01464
6.972,-0.02262
6.976,0.00286
6.98,-0.0301
6.984,-0.0197
6.988,-0.02368
6.992,-0.01221
6.996,-0.02168
7.0,-0.03865
7.004,-0.04641
7.008,-0.04142
7.012,-0.02928
7.016,-0.01959
7.02,-0.0229
7.024,-0.01819
7.028,-0.05148
7.032,-0.03774
7.036,-0.00239
7.04,-0.05312
7.044,-0.02649
7.048,-0.0171
7.052,-0.03452
7.056,0.00798
7.06,-0.05024
7.064,-0.03666
7.068,0.00998
7.072,-0.04141
7.076,-0.03971
7.08,-0.02501
7.084,-0.00585
7.088,-0.02159
7.092,-0.01495
7.096,-0.00882
7.1,-0.02499
7.104,-0.01104
7.108,-0.02504
7.112,-0.02088
7.116,-0.03407
7.12,-0.02252
7.124,-0.0293
7.128,-0.02807
7.132,-0.01911
7.136,-0.03125
7.14,-0.01009
7.144,-0.03336
7.148,-0.03173
7.152,-0.02211
7.156,-0.05434
7.16,-0.06049
7.164,-0.01052
7.168,0.015
7.172,-0.02814
7.176,-0.01265
7.18,-0.01216
7.184,-0.00068
7.188,-0.02469
7.192,-0.01858
7.196,-0.01683
7.2,-0.01179
7.204,-0.00778
7.208,0.00927
7.212,-0.00202
7.216,0.05506
7.22,0.05844
7.224,0.06779
7.228,0.08591
7.232,0.05204
7.236,0.1175
7.24,0.05779
7.244,0.10631
7.248,0.06694
7.252,0.04332
7.256,0.06444
7.26,0.02854
7.264,-0.00263
7.268,0.01565
7.272,-0.03056
7.276,-0.00895
7.28,-0.02119
7.284,-0.01015
7.288,-0.0076
7.292,-0.02711
7.296,-0.01128
7.3,-0.00929
7.304,0.00152
7.308,-0.04293
7.312,-0.04095
7.316,-0.01404
7.32,0.00592
7.324,-0.02432
7.328,-0.01262
7.332,0.00318
7.336,-0.02968
7.34,0.02176
7.344,0.00107
7.348,-0.03254
7.352,-0.01615
7.356,-0.04969
7.36,-0.09894
7.364,-0.11711
7.368,-0.11863
7.372,-0.08563
7.376,0.02903
7.38,0.22128
7.384,0.39784
7.388,0.65632
7.392,0.82224
7.396,0.94217
7.4,0.98528
7.404,0.89183
7.408,0.72204
7.412,0.51779
7.416,0.26519
7.42,0.07584
7.424,-0.11113
7.428,-0.19055
7.432,-0.17691
7.436,-0.16087
7.44,-0.10396
7.444,-0.05156
7.448,-0.08832
7.452,-0.06575
7.456,-0.01829
7.46,-0.02855
7.464,0.00072
7.468,-0.00167
7.472,-0.03689
7.476,-0.00286
7.48,-0.0174
7.484,-0.01209
7.488,-0.03712
7.492,-0.02229
7.496,-0.03908
7.5,-0.00635
7.504,-0.00053
7.508,-0.0185
7.512,-0.02637
7.516,-0.02723
7.52,-0.00468
7.524,-0.02632
7.528,0.00802
7.532,-0.01997
7.536,0.00326
7.54,-0.00877
7.544,-0.01737
7.548,-0.00747
7.552,-0.01144
7.556,0.00515
7.56,-0.02595
7.564,-0.01226
7.568,-0.0135
7.572,0.00719
7.576,-0.03533
7.58,-0.01883
7.584,0.01409
7.588,0.01023
7.592,0.01047
7.596,0.02294
7.6,0.07206
7.604,0.02222
7.608,0.05823
7.612,0.0251
7.616,0.06089
7.62,0.059
7.624,0.09449
7.628,0.11555
7.632,0.13879
7.636,0.13047
7.64,0.12897
7.644,0.15802
7.648,0.14427
7.652,0.12952
7.656,0.2153
7.66,0.17521
7.664,0.18786
7.668,0.18085
7.672,0.1993
7.676,0.19179
7.68,0.24279
7.684,0.22044
7.688,0.20313
7.692,0.18388
7.696,0.19922
7.7,0.18014
7.704,0.18036
7.708,0.15065
7.712,0.16414
7.716,0.16308
7.72,0.12092
7.724,0.11617
7.728,0.11695
7.732,0.07926
7.736,0.08571
7.74,0.06833
7.744,0.06588
7.748,0.0227
7.752,0.03489
7.756,0.02738
7.76,0.04649
7.764,0.01827
7.768,0.02251
7.772,-0.00234
7.776,0.0161
7.78,0.02031
7.784,0.01123
7.788,0.01202
7.792,0.01927
7.796,0.03501
7.8,0.00627
7.804,-0.00944
7.808,-0.00783
7.812,0.01911
7.816,-0.01487
7.82,0.00533
7.824,-0.01544
7.828,-0.00813
7.832,-0.00599
7.836,-0.01846
7.84,0.00323
7.844,-0.0327
7.848,0.04071
7.852,0.01173
7.856,-0.01196
7.86,0.0059
7.864,-0.02345
7.868,-0.0046
7.872,0.02214
7.876,-0.00628
7.88,-0.00372
7.884,-0.0102
7.888,0.01635
7.892,-0.03028
7.896,-0.01959
7.9,0.02791
7.904,0.01362
7.908,-0.01974
7.912,-0.01032
7.916,-0.02735
7.92,-0.02145
7.924,0.016
7.928,-0.00107
7.932,-0.00565
7.936,-0.0356
7.94,-0.00522
7.944,-0.00511
7.948,0.00049
7.952,-0.01203
7.956,-0.00778
7.96,-0.01093
7.964,0.00522
7.968,-0.01413
7.972,0.03435
7.976,-0.03702
7.98,0.00044
7.984,0.00031
7.988,-0.01277
7.992,-0.01084
7.996,0.01157
8.0,0.02063
8.004,0.03772
8.008,0.00561
8.012,0.03548
8.016,0.03107
8.02,0.04049
8.024,0.0497
8.028,0.09879
8.032,0.08052
8.036,0.09338
8.04,0.09432
8.044,0.09156
8.048,0.11525
8.052,0.07734
8.056,0.08936
8.06,0.06064
8.064,0.07065
8.068,0.04167
8.072,0.02606
8.076,0.03987
8.08,0.04644
8.084,0.01555
8.088,0.00659
8.092,-0.01353
8.096,-0.00483
8.1,-0.0112
8.104,0.01647
8.108,0.03075
8.112,0.00639
8.116,-0.02596
8.12,-0.01771
8.124,0.001
8.128,0.00327
8.132,-0.01036
8.136,-0.01545
8.14,-0.00204
8.144,-0.00687
8.148,0.02858
8.152,0.01289
8.156,-0.00575
8.16,-0.03688
8.164,-0.08511
8.168,-0.08396
8.172,-0.12514
8.176,-0.093
8.18,0.02545
8.184,0.1732
8.188,0.34869
8.192,0.56144
8.196,0.77281
8.2,0.93121
8.204,1.01644
8.208,0.94631
8.212,0.79541
8.216,0.60343
8.22,0.35942
8.224,0.12184
8.228,-0.01975
8.232,-0.13287
8.236,-0.1868
8.24,-0.18127
8.244,-0.12556
8.248,-0.07275
8.252,-0.05269
8.256,-0.03312
8.26,-0.01356
8.264,0.01479
8.268,0.02782
8.272,0.00653
8.276,0.0105
8.28,0.01344
8.284,0.00574
8.288,0.02306
8.292,-0.0179
8.296,0.00801
8.3,0.03141
8.304,0.01492
8.308,-0.00367
8.312,0.00626
8.316,7e-05
8.32,-0.00775
8.324,-0.00876
8.328,0.01364
8.332,-0.00915
8.336,0.01433
8.34,0.032
8.344,0.00839
8.348,0.00478
8.352,0.0444
8.356,-0.00286
8.36,0.01343
8.364,0.00784
8.368,0.01289
8.372,0.02898
8.376,-0.00138
8.38,-0.01851
8.384,0.01345
8.388,0.02749
8.392,0.02879
8.396,0.04075
8.4,0.0599
8.404,0.04061
8.408,0.05673
8.412,0.0722
8.416,0.08089
8.42,0.09492
8.424,0.09731
8.428,0.11115
8.432,0.11725
8.436,0.16025
8.44,0.13144
8.444,0.18436
8.448,0.18981
8.452,0.18678
8.456,0.20153
8.46,0.17689
8.464,0.19012
8.468,0.21179
8.472,0.21656
8.476,0.23351
8.48,0.24351
8.484,0.23282
8.488,0.20945
8.492,0.2394
8.496,0.21687
8.5,0.22157
8.504,0.21397
8.508,0.22912
8.512,0.19541
8.516,0.17547
8.52,0.16159
8.524,0.14483
8.528,0.14067
8.532,0.11135
8.536,0.13441
8.54,0.10337
8.544,0.09891
8.548,0.11186
8.552,0.09164
8.556,0.06535
8.56,0.04316
8.564,0.05009
8.568,0.03231
8.572,0.02219
8.576,0.03951
8.58,0.06348
8.584,0.0181
8.588,0.03575
8.592,0.03049
8.596,0.02912
8.6,0.03936
8.604,0.02477
8.608,0.01891
8.612,0.01595
8.616,-0.0132
8.62,0.01273
8.624,0.01785
8.628,0.00997
8.632,-0.01595
8.636,0.03984
8.64,0.02778
8.644,0.02364
8.648,0.00551
8.652,-0.00262
8.656,0.01638
8.66,0.01844
8.664,0.00537
8.668,0.0093
8.672,0.04625
8.676,0.01329
8.68,0.03421
8.684,0.01558
8.688,0.00432
8.692,0.01192
8.696,0.02652
8.7,-0.00944
8.704,-0.01834
8.708,0.02278
8.712,0.00049
8.716,0.03147
8.72,0.0086
8.724,0.05034
8.728,0.02753
8.732,0.01683
8.736,0.0138
8.74,-0.01317
8.744,-0.00246
8.748,0.01448
8.752,0.04626
8.756,0.02855
8.76,0.01253
8.764,0.02189
8.768,0.00909
8.772,0.03258
8.776,0.04888
8.78,0.06655
8.784,0.06286
8.788,0.06592
8.792,0.06796
8.796,0.09065
8.8,0.09263
8.804,0.09746
8.808,0.10952
8.812,0.11741
8.816,0.12822
8.82,0.10871
8.824,0.10968
8.828,0.09079
8.832,0.08204
8.836,0.07408
8.84,0.06272
8.844,0.04802
8.848,0.03331
8.852,0.03864
8.856,0.02327
8.86,0.02985
8.864,0.03451
8.868,0.0189
8.872,0.05773
8.876,0.01577
8.88,0.01072
8.884,0.00352
8.888,0.04007
8.892,0.00212
8.896,0.04025
8.9,0.01436
8.904,0.03107
8.908,-0.00477
8.912,0.016
8.916,0.02622
8.92,0.02554
8.924,-0.01825
8.928,-0.04211
8.932,-0.06759
8.936,-0.08514
8.94,-0.09428
8.944,-0.024
8.948,0.06953
8.952,0.25889
8.956,0.47256
8.96,0.69606
8.964,0.87201
8.968,1.01515
8.972,1.02659
8.976,0.91303
8.98,0.77018
8.984,0.5167
8.988,0.28761
8.992,0.10069
8.996,-0.0624
9.0,-0.1287
9.004,-0.16009
9.008,-0.12462
9.012,-0.0751
9.016,-0.0366
9.02,-0.03143
9.024,0.02005
9.028,0.01405
9.032,0.01341
9.036,0.03316
9.04,0.0299
9.044,0.04357
9.048,0.02823
9.052,0.00403
9.056,-0.00016
9.06,-0.00684
9.064,0.00331
9.068,0.03807
9.072,0.01657
9.076,0.0457
9.08,0.02987
9.084,0.03329
9.088,0.03431
9.092,0.01176
9.096,0.02557
9.1,0.01561
9.104,0.03288
9.108,0.01187
9.112,0.02175
9.116,0.03417
9.12,0.03025
9.124,-0.00215
9.128,0.03708
9.132,0.02041
9.136,0.02592
9.14,0.04424
9.144,0.03521
9.148,0.03217
9.152,0.05176
9.156,0.05302
9.16,0.05856
9.164,0.06045
9.168,0.08261
9.172,0.08803
9.176,0.08936
9.18,0.08057
9.184,0.08269
9.188,0.11128
9.192,0.1385
9.196,0.14103
9.2,0.12107
9.204,0.15731
9.208,0.17467
9.212,0.17328
9.216,0.2005
9.22,0.19366
9.224,0.23024
9.228,0.21026
9.232,0.24847
9.236,0.19621
9.24,0.27108
9.244,0.22828
9.248,0.22479
9.252,0.24109
9.256,0.23288
9.26,0.2413
9.264,0.22832
9.268,0.2447
9.272,0.21856
9.276,0.22737
9.28,0.22069
9.284,0.16561
9.288,0.2214
9.292,0.16911
9.296,0.16205
9.3,0.16739
9.304,0.15608
9.308,0.12289
9.312,0.11764
9.316,0.09845
9.32,0.12384
9.324,0.09142
9.328,0.07312
9.332,0.07799
9.336,0.04439
9.34,0.06762
9.344,0.01988
9.348,0.01663
9.352,0.05996
9.356,0.03261
9.36,0.04692
9.364,0.03546
9.368,0.01657
9.372,0.00332
9.376,0.03505
9.38,0.01984
9.384,0.01305
9.388,0.01667
9.392,0.05016
9.396,0.03861
9.4,0.02785
9.404,0.00977
9.408,0.0042
9.412,0.01107
9.416,0.03095
9.42,0.03807
9.424,0.03713
9.428,0.01959
9.432,0.02811
9.436,0.05124
9.44,0.02635
9.444,0.04262
9.448,0.04442
9.452,0.03592
9.456,0.0116
9.46,0.0427
9.464,0.03024
9.468,-0.00296
9.472,0.01516
9.476,-0.00086
9.48,0.04956
9.484,0.0481
9.488,0.01965
9.492,0.0148
9.496,0.0364
9.5,0.01979
9.504,0.06788
9.508,0.04497
9.512,0.05418
9.516,0.07471
9.52,0.08902
9.524,0.08909
9.528,0.11179
9.532,0.11686
9.536,0.11148
9.54,0.10751
9.544,0.13965
9.548,0.13445
9.552,0.10635
9.556,0.11284
9.56,0.08037
9.564,0.07695
9.568,0.06213
9.572,0.05643
9.576,0.06276
9.58,0.03749
9.584,0.0418
9.588,0.04604
9.592,0.02045
9.596,0.00559
9.6,0.05292
9.604,0.04889
9.608,0.02853
9.612,0.01419
9.616,0.02391
9.62,0.02749
9.624,0.04346
9.628,0.02852
9.632,0.04927
9.636,0.04173
9.64,0.00032
9.644,0.0271
9.648,0.03653
9.652,0.01651
9.656,0.02624
9.66,-0.04198
9.664,-0.08512
9.668,-0.07983
9.672,-0.05729
9.676,0.01311
9.68,0.17944
9.684,0.38272
9.688,0.56437
9.692,0.82271
9.696,0.93922
9.7,1.02152
9.704,0.99119
9.708,0.8342
9.712,0.66164
9.716,0.3943
9.72,0.2027
9.724,0.02173
9.728,-0.10147
9.732,-0.12185
9.736,-0.13166
9.74,-0.07249
9.744,-0.05316
9.748,0.0005
9.752,0.02436
9.756,0.02111
9.76,0.02397
9.764,0.03756
9.768,0.048
9.772,0.03712
9.776,0.02962
9.78,0.03901
9.784,0.05996
9.788,0.02312
9.792,0.03246
9.796,0.01137
9.8,0.03336
9.804,0.03227
9.808,0.02921
9.812,0.03464
9.816,0.02461
9.82,0.02851
9.824,0.0331
9.828,0.02776
9.832,0.03356
9.836,0.04078
9.84,0.04384
9.844,0.01884
9.848,0.00404
9.852,0.04233
9.856,0.03439
9.86,0.02736
9.864,0.04209
9.868,0.04715
9.872,0.07203
9.876,0.0105
9.88,0.03543
9.884,0.05475
9.888,0.06732
9.892,0.05992
9.896,0.0638
9.9,0.09112
9.904,0.07446
9.908,0.10711
9.912,0.11431
9.916,0.11799
9.92,0.11466
9.924,0.1448
9.928,0.15351
9.932,0.15694
9.936,0.17161
9.94,0.16446
9.944,0.16384
9.948,0.2278
9.952,0.16877
9.956,0.24347
9.96,0.23396
9.964,0.21257
9.968,0.2285
9.972,0.24838
9.976,0.25043
9.98,0.25013
9.984,0.25635
9.988,0.2456
9.992,0.25657
9.996,0.26614
