t_seg,ecg_mV
0.0,-0.04032
0.004,-0.03377
0.008,-0.0308
0.012,-0.0286
0.016,-0.01671
0.02,-0.00135
0.024,-0.02006
0.028,-0.00971
0.032,-0.00903
0.036,-0.03065
0.04,-0.0253
0.044,-0.03812
0.048,-0.01699
0.052,-0.02458
0.056,-0.03177
0.06,-0.01478
0.064,-0.02109
0.068,-0.02883
0.072,-0.03406
0.076,-0.03185
0.08,-0.04801
0.084,-0.03398
0.088,-0.04316
0.092,-0.02306
0.096,-0.02878
0.1,-0.04511
0.104,-0.03727
0.108,-0.06559
0.112,-0.01923
0.116,-0.03967
0.12,-0.03469
0.124,-0.03527
0.128,-0.07203
0.132,-0.02042
0.136,-0.01208
0.14,-0.03737
0.144,-0.03407
0.148,-0.02447
0.152,-0.04041
0.156,-0.01392
0.16,-0.06458
0.164,-0.04212
0.168,-0.01993
0.172,-0.03991
0.176,-0.02784
0.18,-0.0364
0.184,-0.03709
0.188,-0.02487
0.192,-0.02863
0.196,-0.02975
0.2,-0.0101
0.204,0.00341
0.208,-0.01763
0.212,0.00027
0.216,0.02662
0.22,0.05041
0.224,0.0181
0.228,0.05725
0.232,0.03742
0.236,0.07217
0.24,0.059
0.244,0.0741
0.248,0.05501
0.252,0.03749
0.256,0.01359
0.26,-0.00648
0.264,-0.01239
0.268,-0.01335
0.272,-0.02128
0.276,-0.00598
0.28,-0.01512
0.284,-0.0412
0.288,-0.00462
0.292,-0.02549
0.296,-0.06692
0.3,-0.02879
0.304,-0.03239
0.308,-0.02182
0.312,0.00768
0.316,-0.05776
0.32,-0.02924
0.324,-0.02371
0.328,0.00512
0.332,-0.03196
0.336,-0.02737
0.34,-0.04242
0.344,-0.05964
0.348,-0.03757
0.352,-0.06526
0.356,-0.12659
0.36,-0.13234
0.364,-0.12881
0.368,-0.06963
0.372,0.09138
0.376,0.29378
0.38,0.49275
0.384,0.69758
0.388,0.89056
0.392,0.97824
0.396,0.9399
0.4,0.7933
0.404,0.6062
0.408,0.40059
0.412,0.18357
0.416,-0.00673
0.42,-0.12804
0.424,-0.18521
0.428,-0.19411
0.432,-0.19218
0.436,-0.11983
0.44,-0.10621
0.444,-0.04624
0.448,-0.06544
0.452,-0.02387
0.456,-0.0396
0.46,-0.04179
0.464,-0.02173
0.468,-0.033
0.472,-0.02226
0.476,-0.00825
0.48,-0.03318
0.484,-0.04714
0.488,-0.0269
0.492,-0.02563
0.496,-0.03045
0.5,-0.04852
0.504,-0.04114
0.508,-0.02885
0.512,-0.03978
0.516,-0.04292
0.52,-0.01933
0.524,-0.02262
0.528,-0.04709
0.532,-0.02306
0.536,-0.02203
0.54,-0.0067
0.544,-0.02912
0.548,-0.04304
0.552,-0.01617
0.556,-0.00426
0.56,-0.02536
0.564,0.00036
0.568,-0.02416
0.572,-0.02264
0.576,-0.00544
0.58,0.00915
0.584,-0.02151
0.588,0.00553
0.592,0.01829
0.596,0.0176
0.6,0.04675
0.604,0.02248
0.608,0.04849
0.612,0.04073
0.616,0.09257
0.62,0.06276
0.624,0.10604
0.628,0.08946
0.632,0.10877
0.636,0.14181
0.64,0.12021
0.644,0.14432
0.648,0.17077
0.652,0.17651
0.656,0.15242
0.66,0.18343
0.664,0.19134
0.668,0.18534
0.672,0.18182
0.676,0.21081
0.68,0.19503
0.684,0.17381
0.688,0.16242
0.692,0.16738
0.696,0.18332
0.7,0.16799
0.704,0.16028
0.708,0.13236
0.712,0.13126
0.716,0.13921
0.72,0.09603
0.724,0.08066
0.728,0.0621
0.732,0.06659
0.736,0.01447
0.74,0.03587
0.744,0.03925
0.748,0.03245
0.752,0.01476
0.756,0.01931
0.76,0.00641
0.764,0.00341
0.768,0.01246
0.772,-0.01302
0.776,-0.02412
0.78,-0.01174
0.784,0.01386
0.788,-0.01653
0.792,-0.04697
0.796,-0.02105
0.8,-0.02098
0.804,-0.04033
0.808,-0.00445
0.812,-0.03216
0.816,-0.0283
0.82,-0.04469
0.824,-0.03932
0.828,-0.04416
0.832,-0.02709
0.836,-0.01469
0.84,-0.02236
0.844,-0.0246
0.848,-0.04503
0.852,-0.05584
0.856,-0.01927
0.86,-0.03218
0.864,-0.03872
0.868,-0.03895
0.872,0.0055
0.876,-0.03493
0.88,-0.03436
0.884,-0.02467
0.888,-0.0145
0.892,-0.02322
0.896,-0.00385
0.9,-0.00424
0.904,-0.03012
0.908,-0.01326
0.912,-0.02394
0.916,-0.03066
0.92,-0.02199
0.924,0.00426
0.928,-0.04581
0.932,-0.0229
0.936,-0.04243
0.94,-0.04604
0.944,-0.04066
0.948,-0.05073
0.952,0.00549
0.956,-0.01997
0.96,-0.01726
0.964,-0.01931
0.968,-0.04944
0.972,-0.02384
0.976,0.00923
0.98,-0.01339
0.984,-0.01127
0.988,-0.01698
0.992,-0.03357
0.996,-0.02881
1.0,-0.01323
1.004,-0.01946
1.008,-0.04459
1.012,-0.00783
1.016,0.00486
1.02,-0.00737
1.024,-0.04602
1.028,-0.05005
1.032,-0.01709
1.036,-0.0252
1.04,-0.02517
1.044,-0.03146
1.048,-0.02272
1.052,0.01001
1.056,-0.0109
1.06,-0.00607
1.064,-0.02907
1.068,0.00402
1.072,-0.00903
1.076,0.00803
1.08,0.00158
1.084,0.01591
1.088,0.03328
1.092,0.05833
1.096,0.08896
1.1,0.06805
1.104,0.06448
1.108,0.07684
1.112,0.06696
1.116,0.07057
1.12,0.04492
1.124,0.0735
1.128,0.07178
1.132,0.03572
1.136,0.02208
1.14,0.00345
1.144,0.01011
1.148,-0.01444
1.152,-0.00611
1.156,-0.01231
1.16,0.00398
1.164,-0.01526
1.168,-0.02699
1.172,-0.01892
1.176,-0.01672
1.18,-0.02539
1.184,-0.02663
1.188,-0.00241
1.192,0.00245
1.196,0.00965
1.2,0.00124
1.204,-0.00907
1.208,-0.01373
1.212,-0.0076
1.216,-0.01031
1.22,-0.02264
1.224,-0.0384
1.228,-0.04132
1.232,-0.08009
1.236,-0.13264
1.24,-0.12737
1.244,-0.07362
1.248,0.02935
1.252,0.16784
1.256,0.38
1.26,0.61398
1.264,0.79777
1.268,0.92564
1.272,0.9803
1.276,0.91529
1.28,0.73385
1.284,0.52201
1.288,0.29787
1.292,0.12101
1.296,-0.06488
1.3,-0.17183
1.304,-0.16305
1.308,-0.14926
1.312,-0.12048
1.316,-0.07191
1.32,-0.05802
1.324,-0.0259
1.328,-0.06014
1.332,-0.01178
1.336,-0.02089
1.34,0.00931
1.344,-0.02328
1.348,-0.03282
1.352,-0.03895
1.356,0.00173
1.36,-0.01004
1.364,-0.00642
1.368,-0.01646
1.372,0.00031
1.376,-0.00772
1.38,0.00916
1.384,0.00011
1.388,-0.01747
1.392,-0.0186
1.396,-0.01063
1.4,-0.0157
1.404,0.00862
1.408,-0.01128
1.412,-0.02266
1.416,-0.00894
1.42,0.00357
1.424,-0.00675
1.428,-0.03485
1.432,-0.00806
1.436,-0.02656
1.44,0.00524
1.444,-0.00171
1.448,-0.00663
1.452,0.01093
1.456,0.00756
1.46,0.04497
1.464,0.01146
1.468,-0.00775
1.472,0.04221
1.476,0.03018
1.48,0.06491
1.484,0.06245
1.488,0.07324
1.492,0.07135
1.496,0.08127
1.5,0.08291
1.504,0.11452
1.508,0.11997
1.512,0.11197
1.516,0.15134
1.52,0.14829
1.524,0.1725
1.528,0.1782
1.532,0.16216
1.536,0.17081
1.54,0.2002
1.544,0.2287
1.548,0.19744
1.552,0.22763
1.556,0.21145
1.56,0.21616
1.564,0.19175
1.568,0.19686
1.572,0.2248
1.576,0.16895
1.58,0.16842
1.584,0.13865
1.588,0.14519
1.592,0.15411
1.596,0.10637
1.6,0.1104
1.604,0.09031
1.608,0.09362
1.612,0.09941
1.616,0.06886
1.62,0.03857
1.624,0.0788
1.628,0.06105
1.632,0.028
1.636,0.03388
1.64,0.03223
1.644,-0.02138
1.648,0.0304
1.652,0.01531
1.656,-0.02419
1.66,-0.00967
1.664,0.02314
1.668,-0.02328
1.672,0.0273
1.676,0.02442
1.68,0.0064
1.684,-0.00465
1.688,-0.00221
1.692,-0.02053
1.696,0.01103
1.7,-0.01496
1.704,-0.00403
1.708,-0.00781
1.712,-0.01352
1.716,-0.00059
1.72,-0.01399
1.724,-0.01013
1.728,-0.0009
1.732,-0.01376
1.736,-0.00991
1.74,-0.01426
1.744,-0.03777
1.748,-0.00341
1.752,-0.01226
1.756,-0.02045
1.76,0.00056
1.764,-0.00172
1.768,-0.02315
1.772,0.00603
1.776,-0.02866
1.78,-0.00893
1.784,-0.00315
1.788,0.01825
1.792,0.02386
1.796,0.00443
1.8,0.011
1.804,-0.02139
1.808,-0.01505
1.812,-0.00262
1.816,-0.00941
1.82,0.00133
1.824,-0.00168
1.828,0.02067
1.832,0.0105
1.836,0.02036
1.84,0.02596
1.844,0.02598
1.848,0.01371
1.852,0.03996
1.856,0.0631
1.86,0.05995
1.864,0.07384
1.868,0.08142
1.872,0.08933
1.876,0.12306
1.88,0.10891
1.884,0.08474
1.888,0.09981
1.892,0.08366
1.896,0.08845
1.9,0.03139
1.904,0.04913
1.908,0.03701
1.912,-0.00641
1.916,-0.00319
1.92,0.00624
1.924,0.02544
1.928,0.00746
1.932,0.0156
1.936,0.02493
1.94,-0.00473
1.944,0.00982
1.948,0.01475
1.952,0.01648
1.956,0.0015
1.96,-0.0009
1.964,0.00729
1.968,0.01185
1.972,-0.0109
1.976,-0.01368
1.98,0.03147
1.984,0.00731
1.988,-0.00389
1.992,-0.04588
1.996,-0.01756
2.0,-0.11153
2.004,-0.10661
2.008,-0.12674
2.012,-0.05873
2.016,0.06938
2.02,0.21688
2.024,0.43655
2.028,0.65672
2.032,0.86373
2.036,1.00353
2.04,1.00141
2.044,0.9247
2.048,0.7378
2.052,0.49889
2.056,0.30156
2.06,0.07183
2.064,-0.05682
2.068,-0.13879
2.072,-0.16766
2.076,-0.11834
2.08,-0.11358
2.084,-0.07133
2.088,-0.03381
2.092,-0.02064
2.096,0.00357
2.1,0.0157
2.104,0.00546
2.108,-0.01638
2.112,0.02732
2.116,0.00538
2.12,0.02197
2.124,0.00262
2.128,0.02362
2.132,0.01374
2.136,-0.00486
2.14,0.00538
2.144,0.00411
2.148,0.0025
2.152,0.02148
2.156,0.00687
2.16,-0.00701
2.164,0.01996
2.168,0.03034
2.172,0.01044
2.176,0.01168
2.18,0.01836
2.184,0.00277
2.188,0.01551
2.192,0.02017
2.196,0.00777
2.2,-0.01745
2.204,0.01269
2.208,0.00767
2.212,0.00367
2.216,0.03638
2.22,0.02052
2.224,0.01546
2.228,0.02616
2.232,0.04295
2.236,0.05457
2.24,0.05433
2.244,0.05546
2.248,0.0897
2.252,0.06629
2.256,0.10518
2.26,0.09257
2.264,0.10094
2.268,0.11044
2.272,0.152
2.276,0.14998
2.28,0.17231
2.284,0.16245
2.288,0.18485
2.292,0.18135
2.296,0.196
2.3,0.20341
2.304,0.19498
2.308,0.22698
2.312,0.23678
2.316,0.23317
2.32,0.23864
2.324,0.23532
2.328,0.21416
2.332,0.21259
2.336,0.19521
2.34,0.2137
2.344,0.18515
2.348,0.20104
2.352,0.17911
2.356,0.18167
2.36,0.17932
2.364,0.14431
2.368,0.12148
2.372,0.1319
2.376,0.10216
2.38,0.06161
2.384,0.09465
2.388,0.07157
2.392,0.06312
2.396,0.05213
2.4,0.0775
2.404,0.06131
2.408,0.05094
2.412,0.02559
2.416,0.05459
2.42,0.04445
2.424,0.03409
2.428,0.02026
2.432,0.0159
2.436,0.03074
2.44,0.02948
2.444,0.01566
2.448,0.0479
2.452,0.00766
2.456,0.02304
2.46,0.00067
2.464,0.02014
2.468,0.02357
2.472,0.02352
2.476,-0.00781
2.48,0.0325
2.484,0.01545
2.488,0.01042
2.492,0.03052
2.496,0.039
2.5,0.00813
2.504,0.03055
2.508,0.02035
2.512,0.00819
2.516,0.00364
2.52,-0.00295
2.524,0.03133
2.528,0.01661
2.532,0.00027
2.536,0.02243
2.54,0.0264
2.544,0.03618
2.548,-0.02083
2.552,0.01369
2.556,0.01043
2.56,0.03132
2.564,0.00886
2.568,0.00878
2.572,0.02404
2.576,0.01141
2.58,0.01473
2.584,0.02541
2.588,0.02462
2.592,0.03465
2.596,0.02737
2.6,0.03352
2.604,0.04324
2.608,0.01146
2.612,0.01752
2.616,0.00486
2.62,0.01882
2.624,0.03022
2.628,-0.0131
2.632,0.01431
2.636,0.01071
2.64,0.03854
2.644,0.02101
2.648,0.01304
2.652,0.00107
2.656,0.05622
2.66,0.00894
2.664,0.02461
2.668,0.04055
2.672,0.03482
2.676,0.02195
2.68,0.02424
2.684,0.01503
2.688,0.0435
2.692,0.01291
2.696,0.02473
2.7,0.02757
2.704,0.02696
2.708,0.01374
2.712,0.00753
2.716,0.045
2.72,0.04024
2.724,0.02058
2.728,0.00854
2.732,0.03558
2.736,0.03323
2.74,0.00656
2.744,0.02698
2.748,0.01814
2.752,0.03281
2.756,0.03363
2.76,0.04743
2.764,0.05718
2.768,0.0763
2.772,0.06367
2.776,0.08123
2.78,0.07753
2.784,0.10135
2.788,0.07969
2.792,0.1286
2.796,0.13097
2.8,0.12839
2.804,0.09063
2.808,0.08836
2.812,0.07489
2.816,0.09628
2.82,0.07472
2.824,0.03293
2.828,0.06304
2.832,0.04551
2.836,0.03696
2.84,0.03025
2.844,0.03585
2.848,0.0068
2.852,0.02135
2.856,0.0285
2.86,0.01641
2.864,0.0135
2.868,0.02524
2.872,0.02702
2.876,0.03991
2.88,0.07321
2.884,0.01822
2.888,0.00796
2.892,0.04036
2.896,0.02598
2.9,0.01565
2.904,0.02192
2.908,0.0168
2.912,-0.01442
2.916,-0.01006
2.92,-0.05778
2.924,-0.09244
2.928,-0.06821
2.932,-0.02623
2.936,0.08924
2.94,0.29053
2.944,0.51298
2.948,0.66405
2.952,0.89717
2.956,0.98787
2.96,1.02619
2.964,0.95887
2.968,0.71633
2.972,0.49199
2.976,0.2645
2.98,0.08329
2.984,-0.03293
2.988,-0.10728
2.992,-0.1452
2.996,-0.08251
3.0,-0.07882
3.004,-0.01588
3.008,-0.01964
3.012,0.00073
3.016,0.04816
3.02,0.02787
3.024,0.00747
3.028,0.05167
3.032,0.04601
3.036,0.03094
3.04,0.01747
3.044,0.02373
3.048,-0.00084
3.052,0.02171
3.056,0.0251
3.06,0.02244
3.064,0.02832
3.068,0.00654
3.072,0.04379
3.076,0.01712
3.08,0.00142
3.084,0.03051
3.088,0.01586
3.092,0.03205
3.096,0.038
3.1,0.0237
3.104,0.01136
3.108,0.04758
3.112,0.03817
3.116,0.00678
3.12,0.02299
3.124,0.07547
3.128,0.04907
3.132,0.04067
3.136,0.04576
3.14,0.06302
3.144,0.05109
3.148,0.0319
3.152,0.06159
3.156,0.06973
3.16,0.09281
3.164,0.11554
3.168,0.07629
3.172,0.13226
3.176,0.10166
3.18,0.12726
3.184,0.14071
3.188,0.13359
3.192,0.14187
3.196,0.16598
3.2,0.19221
3.204,0.17781
3.208,0.19019
3.212,0.19975
3.216,0.22796
3.22,0.26137
3.224,0.23652
3.228,0.24223
3.232,0.26255
3.236,0.2707
3.24,0.26114
3.244,0.23911
3.248,0.22901
3.252,0.24017
3.256,0.22182
3.26,0.20864
3.264,0.22037
3.268,0.20946
3.272,0.20364
3.276,0.19919
3.28,0.17798
3.284,0.17801
3.288,0.14632
3.292,0.1287
3.296,0.15126
3.3,0.10955
3.304,0.08858
3.308,0.10139
3.312,0.07974
3.316,0.08571
3.32,0.05591
3.324,0.07556
3.328,0.08938
3.332,0.04232
3.336,0.03389
3.34,0.03363
3.344,0.00937
3.348,0.06258
3.352,0.04247
3.356,0.062
3.36,0.05299
3.364,0.04985
3.368,0.02416
3.372,0.03358
3.376,0.03911
3.38,0.04354
3.384,0.0076
3.388,0.04654
3.392,0.04251
3.396,0.04127
3.4,0.02866
3.404,0.03952
3.408,0.04016
3.412,0.04901
3.416,0.02741
3.42,0.01638
3.424,0.05187
3.428,0.02254
3.432,0.03301
3.436,0.03273
3.44,0.02729
3.444,0.02525
3.448,-0.00327
3.452,0.02535
3.456,0.04125
3.46,0.03857
3.464,0.03705
3.468,0.01856
3.472,0.0111
3.476,0.08157
3.48,0.00977
3.484,0.03767
3.488,0.0253
3.492,0.02219
3.496,0.04968
3.5,0.01333
3.504,-0.00109
3.508,0.02045
3.512,0.01196
3.516,0.01162
3.52,0.0202
3.524,0.03711
3.528,0.0306
3.532,0.02694
3.536,0.04219
3.54,0.03181
3.544,0.02989
3.548,0.00802
3.552,0.03514
3.556,0.01567
3.56,0.03508
3.564,0.01642
3.568,0.01443
3.572,0.05221
3.576,0.0411
3.58,0.03207
3.584,0.04323
3.588,0.0104
3.592,0.05172
3.596,0.0371
3.6,0.04785
3.604,0.00848
3.608,0.03799
3.612,0.04444
3.616,0.02558
3.62,0.00689
3.624,0.00058
3.628,0.02172
3.632,0.03609
3.636,0.04331
3.64,0.05261
3.644,0.04907
3.648,0.04009
3.652,0.02991
3.656,0.05086
3.66,0.03614
3.664,0.0346
3.668,0.02043
3.672,0.06067
3.676,0.03097
3.68,0.04713
3.684,0.03274
3.688,0.02262
3.692,0.03758
3.696,0.01502
3.7,0.0401
3.704,0.02316
3.708,0.05701
3.712,0.05545
3.716,0.06196
3.72,0.07433
3.724,0.08844
3.728,0.10396
3.732,0.12636
3.736,0.12323
3.74,0.14387
3.744,0.13713
3.748,0.1198
3.752,0.14656
3.756,0.13728
3.76,0.10641
3.764,0.06972
3.768,0.05987
3.772,0.05313
3.776,0.04951
3.78,0.04585
3.784,0.05918
3.788,0.03335
3.792,0.05422
3.796,0.08465
3.8,0.00704
3.804,0.01578
3.808,0.03421
3.812,0.04856
3.816,0.00082
3.82,0.03191
3.824,0.025
3.828,0.02528
3.832,0.05046
3.836,0.04217
3.84,0.01946
3.844,0.02871
3.848,0.01194
3.852,0.03197
3.856,0.03066
3.86,-0.00847
3.864,-0.04434
3.868,-0.05439
3.872,-0.1049
3.876,-0.02006
3.88,0.05913
3.884,0.21355
3.888,0.41691
3.892,0.62626
3.896,0.8177
3.9,0.98149
3.904,1.00441
3.908,0.95535
3.912,0.82366
3.916,0.56581
3.92,0.35187
3.924,0.12122
3.928,-0.00516
3.932,-0.13185
3.936,-0.13309
3.94,-0.11117
3.944,-0.08398
3.948,-0.00516
3.952,-0.00949
3.956,0.01176
3.96,0.01296
3.964,0.00709
3.968,0.01903
3.972,0.01445
3.976,0.01273
3.98,0.01673
3.984,0.0072
3.988,0.0391
3.992,0.0287
3.996,0.05173
4.0,0.05865
4.004,0.0401
4.008,0.04573
4.012,0.05791
4.016,0.01755
4.02,0.03102
4.024,0.01732
4.028,0.01532
4.032,0.01745
4.036,0.01881
4.04,0.04376
4.044,0.05176
4.048,0.0306
4.052,0.04216
4.056,0.04427
4.06,0.05892
4.064,0.0372
4.068,0.0094
4.072,0.02364
4.076,0.04932
4.08,0.07158
4.084,0.04638
4.088,0.01851
4.092,0.02952
4.096,0.05209
4.1,0.06827
4.104,0.0611
4.108,0.06326
4.112,0.05376
4.116,0.08377
4.12,0.10477
4.124,0.11606
4.128,0.11347
4.132,0.13253
4.136,0.15363
4.14,0.18549
4.144,0.17863
4.148,0.18124
4.152,0.20032
4.156,0.22436
4.16,0.22259
4.164,0.22401
4.168,0.22384
4.172,0.25142
4.176,0.22949
4.18,0.23172
4.184,0.23339
4.188,0.23323
4.192,0.25132
4.196,0.23834
4.2,0.23795
4.204,0.22077
4.208,0.19688
4.212,0.1855
4.216,0.20896
4.22,0.17978
4.224,0.19709
4.228,0.15953
4.232,0.15631
4.236,0.13061
4.24,0.09758
4.244,0.12543
4.248,0.09643
4.252,0.09149
4.256,0.07729
4.26,0.08684
4.264,0.06634
4.268,0.06921
4.272,0.07225
4.276,0.06142
4.28,0.03723
4.284,0.03437
4.288,0.03089
4.292,0.02301
4.296,0.06009
4.3,0.03978
4.304,0.03004
4.308,0.0481
4.312,0.03952
4.316,0.01261
4.32,0.01368
4.324,0.02108
4.328,0.02669
4.332,0.00936
4.336,0.00912
4.34,0.0258
4.344,0.02989
4.348,0.02999
4.352,0.02827
4.356,0.04349
4.36,0.01658
4.364,0.03532
4.368,0.02222
4.372,0.00509
4.376,-0.00749
4.38,0.0275
4.384,0.01257
4.388,0.05218
4.392,0.03367
4.396,0.02757
4.4,0.02526
4.404,0.04324
4.408,0.04032
4.412,0.05431
4.416,0.05928
4.42,0.0433
4.424,0.09407
4.428,0.11264
4.432,0.09875
4.436,0.12734
4.44,0.13397
4.444,0.10159
4.448,0.11509
4.452,0.09766
4.456,0.10007
4.46,0.07693
4.464,0.07123
4.468,0.04809
4.472,0.03766
4.476,0.05893
4.48,0.03668
4.484,0.00017
4.488,0.017
4.492,0.02401
4.496,0.02289
4.5,-0.00396
4.504,-0.00668
4.508,0.01987
4.512,-0.00678
4.516,0.00908
4.52,0.01534
4.524,0.01522
4.528,0.02789
4.532,0.00091
4.536,0.03394
4.54,0.01345
4.544,0.04611
4.548,0.00185
4.552,0.01391
4.556,-0.00731
4.56,-0.04288
4.564,-0.07012
4.568,-0.11336
4.572,-0.08637
4.576,0.01777
4.58,0.14549
4.584,0.34151
4.588,0.57754
4.592,0.76244
4.596,0.91696
4.6,0.99932
4.604,0.98365
4.608,0.836
4.612,0.64255
4.616,0.45004
4.62,0.20019
4.624,0.02668
4.628,-0.07626
4.632,-0.16725
4.636,-0.16472
4.64,-0.10306
4.644,-0.0882
4.648,-0.03891
4.652,-0.02056
4.656,-0.00213
4.66,0.02151
4.664,0.00595
4.668,0.02389
4.672,0.00762
4.676,0.02777
4.68,0.01386
4.684,0.01412
4.688,0.01025
4.692,0.01028
4.696,0.01609
4.7,0.01192
4.704,0.00852
4.708,0.03574
4.712,0.00692
4.716,0.01812
4.72,0.01266
4.724,0.01315
4.728,0.01529
4.732,-0.00755
4.736,0.02607
4.74,0.00879
4.744,0.01388
4.748,0.02743
4.752,0.0177
4.756,0.02988
4.76,0.00783
4.764,0.0156
4.768,0.02835
4.772,0.0244
4.776,0.01762
4.78,0.0002
4.784,0.01302
4.788,0.04994
4.792,0.04077
4.796,0.05288
4.8,0.06633
4.804,0.059
4.808,0.07669
4.812,0.09388
4.816,0.09262
4.82,0.11965
4.824,0.10933
4.828,0.13018
4.832,0.12209
4.836,0.13918
4.84,0.16066
4.844,0.15207
4.848,0.19274
4.852,0.1969
4.856,0.21419
4.86,0.20943
4.864,0.22355
4.868,0.25067
4.872,0.23012
4.876,0.26638
4.88,0.23801
4.884,0.22468
4.888,0.23973
4.892,0.20457
4.896,0.2204
4.9,0.18175
4.904,0.1794
4.908,0.19888
4.912,0.16491
4.916,0.17895
4.92,0.1555
4.924,0.15835
4.928,0.15075
4.932,0.11469
4.936,0.09047
4.94,0.08925
4.944,0.08403
4.948,0.1239
4.952,0.07669
4.956,0.06919
4.96,0.06796
4.964,0.04809
4.968,0.06103
4.972,0.03758
4.976,0.02337
4.98,0.01899
4.984,0.01392
4.988,0.01395
4.992,0.01933
4.996,0.01877
5.0,0.00321
5.004,-0.00228
5.008,0.01467
5.012,0.02932
5.016,-0.01372
5.02,-0.01388
5.024,-0.00493
5.028,0.00422
5.032,-0.00665
5.036,0.01814
5.04,0.00722
5.044,0.00154
5.048,0.01295
5.052,-0.00359
5.056,-0.00527
5.06,0.01024
5.064,-0.00624
5.068,-0.02155
5.072,-0.01492
5.076,0.01722
5.08,-0.03048
5.084,0.01334
5.088,0.02923
5.092,0.02265
5.096,0.02671
5.1,0.01012
5.104,0.00331
5.108,-0.01644
5.112,-0.03499
5.116,-0.01763
5.12,-0.01027
5.124,0.02099
5.128,0.0121
5.132,0.00478
5.136,0.00403
5.14,0.0297
5.144,0.0013
5.148,0.00133
5.152,0.02888
5.156,0.01902
5.16,-0.01182
5.164,0.01514
5.168,0.02546
5.172,0.00209
5.176,-0.00322
5.18,0.01451
5.184,0.00115
5.188,-0.01632
5.192,0.0119
5.196,-0.01497
5.2,0.00903
5.204,0.0079
5.208,0.00353
5.212,0.00826
5.216,-0.00775
5.22,0.01285
5.224,0.009
5.228,0.01371
5.232,-0.00502
5.236,0.02605
5.24,0.00577
5.244,0.00072
5.248,0.01854
5.252,-0.0397
5.256,0.01001
5.26,0.0033
5.264,-0.01194
5.268,0.0258
5.272,0.01558
5.276,0.01609
5.28,0.00368
5.284,0.00977
5.288,-0.01798
5.292,-0.01768
5.296,0.00013
5.3,0.00604
5.304,-0.01234
5.308,0.0071
5.312,-0.02819
5.316,0.00372
5.32,-0.00358
5.324,0.0167
5.328,-0.00957
5.332,-0.02306
5.336,0.01309
5.34,0.00465
5.344,0.00335
5.348,-0.03024
5.352,0.00193
5.356,0.01761
5.36,0.00621
5.364,0.00409
5.368,-0.01159
5.372,0.00468
5.376,0.02021
5.38,0.01807
5.384,0.03852
5.388,0.05278
5.392,0.02914
5.396,0.05882
5.4,0.08226
5.404,0.08395
5.408,0.08568
5.412,0.06989
5.416,0.08929
5.42,0.08562
5.424,0.07868
5.428,0.08217
5.432,0.0685
5.436,0.07804
5.44,0.03963
5.444,0.02158
5.448,0.0091
5.452,0.03425
5.456,-0.02472
5.46,0.0084
5.464,0.00123
5.468,0.0095
5.472,0.012
5.476,-0.00516
5.48,-0.02105
5.484,0.01174
5.488,0.00607
5.492,-0.02216
5.496,0.001
5.5,0.02002
5.504,0.01209
5.508,0.02334
5.512,-0.00925
5.516,-0.03384
5.52,-0.00542
5.524,-0.01711
5.528,-0.02038
5.532,-0.03992
5.536,-0.08156
5.54,-0.14023
5.544,-0.13211
5.548,-0.08136
5.552,-0.00976
5.556,0.18407
5.56,0.37682
5.564,0.57131
5.568,0.76859
5.572,0.95053
5.576,0.98334
5.58,0.93849
5.584,0.76335
5.588,0.564
5.592,0.34935
5.596,0.09287
5.6,-0.02174
5.604,-0.16709
5.608,-0.18614
5.612,-0.17039
5.616,-0.12727
5.62,-0.08619
5.624,-0.05243
5.628,-0.04599
5.632,-0.05034
5.636,-0.02852
5.64,0.00039
5.644,-0.01625
5.648,-0.00534
5.652,-0.02509
5.656,0.00907
5.66,-0.00586
5.664,0.00936
5.668,-0.00157
5.672,-0.05288
5.676,0.00502
5.68,-0.00061
5.684,-0.0091
5.688,-0.01783
5.692,-0.00822
5.696,-0.02744
5.7,-0.01261
5.704,0.01794
5.708,-0.02525
5.712,-0.00976
5.716,-0.02204
5.72,0.01198
5.724,0.00309
5.728,0.00856
5.732,-0.01034
5.736,-0.02642
5.74,-0.01582
5.744,-0.0015
5.748,-0.00868
5.752,0.0044
5.756,-0.0037
5.76,0.01255
5.764,0.01189
5.768,0.01241
5.772,0.0176
5.776,0.02921
5.78,0.0587
5.784,0.07392
5.788,0.03516
5.792,0.08314
5.796,0.07193
5.8,0.08414
5.804,0.10668
5.808,0.1092
5.812,0.12865
5.816,0.14738
5.82,0.16181
5.824,0.1328
5.828,0.16388
5.832,0.18073
5.836,0.1835
5.84,0.21372
5.844,0.17951
5.848,0.23042
5.852,0.22293
5.856,0.19662
5.86,0.23446
5.864,0.17876
5.868,0.22309
5.872,0.19201
5.876,0.18639
5.88,0.18769
5.884,0.17766
5.888,0.14014
5.892,0.13552
5.896,0.12828
5.9,0.12873
5.904,0.13242
5.908,0.08629
5.912,0.07486
5.916,0.09246
5.92,0.06861
5.924,0.0454
5.928,0.06101
5.932,0.06234
5.936,0.0506
5.94,0.01576
5.944,-0.00205
5.948,-0.01756
5.952,-0.01242
5.956,0.02092
5.96,-0.00725
5.964,0.02235
5.968,-0.02072
5.972,0.01114
5.976,-0.01789
5.98,-0.02116
5.984,-0.03139
5.988,-0.00864
5.992,-0.01478
5.996,-0.0207
6.0,-0.03348
6.004,-0.01279
6.008,-0.00384
6.012,-0.03786
6.016,-0.05422
6.02,-0.01386
6.024,-0.01082
6.028,-0.02485
6.032,-0.02335
6.036,-0.00294
6.04,-0.0234
6.044,-0.02846
6.048,-0.03157
6.052,-0.02106
6.056,-0.03002
6.06,-0.04098
6.064,-0.03389
6.068,-0.02253
6.072,-0.019
6.076,-0.03276
6.08,-0.00739
6.084,-0.00046
6.088,-0.04198
6.092,-0.02924
6.096,-0.03558
6.1,-0.00482
6.104,-0.04314
6.108,-0.01126
6.112,-0.03197
6.116,-0.03496
6.12,-0.049
6.124,-0.02665
6.128,-0.00705
6.132,-0.00367
6.136,-0.03353
6.14,-0.01347
6.144,-0.0241
6.148,-0.04557
6.152,-0.01852
6.156,-0.01949
6.16,-0.01509
6.164,-0.03598
6.168,-0.01125
6.172,-0.01244
6.176,-0.03008
6.18,-0.02442
6.184,-0.01112
6.188,-0.01561
6.192,0.00823
6.196,0.00216
6.2,-0.01076
6.204,-0.01426
6.208,-0.00669
6.212,-0.03402
6.216,-0.04256
6.22,-0.03599
6.224,-0.03858
6.228,-0.01481
6.232,-0.03798
6.236,-0.03714
6.24,-0.04341
6.244,-0.03502
6.248,-0.0103
6.252,-0.03393
6.256,-0.01781
6.26,-0.03839
6.264,-0.02848
6.268,-0.0273
6.272,-0.0424
6.276,-0.01247
6.28,-0.02551
6.284,-0.01161
6.288,-0.04813
6.292,-0.04429
6.296,-0.0148
6.3,-0.011
6.304,-0.04583
6.308,-0.056
6.312,-0.04311
6.316,-0.01469
6.32,-0.01129
6.324,-0.03426
6.328,-0.0333
6.332,-0.02267
6.336,-0.03752
6.34,-0.01059
6.344,-0.03428
6.348,-0.03606
6.352,-0.02878
6.356,-0.00528
6.36,-0.02621
6.364,-0.03672
6.368,-0.00753
6.372,0.0137
6.376,0.00949
6.38,0.01167
6.384,0.00723
6.388,0.02689
6.392,0.02835
6.396,0.0582
6.4,0.082
6.404,0.08158
6.408,0.07058
6.412,0.07258
6.416,0.05878
6.42,0.05859
6.424,0.07483
6.428,0.0361
6.432,0.03294
6.436,0.00787
6.44,-0.0198
6.444,-0.00752
6.448,-0.00085
6.452,-0.02965
6.456,-0.01784
6.46,-0.02601
6.464,0.00182
6.468,-0.02408
6.472,-0.02883
6.476,-0.0313
6.48,-0.02514
6.484,-0.03112
6.488,-0.01171
6.492,-0.01853
6.496,0.00847
6.5,-0.0383
6.504,-0.03394
6.508,-0.03034
6.512,-0.04441
6.516,-0.03512
6.52,-0.06216
6.524,-0.04176
6.528,-0.08653
6.532,-0.14432
6.536,-0.14584
6.54,-0.1238
6.544,-0.0393
6.548,0.09171
6.552,0.27532
6.556,0.48148
6.56,0.68889
6.564,0.85776
6.568,0.9562
6.572,0.9235
6.576,0.81241
6.58,0.63878
6.584,0.38143
6.588,0.16304
6.592,-0.01678
6.596,-0.14722
6.6,-0.20396
6.604,-0.20296
6.608,-0.14807
6.612,-0.11504
6.616,-0.0822
6.62,-0.03104
6.624,-0.03318
6.628,-0.03983
6.632,-0.03129
6.636,-0.0227
6.64,-0.03625
6.644,-0.02312
6.648,-0.02646
6.652,-0.01693
6.656,-0.04249
6.66,-0.02992
6.664,-0.02456
6.668,-0.03198
6.672,-0.05211
6.676,-0.03415
6.68,-0.00748
6.684,-0.04733
6.688,-0.01101
6.692,-0.03617
6.696,-0.02472
6.7,-0.03019
6.704,-0.04445
6.708,-0.01847
6.712,-0.04921
6.716,-0.01598
6.72,-0.03322
6.724,-0.03339
6.728,-0.02832
6.732,0.00382
6.736,-0.02255
6.74,-0.04693
6.744,-0.00707
6.748,0.00412
6.752,-0.01563
6.756,0.01631
6.76,-0.00339
6.764,0.00431
6.768,-0.00122
6.772,0.02304
6.776,0.02792
6.78,0.04731
6.784,0.04472
6.788,0.04983
6.792,0.06736
6.796,0.0683
6.8,0.10412
6.804,0.12329
6.808,0.12482
6.812,0.13742
6.816,0.15711
6.82,0.13908
6.824,0.15419
6.828,0.17648
6.832,0.16838
6.836,0.1882
6.84,0.16879
6.844,0.17229
6.848,0.16353
6.852,0.21877
6.856,0.16225
6.86,0.17751
6.864,0.1895
6.868,0.16348
6.872,0.14665
6.876,0.14233
6.88,0.1397
6.884,0.13813
6.888,0.12903
6.892,0.11263
6.896,0.0872
6.9,0.07776
6.904,0.07753
6.908,0.07108
6.912,0.04088
6.916,0.04955
6.92,0.04155
6.924,0.03278
6.928,0.04917
6.932,-0.00794
6.936,0.0265
6.94,0.00354
6.944,0.00308
6.948,0.00684
6.952,0.00442
6.956,0.01693
6.96,-0.01071
6.964,-0.01627
6.968,-0.02095
6.972,-0.03529
6.976,-0.03444
6.98,-0.03681
6.984,0.00074
6.988,-0.04635
6.992,-0.0179
6.996,-0.02112
7.0,-0.03034
7.004,-0.02704
7.008,-0.01988
7.012,-0.0164
7.016,0.01354
7.02,0.02188
7.024,0.01112
7.028,0.0255
7.032,0.04612
7.036,0.02755
7.04,0.03457
7.044,0.03918
7.048,0.06503
7.052,0.05898
7.056,0.05057
7.06,0.05329
7.064,0.02768
7.068,0.02372
7.072,0.00311
7.076,-0.01711
7.08,-0.02257
7.084,-0.01826
7.088,-0.00396
7.092,-0.02204
7.096,-8e-05
7.1,-0.01731
7.104,-0.03621
7.108,-0.02039
7.112,-0.03637
7.116,-0.04128
7.12,-0.01705
7.124,-0.03062
7.128,-0.02672
7.132,-0.05344
7.136,-0.02986
7.14,-0.02428
7.144,-0.03303
7.148,-0.0541
7.152,-0.04519
7.156,-0.02185
7.16,-0.066
7.164,-0.06666
7.168,-0.13026
7.172,-0.13356
7.176,-0.14256
7.18,-0.06685
7.184,0.05744
7.188,0.2391
7.192,0.46384
7.196,0.65976
7.2,0.85851
7.204,0.95415
7.208,0.94415
7.212,0.85462
7.216,0.63387
7.22,0.42833
7.224,0.20507
7.228,0.01072
7.232,-0.10915
7.236,-0.19534
7.24,-0.20232
7.244,-0.16343
7.248,-0.11876
7.252,-0.09169
7.256,-0.05113
7.26,-0.05292
7.264,-0.01716
7.268,-0.00253
7.272,-0.02255
7.276,-0.03003
7.28,-0.03231
7.284,-0.03759
7.288,-0.04869
7.292,-0.03983
7.296,-0.04503
7.3,-0.00778
7.304,-0.00097
7.308,-0.01361
7.312,-0.00964
7.316,-0.04346
7.32,-0.05932
7.324,-0.02779
7.328,-0.04131
7.332,-0.01058
7.336,-0.04143
7.34,-0.00718
7.344,-0.01847
7.348,-0.0041
7.352,-0.03036
7.356,-0.01579
7.36,-0.02045
7.364,-0.03682
7.368,-0.01873
7.372,-0.04136
7.376,-0.0247
7.38,-0.02359
7.384,-0.01828
7.388,-0.00776
7.392,-0.01581
7.396,0.00578
7.4,-0.00319
7.404,0.01243
7.408,0.01691
7.412,0.03151
7.416,0.03582
7.42,0.03167
7.424,0.06013
7.428,0.07071
7.432,0.07575
7.436,0.08355
7.44,0.0973
7.444,0.11642
7.448,0.10934
7.452,0.15555
7.456,0.16044
7.46,0.14681
7.464,0.14686
7.468,0.1689
7.472,0.16344
7.476,0.17806
7.48,0.19695
7.484,0.21701
7.488,0.20189
7.492,0.18425
7.496,0.21986
7.5,0.20253
7.504,0.17306
7.508,0.16104
7.512,0.16691
7.516,0.17633
7.52,0.14736
7.524,0.14113
7.528,0.13171
7.532,0.08544
7.536,0.09554
7.54,0.07103
7.544,0.0299
7.548,0.05004
7.552,0.065
7.556,0.02794
7.56,0.04208
7.564,0.01282
7.568,0.00445
7.572,0.00845
7.576,0.0086
7.58,0.01094
7.584,0.01115
7.588,0.01179
7.592,-0.01355
7.596,-0.01415
7.6,-0.0176
7.604,-0.03775
7.608,0.00645
7.612,-0.0154
7.616,-0.02773
7.62,-0.02478
7.624,-0.04507
7.628,-0.0396
7.632,-0.01692
7.636,-0.03489
7.64,-0.04113
7.644,-0.04606
7.648,-0.00198
7.652,-0.03793
7.656,-0.02336
7.66,0.00107
7.664,-0.04126
7.668,0.01016
7.672,-0.04002
7.676,-0.01159
7.68,-0.00579
7.684,-0.02782
7.688,-0.01617
7.692,-0.02066
7.696,-0.01721
7.7,-0.01279
7.704,-0.00131
7.708,-0.02374
7.712,0.00662
7.716,-0.04177
7.72,-0.01882
7.724,-0.02205
7.728,-0.01338
7.732,-0.00319
7.736,-0.00803
7.74,-0.04084
7.744,-0.04174
7.748,-0.01996
7.752,-0.03808
7.756,-0.02183
7.76,-0.00907
7.764,-0.02306
7.768,-0.01251
7.772,-0.02867
7.776,-0.02958
7.78,-0.0299
7.784,-0.00092
7.788,2e-05
7.792,-0.03451
7.796,0.00993
7.8,-0.01951
7.804,-0.01914
7.808,-0.00769
7.812,-0.01295
7.816,0.02582
7.82,0.00191
7.824,-0.05275
7.828,-0.01252
7.832,-0.00918
7.836,-0.04341
7.84,-0.02886
7.844,-0.01949
7.848,-0.00074
7.852,-0.04446
7.856,-0.01234
7.86,-0.00517
7.864,-0.02328
7.868,-0.01609
7.872,0.02147
7.876,0.00642
7.88,0.03477
7.884,0.00218
7.888,0.03583
7.892,0.04698
7.896,0.0305
7.9,0.06275
7.904,0.05342
7.908,0.10095
7.912,0.08149
7.916,0.06694
7.92,0.07951
7.924,0.08414
7.928,0.06652
7.932,0.0314
7.936,0.0459
7.94,0.01841
7.944,0.02884
7.948,0.02309
7.952,0.02205
7.956,-0.01424
7.96,-0.00844
7.964,-0.00825
7.968,-0.00318
7.972,-0.0286
7.976,-0.03826
7.98,-0.01202
7.984,-0.01273
7.988,-0.01837
7.992,0.00592
7.996,-0.00332
8.0,-0.0075
8.004,-0.03436
8.008,-0.01335
8.012,-0.01584
8.016,0.01531
8.02,-0.00969
8.024,-0.02612
8.028,-0.07215
8.032,-0.07914
8.036,-0.12386
8.04,-0.09507
8.044,-0.10928
8.048,-0.00611
8.052,0.13846
8.056,0.3342
8.06,0.56497
8.064,0.75747
8.068,0.90455
8.072,1.00175
8.076,0.93098
8.08,0.79843
8.084,0.58444
8.088,0.34592
8.092,0.13002
8.096,0.00284
8.1,-0.11666
8.104,-0.1866
8.108,-0.19822
8.112,-0.12148
8.116,-0.0739
8.12,-0.0336
8.124,-0.01039
8.128,-0.01606
8.132,-0.02105
8.136,-0.00618
8.14,-0.01902
8.144,-0.00849
8.148,0.00923
8.152,0.00522
8.156,-0.01626
8.16,-0.01734
8.164,-0.00204
8.168,-0.00207
8.172,-0.03003
8.176,-0.01842
8.18,0.01629
8.184,-0.01994
8.188,-0.0316
8.192,-0.03721
8.196,0.01877
8.2,-0.0017
8.204,-5e-05
8.208,-0.00082
8.212,0.04031
8.216,-0.0152
8.22,-0.01238
8.224,0.00754
8.228,0.00886
8.232,-0.01036
8.236,-0.00288
8.24,-0.024
8.244,0.00637
8.248,-0.01087
8.252,-0.01601
8.256,-0.01427
8.26,0.00226
8.264,0.03038
8.268,0.0393
8.272,0.04461
8.276,0.03744
8.28,0.04553
8.284,0.07393
8.288,0.05741
8.292,0.08011
8.296,0.08095
8.3,0.09263
8.304,0.09365
8.308,0.12691
8.312,0.13014
8.316,0.15296
8.32,0.14716
8.324,0.18595
8.328,0.17022
8.332,0.21078
8.336,0.19763
8.34,0.1948
8.344,0.21156
8.348,0.18887
8.352,0.20782
8.356,0.20616
8.36,0.21844
8.364,0.21304
8.368,0.19031
8.372,0.21783
8.376,0.18827
8.38,0.16407
8.384,0.16425
8.388,0.19106
8.392,0.1505
8.396,0.12437
8.4,0.12689
8.404,0.10245
8.408,0.09557
8.412,0.08121
8.416,0.06125
8.42,0.05616
8.424,0.06362
8.428,0.06654
8.432,0.04207
8.436,0.02647
8.44,0.03819
8.444,0.03057
8.448,0.00967
8.452,-0.00274
8.456,0.01978
8.46,-0.03862
8.464,-0.00118
8.468,0.02129
8.472,-0.00827
8.476,-0.01322
8.48,0.0067
8.484,0.00336
8.488,0.01259
8.492,0.03121
8.496,0.01439
8.5,0.00237
8.504,0.00588
8.508,0.01224
8.512,-0.00666
8.516,0.00595
8.52,-0.01397
8.524,0.03315
8.528,0.01401
8.532,-0.01075
8.536,-0.0138
8.54,-0.00363
8.544,-0.01308
8.548,-0.00684
8.552,0.00088
8.556,-0.02036
8.56,-0.00459
8.564,-0.01104
8.568,-0.01218
8.572,-0.02385
8.576,0.00713
8.58,-0.01616
8.584,0.00308
8.588,0.00479
8.592,0.0204
8.596,-0.01743
8.6,0.02121
8.604,0.01539
8.608,0.01274
8.612,0.01218
8.616,-0.01701
8.62,-0.01034
8.624,-0.00231
8.628,-0.00376
8.632,-0.00945
8.636,-0.02701
8.64,-0.00389
8.644,0.0127
8.648,-0.03095
8.652,-0.02222
8.656,-0.00359
8.66,-0.01619
8.664,-0.02863
8.668,0.00917
8.672,0.0068
8.676,-0.00783
8.68,0.00203
8.684,-0.00751
8.688,-0.00351
8.692,-8e-05
8.696,-0.01932
8.7,-0.01547
8.704,0.02389
8.708,0.00691
8.712,0.01128
8.716,0.0256
8.72,-0.01219
8.724,0.03134
8.728,0.03256
8.732,-0.01055
8.736,-0.00324
8.74,0.00328
8.744,0.00053
8.748,0.01163
8.752,0.00856
8.756,0.00783
8.76,0.0113
8.764,0.00158
8.768,0.01751
8.772,0.00466
8.776,-0.00731
8.78,-0.00214
8.784,0.02649
8.788,0.02006
8.792,-0.0167
8.796,0.01454
8.8,0.03525
8.804,0.04397
8.808,0.04474
8.812,0.08536
8.816,0.07339
8.82,0.05728
8.824,0.09399
8.828,0.06852
8.832,0.13247
8.836,0.12544
8.84,0.09517
8.844,0.11656
8.848,0.11433
8.852,0.08402
8.856,0.07332
8.86,0.05117
8.864,0.05243
8.868,0.02948
8.872,0.00238
8.876,0.01833
8.88,-0.00807
8.884,0.02253
8.888,0.02044
8.892,0.01283
8.896,0.01921
8.9,-0.00419
8.904,0.02691
8.908,0.0029
8.912,0.03017
8.916,-0.0044
8.92,0.05309
8.924,0.01558
8.928,0.01537
8.932,0.00514
8.936,0.0119
8.94,0.02175
8.944,0.00894
8.948,0.0147
8.952,-0.02391
8.956,-0.05314
8.96,-0.11309
8.964,-0.10226
8.968,-0.03821
8.972,0.05422
8.976,0.23447
8.98,0.45545
8.984,0.6654
8.988,0.84383
8.992,0.94654
8.996,1.0177
9.0,0.9482
9.004,0.71473
9.008,0.51673
9.012,0.29177
9.016,0.07927
9.02,-0.07288
9.024,-0.14669
9.028,-0.18789
9.032,-0.15633
9.036,-0.1021
9.04,-0.04201
9.044,-0.00418
9.048,-0.022
9.052,-0.03379
9.056,0.01533
9.06,0.02202
9.064,0.02202
9.068,-0.01376
9.072,0.03795
9.076,0.01632
9.08,0.00045
9.084,0.02583
9.088,0.03993
9.092,0.01013
9.096,0.01929
9.1,0.01307
9.104,0.0197
9.108,-0.00566
9.112,0.02722
9.116,0.02793
9.12,0.03051
9.124,-0.00044
9.128,0.006
9.132,0.03821
9.136,-0.00442
9.14,0.01438
9.144,-0.00902
9.148,0.03487
9.152,0.00306
9.156,0.0495
9.16,0.04833
9.164,0.04723
9.168,0.02545
9.172,0.04365
9.176,0.01742
9.18,0.02965
9.184,0.04634
9.188,0.06149
9.192,0.05553
9.196,0.0561
9.2,0.07589
9.204,0.07588
9.208,0.10623
9.212,0.10193
9.216,0.1008
9.22,0.09825
9.224,0.139
9.228,0.15926
9.232,0.15778
9.236,0.18013
9.24,0.1717
9.244,0.20861
9.248,0.20119
9.252,0.21034
9.256,0.23372
9.26,0.22363
9.264,0.2457
9.268,0.20385
9.272,0.22491
9.276,0.2365
9.28,0.21945
9.284,0.24158
9.288,0.22469
9.292,0.21324
9.296,0.236
9.3,0.2102
9.304,0.18711
9.308,0.2143
9.312,0.16715
9.316,0.16859
9.32,0.13736
9.324,0.12834
9.328,0.14267
9.332,0.11085
9.336,0.06179
9.34,0.09041
9.344,0.09407
9.348,0.07182
9.352,0.05678
9.356,0.06653
9.36,0.0569
9.364,0.0305
9.368,0.05212
9.372,0.04485
9.376,0.0751
9.38,0.00837
9.384,0.02551
9.388,0.03227
9.392,0.04353
9.396,0.02319
9.4,0.02359
9.404,0.03743
9.408,0.01933
9.412,0.02637
9.416,0.02023
9.42,0.04272
9.424,0.01156
9.428,0.02788
9.432,0.03337
9.436,0.01384
9.44,0.05325
9.444,0.01664
9.448,0.00094
9.452,0.03002
9.456,0.01478
9.46,0.01201
9.464,0.05887
9.468,0.02812
9.472,0.01968
9.476,0.01366
9.48,0.01403
9.484,0.00696
9.488,0.04014
9.492,0.03518
9.496,0.02855
9.5,0.0147
9.504,0.03111
9.508,0.03352
9.512,0.00916
9.516,0.03008
9.52,0.01708
9.524,0.02821
9.528,0.01357
9.532,0.04642
9.536,0.02231
9.54,0.0199
9.544,0.0265
9.548,0.01463
9.552,0.02409
9.556,0.00222
9.56,0.01883
9.564,0.02423
9.568,0.04244
9.572,0.02779
9.576,0.02461
9.58,0.02386
9.584,0.03422
9.588,0.00847
9.592,0.0057
9.596,0.01845
9.6,0.05002
9.604,0.03406
9.608,0.03741
9.612,0.01359
9.616,0.03781
9.62,0.0273
9.624,0.00793
9.628,0.0172
9.632,0.0339
9.636,0.0162
9.64,0.00874
9.644,0.01456
9.648,0.04789
9.652,0.04137
9.656,0.02577
9.66,0.0186
9.664,0.02219
9.668,0.03802
9.672,0.0319
9.676,0.00148
9.68,0.01862
9.684,0.01645
9.688,0.01191
9.692,0.00855
9.696,-0.00872
9.7,0.05588
9.704,0.02437
9.708,0.03839
9.712,0.07467
9.716,0.05981
9.72,0.10652
9.724,0.10269
9.728,0.09461
9.732,0.13317
9.736,0.14116
9.74,0.10546
9.744,0.15455
9.748,0.12912
9.752,0.09504
9.756,0.12419
9.76,0.0996
9.764,0.07727
9.768,0.07142
9.772,0.05031
9.776,0.04413
9.78,0.0485
9.784,0.05389
9.788,0.02872
9.792,0.0234
9.796,0.0251
9.8,0.02032
9.804,0.05256
9.808,0.01898
9.812,0.034
9.816,0.03143
9.82,0.06359
9.824,0.01858
9.828,0.00284
9.832,0.00954
9.836,0.05656
9.84,0.04962
9.844,0.04371
9.848,0.03924
9.852,0.02931
9.856,-0.00153
9.86,-0.04938
9.864,-0.07211
9.868,-0.08248
9.872,-0.10351
9.876,0.01124
9.88,0.14813
9.884,0.31438
9.888,0.53441
9.892,0.77889
9.896,0.89223
9.9,1.03819
9.904,1.02667
9.908,0.88212
9.912,0.70977
9.916,0.44729
9.92,0.22008
9.924,0.06652
9.928,-0.05752
9.932,-0.14947
9.936,-0.16434
9.94,-0.119
9.944,-0.07318
9.948,-0.0362
9.952,0.01202
9.956,0.01184
9.96,0.04325
9.964,0.00608
9.968,0.02609
9.972,0.00142
9.976,0.03248
9.98,0.04104
9.984,0.03927
9.988,0.01515
9.992,0.0256
9.996,0.02671
