t_seg,ecg_mV
0.0,-0.03381
0.004,0.07356
0.008,0.02002
0.012,-0.04928
0.016,-0.02412
0.02,-0.05696
0.024,0.0052
0.028,-0.01827
0.032,-0.00351
0.036,0.02699
0.04,0.03824
0.044,-0.04819
0.048,-0.00602
0.052,0.03948
0.056,0.01229
0.06,-0.00873
0.064,-0.01867
0.068,-0.05014
0.072,-0.01651
0.076,-0.02805
0.08,0.05828
0.084,-0.07372
0.088,0.01561
0.092,-0.04474
0.096,-0.00943
0.1,0.00446
0.104,0.0591
0.108,-0.00614
0.112,-0.00414
0.116,0.0334
0.12,0.0473
0.124,0.04514
0.128,0.00412
0.132,-0.0386
0.136,-0.03468
0.14,-0.02517
0.144,-0.04441
0.148,-0.03699
0.152,0.05794
0.156,-0.00279
0.16,-0.02827
0.164,0.01467
0.168,-0.03555
0.172,0.04276
0.176,-0.02494
0.18,0.05255
0.184,0.00889
0.188,0.06321
0.192,0.11323
0.196,0.09288
0.2,0.04128
0.204,0.11993
0.208,0.04177
0.212,0.14834
0.216,0.13398
0.22,0.1016
0.224,0.05958
0.228,0.12106
0.232,0.08394
0.236,0.07478
0.24,-0.01013
0.244,0.07155
0.248,0.0179
0.252,0.03159
0.256,0.04802
0.26,-0.01836
0.264,0.0117
0.268,-0.01526
0.272,-0.08148
0.276,-0.05865
0.28,0.00209
0.284,0.03655
0.288,0.03034
0.292,-0.01406
0.296,0.05739
0.3,-0.0453
0.304,-0.07
0.308,0.02584
0.312,0.03288
0.316,-0.03761
0.32,-0.01286
0.324,-0.01888
0.328,-0.08105
0.332,-0.0472
0.336,-0.03157
0.34,-0.17401
0.344,-0.11751
0.348,-0.0988
0.352,0.01474
0.356,0.23031
0.36,0.45067
0.364,0.66915
0.368,0.8325
0.372,0.94513
0.376,0.94727
0.38,0.82906
0.384,0.67805
0.388,0.4789
0.392,0.13226
0.396,0.02906
0.4,-0.12194
0.404,-0.18289
0.408,-0.17962
0.412,-0.16134
0.416,-0.13451
0.42,-0.03222
0.424,-0.03986
0.428,-0.04326
0.432,0.02452
0.436,-0.02001
0.44,-0.06818
0.444,-0.02186
0.448,-0.03444
0.452,0.0487
0.456,-0.06615
0.46,-0.0155
0.464,-0.02858
0.468,-0.00312
0.472,-0.02665
0.476,-0.04139
0.48,-0.06712
0.484,0.01461
0.488,-0.0096
0.492,-0.06746
0.496,-0.00638
0.5,0.00085
0.504,0.02272
0.508,-0.03239
0.512,-0.00811
0.516,-0.0277
0.52,0.04558
0.524,-0.01131
0.528,-0.02768
0.532,-0.04762
0.536,-0.03275
0.54,0.01259
0.544,-0.05281
0.548,0.01302
0.552,-0.01194
0.556,-0.01286
0.56,0.00256
0.564,0.13377
0.568,0.08094
0.572,0.11474
0.576,0.09571
0.58,0.21745
0.584,0.12167
0.588,0.13583
0.592,0.19475
0.596,0.13345
0.6,0.25106
0.604,0.29948
0.608,0.2273
0.612,0.16622
0.616,0.19567
0.62,0.24235
0.624,0.18115
0.628,0.20852
0.632,0.21345
0.636,0.2108
0.64,0.20102
0.644,0.16732
0.648,0.27035
0.652,0.19555
0.656,0.24978
0.66,0.17448
0.664,0.24926
0.668,0.16184
0.672,0.23282
0.676,0.10446
0.68,0.20036
0.684,0.11925
0.688,0.12324
0.692,0.17057
0.696,0.10746
0.7,0.13484
0.704,0.06473
0.708,0.01757
0.712,0.01458
0.716,-0.02417
0.72,-0.00411
0.724,-0.02446
0.728,0.04421
0.732,0.14785
0.736,0.43122
0.74,0.6277
0.744,0.81707
0.748,0.99485
0.752,0.9457
0.756,0.95034
0.76,0.77503
0.764,0.59691
0.768,0.31079
0.772,0.05695
0.776,-0.10771
0.78,-0.13131
0.784,-0.22057
0.788,-0.18001
0.792,-0.12753
0.796,-0.06133
0.8,-0.01759
0.804,-0.06553
0.808,-0.0187
0.812,-0.03281
0.816,-0.03682
0.82,-0.03592
0.824,-0.05697
0.828,0.01053
0.832,-0.01257
0.836,-0.04271
0.84,-0.01945
0.844,0.04271
0.848,-0.0469
0.852,-0.01415
0.856,-0.03012
0.86,0.02323
0.864,-0.08647
0.868,-0.04407
0.872,-0.01233
0.876,-0.02217
0.88,-0.06363
0.884,-0.04977
0.888,-0.04515
0.892,-0.08243
0.896,-0.02621
0.9,-0.00157
0.904,0.02883
0.908,0.0064
0.912,0.00524
0.916,0.04699
0.92,0.04019
0.924,-0.01821
0.928,0.01534
0.932,-0.01639
0.936,0.05092
0.94,0.02037
0.944,-0.00399
0.948,-0.09901
0.952,-0.02048
0.956,0.00146
0.96,-0.0062
0.964,0.02512
0.968,0.01058
0.972,0.09884
0.976,0.10418
0.98,0.10615
0.984,0.11079
0.988,0.09627
0.992,0.15538
0.996,0.1215
1.0,0.22939
1.004,0.1821
1.008,0.16453
1.012,0.17498
1.016,0.11043
1.02,0.21
1.024,0.211
1.028,0.16543
1.032,0.18879
1.036,0.20279
1.04,0.24149
1.044,0.18602
1.048,0.16535
1.052,0.14498
1.056,0.19509
1.06,0.25386
1.064,0.13793
1.068,0.08782
1.072,0.11419
1.076,0.15752
1.08,0.09605
1.084,0.08828
1.088,0.06474
1.092,0.04736
1.096,0.04587
1.1,0.03222
1.104,0.05248
1.108,0.03739
1.112,0.07289
1.116,0.01732
1.12,0.0038
1.124,0.00955
1.128,0.07595
1.132,0.00457
1.136,0.01014
1.14,0.02958
1.144,-0.0223
1.148,-0.02575
1.152,-0.01842
1.156,-0.07245
1.16,0.01885
1.164,-0.05539
1.168,-0.00795
1.172,-0.0247
1.176,-0.01618
1.18,-0.02487
1.184,-0.03011
1.188,-0.07751
1.192,-0.02806
1.196,-0.00846
1.2,-0.06796
1.204,-0.04494
1.208,-0.02511
1.212,-0.01627
1.216,-0.05485
1.22,-0.07768
1.224,0.03561
1.228,-0.06438
1.232,-0.08721
1.236,-0.02591
1.24,0.00035
1.244,-0.00422
1.248,-0.0185
1.252,-0.05422
1.256,-0.03905
1.26,-0.03479
1.264,-0.06889
1.268,0.00247
1.272,-0.02396
1.276,-0.05893
1.28,-0.04083
1.284,0.01986
1.288,-0.0723
1.292,-0.06149
1.296,-0.06448
1.3,-0.06876
1.304,-0.04223
1.308,-0.06197
1.312,-0.04854
1.316,-0.02768
1.32,-0.049
1.324,0.01749
1.328,-0.05283
1.332,0.04307
1.336,-0.0642
1.34,-0.05707
1.344,0.02758
1.348,0.00347
1.352,-0.08638
1.356,0.0097
1.36,-0.04714
1.364,-0.01344
1.368,-0.09342
1.372,-0.05168
1.376,-0.01489
1.38,-0.02384
1.384,-0.11682
1.388,-0.05908
1.392,0.00521
1.396,-0.04357
1.4,-0.01387
1.404,-0.02612
1.408,-0.03605
1.412,-0.00975
1.416,0.00128
1.42,-0.05906
1.424,-0.05792
1.428,-0.00935
1.432,-0.04157
1.436,-0.01931
1.44,0.00369
1.444,-0.01098
1.448,0.02661
1.452,0.00885
1.456,-0.01884
1.46,0.0416
1.464,0.00106
1.468,0.08673
1.472,0.05315
1.476,0.036
1.48,0.08077
1.484,0.07078
1.488,0.03685
1.492,0.02242
1.496,0.05308
1.5,0.01418
1.504,0.05036
1.508,0.00305
1.512,0.02712
1.516,-0.05301
1.52,-0.00673
1.524,-0.06928
1.528,0.00044
1.532,-0.04925
1.536,-0.10345
1.54,-0.03074
1.544,0.04372
1.548,-0.03264
1.552,-0.01446
1.556,-0.02708
1.56,0.02579
1.564,-0.04065
1.568,-0.02199
1.572,-0.01064
1.576,-0.07528
1.58,-0.01748
1.584,-0.05598
1.588,0.0072
1.592,-0.09152
1.596,0.00092
1.6,-0.09897
1.604,-0.13607
1.608,-0.11133
1.612,-0.17212
1.616,-0.07429
1.62,-0.02522
1.624,0.19008
1.628,0.37209
1.632,0.57133
1.636,0.75709
1.64,0.93281
1.644,0.98232
1.648,0.86773
1.652,0.68535
1.656,0.54101
1.66,0.26756
1.664,0.08661
1.668,-0.07027
1.672,-0.15418
1.676,-0.28446
1.68,-0.15461
1.684,-0.10184
1.688,-0.07506
1.692,-0.10166
1.696,-0.08303
1.7,-0.00604
1.704,-0.00557
1.708,-0.01659
1.712,-0.01381
1.716,-0.04535
1.72,-0.02357
1.724,-0.08081
1.728,0.00619
1.732,0.00085
1.736,-0.07795
1.74,-0.04984
1.744,-0.02259
1.748,-0.10392
1.752,-0.05185
1.756,0.01518
1.76,-0.01411
1.764,0.00592
1.768,-0.03057
1.772,-0.04728
1.776,0.01245
1.78,-0.01585
1.784,-0.02625
1.788,-0.06719
1.792,-0.0173
1.796,0.0319
1.8,-0.02713
1.804,-0.04581
1.808,-0.01677
1.812,-0.02985
1.816,-0.0082
1.82,0.0371
1.824,0.02587
1.828,0.01444
1.832,0.02701
1.836,0.00967
1.84,0.02461
1.844,0.03196
1.848,0.04018
1.852,0.00559
1.856,0.04224
1.86,0.07156
1.864,0.10292
1.868,0.11769
1.872,0.0649
1.876,0.09612
1.88,0.10497
1.884,0.14195
1.888,0.19752
1.892,0.09955
1.896,0.20485
1.9,0.12561
1.904,0.17188
1.908,0.14857
1.912,0.18683
1.916,0.17161
1.92,0.20256
1.924,0.22318
1.928,0.18585
1.932,0.18894
1.936,0.18444
1.94,0.14634
1.944,0.21557
1.948,0.17287
1.952,0.13545
1.956,0.07317
1.96,0.09438
1.964,0.15665
1.968,0.10268
1.972,0.14464
1.976,0.08393
1.98,0.11406
1.984,0.01513
1.988,0.01679
1.992,0.11929
1.996,-0.00033
2.0,0.04749
2.004,-0.07068
2.008,0.02779
2.012,-0.00919
2.016,0.03404
2.02,-0.04616
2.024,0.00276
2.028,-0.0023
2.032,-0.04439
2.036,-0.00108
2.04,0.01563
2.044,-0.05023
2.048,-0.03158
2.052,-0.02203
2.056,-0.00061
2.06,-0.06166
2.064,-0.03344
2.068,-0.00319
2.072,-0.00193
2.076,-0.01427
2.08,-0.01985
2.084,-0.04983
2.088,-0.06965
2.092,0.0243
2.096,-0.00597
2.1,-0.00469
2.104,-0.0506
2.108,-0.05965
2.112,-0.02206
2.116,-0.02536
2.12,-0.0035
2.124,-0.0274
2.128,-0.02347
2.132,-0.01682
2.136,-0.04991
2.14,0.0216
2.144,-0.02229
2.148,-0.10409
2.152,-0.03378
2.156,-0.01648
2.16,-0.08462
2.164,0.07823
2.168,-0.00051
2.172,-0.00298
2.176,-0.05258
2.18,0.03497
2.184,0.02865
2.188,0.01955
2.192,0.04375
2.196,0.06811
2.2,0.02444
2.204,0.06712
2.208,0.07146
2.212,0.0392
2.216,-0.00556
2.22,0.04728
2.224,0.05314
2.228,0.00796
2.232,-0.01102
2.236,0.02091
2.24,0.02834
2.244,-0.0063
2.248,-0.02118
2.252,-0.04553
2.256,-0.03395
2.26,-0.04574
2.264,-0.04274
2.268,-0.03964
2.272,-0.03106
2.276,-0.07165
2.28,0.02059
2.284,-0.02016
2.288,-0.04063
2.292,-0.03385
2.296,0.02916
2.3,-0.0501
2.304,-0.07325
2.308,-0.02969
2.312,0.00369
2.316,-0.10096
2.32,-0.12208
2.324,-0.16293
2.328,-0.08546
2.332,-0.03773
2.336,0.04485
2.34,0.28262
2.344,0.46152
2.348,0.64456
2.352,0.87253
2.356,0.96929
2.36,0.94742
2.364,0.91206
2.368,0.62889
2.372,0.40782
2.376,0.18739
2.38,0.03215
2.384,-0.1082
2.388,-0.11609
2.392,-0.18293
2.396,-0.14714
2.4,-0.15553
2.404,-0.07006
2.408,-0.02572
2.412,0.01102
2.416,0.04206
2.42,0.00368
2.424,0.01541
2.428,0.02909
2.432,0.01517
2.436,-0.01694
2.44,-0.03694
2.444,-0.05509
2.448,-0.06041
2.452,-0.05487
2.456,-0.07359
2.46,0.02193
2.464,-0.05237
2.468,-8e-05
2.472,0.01108
2.476,-0.03635
2.48,0.04593
2.484,-0.06422
2.488,0.01194
2.492,-0.02419
2.496,-0.0671
2.5,-0.01314
2.504,-0.019
2.508,-0.02838
2.512,0.03002
2.516,0.02271
2.52,-0.07662
2.524,0.01793
2.528,0.00551
2.532,0.02635
2.536,-0.02965
2.54,0.00381
2.544,-0.01318
2.548,0.03127
2.552,0.04775
2.556,0.10371
2.56,0.05154
2.564,0.03523
2.568,0.02019
2.572,0.06604
2.576,0.10227
2.58,0.09332
2.584,0.08504
2.588,0.17052
2.592,0.10227
2.596,0.12216
2.6,0.09307
2.604,0.1937
2.608,0.21899
2.612,0.20105
2.616,0.18058
2.62,0.19881
2.624,0.18049
2.628,0.21214
2.632,0.2492
2.636,0.21867
2.64,0.24138
2.644,0.257
2.648,0.23925
2.652,0.1515
2.656,0.17358
2.66,0.14322
2.664,0.16197
2.668,0.14618
2.672,0.15481
2.676,0.17303
2.68,0.17744
2.684,0.16928
2.688,0.10709
2.692,0.11427
2.696,0.1069
2.7,0.11336
2.704,0.03339
2.708,0.04639
2.712,0.07256
2.716,0.04529
2.72,-0.00451
2.724,0.08486
2.728,0.05201
2.732,0.00893
2.736,0.02781
2.74,-0.01401
2.744,-0.01628
2.748,0.00202
2.752,0.01435
2.756,-0.01877
2.76,-0.11987
2.764,0.02561
2.768,0.02494
2.772,-0.03973
2.776,-0.03807
2.78,0.03556
2.784,-0.0701
2.788,-0.02141
2.792,0.02314
2.796,0.02137
2.8,-0.05685
2.804,-0.04826
2.808,-0.03424
2.812,0.00631
2.816,-0.05959
2.82,-0.0069
2.824,-0.0378
2.828,0.03013
2.832,-0.01835
2.836,-0.05343
2.84,-0.02239
2.844,-0.01029
2.848,0.03928
2.852,0.0015
2.856,-0.06392
2.86,0.0234
2.864,-0.02927
2.868,-0.00563
2.872,-0.03054
2.876,0.05256
2.88,-0.02557
2.884,-0.01562
2.888,-0.02868
2.892,-0.03008
2.896,-0.02739
2.9,-0.00929
2.904,0.02393
2.908,0.02412
2.912,-0.04545
2.916,-0.0511
2.92,-0.00548
2.924,-0.02578
2.928,0.03578
2.932,0.00502
2.936,0.0017
2.94,-0.08541
2.944,0.02087
2.948,-0.02622
2.952,-0.02996
2.956,-0.00129
2.96,0.05861
2.964,-0.00621
2.968,0.00537
2.972,0.07881
2.976,0.02946
2.98,-0.02999
2.984,0.01445
2.988,-0.01492
2.992,0.00868
2.996,-0.03631
3.0,0.01622
3.004,-0.02065
3.008,0.01085
3.012,-0.01707
3.016,-0.01141
3.02,-0.0546
3.024,-0.0367
3.028,-0.0013
3.032,0.02825
3.036,-0.00409
3.04,0.00989
3.044,-0.01467
3.048,0.05231
3.052,0.01473
3.056,0.0424
3.06,0.05836
3.064,0.13357
3.068,0.08409
3.072,0.02495
3.076,0.09095
3.08,0.05573
3.084,0.06827
3.088,0.10613
3.092,0.08283
3.096,-0.00301
3.1,0.13201
3.104,0.02387
3.108,0.01044
3.112,0.0727
3.116,-0.12101
3.12,0.00374
3.124,-0.03408
3.128,0.03993
3.132,0.01238
3.136,-0.07017
3.14,0.00089
3.144,-0.00708
3.148,-0.01313
3.152,0.04587
3.156,0.04346
3.16,0.05276
3.164,0.05668
3.168,0.00278
3.172,0.0416
3.176,-0.04711
3.18,-0.02568
3.184,-0.05172
3.188,-0.00384
3.192,-0.12499
3.196,-0.08085
3.2,-0.13471
3.204,-0.07098
3.208,-0.07541
3.212,0.08366
3.216,0.27403
3.22,0.46346
3.224,0.66523
3.228,0.82417
3.232,0.9745
3.236,0.97381
3.24,0.89129
3.244,0.69279
3.248,0.53759
3.252,0.2997
3.256,0.00963
3.26,-0.06431
3.264,-0.14013
3.268,-0.13768
3.272,-0.15162
3.276,-0.08978
3.28,-0.07138
3.284,-0.09989
3.288,0.02983
3.292,0.01261
3.296,-0.01376
3.3,-0.02325
3.304,-0.0752
3.308,-0.00816
3.312,-0.02215
3.316,0.01027
3.32,0.00515
3.324,0.02785
3.328,0.09564
3.332,-0.03509
3.336,0.02896
3.34,0.06198
3.344,0.05577
3.348,-0.03313
3.352,0.00147
3.356,-0.04633
3.36,0.02343
3.364,0.01492
3.368,0.03394
3.372,-0.01756
3.376,-0.00868
3.38,0.05048
3.384,0.00659
3.388,0.02836
3.392,0.02138
3.396,0.01835
3.4,0.00463
3.404,0.01184
3.408,0.05145
3.412,0.00674
3.416,0.02278
3.42,0.06779
3.424,0.09029
3.428,-0.01374
3.432,0.05804
3.436,0.08955
3.44,0.03898
3.444,0.04614
3.448,0.14015
3.452,0.07948
3.456,0.14995
3.46,0.12455
3.464,0.16197
3.468,0.17521
3.472,0.12708
3.476,0.12268
3.48,0.1439
3.484,0.17998
3.488,0.20777
3.492,0.22497
3.496,0.13617
3.5,0.23023
3.504,0.24441
3.508,0.22976
3.512,0.19904
3.516,0.27756
3.52,0.20013
3.524,0.16969
3.528,0.18941
3.532,0.20675
3.536,0.16825
3.54,0.14572
3.544,0.24313
3.548,0.20981
3.552,0.14333
3.556,0.12296
3.56,0.18777
3.564,0.10369
3.568,0.06063
3.572,0.15587
3.576,0.05984
3.58,0.16187
3.584,0.1506
3.588,0.00951
3.592,0.01621
3.596,0.00332
3.6,0.07005
3.604,0.07363
3.608,0.04829
3.612,0.00783
3.616,0.017
3.62,0.02994
3.624,-0.0234
3.628,-0.02555
3.632,-0.01848
3.636,0.01414
3.64,0.02512
3.644,0.01484
3.648,0.00067
3.652,0.03039
3.656,0.07549
3.66,0.08734
3.664,0.01019
3.668,0.09402
3.672,0.06194
3.676,0.07366
3.68,0.11809
3.684,0.09268
3.688,0.07674
3.692,0.16021
3.696,0.06565
3.7,0.09599
3.704,0.09117
3.708,0.02434
3.712,0.00835
3.716,0.07619
3.72,0.10379
3.724,0.04891
3.728,0.07221
3.732,-0.02054
3.736,0.06784
3.74,-0.03061
3.744,0.0387
3.748,0.02686
3.752,0.0036
3.756,-0.05952
3.76,0.08304
3.764,0.02532
3.768,-0.00714
3.772,0.00828
3.776,-0.00799
3.78,0.03351
3.784,0.03953
3.788,0.01418
3.792,-0.01261
3.796,0.02169
3.8,0.05319
3.804,-0.04303
3.808,-0.05897
3.812,-0.07486
3.816,-0.14754
3.82,-0.07377
3.824,-0.05477
3.828,0.05731
3.832,0.2429
3.836,0.49542
3.84,0.60858
3.844,0.82529
3.848,0.93876
3.852,1.01477
3.856,0.84835
3.86,0.71627
3.864,0.5399
3.868,0.20078
3.872,0.07886
3.876,-0.02101
3.88,-0.17929
3.884,-0.16157
3.888,-0.06326
3.892,-0.13623
3.896,-0.00052
3.9,-0.02892
3.904,0.03376
3.908,0.04438
3.912,-0.04871
3.916,-0.03406
3.92,0.03722
3.924,0.02238
3.928,0.00949
3.932,0.00413
3.936,0.04176
3.94,-0.02576
3.944,0.0355
3.948,0.0146
3.952,0.02338
3.956,0.00424
3.96,0.04019
3.964,0.03347
3.968,0.01227
3.972,-0.01486
3.976,0.02079
3.98,0.06671
3.984,0.04267
3.988,0.02906
3.992,0.02091
3.996,0.0388
4.0,0.03796
4.004,-0.00206
4.008,0.09548
4.012,0.05782
4.016,0.04044
4.02,0.10316
4.024,0.0161
4.028,0.00554
4.032,0.0536
4.036,0.05076
4.04,0.07998
4.044,0.1122
4.048,0.07013
4.052,0.01514
4.056,0.04885
4.06,0.08699
4.064,0.06191
4.068,0.07386
4.072,0.13184
4.076,0.06487
4.08,0.16889
4.084,0.20582
4.088,0.19265
4.092,0.22713
4.096,0.18704
4.1,0.21332
4.104,0.21498
4.108,0.2034
4.112,0.20434
4.116,0.30207
4.12,0.30022
4.124,0.22563
4.128,0.24503
4.132,0.21129
4.136,0.23936
4.14,0.23158
4.144,0.18679
4.148,0.16213
4.152,0.1606
4.156,0.26868
4.16,0.1629
4.164,0.15404
4.168,0.14224
4.172,0.15288
4.176,0.18563
4.18,0.18433
4.184,0.16
4.188,0.17129
4.192,0.1191
4.196,0.05832
4.2,0.0865
4.204,-0.01598
4.208,0.08793
4.212,0.14933
4.216,0.05556
4.22,0.05615
4.224,0.07179
4.228,-0.00042
4.232,-0.02772
4.236,0.07379
4.24,0.08095
4.244,0.05814
4.248,0.05635
4.252,-0.00531
4.256,0.04261
4.26,0.04086
4.264,0.06073
4.268,0.05009
4.272,0.03211
4.276,0.01065
4.28,-0.00494
4.284,0.0489
4.288,-0.0121
4.292,0.00044
4.296,-0.01382
4.3,0.02476
4.304,0.04286
4.308,0.0759
4.312,0.10443
4.316,0.05084
4.32,0.00699
4.324,0.09926
4.328,0.06971
4.332,0.05363
4.336,-0.00103
4.34,0.04417
4.344,0.05123
4.348,-0.01444
4.352,0.01399
4.356,0.03088
4.36,0.06619
4.364,0.0961
4.368,0.03069
4.372,0.02755
4.376,0.06124
4.38,0.00641
4.384,0.022
4.388,0.0749
4.392,0.03126
4.396,0.031
4.4,0.03024
4.404,0.00946
4.408,-0.01739
4.412,0.04263
4.416,0.04916
4.42,0.02155
4.424,0.03549
4.428,0.05902
4.432,0.00867
4.436,-0.01557
4.44,0.03534
4.444,0.03661
4.448,0.02087
4.452,0.09085
4.456,0.05645
4.46,-0.02989
4.464,0.05062
4.468,-0.0433
4.472,-0.00348
4.476,0.05771
4.48,-0.00999
4.484,-0.021
4.488,-0.00154
4.492,0.09262
4.496,-0.03422
4.5,-0.01374
4.504,-0.01427
4.508,0.04281
4.512,0.02598
4.516,0.042
4.52,-0.00465
4.524,-0.0082
4.528,-2e-05
4.532,0.02848
4.536,0.02325
4.54,0.04957
4.544,-0.00334
4.548,0.07895
4.552,-0.01385
4.556,-0.00816
4.56,0.03295
4.564,0.00359
4.568,0.05541
4.572,0.02577
4.576,0.00306
4.58,-0.03584
4.584,0.07023
4.588,0.02874
4.592,0.00623
4.596,0.011
4.6,0.03806
4.604,0.03835
4.608,0.01121
4.612,0.03724
4.616,0.08071
4.62,0.03052
4.624,0.02736
4.628,0.03258
4.632,0.0065
4.636,0.04766
4.64,0.08775
4.644,0.05559
4.648,0.0568
4.652,0.02864
4.656,0.08042
4.66,0.07291
4.664,0.14089
4.668,0.16194
4.672,0.10481
4.676,0.1905
4.68,0.13087
4.684,0.04157
4.688,0.12487
4.692,0.15632
4.696,0.10393
4.7,0.11782
4.704,0.04639
4.708,0.14011
4.712,0.08049
4.716,0.02512
4.72,0.06472
4.724,0.05205
4.728,0.1
4.732,0.02851
4.736,0.05236
4.74,0.00466
4.744,-0.00604
4.748,0.05603
4.752,0.02816
4.756,0.02747
4.76,0.07023
4.764,-0.02622
4.768,0.04356
4.772,0.02963
4.776,0.08788
4.78,0.06051
4.784,0.04749
4.788,0.02658
4.792,0.07816
4.796,0.01621
4.8,-0.03001
4.804,-0.0142
4.808,-0.09947
4.812,-0.14989
4.816,-0.03896
4.82,0.02528
4.824,0.2367
4.828,0.37652
4.832,0.57605
4.836,0.75817
4.84,0.98026
4.844,0.95203
4.848,1.0143
4.852,0.86616
4.856,0.60495
4.86,0.40965
4.864,0.10037
4.868,-0.00321
4.872,-0.12675
4.876,-0.08674
4.88,-0.13374
4.884,-0.07937
4.888,-0.05588
4.892,-0.03053
4.896,-0.00344
4.9,0.00371
4.904,0.02176
4.908,-0.02441
4.912,0.0301
4.916,0.03975
4.92,0.03858
4.924,0.0184
4.928,0.054
4.932,0.01041
4.936,0.02298
4.94,0.04275
4.944,0.06527
4.948,0.02112
4.952,0.04109
4.956,0.02719
4.96,-0.01203
4.964,-0.02106
4.968,0.06847
4.972,0.0025
4.976,0.06869
4.98,-0.00404
4.984,0.10907
4.988,-0.02211
4.992,0.02157
4.996,0.00244
5.0,0.00193
5.004,0.05002
5.008,0.00501
5.012,-0.0012
5.016,0.03675
5.02,0.04236
5.024,-0.01811
5.028,0.04041
5.032,0.03634
5.036,0.03719
5.04,0.02639
5.044,0.12022
5.048,0.02819
5.052,0.06127
5.056,0.10028
5.06,0.12618
5.064,0.08197
5.068,0.08877
5.072,0.15402
5.076,0.19089
5.08,0.19569
5.084,0.14929
5.088,0.17417
5.092,0.20119
5.096,0.22551
5.1,0.21774
5.104,0.23405
5.108,0.30319
5.112,0.21355
5.116,0.22529
5.12,0.2781
5.124,0.17665
5.128,0.20279
5.132,0.24559
5.136,0.27805
5.14,0.1442
5.144,0.21101
5.148,0.22345
5.152,0.21305
5.156,0.21859
5.16,0.22085
5.164,0.21314
5.168,0.18392
5.172,0.16665
5.176,0.20206
5.18,0.17819
5.184,0.10712
5.188,0.11504
5.192,0.01911
5.196,0.12258
5.2,0.11452
5.204,0.08299
5.208,0.09223
5.212,0.10422
5.216,0.02531
5.22,0.08134
5.224,0.04451
5.228,0.03929
5.232,-0.01648
5.236,0.03514
5.24,0.11358
5.244,0.06543
5.248,0.06781
5.252,0.09576
5.256,0.01264
5.26,0.03249
5.264,0.00018
5.268,0.07709
5.272,0.02823
5.276,0.0467
5.28,0.08867
5.284,0.09559
5.288,0.09403
5.292,0.14251
5.296,0.09877
5.3,0.1039
5.304,0.14354
5.308,0.07148
5.312,0.11485
5.316,0.11738
5.32,0.04198
5.324,0.07134
5.328,0.04804
5.332,0.07409
5.336,0.06351
5.34,0.05958
5.344,0.06899
5.348,0.00515
5.352,0.10174
5.356,0.04583
5.36,0.04057
5.364,0.06224
5.368,0.08633
5.372,0.00051
5.376,0.04592
5.38,0.01834
5.384,0.04448
5.388,-0.01989
5.392,-0.0012
5.396,-0.00582
5.4,0.03658
5.404,0.04685
5.408,0.03582
5.412,0.06089
5.416,0.00054
5.42,-0.01733
5.424,-0.00963
5.428,-0.07544
5.432,-0.07216
5.436,0.029
5.44,0.11438
5.444,0.339
5.448,0.54664
5.452,0.73422
5.456,0.90673
5.46,1.04643
5.464,1.02098
5.468,0.87081
5.472,0.61729
5.476,0.41893
5.48,0.23508
5.484,0.05685
5.488,-0.08076
5.492,-0.15243
5.496,-0.15067
5.5,-0.13603
5.504,-0.0393
5.508,0.01154
5.512,0.02312
5.516,-0.0258
5.52,0.00387
5.524,0.06038
5.528,0.03221
5.532,0.04314
5.536,-0.00656
5.54,-0.01415
5.544,0.03469
5.548,-0.02138
5.552,0.01494
5.556,0.04292
5.56,-0.00069
5.564,0.05476
5.568,0.02618
5.572,0.02566
5.576,0.02361
5.58,0.03019
5.584,0.0503
5.588,0.03104
5.592,-0.0065
5.596,0.03409
5.6,0.01887
5.604,0.05851
5.608,-0.02507
5.612,0.002
5.616,-0.00259
5.62,0.02934
5.624,0.05235
5.628,0.01825
5.632,-0.06918
5.636,0.06832
5.64,0.04864
5.644,0.07788
5.648,0.09414
5.652,0.07354
5.656,0.07558
5.66,0.02805
5.664,0.12651
5.668,0.07417
5.672,0.09708
5.676,0.10143
5.68,0.16823
5.684,0.15167
5.688,0.17695
5.692,0.19757
5.696,0.16385
5.7,0.19029
5.704,0.24824
5.708,0.34005
5.712,0.26812
5.716,0.29741
5.72,0.3469
5.724,0.34533
5.728,0.29967
5.732,0.31973
5.736,0.26429
5.74,0.33908
5.744,0.33416
5.748,0.28126
5.752,0.26906
5.756,0.21283
5.76,0.23908
5.764,0.24054
5.768,0.15121
5.772,0.20944
5.776,0.19016
5.78,0.1421
5.784,0.1689
5.788,0.16555
5.792,0.21597
5.796,0.11012
5.8,0.12413
5.804,0.18045
5.808,0.09698
5.812,0.08913
5.816,0.0692
5.82,0.08119
5.824,0.04612
5.828,0.09767
5.832,0.02318
5.836,0.04543
5.84,0.02251
5.844,-0.03167
5.848,-0.11858
5.852,-0.06972
5.856,-0.10202
5.86,0.07651
5.864,0.22325
5.868,0.43557
5.872,0.61943
5.876,0.77892
5.88,0.97683
5.884,0.92171
5.888,0.98873
5.892,0.75512
5.896,0.5197
5.9,0.25817
5.904,0.10488
5.908,-0.01521
5.912,-0.15836
5.916,-0.1123
5.92,-0.14157
5.924,-0.09985
5.928,-0.0601
5.932,-0.03988
5.936,-0.04578
5.94,0.03528
5.944,0.05971
5.948,-0.03471
5.952,0.02947
5.956,0.02717
5.96,-0.02025
5.964,-0.04961
5.968,0.11123
5.972,0.02027
5.976,0.02694
5.98,0.08527
5.984,0.09136
5.988,-0.01571
5.992,0.03921
5.996,-0.05385
6.0,0.0982
6.004,0.03613
6.008,0.05881
6.012,0.06193
6.016,0.02737
6.02,-0.02171
6.024,0.03645
6.028,0.01812
6.032,-0.03317
6.036,-0.01039
6.04,0.05033
6.044,0.04113
6.048,0.02048
6.052,0.01786
6.056,0.00865
6.06,0.05492
6.064,0.04509
6.068,0.06287
6.072,0.04841
6.076,0.06315
6.08,-0.00767
6.084,0.08326
6.088,0.04502
6.092,0.07618
6.096,0.05242
6.1,0.07803
6.104,0.12365
6.108,0.07741
6.112,0.15544
6.116,0.12393
6.12,0.20423
6.124,0.17124
6.128,0.17225
6.132,0.15104
6.136,0.1531
6.14,0.26198
6.144,0.18371
6.148,0.27699
6.152,0.19633
6.156,0.21373
6.16,0.31872
6.164,0.25015
6.168,0.16551
6.172,0.22323
6.176,0.25256
6.18,0.26364
6.184,0.15392
6.188,0.23717
6.192,0.20809
6.196,0.18011
6.2,0.10699
6.204,0.14757
6.208,0.21538
6.212,0.14825
6.216,0.11252
6.22,0.0903
6.224,0.09036
6.228,0.10629
6.232,0.02701
6.236,0.09048
6.24,0.0658
6.244,0.04414
6.248,-0.02348
6.252,0.0042
6.256,0.03313
6.26,0.05935
6.264,0.03552
6.268,0.01156
6.272,0.05061
6.276,-0.01764
6.28,0.02166
6.284,0.02679
6.288,0.06894
6.292,0.06111
6.296,-0.00942
6.3,0.02452
6.304,-0.00098
6.308,-0.01074
6.312,0.05094
6.316,0.09028
6.32,-0.00132
6.324,-0.02726
6.328,0.0074
6.332,0.03561
6.336,0.06293
6.34,0.02732
6.344,0.05474
6.348,0.01031
6.352,0.00831
6.356,-0.00772
6.36,0.02113
6.364,-0.03085
6.368,-0.00383
6.372,0.00248
6.376,0.00591
6.38,-0.00215
6.384,0.0302
6.388,-0.00059
6.392,-0.03206
6.396,0.01228
6.4,-0.02751
6.404,0.06304
6.408,-0.0153
6.412,-0.01698
6.416,0.01738
6.42,0.00685
6.424,0.02342
6.428,-0.00865
6.432,0.01066
6.436,-0.04875
6.44,0.08847
6.444,-0.00916
6.448,-0.00383
6.452,0.06142
6.456,0.02595
6.46,-0.06519
6.464,0.07587
6.468,-0.00284
6.472,0.00465
6.476,0.00767
6.48,0.00969
6.484,0.00571
6.488,-0.00861
6.492,0.01047
6.496,0.01866
6.5,0.02889
6.504,0.05931
6.508,-0.00386
6.512,0.0098
6.516,0.0494
6.52,0.01304
6.524,-0.00933
6.528,-0.02553
6.532,-0.05055
6.536,0.02071
6.54,-0.02411
6.544,0.04502
6.548,-7e-05
6.552,0.02102
6.556,0.03073
6.56,0.04946
6.564,0.01997
6.568,-0.02956
6.572,0.01682
6.576,0.01182
6.58,0.00706
6.584,-0.02365
6.588,0.0325
6.592,0.06325
6.596,0.03517
6.6,-0.03467
6.604,-0.03626
6.608,-0.0128
6.612,0.10435
6.616,0.02259
6.62,0.0135
6.624,0.04496
6.628,0.05241
6.632,0.01418
6.636,0.15145
6.64,0.06145
6.644,0.05619
6.648,0.06679
6.652,0.0927
6.656,0.06149
6.66,0.04791
6.664,0.04784
6.668,0.10257
6.672,0.07369
6.676,0.07138
6.68,0.0053
6.684,3e-05
6.688,0.02162
6.692,0.03067
6.696,0.02728
6.7,-0.00923
6.704,-0.02488
6.708,-0.01736
6.712,0.00522
6.716,-0.0364
6.72,-0.02035
6.724,-0.04125
6.728,-0.00502
6.732,-0.07616
6.736,-0.08994
6.74,-0.01865
6.744,0.01028
6.748,0.02571
6.752,0.01859
6.756,0.0312
6.76,-0.02774
6.764,-0.03283
6.768,-0.01193
6.772,-0.09361
6.776,-0.13228
6.78,-0.10485
6.784,-0.02907
6.788,0.07708
6.792,0.20949
6.796,0.35845
6.8,0.63106
6.804,0.86553
6.808,0.91377
6.812,1.03106
6.816,0.93607
6.82,0.72918
6.824,0.56079
6.828,0.33354
6.832,0.13628
6.836,-0.03549
6.84,-0.15408
6.844,-0.16224
6.848,-0.11102
6.852,-0.11572
6.856,-0.08926
6.86,-0.05312
6.864,0.00491
6.868,-0.04494
6.872,0.01464
6.876,-0.00724
6.88,0.02037
6.884,-0.01549
6.888,0.00888
6.892,0.02215
6.896,0.04052
6.9,-0.04599
6.904,0.01097
6.908,-0.04922
6.912,-0.00061
6.916,0.05811
6.92,0.02737
6.924,0.01143
6.928,0.02692
6.932,0.03356
6.936,-0.00715
6.94,0.03342
6.944,0.05851
6.948,-0.01371
6.952,-0.01848
6.956,-0.02316
6.96,-0.07913
6.964,-0.0486
6.968,-0.03413
6.972,0.00914
6.976,-2e-05
6.98,0.02003
6.984,-0.00623
6.988,0.06061
6.992,-0.01056
6.996,0.03279
7.0,0.04766
7.004,0.00918
7.008,0.03491
7.012,0.04682
7.016,0.08741
7.02,0.09866
7.024,-0.00573
7.028,0.04828
7.032,0.14325
7.036,0.11395
7.04,0.13962
7.044,0.04395
7.048,0.12655
7.052,0.12725
7.056,0.13569
7.06,0.18134
7.064,0.16267
7.068,0.14869
7.072,0.20884
7.076,0.21213
7.08,0.15536
7.084,0.24479
7.088,0.22088
7.092,0.23107
7.096,0.29391
7.1,0.26606
7.104,0.2382
7.108,0.27597
7.112,0.29007
7.116,0.31344
7.12,0.25381
7.124,0.23451
7.128,0.27229
7.132,0.16205
7.136,0.19058
7.14,0.19756
7.144,0.16428
7.148,0.21692
7.152,0.15975
7.156,0.08178
7.16,0.08043
7.164,0.06275
7.168,0.01999
7.172,0.01053
7.176,0.07188
7.18,0.0813
7.184,0.04071
7.188,0.03812
7.192,-0.03743
7.196,-0.00775
7.2,-0.00167
7.204,0.02663
7.208,-0.04176
7.212,0.05231
7.216,-0.03737
7.22,-0.04181
7.224,0.04877
7.228,-0.02219
7.232,-0.00174
7.236,-0.06217
7.24,-0.06106
7.244,-0.1312
7.248,-0.14001
7.252,-0.10691
7.256,-0.04443
7.26,0.05844
7.264,0.20845
7.268,0.45904
7.272,0.60504
7.276,0.82182
7.28,0.92282
7.284,0.96132
7.288,0.9206
7.292,0.69387
7.296,0.48281
7.3,0.25072
7.304,0.07814
7.308,-0.05218
7.312,-0.228
7.316,-0.13436
7.32,-0.13755
7.324,-0.13532
7.328,-0.13876
7.332,-0.05006
7.336,-0.00598
7.34,0.00821
7.344,-0.03042
7.348,-0.04969
7.352,0.01254
7.356,-0.06721
7.36,-0.05666
7.364,0.01158
7.368,-0.01404
7.372,-0.06191
7.376,-0.07352
7.38,0.00744
7.384,-0.03745
7.388,-0.0158
7.392,-0.04249
7.396,-0.04333
7.4,0.00242
7.404,-0.0449
7.408,-0.05962
7.412,-0.02087
7.416,0.00226
7.42,0.00179
7.424,-0.03243
7.428,-0.05003
7.432,-0.05376
7.436,-0.02497
7.44,-0.04617
7.444,-0.00022
7.448,-0.04274
7.452,-0.02313
7.456,0.00522
7.46,-0.04788
7.464,0.0549
7.468,0.01193
7.472,0.04392
7.476,0.02676
7.48,0.02309
7.484,0.03272
7.488,0.04
7.492,-0.01818
7.496,0.01321
7.5,0.04444
7.504,0.11245
7.508,0.08048
7.512,0.0979
7.516,0.1195
7.52,0.0979
7.524,0.13215
7.528,0.19169
7.532,0.18626
7.536,0.16069
7.54,0.23694
7.544,0.19977
7.548,0.18775
7.552,0.20317
7.556,0.23683
7.56,0.2342
7.564,0.26648
7.568,0.22631
7.572,0.25569
7.576,0.26298
7.58,0.29076
7.584,0.26229
7.588,0.26021
7.592,0.24713
7.596,0.22583
7.6,0.20306
7.604,0.20329
7.608,0.22961
7.612,0.07304
7.616,0.12497
7.62,0.13472
7.624,0.17537
7.628,0.12341
7.632,0.01788
7.636,0.06215
7.64,0.01925
7.644,-0.00272
7.648,-0.01327
7.652,-0.07114
7.656,-0.02394
7.66,0.0043
7.664,0.01919
7.668,0.003
7.672,-0.07266
7.676,-0.03697
7.68,-0.01603
7.684,-0.02971
7.688,-0.06661
7.692,-0.05292
7.696,0.00136
7.7,-0.00692
7.704,-0.01926
7.708,-0.06334
7.712,-0.09632
7.716,-0.02306
7.72,-0.09906
7.724,-0.14048
7.728,-0.05631
7.732,0.17274
7.736,0.39053
7.74,0.56091
7.744,0.78415
7.748,0.89268
7.752,0.94707
7.756,0.98893
7.76,0.73888
7.764,0.55822
7.768,0.3074
7.772,0.08535
7.776,-0.02597
7.78,-0.24327
7.784,-0.21826
7.788,-0.16711
7.792,-0.1669
7.796,-0.04
7.8,-0.09687
7.804,-0.08398
7.808,-0.00169
7.812,0.01605
7.816,-0.10154
7.82,-0.02635
7.824,-0.08867
7.828,-0.01349
7.832,-0.04405
7.836,-0.01667
7.84,-0.0441
7.844,-0.03043
7.848,-0.02311
7.852,-0.01936
7.856,-0.05123
7.86,-0.05993
7.864,0.0069
7.868,-0.02443
7.872,-0.00081
7.876,-0.0539
7.88,-0.03281
7.884,-0.01604
7.888,-0.03247
7.892,-0.01983
7.896,-0.02271
7.9,-0.0266
7.904,-0.01322
7.908,-0.03672
7.912,-0.0035
7.916,-0.03545
7.92,-0.04965
7.924,-0.06376
7.928,-0.01043
7.932,0.02975
7.936,-0.02859
7.94,0.00233
7.944,0.01492
7.948,0.01466
7.952,0.03877
7.956,0.08188
7.96,0.04924
7.964,-0.04463
7.968,0.06913
7.972,0.06393
7.976,0.06203
7.98,0.09618
7.984,0.11184
7.988,0.11491
7.992,0.12101
7.996,0.08008
8.0,0.15628
8.004,0.17753
8.008,0.25753
8.012,0.11634
8.016,0.24637
8.02,0.14943
8.024,0.16223
8.028,0.23526
8.032,0.18717
8.036,0.22761
8.04,0.18867
8.044,0.24088
8.048,0.19515
8.052,0.11782
8.056,0.12467
8.06,0.14965
8.064,0.1098
8.068,0.15667
8.072,0.19165
8.076,0.11924
8.08,0.0708
8.084,0.11258
8.088,0.07644
8.092,0.06967
8.096,0.07729
8.1,0.0463
8.104,0.01718
8.108,0.00755
8.112,-0.02013
8.116,-0.02124
8.12,-0.00551
8.124,-0.0113
8.128,0.02226
8.132,-0.03999
8.136,-0.02782
8.14,-0.01062
8.144,-0.03961
8.148,-0.02456
8.152,0.03482
8.156,0.0102
8.16,-0.06602
8.164,-0.02017
8.168,-0.04684
8.172,-0.01743
8.176,-0.012
8.18,-0.04436
8.184,0.01841
8.188,0.0087
8.192,-0.06265
8.196,-0.07656
8.2,-0.0547
8.204,0.00569
8.208,-0.02447
8.212,-0.07981
8.216,-0.04105
8.22,-0.0617
8.224,-0.05808
8.228,-0.02533
8.232,-0.02326
8.236,-0.07787
8.24,-0.02324
8.244,-0.02744
8.248,-0.03771
8.252,-0.03889
8.256,0.0121
8.26,0.01809
8.264,-0.04651
8.268,-0.0093
8.272,-0.06381
8.276,-0.08443
8.28,-0.01155
8.284,-0.03144
8.288,0.02394
8.292,-0.05258
8.296,-0.02912
8.3,0.02523
8.304,-0.01084
8.308,-0.02063
8.312,-0.03101
8.316,-0.00518
8.32,-0.0956
8.324,0.00491
8.328,-0.00384
8.332,0.01078
8.336,-0.07451
8.34,0.01262
8.344,-0.06025
8.348,-0.02301
8.352,-0.06971
8.356,0.01729
8.36,0.00528
8.364,0.0341
8.368,-0.03407
8.372,-0.00033
8.376,-0.04231
8.38,0.01997
8.384,-0.04464
8.388,-0.08606
8.392,-0.04882
8.396,-0.01272
8.4,-0.04285
8.404,0.02298
8.408,0.0145
8.412,-0.0458
8.416,-0.06816
8.42,-0.03294
8.424,-0.02505
8.428,0.0227
8.432,-0.01172
8.436,-0.04035
8.44,-0.00119
8.444,-0.00617
8.448,-0.03825
8.452,-0.09963
8.456,-0.05037
8.46,-0.05742
8.464,-0.04444
8.468,-0.00088
8.472,-0.03522
8.476,-0.04455
8.48,0.02023
8.484,-0.08393
8.488,-0.06087
8.492,-0.06047
8.496,-0.00792
8.5,-0.03808
8.504,-0.03401
8.508,0.04854
8.512,-0.03962
8.516,-0.04735
8.52,0.06471
8.524,0.0018
8.528,-0.02499
8.532,-0.0427
8.536,-0.00815
8.54,0.01913
8.544,-0.11498
8.548,-0.03099
8.552,-0.02147
8.556,0.00179
8.56,0.00924
8.564,-0.02621
8.568,-0.12439
8.572,-0.02709
8.576,-0.04606
8.58,0.0005
8.584,-0.01101
8.588,-0.05113
8.592,0.00596
8.596,-0.09267
8.6,-0.08619
8.604,-0.01717
8.608,0.00725
8.612,-0.03016
8.616,-0.02959
8.62,-0.04912
8.624,-0.03081
8.628,-0.08206
8.632,0.00461
8.636,-0.00521
8.64,-0.06986
8.644,-0.04299
8.648,-0.07947
8.652,0.00192
8.656,-0.02234
8.66,-0.04597
8.664,-0.01793
8.668,0.01484
8.672,-0.00879
8.676,-0.09302
8.68,-0.01831
8.684,-0.03421
8.688,-0.06628
8.692,0.0339
8.696,-0.0747
8.7,-0.10583
8.704,-0.08897
8.708,-0.04013
8.712,-0.01348
8.716,-0.04621
8.72,0.00138
8.724,-0.07558
8.728,-0.01962
8.732,0.01233
8.736,-0.0077
8.74,-0.08513
8.744,0.01491
8.748,0.00609
8.752,-0.01285
8.756,0.04876
8.76,-7e-05
8.764,-0.08293
8.768,-0.02514
8.772,0.02419
8.776,0.06613
8.78,0.00537
8.784,0.01223
8.788,0.02717
8.792,0.04122
8.796,0.05251
8.8,0.05825
8.804,0.10166
8.808,0.11801
8.812,0.08463
8.816,0.0666
8.82,0.10781
8.824,0.01686
8.828,0.01025
8.832,-0.01895
8.836,0.02435
8.84,-0.0311
8.844,-0.01055
8.848,-0.03572
8.852,0.00462
8.856,-0.03276
8.86,-0.07687
8.864,-0.0083
8.868,-0.02222
8.872,-0.01376
8.876,-0.02098
8.88,-0.00669
8.884,0.00014
8.888,-0.03282
8.892,-0.05456
8.896,-0.06175
8.9,-0.01587
8.904,-0.05133
8.908,-0.03644
8.912,-0.00443
8.916,0.00607
8.92,-0.02486
8.924,-0.05437
8.928,-0.10564
8.932,-0.05345
8.936,-0.11592
8.94,-0.10028
8.944,0.08935
8.948,0.18923
8.952,0.39267
8.956,0.60013
8.96,0.79962
8.964,0.96152
8.968,0.97073
8.972,0.91696
8.976,0.74448
8.98,0.52368
8.984,0.26341
8.988,0.08002
8.992,0.06276
8.996,-0.17027
9.0,-0.23863
9.004,-0.18914
9.008,-0.12584
9.012,-0.0576
9.016,-0.05563
9.02,-0.02454
9.024,-0.0196
9.028,-0.09209
9.032,0.02321
9.036,-0.02725
9.04,-0.05812
9.044,-0.06973
9.048,0.03438
9.052,-0.01523
9.056,0.05605
9.06,-0.02012
9.064,-0.02279
9.068,0.02464
9.072,0.01459
9.076,-0.00231
9.08,-0.01301
9.084,0.01663
9.088,0.04752
9.092,-0.01511
9.096,-0.03074
9.1,-0.04243
9.104,-0.03384
9.108,-0.08112
9.112,0.00055
9.116,-0.04518
9.12,-0.04359
9.124,-0.06073
9.128,-0.0083
9.132,0.01173
9.136,0.02206
9.14,0.02773
9.144,0.06493
9.148,0.01413
9.152,-0.03548
9.156,0.00172
9.16,-0.02195
9.164,-0.0018
9.168,-0.00449
9.172,0.02436
9.176,0.04875
9.18,0.07948
9.184,0.08796
9.188,0.04191
9.192,0.14633
9.196,0.06817
9.2,0.10593
9.204,0.11457
9.208,0.12447
9.212,0.16479
9.216,0.26208
9.22,0.1674
9.224,0.14996
9.228,0.20801
9.232,0.22852
9.236,0.16438
9.24,0.19373
9.244,0.23481
9.248,0.20217
9.252,0.14374
9.256,0.24904
9.26,0.19102
9.264,0.16547
9.268,0.13747
9.272,0.18359
9.276,0.19272
9.28,0.15097
9.284,0.17568
9.288,0.14324
9.292,0.17295
9.296,0.07856
9.3,0.10603
9.304,0.13316
9.308,0.115
9.312,0.02724
9.316,0.06752
9.32,0.09041
9.324,0.08672
9.328,0.09358
9.332,0.14082
9.336,0.10561
9.34,0.08716
9.344,0.14002
9.348,0.04786
9.352,0.11976
9.356,0.03918
9.36,0.07052
9.364,0.05245
9.368,0.07348
9.372,0.03544
9.376,0.05366
9.38,0.05692
9.384,0.06339
9.388,-0.09964
9.392,0.00977
9.396,-0.00794
9.4,-0.03655
9.404,0.00298
9.408,-0.02757
9.412,0.05612
9.416,-0.00757
9.42,-0.02683
9.424,0.01064
9.428,0.00907
9.432,-0.03616
9.436,0.04665
9.44,-0.01822
9.444,-0.02084
9.448,0.01429
9.452,0.02703
9.456,-0.01569
9.46,-0.07402
9.464,-0.07402
9.468,-0.09429
9.472,-0.16798
9.476,-0.09901
9.48,0.05865
9.484,0.18712
9.488,0.44668
9.492,0.63237
9.496,0.79579
9.5,0.91549
9.504,0.92362
9.508,0.82478
9.512,0.72844
9.516,0.5248
9.52,0.32265
9.524,0.11315
9.528,0.00682
9.532,-0.1729
9.536,-0.18581
9.54,-0.19179
9.544,-0.12649
9.548,-0.08904
9.552,0.00684
9.556,-0.03861
9.56,-0.01467
9.564,-0.00552
9.568,0.04444
9.572,-0.03237
9.576,0.08783
9.58,0.01079
9.584,0.05074
9.588,-0.00725
9.592,-0.03166
9.596,0.00312
9.6,0.04667
9.604,-0.03543
9.608,-0.01145
9.612,0.01703
9.616,-0.00865
9.62,0.00949
9.624,0.03327
9.628,-0.02485
9.632,0.0276
9.636,-0.01911
9.64,0.02544
9.644,0.00868
9.648,-0.00411
9.652,-0.02692
9.656,-0.00733
9.66,0.01696
9.664,-0.05378
9.668,-0.05456
9.672,-0.02113
9.676,-0.04799
9.68,-0.00396
9.684,0.05867
9.688,-0.04512
9.692,-0.07432
9.696,0.00868
9.7,0.07019
9.704,0.03375
9.708,0.01852
9.712,0.08382
9.716,0.07098
9.72,0.01674
9.724,0.07483
9.728,0.14938
9.732,0.21236
9.736,0.15609
9.74,0.15757
9.744,0.13947
9.748,0.19804
9.752,0.12927
9.756,0.145
9.76,0.13748
9.764,0.2292
9.768,0.19966
9.772,0.22725
9.776,0.18906
9.78,0.21019
9.784,0.22215
9.788,0.20074
9.792,0.18551
9.796,0.22334
9.8,0.16213
9.804,0.15956
9.808,0.20045
9.812,0.24564
9.816,0.16598
9.82,0.1694
9.824,0.0973
9.828,0.10847
9.832,0.09108
9.836,0.06117
9.84,0.06483
9.844,0.03392
9.848,0.08458
9.852,0.03058
9.856,0.03486
9.86,0.01481
9.864,0.04345
9.868,0.01859
9.872,0.05532
9.876,0.03798
9.88,0.02255
9.884,0.06938
9.888,-0.01173
9.892,-0.01134
9.896,0.03856
9.9,0.01427
9.904,-0.00721
9.908,-0.00128
9.912,-0.0017
9.916,-0.0401
9.92,-0.01305
9.924,-0.00656
9.928,-0.06941
9.932,0.02408
9.936,-0.02001
9.94,-0.05059
9.944,0.01562
9.948,0.06085
9.952,-0.01302
9.956,-0.01004
9.96,-0.00182
9.964,0.01361
9.968,-0.0034
9.972,-0.00572
9.976,-0.02632
9.98,-0.00114
9.984,0.035
9.988,0.01758
9.992,0.01211
9.996,-0.00808
