t_seg,ecg_mV
0.0,0.03937
0.004,0.02576
0.008,0.01249
0.012,0.04581
0.016,0.12413
0.02,0.01094
0.024,-0.13943
0.028,-0.05467
0.032,-0.10367
0.036,-0.00578
0.04,0.09426
0.044,0.23529
0.048,0.50968
0.052,0.7345
0.056,0.89274
0.06,1.06528
0.064,1.01151
0.068,0.93544
0.072,0.7358
0.076,0.45299
0.08,0.30939
0.084,0.08462
0.088,0.00978
0.092,-0.0963
0.096,-0.09716
0.1,-0.12105
0.104,0.00111
0.108,-0.04389
0.112,-0.03325
0.116,0.00972
0.12,0.0624
0.124,0.08724
0.128,0.02794
0.132,0.0195
0.136,0.01533
0.14,0.01924
0.144,0.08327
0.148,0.05957
0.152,0.0408
0.156,0.0406
0.16,0.04242
0.164,0.03475
0.168,0.0079
0.172,0.07006
0.176,0.02202
0.18,-0.01958
0.184,0.01758
0.188,0.01798
0.192,0.06334
0.196,0.09088
0.2,0.05455
0.204,0.05546
0.208,0.05854
0.212,0.00643
0.216,-0.03405
0.22,0.0563
0.224,0.0515
0.228,0.08375
0.232,0.02059
0.236,0.02485
0.24,0.08756
0.244,0.03029
0.248,0.08742
0.252,0.02871
0.256,0.02291
0.26,0.0515
0.264,0.0175
0.268,0.10446
0.272,0.07086
0.276,0.10969
0.28,0.11829
0.284,0.18459
0.288,0.12022
0.292,0.12865
0.296,0.17497
0.3,0.13857
0.304,0.20189
0.308,0.25588
0.312,0.1214
0.316,0.19221
0.32,0.28782
0.324,0.1864
0.328,0.24947
0.332,0.20537
0.336,0.30942
0.34,0.2134
0.344,0.22164
0.348,0.24693
0.352,0.28164
0.356,0.30076
0.36,0.24842
0.364,0.28872
0.368,0.21146
0.372,0.22384
0.376,0.21838
0.38,0.20033
0.384,0.10869
0.388,0.14135
0.392,0.10312
0.396,0.09679
0.4,0.11008
0.404,0.1624
0.408,0.11232
0.412,0.12747
0.416,0.06456
0.42,0.10031
0.424,0.07346
0.428,0.03563
0.432,0.04601
0.436,0.05609
0.44,0.06075
0.444,0.06559
0.448,0.02881
0.452,0.04335
0.456,0.06215
0.46,0.06317
0.464,0.0307
0.468,0.05703
0.472,0.05785
0.476,0.03152
0.48,-0.0031
0.484,-0.00332
0.488,-0.01059
0.492,0.04912
0.496,0.01942
0.5,0.03527
0.504,-0.01784
0.508,-0.04212
0.512,0.0877
0.516,0.03661
0.52,0.05856
0.524,-0.0019
0.528,0.06281
0.532,0.05931
0.536,0.06679
0.54,0.05493
0.544,0.01885
0.548,0.06923
0.552,0.00244
0.556,0.09004
0.56,-0.01895
0.564,0.00577
0.568,0.05903
0.572,0.06558
0.576,-0.0097
0.58,0.02744
0.584,0.04671
0.588,0.04831
0.592,0.04133
0.596,0.09084
0.6,0.04295
0.604,0.10368
0.608,0.17263
0.612,0.11012
0.616,0.03542
0.62,0.06464
0.624,0.10973
0.628,0.14789
0.632,0.08437
0.636,0.07392
0.64,0.10319
0.644,0.07397
0.648,0.07076
0.652,0.03388
0.656,0.05916
0.66,0.1138
0.664,0.00956
0.668,0.05083
0.672,0.02264
0.676,0.02489
0.68,-0.00532
0.684,0.01757
0.688,0.01257
0.692,0.06953
0.696,-0.00269
0.7,-0.006
0.704,0.07743
0.708,0.0125
0.712,0.05581
0.716,0.03156
0.72,0.02019
0.724,0.02048
0.728,0.02168
0.732,0.03409
0.736,0.05893
0.74,-0.04704
0.744,-0.07397
0.748,-0.04803
0.752,-0.07705
0.756,0.05428
0.76,0.15173
0.764,0.34763
0.768,0.50876
0.772,0.76184
0.776,0.91418
0.78,1.08784
0.784,1.05139
0.788,0.92381
0.792,0.71728
0.796,0.48209
0.8,0.31983
0.804,0.07364
0.808,-0.01784
0.812,-0.18328
0.816,-0.1334
0.82,-0.06922
0.824,-0.08285
0.828,0.04225
0.832,-0.05756
0.836,0.09269
0.84,0.01183
0.844,-0.01713
0.848,-0.02221
0.852,0.06474
0.856,0.01384
0.86,0.00447
0.864,0.04802
0.868,0.00578
0.872,0.03728
0.876,-0.02612
0.88,-0.0498
0.884,0.0072
0.888,0.01296
0.892,-0.0307
0.896,-0.00937
0.9,0.00657
0.904,0.00333
0.908,0.04615
0.912,0.04778
0.916,-0.02006
0.92,0.03244
0.924,0.02543
0.928,0.02656
0.932,-0.02249
0.936,0.04308
0.94,-0.00978
0.944,0.05768
0.948,0.06664
0.952,0.06597
0.956,0.02496
0.96,0.00158
0.964,0.07969
0.968,0.07503
0.972,0.12319
0.976,0.09356
0.98,0.07317
0.984,0.13624
0.988,0.12014
0.992,0.09405
0.996,0.12513
1.0,0.08852
1.004,0.12351
1.008,0.17762
1.012,0.13834
1.016,0.16669
1.02,0.20075
1.024,0.14355
1.028,0.21291
1.032,0.18334
1.036,0.26514
1.04,0.14403
1.044,0.17885
1.048,0.19051
1.052,0.20639
1.056,0.23933
1.06,0.2578
1.064,0.20187
1.068,0.22607
1.072,0.26839
1.076,0.24951
1.08,0.20999
1.084,0.1885
1.088,0.25965
1.092,0.23619
1.096,0.21341
1.1,0.19755
1.104,0.1201
1.108,0.13446
1.112,0.16986
1.116,0.08853
1.12,0.12174
1.124,0.09331
1.128,0.07895
1.132,0.06902
1.136,0.11287
1.14,0.02494
1.144,0.09651
1.148,0.06428
1.152,0.06767
1.156,0.05076
1.16,0.09006
1.164,0.00419
1.168,-0.01456
1.172,0.05541
1.176,0.05228
1.18,0.03961
1.184,-0.00304
1.188,0.05901
1.192,0.07963
1.196,0.01533
1.2,0.03219
1.204,0.0457
1.208,0.03305
1.212,-0.00807
1.216,0.04045
1.22,0.03321
1.224,-0.03655
1.228,-0.00514
1.232,0.06559
1.236,-0.0274
1.24,0.04754
1.244,0.0144
1.248,0.07073
1.252,-0.04368
1.256,0.0683
1.26,-0.01977
1.264,-0.00131
1.268,0.05359
1.272,0.0475
1.276,0.01914
1.28,-0.00258
1.284,0.00559
1.288,0.01762
1.292,-0.00798
1.296,0.079
1.3,0.04141
1.304,0.0249
1.308,-0.00367
1.312,0.05113
1.316,-0.01565
1.32,0.08971
1.324,0.00184
1.328,0.06173
1.332,-0.0113
1.336,0.05927
1.34,0.08104
1.344,0.00792
1.348,0.05819
1.352,0.03617
1.356,-0.00067
1.36,0.032
1.364,-0.0372
1.368,0.02462
1.372,0.08208
1.376,0.02016
1.38,-0.05411
1.384,0.04444
1.388,-0.002
1.392,0.0265
1.396,0.04151
1.4,0.00375
1.404,-0.00715
1.408,0.02816
1.412,0.04133
1.416,-0.02546
1.42,0.04014
1.424,-0.01658
1.428,-0.00215
1.432,-0.00427
1.436,-0.05381
1.44,0.06414
1.444,0.09317
1.448,0.02782
1.452,0.092
1.456,-0.01347
1.46,0.0629
1.464,-0.00129
1.468,0.04484
1.472,0.08016
1.476,0.09796
1.48,0.10809
1.484,0.07633
1.488,0.12353
1.492,0.09427
1.496,0.17072
1.5,0.09965
1.504,0.16399
1.508,0.13275
1.512,0.14358
1.516,0.0134
1.52,0.03732
1.524,0.06496
1.528,0.0675
1.532,0.09442
1.536,0.00805
1.54,0.02616
1.544,-0.00113
1.548,0.03156
1.552,0.0447
1.556,0.04715
1.56,-0.0429
1.564,-0.01631
1.568,0.04075
1.572,0.01193
1.576,0.00621
1.58,-0.02125
1.584,0.00629
1.588,0.02385
1.592,0.02106
1.596,-0.05784
1.6,-0.01374
1.604,0.02993
1.608,-0.05996
1.612,-0.00896
1.616,-0.09558
1.62,-0.1491
1.624,-0.08483
1.628,-0.03069
1.632,0.17292
1.636,0.38747
1.64,0.6109
1.644,0.82324
1.648,0.9881
1.652,1.04811
1.656,0.97677
1.66,0.75851
1.664,0.59289
1.668,0.29718
1.672,0.10522
1.676,-0.01233
1.68,-0.18825
1.684,-0.21336
1.688,-0.15707
1.692,-0.09249
1.696,-0.02643
1.7,-0.03765
1.704,-0.01954
1.708,0.04444
1.712,0.01593
1.716,0.01603
1.72,0.01722
1.724,0.05523
1.728,-0.03872
1.732,0.03828
1.736,-0.04755
1.74,-0.02987
1.744,0.0133
1.748,-0.03627
1.752,0.00315
1.756,0.00193
1.76,0.01102
1.764,0.01685
1.768,0.00866
1.772,-0.00278
1.776,0.07156
1.78,0.00459
1.784,0.04616
1.788,-0.01257
1.792,-0.0008
1.796,-0.0179
1.8,-0.00725
1.804,-0.01403
1.808,0.05836
1.812,-0.00687
1.816,0.02491
1.82,0.07405
1.824,0.00564
1.828,0.07873
1.832,0.02124
1.836,0.09327
1.84,0.06009
1.844,0.04069
1.848,-0.01156
1.852,-0.00185
1.856,0.03836
1.86,0.06726
1.864,0.02673
1.868,0.08511
1.872,0.06676
1.876,0.09022
1.88,0.07551
1.884,0.12576
1.888,0.20473
1.892,0.15333
1.896,0.13925
1.9,0.15505
1.904,0.20739
1.908,0.21728
1.912,0.16518
1.916,0.25855
1.92,0.1873
1.924,0.23111
1.928,0.24245
1.932,0.24337
1.936,0.22719
1.94,0.20295
1.944,0.23376
1.948,0.24604
1.952,0.2009
1.956,0.17858
1.96,0.13467
1.964,0.19846
1.968,0.2184
1.972,0.17735
1.976,0.18003
1.98,0.15311
1.984,0.08805
1.988,0.13297
1.992,0.11107
1.996,0.05486
2.0,0.06582
2.004,0.06527
2.008,0.00637
2.012,0.03101
2.016,0.0134
2.02,0.00701
2.024,0.00623
2.028,0.03017
2.032,0.06722
2.036,-0.016
2.04,0.00442
2.044,0.02381
2.048,-0.01895
2.052,0.04705
2.056,0.02116
2.06,0.03048
2.064,0.02585
2.068,0.08433
2.072,0.10128
2.076,0.08839
2.08,0.11714
2.084,0.09556
2.088,0.11412
2.092,0.06643
2.096,0.04543
2.1,0.10904
2.104,0.09075
2.108,0.09429
2.112,0.09717
2.116,0.06941
2.12,0.09387
2.124,0.08115
2.128,0.01536
2.132,0.00821
2.136,-0.00181
2.14,-0.00771
2.144,0.03686
2.148,0.04753
2.152,-0.05979
2.156,0.06254
2.16,0.02578
2.164,0.01572
2.168,0.00292
2.172,0.01393
2.176,0.01808
2.18,-0.0271
2.184,0.05404
2.188,0.00977
2.192,-0.05092
2.196,0.0252
2.2,-0.00173
2.204,0.01748
2.208,-0.05189
2.212,-0.08434
2.216,-0.02041
2.22,-0.03507
2.224,-0.0864
2.228,-0.09998
2.232,-0.11309
2.236,0.08021
2.24,0.24226
2.244,0.45896
2.248,0.64012
2.252,0.86285
2.256,1.00501
2.26,0.97094
2.264,0.8234
2.268,0.73402
2.272,0.48744
2.276,0.21314
2.28,0.00881
2.284,-0.14869
2.288,-0.15585
2.292,-0.19358
2.296,-0.15374
2.3,-0.10348
2.304,-0.08404
2.308,-0.00463
2.312,-0.0454
2.316,0.02031
2.32,-0.01594
2.324,-0.05278
2.328,0.00366
2.332,0.008
2.336,-0.04277
2.34,-0.02326
2.344,0.00497
2.348,0.02505
2.352,-0.00281
2.356,0.00684
2.36,0.00596
2.364,0.03137
2.368,-0.0052
2.372,-0.0376
2.376,-0.03301
2.38,0.03034
2.384,-0.04866
2.388,0.07314
2.392,-0.00653
2.396,0.00046
2.4,-0.04781
2.404,-0.04123
2.408,0.0049
2.412,0.01973
2.416,0.03021
2.42,0.02871
2.424,-0.08518
2.428,0.03982
2.432,-0.00168
2.436,-0.0177
2.44,0.00342
2.444,-0.07884
2.448,0.08737
2.452,-0.00319
2.456,0.0701
2.46,0.04023
2.464,0.00972
2.468,0.08946
2.472,0.07085
2.476,0.10902
2.48,0.06529
2.484,0.13008
2.488,0.11742
2.492,0.14313
2.496,0.15973
2.5,0.18043
2.504,0.2323
2.508,0.08978
2.512,0.20278
2.516,0.13595
2.52,0.19066
2.524,0.2823
2.528,0.17446
2.532,0.23308
2.536,0.17459
2.54,0.229
2.544,0.25665
2.548,0.23002
2.552,0.18773
2.556,0.17086
2.56,0.16972
2.564,0.18113
2.568,0.28458
2.572,0.1181
2.576,0.20108
2.58,0.15133
2.584,0.14526
2.588,0.12214
2.592,0.146
2.596,0.12451
2.6,0.16847
2.604,0.11119
2.608,0.13531
2.612,0.09712
2.616,0.09582
2.62,0.1078
2.624,0.12715
2.628,0.10828
2.632,0.12341
2.636,0.13214
2.64,0.12514
2.644,0.06748
2.648,0.07749
2.652,0.10768
2.656,0.00643
2.66,0.04343
2.664,0.04266
2.668,-0.00515
2.672,0.02528
2.676,-0.02124
2.68,-0.00746
2.684,0.0492
2.688,-0.0626
2.692,-0.00264
2.696,-0.02915
2.7,-0.03347
2.704,-0.01356
2.708,-0.03579
2.712,-0.03637
2.716,-0.00858
2.72,-0.05228
2.724,-0.00335
2.728,-0.02235
2.732,-0.05164
2.736,-0.0496
2.74,4e-05
2.744,-0.08958
2.748,-0.02963
2.752,-0.08847
2.756,-0.07258
2.76,-0.10367
2.764,-0.08023
2.768,-0.14084
2.772,-0.0278
2.776,0.12347
2.78,0.31937
2.784,0.6005
2.788,0.72322
2.792,0.94805
2.796,0.99115
2.8,0.87615
2.804,0.72195
2.808,0.57177
2.812,0.29901
2.816,0.13908
2.82,-0.0507
2.824,-0.16024
2.828,-0.21777
2.832,-0.18892
2.836,-0.10058
2.84,-0.11129
2.844,-0.09255
2.848,-0.02044
2.852,-0.06292
2.856,0.00327
2.86,0.00327
2.864,0.01009
2.868,0.02239
2.872,-0.00275
2.876,-0.02093
2.88,-0.05128
2.884,-0.00763
2.888,-0.05513
2.892,-0.05768
2.896,0.01139
2.9,-0.0396
2.904,-0.07475
2.908,-0.03627
2.912,0.01614
2.916,-0.00324
2.92,-0.03028
2.924,-0.03314
2.928,-0.05768
2.932,-0.03162
2.936,0.01376
2.94,-0.06408
2.944,-0.05127
2.948,-0.0199
2.952,-0.03596
2.956,-0.05369
2.96,-0.05119
2.964,0.01305
2.968,0.00264
2.972,-0.00106
2.976,-0.02448
2.98,0.00812
2.984,0.05885
2.988,-0.01584
2.992,-0.01151
2.996,0.0192
3.0,-0.00382
3.004,0.04575
3.008,0.02384
3.012,0.0043
3.016,0.01074
3.02,0.06559
3.024,0.10033
3.028,0.06957
3.032,0.07425
3.036,0.10444
3.04,0.14858
3.044,0.1614
3.048,0.16377
3.052,0.21136
3.056,0.0942
3.06,0.17195
3.064,0.19254
3.068,0.18682
3.072,0.1542
3.076,0.20421
3.08,0.15656
3.084,0.21415
3.088,0.16322
3.092,0.19201
3.096,0.17693
3.1,0.17681
3.104,0.14259
3.108,0.12335
3.112,0.16494
3.116,0.15973
3.12,0.10693
3.124,0.13408
3.128,0.04861
3.132,0.05126
3.136,0.05129
3.14,-0.00474
3.144,0.07968
3.148,0.02015
3.152,0.0912
3.156,0.00637
3.16,-0.00208
3.164,0.00627
3.168,0.00312
3.172,-0.00476
3.176,0.04967
3.18,-0.05993
3.184,-0.04742
3.188,-0.00211
3.192,-0.00072
3.196,-0.04933
3.2,-0.06886
3.204,-0.08065
3.208,-0.00685
3.212,-0.03482
3.216,0.02357
3.22,-0.0085
3.224,0.03843
3.228,-0.01787
3.232,-0.03699
3.236,0.0089
3.24,0.03192
3.244,-0.03896
3.248,0.01599
3.252,0.03535
3.256,-0.00508
3.26,-0.08084
3.264,-0.04966
3.268,-0.00284
3.272,-0.02777
3.276,0.006
3.28,0.00299
3.284,-0.01794
3.288,-0.07516
3.292,-0.06405
3.296,-0.0585
3.3,-0.07551
3.304,-0.0563
3.308,0.03108
3.312,-0.04925
3.316,-0.01156
3.32,-0.00272
3.324,-0.03127
3.328,-0.0205
3.332,-0.00351
3.336,-0.0304
3.34,-0.04223
3.344,0.00216
3.348,-0.02749
3.352,0.0143
3.356,-0.03931
3.36,-0.00626
3.364,0.05973
3.368,-0.01774
3.372,-0.05834
3.376,-0.02235
3.38,0.01875
3.384,-0.05196
3.388,-0.00429
3.392,-0.02402
3.396,0.03558
3.4,0.00355
3.404,-0.01164
3.408,0.03769
3.412,0.04531
3.416,0.0059
3.42,0.0241
3.424,0.01818
3.428,0.10236
3.432,0.01894
3.436,0.08234
3.44,0.08454
3.444,0.01957
3.448,0.01445
3.452,0.01168
3.456,0.02478
3.46,0.01489
3.464,-9e-05
3.468,-0.00762
3.472,-0.03959
3.476,-0.081
3.48,0.05551
3.484,-0.06305
3.488,-0.08804
3.492,-0.0109
3.496,-0.0593
3.5,-0.00421
3.504,-0.01562
3.508,-0.12929
3.512,-0.12743
3.516,-0.00874
3.52,-0.01024
3.524,-0.06688
3.528,0.02581
3.532,-0.03413
3.536,0.00317
3.54,-0.03297
3.544,0.04368
3.548,-0.0198
3.552,-0.12428
3.556,-0.05835
3.56,-0.17201
3.564,-0.15452
3.568,-0.05048
3.572,0.05099
3.576,0.24726
3.58,0.46663
3.584,0.66481
3.588,0.88266
3.592,0.99737
3.596,0.94836
3.6,0.83452
3.604,0.64511
3.608,0.41185
3.612,0.2008
3.616,-0.03553
3.62,-0.17075
3.624,-0.17213
3.628,-0.18789
3.632,-0.08127
3.636,-0.14625
3.64,0.02008
3.644,-0.14678
3.648,0.01545
3.652,-0.00244
3.656,-0.06242
3.66,-0.0239
3.664,-0.01132
3.668,-0.04758
3.672,-0.01495
3.676,-0.05325
3.68,0.01847
3.684,-0.0412
3.688,-0.04918
3.692,-0.04117
3.696,-0.04889
3.7,-0.00525
3.704,-0.01006
3.708,0.00186
3.712,-0.04474
3.716,-0.06297
3.72,0.00971
3.724,-0.01946
3.728,-0.01898
3.732,-0.06619
3.736,-0.04556
3.74,-0.07953
3.744,-0.02202
3.748,-0.02624
3.752,-0.01073
3.756,0.0021
3.76,0.0199
3.764,-0.00984
3.768,0.0069
3.772,-0.02095
3.776,-0.04197
3.78,0.0299
3.784,0.01049
3.788,-0.00167
3.792,-0.01023
3.796,-0.05164
3.8,0.01866
3.804,0.05894
3.808,0.0338
3.812,0.07169
3.816,0.00978
3.82,0.04922
3.824,0.0811
3.828,0.09876
3.832,0.11194
3.836,0.18896
3.84,0.11736
3.844,0.16759
3.848,0.12195
3.852,0.12423
3.856,0.20766
3.86,0.16784
3.864,0.1813
3.868,0.2067
3.872,0.19294
3.876,0.21146
3.88,0.14477
3.884,0.22329
3.888,0.13354
3.892,0.2031
3.896,0.16468
3.9,0.1996
3.904,0.15251
3.908,0.13874
3.912,0.04796
3.916,0.02633
3.92,0.07668
3.924,0.05807
3.928,0.08799
3.932,0.06238
3.936,0.04988
3.94,0.10361
3.944,0.06479
3.948,0.07648
3.952,-0.04315
3.956,-0.02647
3.96,-0.07428
3.964,0.00547
3.968,0.01735
3.972,-0.04345
3.976,-0.01663
3.98,-0.04272
3.984,0.02169
3.988,-0.05354
3.992,-0.04454
3.996,-0.00754
4.0,-0.00756
4.004,0.02652
4.008,0.01804
4.012,-0.02308
4.016,-0.02479
4.02,-0.04455
4.024,-0.09515
4.028,0.01229
4.032,0.00056
4.036,0.02071
4.04,-0.05592
4.044,-0.02521
4.048,-0.01953
4.052,-0.00721
4.056,-0.02843
4.06,-0.02176
4.064,-0.005
4.068,-0.05772
4.072,-0.06623
4.076,-0.06582
4.08,-0.01482
4.084,-0.00334
4.088,-0.08228
4.092,0.03216
4.096,-0.01175
4.1,0.02719
4.104,-0.05508
4.108,-0.01166
4.112,-0.0195
4.116,-0.04274
4.12,-0.02154
4.124,-0.02991
4.128,0.01591
4.132,-0.05007
4.136,0.01247
4.14,0.03112
4.144,0.02386
4.148,0.04739
4.152,0.04231
4.156,0.01179
4.16,0.03165
4.164,0.00857
4.168,0.05895
4.172,0.06032
4.176,0.08749
4.18,0.07109
4.184,0.10664
4.188,0.0977
4.192,0.04423
4.196,0.01787
4.2,0.05619
4.204,0.0045
4.208,0.05599
4.212,-0.00514
4.216,-0.01955
4.22,-0.00886
4.224,-0.02248
4.228,-0.0581
4.232,0.00853
4.236,0.01366
4.24,-0.08583
4.244,-0.01411
4.248,-0.04049
4.252,-0.03608
4.256,0.02153
4.26,-0.01987
4.264,-0.09756
4.268,-0.04195
4.272,-0.02549
4.276,-0.03111
4.28,-0.06674
4.284,-0.03925
4.288,-0.01057
4.292,-0.06215
4.296,-0.03862
4.3,-0.09778
4.304,-0.11865
4.308,-0.14803
4.312,-0.0768
4.316,0.05846
4.32,0.23426
4.324,0.52375
4.328,0.67412
4.332,0.80779
4.336,1.06928
4.34,0.93448
4.344,0.87914
4.348,0.68928
4.352,0.38705
4.356,0.15418
4.36,0.04573
4.364,-0.15389
4.368,-0.15804
4.372,-0.18877
4.376,-0.11652
4.38,-0.09248
4.384,-0.14207
4.388,-0.00808
4.392,-0.09724
4.396,-0.00945
4.4,-0.02261
4.404,0.03217
4.408,-0.01148
4.412,-0.02357
4.416,0.01379
4.42,-0.02978
4.424,-0.02388
4.428,-0.04507
4.432,-0.054
4.436,-0.0447
4.44,-0.00447
4.444,-0.00592
4.448,-0.05232
4.452,-0.05943
4.456,0.01042
4.46,-0.04682
4.464,-0.03993
4.468,-0.05831
4.472,-0.04679
4.476,0.01264
4.48,-0.02095
4.484,-0.01957
4.488,0.00682
4.492,-0.02816
4.496,-0.01927
4.5,-0.05695
4.504,-0.00502
4.508,-0.05463
4.512,0.02918
4.516,0.00229
4.52,-0.0106
4.524,0.05737
4.528,0.0276
4.532,-0.04542
4.536,-0.02167
4.54,0.01363
4.544,0.01055
4.548,0.07668
4.552,0.05942
4.556,0.05026
4.56,0.02837
4.564,0.0867
4.568,0.10167
4.572,0.12519
4.576,0.17138
4.58,0.17396
4.584,0.12307
4.588,0.18663
4.592,0.10305
4.596,0.15695
4.6,0.16678
4.604,0.1845
4.608,0.16758
4.612,0.22757
4.616,0.20349
4.62,0.16822
4.624,0.17069
4.628,0.17477
4.632,0.1389
4.636,0.21367
4.64,0.14602
4.644,0.14171
4.648,0.19583
4.652,0.14265
4.656,0.14716
4.66,0.08194
4.664,0.10801
4.668,0.0756
4.672,0.11506
4.676,0.07269
4.68,0.03622
4.684,0.02072
4.688,-0.0362
4.692,0.02503
4.696,0.01204
4.7,-0.01985
4.704,0.03691
4.708,-0.01484
4.712,0.02016
4.716,-0.00556
4.72,0.04271
4.724,-0.03985
4.728,-0.00763
4.732,0.03559
4.736,-0.01614
4.74,0.0203
4.744,0.00017
4.748,0.03109
4.752,-0.04391
4.756,-0.00333
4.76,0.04754
4.764,-0.00711
4.768,-0.02231
4.772,-0.00216
4.776,0.03638
4.78,0.03578
4.784,-0.03182
4.788,0.02458
4.792,0.07954
4.796,0.06764
4.8,0.05337
4.804,0.05061
4.808,0.0619
4.812,0.09586
4.816,0.03966
4.82,0.06714
4.824,-0.01546
4.828,0.075
4.832,0.0034
4.836,0.03015
4.84,0.01561
4.844,0.01164
4.848,-0.00643
4.852,-0.00751
4.856,-0.07891
4.86,0.02907
4.864,0.05646
4.868,-0.02449
4.872,-0.01229
4.876,0.02697
4.88,0.01356
4.884,0.01201
4.888,0.00082
4.892,-0.00099
4.896,-0.00416
4.9,-0.00115
4.904,-0.05094
4.908,0.03828
4.912,-0.00806
4.916,-0.00582
4.92,-0.05172
4.924,-0.04658
4.928,-0.09336
4.932,-0.11883
4.936,-0.16768
4.94,-0.11634
4.944,-0.04231
4.948,0.19259
4.952,0.37031
4.956,0.46819
4.96,0.71657
4.964,0.95413
4.968,0.99135
4.972,0.93715
4.976,0.81499
4.98,0.60215
4.984,0.40309
4.988,0.17303
4.992,-0.10957
4.996,-0.06861
5.0,-0.19132
5.004,-0.1327
5.008,-0.09509
5.012,-0.03392
5.016,-0.07085
5.02,-0.0662
5.024,-0.04077
5.028,0.02574
5.032,-0.05662
5.036,-0.02981
5.04,-0.07901
5.044,-0.05842
5.048,0.03997
5.052,-0.01753
5.056,-0.05713
5.06,-0.01653
5.064,-0.00477
5.068,-0.01936
5.072,0.01093
5.076,0.02028
5.08,-0.03105
5.084,-0.00592
5.088,0.01782
5.092,-0.00426
5.096,0.01861
5.1,-0.03524
5.104,0.06144
5.108,-0.08672
5.112,-0.01837
5.116,0.05356
5.12,0.04611
5.124,-0.08118
5.128,-0.02813
5.132,-0.01523
5.136,-0.07736
5.14,-0.04037
5.144,-0.02643
5.148,0.0295
5.152,0.05012
5.156,-0.03705
5.16,0.00557
5.164,0.03995
5.168,0.01791
5.172,0.03098
5.176,-0.01035
5.18,0.05411
5.184,0.10863
5.188,0.06434
5.192,0.11306
5.196,0.14489
5.2,0.11122
5.204,0.11559
5.208,0.18558
5.212,0.13293
5.216,0.21143
5.22,0.17618
5.224,0.14992
5.228,0.19568
5.232,0.20886
5.236,0.239
5.24,0.19965
5.244,0.22327
5.248,0.24351
5.252,0.20251
5.256,0.27298
5.26,0.20925
5.264,0.22388
5.268,0.18242
5.272,0.19113
5.276,0.16437
5.28,0.16221
5.284,0.20391
5.288,0.1081
5.292,0.15308
5.296,0.08841
5.3,0.06775
5.304,0.07966
5.308,0.04817
5.312,0.0913
5.316,0.03991
5.32,0.09877
5.324,0.12098
5.328,0.03576
5.332,0.04628
5.336,0.02656
5.34,0.01449
5.344,0.07751
5.348,-0.02689
5.352,0.01919
5.356,-0.02196
5.36,0.0068
5.364,-0.01742
5.368,-0.00214
5.372,-0.02474
5.376,-0.03348
5.38,0.00416
5.384,-0.01476
5.388,0.01775
5.392,0.05583
5.396,-0.03977
5.4,-0.05556
5.404,-0.11429
5.408,-0.00877
5.412,-0.01543
5.416,-0.01308
5.42,0.02383
5.424,-0.03104
5.428,0.03816
5.432,0.05198
5.436,-0.00487
5.44,-0.01196
5.444,-0.001
5.448,-0.11681
5.452,0.01501
5.456,-0.00581
5.46,0.03829
5.464,-0.00745
5.468,-0.0223
5.472,0.03649
5.476,0.03201
5.48,0.00572
5.484,-0.01741
5.488,0.04434
5.492,-0.00186
5.496,0.00479
5.5,0.03605
5.504,-0.00134
5.508,0.0049
5.512,0.01865
5.516,0.03339
5.52,0.00224
5.524,-0.06412
5.528,-0.06217
5.532,0.05322
5.536,0.06185
5.54,-0.00673
5.544,-0.01741
5.548,0.02302
5.552,-0.02811
5.556,-0.0045
5.56,-0.00716
5.564,0.02324
5.568,-0.09044
5.572,0.05074
5.576,-0.00821
5.58,-0.00059
5.584,-0.02219
5.588,0.02221
5.592,-0.05278
5.596,-0.00764
5.6,0.01787
5.604,-0.00755
5.608,-0.00568
5.612,-0.00817
5.616,0.07315
5.62,0.09857
5.624,0.07331
5.628,0.08435
5.632,0.03791
5.636,0.14354
5.64,0.04133
5.644,0.14133
5.648,0.15963
5.652,0.13978
5.656,0.09854
5.66,0.08905
5.664,0.03531
5.668,0.09341
5.672,0.0189
5.676,0.0412
5.68,0.04664
5.684,0.01317
5.688,0.05323
5.692,0.00093
5.696,0.03523
5.7,0.01813
5.704,-0.00251
5.708,0.02414
5.712,-0.00387
5.716,0.05557
5.72,-0.02906
5.724,-0.01153
5.728,-0.02664
5.732,0.01529
5.736,-0.01469
5.74,-0.01875
5.744,0.01012
5.748,-0.02688
5.752,0.03445
5.756,-0.02593
5.76,-0.10487
5.764,-0.12187
5.768,-0.04594
5.772,-0.04819
5.776,0.03884
5.78,0.27942
5.784,0.42826
5.788,0.66914
5.792,0.8914
5.796,1.05216
5.8,1.10664
5.804,0.8636
5.808,0.7305
5.812,0.50097
5.816,0.20708
5.82,0.01124
5.824,-0.03397
5.828,-0.15722
5.832,-0.10727
5.836,-0.07268
5.84,-0.09187
5.844,-0.03438
5.848,-0.05191
5.852,-0.02253
5.856,-0.02554
5.86,-0.04752
5.864,0.03939
5.868,0.05415
5.872,0.0425
5.876,-0.0033
5.88,-0.01439
5.884,0.04604
5.888,0.0033
5.892,0.03287
5.896,-0.03424
5.9,-0.01161
5.904,0.01472
5.908,0.08115
5.912,0.0075
5.916,0.03139
5.92,0.03846
5.924,0.02263
5.928,-0.03474
5.932,0.01178
5.936,-0.06165
5.94,-0.0921
5.944,0.06507
5.948,-0.01497
5.952,0.02608
5.956,-0.02829
5.96,0.07042
5.964,-0.00708
5.968,0.05935
5.972,0.00445
5.976,0.02379
5.98,-0.00122
5.984,0.01191
5.988,0.0335
5.992,0.11051
5.996,0.01781
6.0,-0.02151
6.004,0.09068
6.008,0.07229
6.012,0.08126
6.016,0.10376
6.02,0.09517
6.024,0.11017
6.028,0.14658
6.032,0.1174
6.036,0.13436
6.04,0.14852
6.044,0.16854
6.048,0.20609
6.052,0.20258
6.056,0.21594
6.06,0.263
6.064,0.20476
6.068,0.30396
6.072,0.27312
6.076,0.26047
6.08,0.21555
6.084,0.2078
6.088,0.2154
6.092,0.21254
6.096,0.19465
6.1,0.23631
6.104,0.18455
6.108,0.18819
6.112,0.25577
6.116,0.13827
6.12,0.19251
6.124,0.18812
6.128,0.18898
6.132,0.15296
6.136,0.07749
6.14,0.08091
6.144,0.13616
6.148,0.00895
6.152,0.10246
6.156,0.01487
6.16,0.10368
6.164,0.08039
6.168,0.05093
6.172,0.04456
6.176,0.04238
6.18,0.08119
6.184,0.09864
6.188,0.02661
6.192,0.09598
6.196,0.03626
6.2,0.02295
6.204,0.03772
6.208,-0.00246
6.212,0.0245
6.216,0.00543
6.22,0.02533
6.224,-0.03096
6.228,0.03328
6.232,0.03182
6.236,0.00051
6.24,-0.04737
6.244,-0.00068
6.248,-0.01764
6.252,-0.03825
6.256,0.04082
6.26,0.01471
6.264,-0.00233
6.268,0.01941
6.272,0.01951
6.276,0.06954
6.28,0.05026
6.284,0.0663
6.288,0.00733
6.292,0.03849
6.296,0.01726
6.3,0.06734
6.304,0.05903
6.308,-0.00273
6.312,0.0259
6.316,0.0173
6.32,0.06194
6.324,0.03288
6.328,0.05403
6.332,0.02043
6.336,0.03457
6.34,0.0521
6.344,-0.02377
6.348,0.0164
6.352,0.04408
6.356,0.06559
6.36,0.06422
6.364,0.03873
6.368,0.11592
6.372,0.04399
6.376,0.09017
6.38,0.08846
6.384,0.09742
6.388,0.11009
6.392,0.13034
6.396,0.16489
6.4,0.07946
6.404,0.10339
6.408,0.06777
6.412,0.06335
6.416,0.02996
6.42,0.09765
6.424,0.04168
6.428,-0.01203
6.432,0.04155
6.436,0.01928
6.44,0.01109
6.444,-0.01999
6.448,0.02665
6.452,0.00427
6.456,0.02427
6.46,0.03794
6.464,0.04996
6.468,-0.01172
6.472,-0.01039
6.476,0.04289
6.48,0.00481
6.484,0.05586
6.488,-0.01095
6.492,0.02383
6.496,0.01927
6.5,-0.05784
6.504,0.05378
6.508,0.02979
6.512,-0.0324
6.516,-0.1308
6.52,-0.0336
6.524,-0.01567
6.528,0.09525
6.532,0.26556
6.536,0.44672
6.54,0.74591
6.544,0.89321
6.548,1.01268
6.552,1.02649
6.556,0.94756
6.56,0.70404
6.564,0.41548
6.568,0.27506
6.572,0.09509
6.576,-0.00332
6.58,-0.07497
6.584,-0.18147
6.588,-0.14767
6.592,-0.05098
6.596,-0.0466
6.6,-0.00482
6.604,0.05541
6.608,-0.00245
6.612,-0.03623
6.616,0.03172
6.62,0.00878
6.624,0.03742
6.628,0.04257
6.632,-0.00931
6.636,-0.00082
6.64,0.10603
6.644,0.05032
6.648,0.06752
6.652,-0.01197
6.656,-0.02406
6.66,-0.01233
6.664,0.04605
6.668,0.05778
6.672,0.01852
6.676,0.04957
6.68,0.01992
6.684,-0.01824
6.688,0.12982
6.692,-0.01535
6.696,0.06689
6.7,0.03517
6.704,0.03786
6.708,0.00526
6.712,0.03267
6.716,0.09031
6.72,0.08332
6.724,0.10507
6.728,0.08249
6.732,0.0817
6.736,0.069
6.74,0.02823
6.744,0.06043
6.748,0.08748
6.752,0.10924
6.756,0.069
6.76,0.0903
6.764,0.09799
6.768,0.02747
6.772,0.12253
6.776,0.11741
6.78,0.14669
6.784,0.16239
6.788,0.12427
6.792,0.19583
6.796,0.2118
6.8,0.21596
6.804,0.23211
6.808,0.24665
6.812,0.25951
6.816,0.26627
6.82,0.25362
6.824,0.27782
6.828,0.25897
6.832,0.32185
6.836,0.2467
6.84,0.23314
6.844,0.26045
6.848,0.24998
6.852,0.23485
6.856,0.21014
6.86,0.15363
6.864,0.19736
6.868,0.14383
6.872,0.16273
6.876,0.12857
6.88,0.09792
6.884,0.17637
6.888,0.11434
6.892,0.14988
6.896,0.09162
6.9,0.08503
6.904,0.08587
6.908,0.07879
6.912,0.0931
6.916,0.06564
6.92,0.0787
6.924,0.07571
6.928,0.09357
6.932,0.02882
6.936,0.04054
6.94,-0.00426
6.944,-0.00928
6.948,-0.02838
6.952,0.0304
6.956,0.04153
6.96,0.05393
6.964,0.06861
6.968,0.02142
6.972,0.03536
6.976,-0.04102
6.98,0.09469
6.984,0.00943
6.988,0.09033
6.992,0.1004
6.996,0.05041
7.0,0.0286
7.004,0.09053
7.008,0.06758
7.012,-0.0475
7.016,-0.0049
7.02,0.02241
7.024,-0.03519
7.028,0.04176
7.032,0.04979
7.036,-0.01037
7.04,0.09539
7.044,0.0125
7.048,0.02316
7.052,0.07934
7.056,0.0459
7.06,0.00122
7.064,0.00633
7.068,0.05001
7.072,0.00042
7.076,-0.01009
7.08,0.04377
7.084,0.00355
7.088,0.0197
7.092,0.02359
7.096,0.06293
7.1,0.06252
7.104,-0.02415
7.108,0.01904
7.112,0.01241
7.116,0.1002
7.12,0.02116
7.124,0.05573
7.128,0.02851
7.132,-0.00593
7.136,0.08078
7.14,0.07476
7.144,0.04211
7.148,0.0815
7.152,0.10617
7.156,0.15152
7.16,0.10077
7.164,0.13418
7.168,0.17146
7.172,0.15912
7.176,0.08058
7.18,0.09486
7.184,0.12681
7.188,0.11255
7.192,0.08694
7.196,0.06651
7.2,0.0362
7.204,0.05242
7.208,0.07979
7.212,0.04856
7.216,0.03832
7.22,0.06118
7.224,0.02304
7.228,0.01231
7.232,0.12795
7.236,0.0692
7.24,0.04395
7.244,-0.00182
7.248,0.07301
7.252,0.02919
7.256,-0.05285
7.26,-0.00727
7.264,0.06132
7.268,0.01084
7.272,0.02114
7.276,-0.00553
7.28,0.05936
7.284,0.09717
7.288,0.01859
7.292,0.07148
7.296,0.00671
7.3,-0.07956
7.304,-0.07045
7.308,-0.13777
7.312,-0.00013
7.316,0.09017
7.32,0.20134
7.324,0.3913
7.328,0.45918
7.332,0.64788
7.336,0.71931
7.34,0.66516
7.344,0.57354
7.348,0.44988
7.352,0.22037
7.356,0.11016
7.36,-0.00378
7.364,-0.09106
7.368,-0.17275
7.372,-0.13807
7.376,-0.0602
7.38,-0.04573
7.384,-0.10504
7.388,-0.00429
7.392,-0.0254
7.396,0.01688
7.4,0.03761
7.404,-0.02361
7.408,-0.00252
7.412,0.04669
7.416,0.0376
7.42,0.00973
7.424,0.00237
7.428,-0.00198
7.432,0.05621
7.436,0.00427
7.44,-0.02633
7.444,-0.00319
7.448,-0.00241
7.452,-0.01608
7.456,0.03094
7.46,-0.02307
7.464,0.04062
7.468,-0.00166
7.472,-0.02064
7.476,0.02907
7.48,0.00968
7.484,0.08117
7.488,0.06831
7.492,0.06838
7.496,-0.01178
7.5,0.0903
7.504,0.00357
7.508,0.00539
7.512,0.07197
7.516,0.06104
7.52,-0.00949
7.524,0.04326
7.528,0.06946
7.532,0.03527
7.536,0.13381
7.54,0.08408
7.544,0.09682
7.548,0.09119
7.552,0.15193
7.556,0.08061
7.56,0.13962
7.564,0.08755
7.568,0.18401
7.572,0.18512
7.576,0.18666
7.58,0.18843
7.584,0.22087
7.588,0.30091
7.592,0.21931
7.596,0.18061
7.6,0.27924
7.604,0.21708
7.608,0.29736
7.612,0.20641
7.616,0.28775
7.62,0.28769
7.624,0.25822
7.628,0.27325
7.632,0.35132
7.636,0.36459
7.64,0.25515
7.644,0.316
7.648,0.28645
7.652,0.25091
7.656,0.30339
7.66,0.24721
7.664,0.21897
7.668,0.2545
7.672,0.21561
7.676,0.22537
7.68,0.12668
7.684,0.11273
7.688,0.1822
7.692,0.13419
7.696,0.04134
7.7,0.04541
7.704,0.01247
7.708,0.04522
7.712,0.06424
7.716,0.05215
7.72,0.07
7.724,-0.01334
7.728,0.08445
7.732,0.0616
7.736,-0.09576
7.74,0.05876
7.744,0.06266
7.748,0.09758
7.752,0.08451
7.756,0.00385
7.76,0.09178
7.764,-0.01724
7.768,-0.03861
7.772,-0.00472
7.776,-0.07429
7.78,-0.05845
7.784,-0.09
7.788,0.09746
7.792,0.27059
7.796,0.41924
7.8,0.71293
7.804,0.90614
7.808,1.06192
7.812,0.98132
7.816,0.96097
7.82,0.77395
7.824,0.55081
7.828,0.28378
7.832,0.10269
7.836,-0.0942
7.84,-0.0968
7.844,-0.10541
7.848,-0.11444
7.852,-0.09899
7.856,-0.05786
7.86,-0.02239
7.864,0.05204
7.868,0.01264
7.872,0.00361
7.876,0.04133
7.88,0.08079
7.884,0.05464
7.888,0.05829
7.892,0.07086
7.896,0.04396
7.9,-0.03981
7.904,-0.02412
7.908,-0.00424
7.912,0.04215
7.916,0.06282
7.92,0.0238
7.924,0.07913
7.928,0.02744
7.932,0.04
7.936,0.08215
7.94,0.09966
7.944,0.01906
7.948,0.02316
7.952,0.019
7.956,-0.00253
7.96,-0.0105
7.964,-0.01307
7.968,0.00858
7.972,0.04734
7.976,0.04755
7.98,0.03244
7.984,0.02622
7.988,0.09538
7.992,0.04905
7.996,0.091
8.0,0.08142
8.004,-0.00945
8.008,0.05489
8.012,0.07487
8.016,0.07832
8.02,0.08118
8.024,0.15664
8.028,0.07433
8.032,0.13966
8.036,0.22033
8.04,0.15045
8.044,0.13981
8.048,0.13423
8.052,0.16479
8.056,0.15653
8.06,0.17824
8.064,0.23258
8.068,0.16589
8.072,0.2026
8.076,0.21248
8.08,0.23223
8.084,0.22077
8.088,0.2662
8.092,0.24129
8.096,0.21306
8.1,0.22929
8.104,0.20322
8.108,0.18526
8.112,0.16805
8.116,0.15856
8.12,0.14395
8.124,0.20199
8.128,0.13191
8.132,0.16032
8.136,0.14749
8.14,0.13899
8.144,0.14424
8.148,0.09997
8.152,0.0868
8.156,0.09809
8.16,0.06755
8.164,0.09892
8.168,0.08905
8.172,0.0786
8.176,0.04102
8.18,0.05429
8.184,0.05203
8.188,0.00822
8.192,0.074
8.196,0.04419
8.2,0.03583
8.204,0.02719
8.208,0.03465
8.212,0.00569
8.216,0.07043
8.22,-0.00803
8.224,-0.03801
8.228,0.01191
8.232,-0.02185
8.236,0.01452
8.24,-0.0185
8.244,0.02518
8.248,0.02745
8.252,-0.038
8.256,0.00377
8.26,-0.05453
8.264,-0.06548
8.268,0.02545
8.272,-0.00057
8.276,-0.00166
8.28,-0.04727
8.284,0.04113
8.288,-0.00575
8.292,0.03178
8.296,0.06182
8.3,-0.0008
8.304,0.04444
8.308,0.04023
8.312,-0.02677
8.316,0.01882
8.32,0.09627
8.324,-0.01232
8.328,0.0144
8.332,0.11018
8.336,0.03095
8.34,-0.01266
8.344,0.04679
8.348,0.00507
8.352,0.05294
8.356,0.00828
8.36,0.04981
8.364,0.03395
8.368,-0.02863
8.372,-0.03997
8.376,0.03059
8.38,0.03342
8.384,0.08726
8.388,0.08386
8.392,0.11746
8.396,0.0338
8.4,0.06407
8.404,0.08382
8.408,0.14135
8.412,0.10478
8.416,0.11386
8.42,0.07257
8.424,0.09538
8.428,0.06912
8.432,0.0832
8.436,0.05352
8.44,0.0688
8.444,0.06764
8.448,0.04732
8.452,0.06524
8.456,0.07485
8.46,0.02982
8.464,-0.00423
8.468,-0.03184
8.472,0.01526
8.476,0.00743
8.48,0.00935
8.484,0.0543
8.488,0.03539
8.492,-0.01404
8.496,-0.0176
8.5,-1e-05
8.504,-0.02811
8.508,0.0679
8.512,0.05696
8.516,0.00553
8.52,-0.1034
8.524,0.03464
8.528,-0.02215
8.532,-0.10052
8.536,-0.08553
8.54,-0.08746
8.544,-0.09478
8.548,0.04177
8.552,0.2507
8.556,0.41996
8.56,0.67646
8.564,0.89118
8.568,1.01252
8.572,0.97335
8.576,0.91545
8.58,0.78388
8.584,0.48154
8.588,0.34957
8.592,0.12226
8.596,-0.01325
8.6,-0.17826
8.604,-0.13166
8.608,-0.09848
8.612,-0.12996
8.616,-0.02791
8.62,-0.06208
8.624,0.03106
8.628,-0.05337
8.632,0.03513
8.636,0.00418
8.64,-0.05227
8.644,0.02267
8.648,-0.01798
8.652,0.0475
8.656,-0.04585
8.66,-0.02265
8.664,-0.02931
8.668,0.05115
8.672,-0.01911
8.676,-0.05235
8.68,-0.0175
8.684,-0.01252
8.688,0.01113
8.692,-0.02652
8.696,-0.00912
8.7,-0.04572
8.704,0.03097
8.708,0.00218
8.712,0.03486
8.716,-0.0486
8.72,-0.00515
8.724,-0.05196
8.728,0.01259
8.732,0.03228
8.736,0.01101
8.74,0.0215
8.744,0.00447
8.748,0.09186
8.752,0.02857
8.756,-0.01648
8.76,0.0629
8.764,0.04883
8.768,0.01084
8.772,0.08768
8.776,0.00992
8.78,0.072
8.784,0.07138
8.788,0.09921
8.792,0.09666
8.796,0.08792
8.8,0.12737
8.804,0.14825
8.808,0.08964
8.812,0.15378
8.816,0.23592
8.82,0.13369
8.824,0.18893
8.828,0.18808
8.832,0.23482
8.836,0.17168
8.84,0.19338
8.844,0.19099
8.848,0.29794
8.852,0.2045
8.856,0.21104
8.86,0.20775
8.864,0.21595
8.868,0.1744
8.872,0.2237
8.876,0.12611
8.88,0.14351
8.884,0.15629
8.888,0.17286
8.892,0.15996
8.896,0.09294
8.9,0.14018
8.904,0.12346
8.908,0.07645
8.912,0.09376
8.916,0.11142
8.92,0.10626
8.924,0.02553
8.928,0.09071
8.932,0.06799
8.936,-0.01715
8.94,0.08447
8.944,0.01031
8.948,0.03725
8.952,0.01771
8.956,0.00709
8.96,-0.05437
8.964,0.02233
8.968,-0.04673
8.972,-0.01248
8.976,0.03053
8.98,-0.07656
8.984,-0.0256
8.988,0.04049
8.992,-0.02408
8.996,0.00976
9.0,0.01832
9.004,-0.03166
9.008,-0.0227
9.012,0.02063
9.016,-0.02901
9.02,-0.08322
9.024,0.01471
9.028,0.01751
9.032,-0.01123
9.036,0.00628
9.04,0.04041
9.044,0.0034
9.048,-0.04032
9.052,-0.03592
9.056,-0.0415
9.06,-0.01163
9.064,0.02361
9.068,-0.01008
9.072,0.00924
9.076,0.07475
9.08,-0.07132
9.084,-0.04907
9.088,-0.03708
9.092,0.04645
9.096,0.03853
9.1,0.01814
9.104,0.00082
9.108,-0.03506
9.112,0.04132
9.116,-0.02918
9.12,-0.07355
9.124,-0.00724
9.128,0.00084
9.132,-0.06028
9.136,-0.00303
9.14,0.01654
9.144,-0.05587
9.148,-0.06656
9.152,-0.05308
9.156,0.0739
9.16,-0.00673
9.164,-0.0019
9.168,0.03255
9.172,0.06654
9.176,0.03415
9.18,0.07326
9.184,0.0611
9.188,0.0169
9.192,0.09819
9.196,0.10839
9.2,0.0895
9.204,0.01472
9.208,0.08564
9.212,0.07788
9.216,0.06209
9.22,0.01138
9.224,0.05981
9.228,-0.01519
9.232,-0.01006
9.236,-0.03379
9.24,-0.0555
9.244,-0.00837
9.248,0.0302
9.252,0.03847
9.256,0.04565
9.26,-0.03769
9.264,-0.01744
9.268,0.00165
9.272,-0.03255
9.276,0.01734
9.28,-0.05104
9.284,-0.02674
9.288,0.02423
9.292,-0.0218
9.296,-0.00034
9.3,-0.03483
9.304,-0.00824
9.308,-0.06001
9.312,-0.04805
9.316,-0.09725
9.32,-0.13338
9.324,-0.16791
9.328,-0.11493
9.332,-0.01908
9.336,0.19831
9.34,0.35209
9.344,0.56545
9.348,0.78556
9.352,0.89629
9.356,0.96416
9.36,0.90394
9.364,0.80247
9.368,0.64018
9.372,0.39085
9.376,0.11603
9.38,-0.03606
9.384,-0.10819
9.388,-0.1259
9.392,-0.14863
9.396,-0.15177
9.4,-0.117
9.404,-0.02237
9.408,0.02999
9.412,-0.02297
9.416,-0.04365
9.42,-0.01861
9.424,-0.00644
9.428,0.02814
9.432,-0.0966
9.436,-0.04266
9.44,-0.01728
9.444,-0.03382
9.448,-0.04354
9.452,0.03085
9.456,-0.02712
9.46,0.03869
9.464,-0.04585
9.468,0.05737
9.472,-0.03498
9.476,-0.05173
9.48,-0.04952
9.484,0.01467
9.488,-0.03875
9.492,0.02858
9.496,0.01206
9.5,-0.05796
9.504,0.01738
9.508,-0.01035
9.512,-0.08484
9.516,0.03554
9.52,-0.07414
9.524,-0.02627
9.528,0.0109
9.532,-0.04558
9.536,0.00202
9.54,0.00591
9.544,0.07518
9.548,-0.02996
9.552,0.07252
9.556,-0.03843
9.56,0.03053
9.564,0.01252
9.568,0.04862
9.572,0.05253
9.576,0.10923
9.58,0.10509
9.584,0.03418
9.588,0.13725
9.592,0.13218
9.596,0.18011
9.6,0.15469
9.604,0.13348
9.608,0.16654
9.612,0.17071
9.616,0.16461
9.62,0.20712
9.624,0.15359
9.628,0.15582
9.632,0.18786
9.636,0.19595
9.64,0.21566
9.644,0.18135
9.648,0.20839
9.652,0.18947
9.656,0.2045
9.66,0.15383
9.664,0.14569
9.668,0.17508
9.672,0.09945
9.676,0.10352
9.68,0.08717
9.684,0.12664
9.688,0.10282
9.692,0.05912
9.696,0.06369
9.7,0.04072
9.704,0.07224
9.708,-0.00865
9.712,0.053
9.716,0.07311
9.72,0.0746
9.724,0.02574
9.728,0.07042
9.732,0.05557
9.736,0.02421
9.74,0.11576
9.744,0.05875
9.748,0.12138
9.752,0.12943
9.756,0.06974
9.76,0.11784
9.764,0.03988
9.768,0.0891
9.772,0.04608
9.776,0.06504
9.78,0.06182
9.784,0.00499
9.788,0.00054
9.792,-0.05719
9.796,0.03073
9.8,-0.01886
9.804,0.02098
9.808,0.04109
9.812,-0.04813
9.816,-0.05318
9.82,-0.08452
9.824,-0.02947
9.828,-0.05728
9.832,0.00544
9.836,-0.03165
9.84,-0.00495
9.844,-0.07058
9.848,0.02653
9.852,-0.04494
9.856,-0.02892
9.86,0.00307
9.864,0.01032
9.868,-0.03473
9.872,-0.13711
9.876,-0.05118
9.88,-0.13116
9.884,-0.07852
9.888,-0.07831
9.892,-0.01571
9.896,0.25553
9.9,0.43068
9.904,0.62505
9.908,0.78807
9.912,0.93956
9.916,0.98121
9.92,0.8628
9.924,0.74286
9.928,0.49652
9.932,0.17816
9.936,0.0535
9.94,-0.12525
9.944,-0.18419
9.948,-0.1827
9.952,-0.24022
9.956,-0.13677
9.96,-0.108
9.964,-0.01436
9.968,-0.01246
9.972,-0.01958
9.976,-0.07641
9.98,-0.01184
9.984,-0.01522
9.988,-0.00061
9.992,-0.0124
9.996,-0.03218
