t_seg,ecg_mV
0.0,0.00016
0.004,0.01044
0.008,0.05278
0.012,0.05807
0.016,0.08738
0.02,0.05064
0.024,0.04264
0.028,0.0372
0.032,-0.0062
0.036,0.03388
0.04,0.01696
0.044,0.02247
0.048,0.00377
0.052,0.0867
0.056,0.0168
0.06,0.00204
0.064,0.04454
0.068,-0.0514
0.072,0.07751
0.076,0.01493
0.08,0.00369
0.084,0.05652
0.088,0.00103
0.092,0.02065
0.096,0.07777
0.1,0.02714
0.104,0.01903
0.108,-0.03124
0.112,0.05792
0.116,0.07134
0.12,0.01281
0.124,0.09408
0.128,0.06666
0.132,0.0337
0.136,0.01617
0.14,0.09813
0.144,-0.01182
0.148,0.07414
0.152,-0.01104
0.156,0.01882
0.16,0.04611
0.164,0.09882
0.168,0.06828
0.172,0.01296
0.176,0.03993
0.18,-0.01842
0.184,-0.00431
0.188,0.0219
0.192,0.00137
0.196,0.02325
0.2,0.00603
0.204,0.03551
0.208,-0.02879
0.212,0.04657
0.216,0.06537
0.22,0.05431
0.224,0.00327
0.228,0.05069
0.232,0.03816
0.236,-0.02746
0.24,0.03925
0.244,-0.01108
0.248,-0.00763
0.252,-0.0373
0.256,0.03948
0.26,0.02325
0.264,0.01463
0.268,-0.00473
0.272,0.03808
0.276,0.0454
0.28,-0.01164
0.284,-0.00259
0.288,0.0535
0.292,-0.01794
0.296,0.0143
0.3,0.09668
0.304,0.0415
0.308,0.03529
0.312,0.01215
0.316,0.0256
0.32,-0.01992
0.324,0.05154
0.328,0.05015
0.332,0.05371
0.336,0.02218
0.34,0.02524
0.344,0.02005
0.348,0.01823
0.352,0.04252
0.356,0.03059
0.36,-0.00808
0.364,0.05599
0.368,0.01852
0.372,-0.00561
0.376,0.04474
0.38,-0.01653
0.384,0.04168
0.388,0.01337
0.392,0.09604
0.396,0.03247
0.4,0.02646
0.404,0.035
0.408,0.01198
0.412,-0.02353
0.416,0.06428
0.42,-0.04913
0.424,0.01971
0.428,0.02886
0.432,0.06433
0.436,0.01188
0.44,0.06722
0.444,0.12243
0.448,0.03546
0.452,0.11094
0.456,0.14346
0.46,0.07164
0.464,0.04065
0.468,0.18788
0.472,0.06499
0.476,0.11588
0.48,0.21004
0.484,0.12377
0.488,0.09159
0.492,0.11322
0.496,0.09852
0.5,0.09453
0.504,0.04089
0.508,0.07469
0.512,0.09775
0.516,0.0743
0.52,0.02827
0.524,0.03755
0.528,0.00646
0.532,0.01947
0.536,0.0318
0.54,0.04733
0.544,0.02742
0.548,0.05816
0.552,0.04356
0.556,0.06705
0.56,0.04409
0.564,0.08429
0.568,0.02931
0.572,0.01266
0.576,0.00156
0.58,0.02722
0.584,-0.01717
0.588,-0.02227
0.592,-0.02343
0.596,0.00941
0.6,-0.11149
0.604,-0.06495
0.608,-0.02085
0.612,0.13196
0.616,0.2603
0.62,0.46904
0.624,0.64384
0.628,0.86519
0.632,1.02154
0.636,0.92431
0.64,0.92473
0.644,0.72828
0.648,0.47916
0.652,0.31799
0.656,0.07898
0.66,-0.05415
0.664,-0.13711
0.668,-0.12253
0.672,-0.11448
0.676,-0.07483
0.68,-0.01772
0.684,0.00774
0.688,0.04208
0.692,0.00492
0.696,0.05521
0.7,-0.05153
0.704,0.03606
0.708,0.05512
0.712,0.00642
0.716,0.04514
0.72,0.03915
0.724,0.10531
0.728,0.02764
0.732,0.02222
0.736,0.09134
0.74,0.02206
0.744,-0.01812
0.748,0.01057
0.752,-0.00072
0.756,0.04134
0.76,0.10097
0.764,4e-05
0.768,0.05868
0.772,0.03412
0.776,0.08621
0.78,0.03664
0.784,0.0429
0.788,0.00821
0.792,-0.01124
0.796,0.0006
0.8,0.01183
0.804,0.03817
0.808,-0.01326
0.812,0.06799
0.816,0.02613
0.82,0.073
0.824,0.04392
0.828,0.07205
0.832,0.05282
0.836,0.08314
0.84,0.04924
0.844,0.11169
0.848,0.12396
0.852,0.10479
0.856,0.09882
0.86,0.14494
0.864,0.0884
0.868,0.16902
0.872,0.13057
0.876,0.15769
0.88,0.18284
0.884,0.18055
0.888,0.23877
0.892,0.16981
0.896,0.21369
0.9,0.21383
0.904,0.22344
0.908,0.246
0.912,0.2163
0.916,0.26159
0.92,0.21714
0.924,0.2194
0.928,0.28964
0.932,0.18781
0.936,0.221
0.94,0.20644
0.944,0.18828
0.948,0.19552
0.952,0.23778
0.956,0.11349
0.96,0.19969
0.964,0.16165
0.968,0.13456
0.972,0.14921
0.976,0.13159
0.98,0.12839
0.984,0.10604
0.988,0.07365
0.992,0.06242
0.996,0.10029
1.0,0.06428
1.004,0.11227
1.008,0.0591
1.012,0.05436
1.016,0.03721
1.02,0.10119
1.024,0.01223
1.028,-0.0486
1.032,-0.01314
1.036,0.03399
1.04,0.05021
1.044,0.02265
1.048,0.05255
1.052,0.04008
1.056,-0.00033
1.06,0.07873
1.064,0.11224
1.068,0.04973
1.072,0.00658
1.076,0.06689
1.08,0.10226
1.084,0.06617
1.088,0.09023
1.092,0.08815
1.096,0.11789
1.1,0.18151
1.104,0.10609
1.108,0.14907
1.112,0.16114
1.116,0.07946
1.12,0.02523
1.124,0.04314
1.128,0.05556
1.132,-0.01079
1.136,0.04004
1.14,0.04803
1.144,-0.00187
1.148,-0.03614
1.152,0.00118
1.156,0.03557
1.16,0.02232
1.164,-0.00041
1.168,0.01419
1.172,0.03337
1.176,-0.00117
1.18,0.08997
1.184,-0.01579
1.188,0.02893
1.192,-0.01812
1.196,-0.00308
1.2,-0.06667
1.204,0.03362
1.208,0.03128
1.212,0.05562
1.216,0.02556
1.22,-0.05368
1.224,-0.12846
1.228,-0.07542
1.232,0.02385
1.236,0.15095
1.24,0.27743
1.244,0.56742
1.248,0.70456
1.252,0.95027
1.256,1.03893
1.26,1.0374
1.264,0.89462
1.268,0.64152
1.272,0.39491
1.276,0.24549
1.28,0.05355
1.284,-0.04494
1.288,-0.18223
1.292,-0.13377
1.296,-0.09425
1.3,-0.07922
1.304,-0.01972
1.308,-0.02139
1.312,-0.03726
1.316,0.0203
1.32,-0.03488
1.324,-0.06026
1.328,0.06284
1.332,0.00929
1.336,-0.02749
1.34,0.02625
1.344,0.01835
1.348,0.0009
1.352,0.01724
1.356,0.06196
1.36,0.03316
1.364,-0.0341
1.368,0.01078
1.372,0.09415
1.376,0.00581
1.38,0.00979
1.384,-0.02605
1.388,0.03493
1.392,0.02037
1.396,0.01811
1.4,-0.02813
1.404,-0.00562
1.408,0.04387
1.412,-0.05151
1.416,0.01357
1.42,0.01972
1.424,0.01071
1.428,-0.02557
1.432,0.05664
1.436,0.01265
1.44,-0.01402
1.444,-0.01464
1.448,0.06485
1.452,0.01727
1.456,0.03406
1.46,0.073
1.464,0.10625
1.468,0.07861
1.472,0.06838
1.476,0.05211
1.48,0.11259
1.484,0.16431
1.488,0.17427
1.492,0.14054
1.496,0.18307
1.5,0.1843
1.504,0.15211
1.508,0.19503
1.512,0.20435
1.516,0.24228
1.52,0.23539
1.524,0.20512
1.528,0.2795
1.532,0.22474
1.536,0.21916
1.54,0.19599
1.544,0.19332
1.548,0.22905
1.552,0.19586
1.556,0.26256
1.56,0.21857
1.564,0.15905
1.568,0.25682
1.572,0.16006
1.576,0.10522
1.58,0.14838
1.584,0.0523
1.588,0.03454
1.592,0.059
1.596,0.08333
1.6,0.04797
1.604,0.09551
1.608,0.09343
1.612,0.07443
1.616,0.04605
1.62,0.13276
1.624,-0.01629
1.628,0.02941
1.632,0.00332
1.636,-0.01468
1.64,0.05896
1.644,-0.02152
1.648,-0.00546
1.652,0.00839
1.656,0.0291
1.66,0.04814
1.664,0.00552
1.668,0.09322
1.672,-0.0193
1.676,0.09211
1.68,0.01731
1.684,0.04995
1.688,-0.01648
1.692,-0.01569
1.696,0.01621
1.7,0.06428
1.704,-0.01844
1.708,0.06207
1.712,0.05118
1.716,0.01122
1.72,0.07321
1.724,0.06068
1.728,0.04138
1.732,0.05702
1.736,0.07674
1.74,0.08829
1.744,0.13106
1.748,0.12924
1.752,0.08036
1.756,0.1179
1.76,0.14093
1.764,0.10702
1.768,0.12995
1.772,0.1064
1.776,0.08814
1.78,-0.01396
1.784,0.08007
1.788,-0.0126
1.792,-0.00775
1.796,-0.05478
1.8,0.02377
1.804,0.05991
1.808,0.02466
1.812,-0.00349
1.816,-0.04629
1.82,-0.03061
1.824,0.01147
1.828,0.04374
1.832,-0.00797
1.836,-0.01407
1.84,-0.03721
1.844,-0.00878
1.848,0.03937
1.852,-0.00928
1.856,0.05806
1.86,0.03996
1.864,-0.00194
1.868,0.01797
1.872,-0.07873
1.876,-0.04962
1.88,-0.13476
1.884,-0.10131
1.888,-0.02386
1.892,0.06044
1.896,0.25558
1.9,0.3736
1.904,0.71255
1.908,0.8844
1.912,0.97074
1.916,1.00971
1.92,0.82757
1.924,0.67625
1.928,0.48597
1.932,0.31973
1.936,0.13904
1.94,-0.09538
1.944,-0.15161
1.948,-0.16295
1.952,-0.1679
1.956,-0.0978
1.96,-0.08743
1.964,-0.0291
1.968,-0.04416
1.972,-0.05363
1.976,-0.00582
1.98,-0.00581
1.984,-0.02404
1.988,0.03709
1.992,0.0017
1.996,0.01078
2.0,-0.05388
2.004,-0.01547
2.008,0.04961
2.012,-0.02178
2.016,0.07319
2.02,0.02179
2.024,-0.04763
2.028,0.00789
2.032,-0.0545
2.036,0.00069
2.04,-0.04099
2.044,-0.04996
2.048,-0.03471
2.052,-0.03866
2.056,0.01973
2.06,-0.00674
2.064,-0.01001
2.068,-0.02469
2.072,-0.00687
2.076,0.01482
2.08,-0.03604
2.084,-0.01676
2.088,0.00479
2.092,0.07565
2.096,-0.0466
2.1,0.00365
2.104,0.06162
2.108,-0.0542
2.112,0.04234
2.116,0.03099
2.12,0.01127
2.124,0.01837
2.128,0.03916
2.132,0.00954
2.136,0.07772
2.14,0.08808
2.144,0.06076
2.148,0.15956
2.152,0.12028
2.156,0.1976
2.16,0.19662
2.164,0.16495
2.168,0.19968
2.172,0.16185
2.176,0.21476
2.18,0.21267
2.184,0.17456
2.188,0.22047
2.192,0.26321
2.196,0.20028
2.2,0.20326
2.204,0.21249
2.208,0.13986
2.212,0.22715
2.216,0.25298
2.22,0.17198
2.224,0.18978
2.228,0.15319
2.232,0.14587
2.236,0.07582
2.24,0.14439
2.244,0.07626
2.248,0.08037
2.252,0.07668
2.256,0.07978
2.26,0.05434
2.264,0.07759
2.268,0.12632
2.272,0.04646
2.276,0.0153
2.28,0.10936
2.284,-0.04085
2.288,0.07029
2.292,0.06616
2.296,-0.04325
2.3,-0.00306
2.304,-0.02735
2.308,-0.00482
2.312,-0.03872
2.316,-0.08546
2.32,-0.03148
2.324,-0.08874
2.328,-0.05018
2.332,0.01909
2.336,-0.00658
2.34,0.01944
2.344,0.00463
2.348,-0.00502
2.352,0.03977
2.356,-0.03093
2.36,-0.04447
2.364,0.00407
2.368,-0.03183
2.372,-0.04614
2.376,-0.03372
2.38,-0.03005
2.384,0.00598
2.388,0.03218
2.392,-0.00242
2.396,-0.01142
2.4,-0.03759
2.404,-0.00694
2.408,-0.0207
2.412,-0.01528
2.416,-0.06092
2.42,-0.03281
2.424,-0.02383
2.428,0.00803
2.432,-0.01039
2.436,-0.04425
2.44,-0.05033
2.444,-0.00658
2.448,0.02348
2.452,-0.02552
2.456,0.03996
2.46,-0.00516
2.464,-0.00722
2.468,0.00741
2.472,0.07618
2.476,-0.04086
2.48,0.00574
2.484,0.00073
2.488,-0.00624
2.492,-0.00411
2.496,0.00442
2.5,0.00417
2.504,0.0405
2.508,0.03076
2.512,0.05168
2.516,0.09582
2.52,0.05207
2.524,0.09071
2.528,0.04545
2.532,0.03902
2.536,0.11857
2.54,0.05971
2.544,0.08183
2.548,0.05783
2.552,0.03018
2.556,0.00942
2.56,-0.03011
2.564,-0.01184
2.568,0.01763
2.572,-0.00344
2.576,0.00499
2.58,-0.03473
2.584,-0.05056
2.588,-0.04934
2.592,-0.03197
2.596,-0.04662
2.6,-0.00857
2.604,-0.04186
2.608,-0.0334
2.612,-0.07422
2.616,-0.02057
2.62,0.01561
2.624,0.05411
2.628,-0.03043
2.632,-0.10121
2.636,-0.03665
2.64,-0.04779
2.644,-0.06215
2.648,-0.04799
2.652,-0.11415
2.656,-0.17278
2.66,-0.13205
2.664,-0.07365
2.668,-0.01624
2.672,0.15526
2.676,0.21582
2.68,0.34509
2.684,0.48362
2.688,0.56178
2.692,0.47584
2.696,0.43093
2.7,0.2686
2.704,0.20252
2.708,0.04067
2.712,-0.11018
2.716,-0.16938
2.72,-0.19429
2.724,-0.16185
2.728,-0.17082
2.732,-0.08266
2.736,-0.00034
2.74,-0.0731
2.744,-0.02648
2.748,-0.02104
2.752,-0.01813
2.756,-0.0185
2.76,-0.04279
2.764,-0.06961
2.768,-0.01182
2.772,-0.04533
2.776,0.01206
2.78,-0.02004
2.784,0.00906
2.788,-0.00455
2.792,-0.00616
2.796,-0.03088
2.8,-0.06473
2.804,-0.02686
2.808,-0.03541
2.812,-0.00655
2.816,-0.01312
2.82,-0.0371
2.824,-0.02092
2.828,0.00066
2.832,-0.05424
2.836,0.06186
2.84,-0.05211
2.844,0.00902
2.848,0.03269
2.852,-0.01627
2.856,0.02191
2.86,0.04366
2.864,-0.01022
2.868,-0.00453
2.872,0.00621
2.876,-0.07087
2.88,0.01082
2.884,0.03858
2.888,-0.01835
2.892,0.03635
2.896,0.02113
2.9,0.0494
2.904,0.08081
2.908,0.05184
2.912,0.04236
2.916,0.06799
2.92,0.11312
2.924,0.06348
2.928,0.08385
2.932,0.12245
2.936,0.14735
2.94,0.10932
2.944,0.13551
2.948,0.2184
2.952,0.2371
2.956,0.23065
2.96,0.22174
2.964,0.21961
2.968,0.27968
2.972,0.19744
2.976,0.2223
2.98,0.25453
2.984,0.27805
2.988,0.24344
2.992,0.21467
2.996,0.25628
3.0,0.24658
3.004,0.1974
3.008,0.22652
3.012,0.19936
3.016,0.1546
3.02,0.12469
3.024,0.08526
3.028,0.09335
3.032,0.07685
3.036,0.12266
3.04,0.06878
3.044,0.04433
3.048,0.03974
3.052,0.00486
3.056,-0.01283
3.06,0.02511
3.064,0.05371
3.068,-0.05526
3.072,-0.04274
3.076,0.00389
3.08,0.00773
3.084,0.06076
3.088,-0.00942
3.092,-0.0221
3.096,-0.05527
3.1,0.01324
3.104,-0.0226
3.108,0.01471
3.112,0.03954
3.116,-0.07752
3.12,-0.07621
3.124,-0.18042
3.128,-0.18224
3.132,-0.10101
3.136,-0.02948
3.14,0.14519
3.144,0.32339
3.148,0.55479
3.152,0.82564
3.156,0.89864
3.16,0.9686
3.164,0.94645
3.168,0.75085
3.172,0.57045
3.176,0.37634
3.18,0.11715
3.184,-0.06122
3.188,-0.1028
3.192,-0.16323
3.196,-0.23286
3.2,-0.17725
3.204,-0.07802
3.208,-0.15985
3.212,-0.05987
3.216,-0.05081
3.22,-0.00928
3.224,-0.04224
3.228,-0.03159
3.232,-0.03917
3.236,-0.05651
3.24,0.00623
3.244,-0.00759
3.248,0.00152
3.252,-0.04179
3.256,0.01859
3.26,0.02414
3.264,0.01441
3.268,0.03901
3.272,0.00637
3.276,0.087
3.28,0.06787
3.284,0.057
3.288,0.04092
3.292,0.03445
3.296,0.09482
3.3,0.05657
3.304,0.11011
3.308,0.15542
3.312,0.07424
3.316,0.0434
3.32,0.02599
3.324,0.06641
3.328,0.02481
3.332,-0.01466
3.336,0.02104
3.34,0.05433
3.344,0.03741
3.348,-0.0043
3.352,0.0105
3.356,-0.00031
3.36,-0.0163
3.364,-0.03165
3.368,0.03639
3.372,0.03169
3.376,0.03819
3.38,-0.02207
3.384,0.07875
3.388,0.10048
3.392,0.11994
3.396,0.14793
3.4,0.0829
3.404,0.12251
3.408,0.16751
3.412,0.11315
3.416,-0.00176
3.42,0.03386
3.424,0.05892
3.428,0.1745
3.432,0.24111
3.436,0.50788
3.44,0.6307
3.444,0.8854
3.448,1.07732
3.452,1.13548
3.456,1.14828
3.46,1.02059
3.464,0.90238
3.468,0.56038
3.472,0.36248
3.476,0.05413
3.48,0.00455
3.484,-0.05254
3.488,-0.15621
3.492,-0.05977
3.496,0.00117
3.5,0.07695
3.504,-0.02312
3.508,0.00786
3.512,0.07595
3.516,0.0073
3.52,-0.00451
3.524,-0.00702
3.528,-0.02265
3.532,0.01847
3.536,-0.02622
3.54,-0.0793
3.544,-0.05767
3.548,-0.05887
3.552,0.00032
3.556,-0.0623
3.56,-0.02623
3.564,-0.03149
3.568,-0.08154
3.572,-0.06098
3.576,-0.08492
3.58,0.02498
3.584,-0.00587
3.588,-0.03928
3.592,-0.01935
3.596,-0.09251
3.6,-0.03316
3.604,-0.04001
3.608,-0.00957
3.612,0.06938
3.616,-0.0412
3.62,-0.07544
3.624,-0.02378
3.628,-0.01992
3.632,0.00582
3.636,0.03408
3.64,0.04024
3.644,0.02248
3.648,-0.06631
3.652,0.01094
3.656,0.07376
3.66,0.02459
3.664,0.03075
3.668,-0.01105
3.672,0.07335
3.676,0.06046
3.68,0.07423
3.684,0.1039
3.688,0.12615
3.692,0.14078
3.696,0.08754
3.7,0.13102
3.704,0.11368
3.708,0.13403
3.712,0.16473
3.716,0.17888
3.72,0.18063
3.724,0.25307
3.728,0.18744
3.732,0.20797
3.736,0.13134
3.74,0.11605
3.744,0.18756
3.748,0.196
3.752,0.17536
3.756,0.1445
3.76,0.15055
3.764,0.18645
3.768,0.15144
3.772,0.12662
3.776,0.13571
3.78,0.13097
3.784,0.13265
3.788,0.06342
3.792,0.06928
3.796,0.06608
3.8,0.05066
3.804,0.05701
3.808,0.04014
3.812,0.04802
3.816,0.07829
3.82,-0.05401
3.824,0.05781
3.828,0.03106
3.832,0.00955
3.836,-0.01039
3.84,-0.00585
3.844,0.03999
3.848,-0.06178
3.852,-0.00249
3.856,-0.0139
3.86,0.00804
3.864,-0.07075
3.868,0.00131
3.872,-0.00735
3.876,-0.0521
3.88,-0.04312
3.884,-0.09579
3.888,-0.01266
3.892,0.01623
3.896,-0.00521
3.9,0.04532
3.904,-0.02088
3.908,-0.06969
3.912,-0.03225
3.916,-0.01731
3.92,-0.03141
3.924,-0.0862
3.928,-0.00602
3.932,-0.04557
3.936,-0.02113
3.94,-0.05534
3.944,0.0125
3.948,-0.04485
3.952,-0.04563
3.956,0.04817
3.96,0.02058
3.964,0.02365
3.968,0.06118
3.972,0.0223
3.976,0.0067
3.98,0.07154
3.984,0.06911
3.988,0.06804
3.992,0.09764
3.996,0.05011
4.0,-0.00231
4.004,0.01786
4.008,0.04045
4.012,0.02343
4.016,-0.00609
4.02,-0.01558
4.024,-0.00625
4.028,-0.03967
4.032,-0.01913
4.036,-0.0038
4.04,0.01661
4.044,-0.0715
4.048,0.01546
4.052,-0.02755
4.056,-0.03309
4.06,-0.09573
4.064,-0.01441
4.068,-0.00878
4.072,-0.02808
4.076,-0.03816
4.08,0.01699
4.084,-0.03216
4.088,-0.04498
4.092,-0.05337
4.096,-0.05053
4.1,-0.06774
4.104,-0.1158
4.108,-0.01735
4.112,-0.16246
4.116,-0.14948
4.12,-0.1272
4.124,0.01137
4.128,0.17387
4.132,0.31354
4.136,0.56233
4.14,0.75152
4.144,0.87035
4.148,0.98359
4.152,0.94602
4.156,0.78669
4.16,0.4761
4.164,0.28143
4.168,0.05095
4.172,-0.1084
4.176,-0.13475
4.18,-0.23985
4.184,-0.1306
4.188,-0.15392
4.192,-0.04594
4.196,-0.0558
4.2,-0.11636
4.204,-0.0386
4.208,0.01273
4.212,-0.03965
4.216,-0.04001
4.22,-0.01264
4.224,-0.02852
4.228,-0.04264
4.232,-0.02839
4.236,0.00392
4.24,-0.02066
4.244,-0.05229
4.248,-0.00676
4.252,-0.04754
4.256,0.00016
4.26,-0.00637
4.264,-0.01126
4.268,-0.01085
4.272,-0.0243
4.276,-0.05587
4.28,-0.01713
4.284,-0.01002
4.288,-0.06918
4.292,-0.07327
4.296,-0.01288
4.3,-0.01693
4.304,-0.06468
4.308,-0.05486
4.312,-0.01429
4.316,-0.08632
4.32,0.0401
4.324,0.02663
4.328,-0.04273
4.332,0.03027
4.336,-0.01014
4.34,-0.03953
4.344,0.07383
4.348,0.02815
4.352,-0.00493
4.356,0.10704
4.36,0.00127
4.364,0.01129
4.368,0.09592
4.372,0.09993
4.376,0.08377
4.38,0.08554
4.384,0.12448
4.388,0.19483
4.392,0.14437
4.396,0.15132
4.4,0.2153
4.404,0.19477
4.408,0.25533
4.412,0.18256
4.416,0.21883
4.42,0.23857
4.424,0.26294
4.428,0.29625
4.432,0.30052
4.436,0.34307
4.44,0.28154
4.444,0.25116
4.448,0.23116
4.452,0.25418
4.456,0.22794
4.46,0.17259
4.464,0.18255
4.468,0.11321
4.472,0.12031
4.476,0.14228
4.48,0.13971
4.484,0.11799
4.488,0.11584
4.492,0.09219
4.496,0.03912
4.5,0.02285
4.504,0.05512
4.508,-0.03045
4.512,0.0352
4.516,0.06011
4.52,-0.04775
4.524,0.05914
4.528,-0.02787
4.532,-0.04461
4.536,0.02966
4.54,0.00852
4.544,0.04638
4.548,-0.01625
4.552,0.00281
4.556,-0.08285
4.56,-0.03181
4.564,-0.13921
4.568,-0.12126
4.572,0.04713
4.576,0.14794
4.58,0.31532
4.584,0.61554
4.588,0.77387
4.592,0.99031
4.596,0.95191
4.6,0.97942
4.604,0.7996
4.608,0.62351
4.612,0.32902
4.616,0.09453
4.62,-0.03874
4.624,-0.14874
4.628,-0.16489
4.632,-0.16286
4.636,-0.08889
4.64,-0.11533
4.644,0.01897
4.648,-0.00294
4.652,-0.03988
4.656,0.03075
4.66,-0.02163
4.664,0.00636
4.668,-0.0002
4.672,-0.01892
4.676,-0.00042
4.68,-0.04651
4.684,0.03289
4.688,-0.03676
4.692,-0.00091
4.696,-0.03658
4.7,-0.01246
4.704,-0.02327
4.708,-0.06141
4.712,-0.023
4.716,-0.0218
4.72,-0.01565
4.724,-0.04139
4.728,-0.00423
4.732,-0.09226
4.736,-0.06909
4.74,0.04528
4.744,-0.01096
4.748,-0.01806
4.752,-0.01086
4.756,-0.02718
4.76,0.03938
4.764,0.0118
4.768,-0.00832
4.772,0.02784
4.776,-0.00951
4.78,0.01627
4.784,0.03813
4.788,0.03685
4.792,0.05233
4.796,0.0268
4.8,-0.01155
4.804,0.03499
4.808,0.05264
4.812,0.0746
4.816,0.09093
4.82,0.10619
4.824,0.07336
4.828,0.10495
4.832,0.14434
4.836,0.12094
4.84,0.1808
4.844,0.15509
4.848,0.16448
4.852,0.16948
4.856,0.17744
4.86,0.22077
4.864,0.2909
4.868,0.18516
4.872,0.23679
4.876,0.17821
4.88,0.14347
4.884,0.2
4.888,0.24256
4.892,0.17133
4.896,0.21429
4.9,0.12125
4.904,0.12385
4.908,0.13937
4.912,0.12355
4.916,0.15568
4.92,0.13379
4.924,0.19377
4.928,0.13453
4.932,0.13015
4.936,0.07104
4.94,0.07089
4.944,0.13237
4.948,0.04807
4.952,0.08214
4.956,-0.04882
4.96,-0.00296
4.964,0.05164
4.968,0.03843
4.972,0.03832
4.976,0.01553
4.98,-0.0367
4.984,0.10461
4.988,-0.04058
4.992,0.04783
4.996,0.03324
5.0,0.0775
5.004,0.01552
5.008,0.01495
5.012,0.0275
5.016,0.08115
5.02,0.07108
5.024,0.05679
5.028,0.10057
5.032,0.05431
5.036,0.08808
5.04,0.11727
5.044,0.00877
5.048,0.0799
5.052,0.08706
5.056,0.03084
5.06,0.03296
5.064,0.10546
5.068,-0.00525
5.072,0.01764
5.076,0.00473
5.08,0.00478
5.084,0.03142
5.088,-0.01917
5.092,0.02859
5.096,0.01318
5.1,0.02263
5.104,-0.008
5.108,-0.0011
5.112,-0.04385
5.116,0.03043
5.12,-0.05646
5.124,-0.07045
5.128,0.00398
5.132,0.01768
5.136,-0.04102
5.14,-0.03354
5.144,0.00319
5.148,-0.03503
5.152,-0.01342
5.156,-0.04387
5.16,-0.18576
5.164,-0.11799
5.168,0.03584
5.172,0.08028
5.176,0.29166
5.18,0.51932
5.184,0.75318
5.188,0.89246
5.192,1.02406
5.196,1.00263
5.2,0.87431
5.204,0.62627
5.208,0.43992
5.212,0.2061
5.216,0.04947
5.22,-0.06355
5.224,-0.15317
5.228,-0.12426
5.232,-0.11972
5.236,-0.04416
5.24,-0.05481
5.244,-0.07937
5.248,-0.02359
5.252,0.01647
5.256,0.04295
5.26,-0.03609
5.264,0.03888
5.268,-0.05668
5.272,-0.05302
5.276,-0.02811
5.28,0.00086
5.284,0.00986
5.288,0.05408
5.292,-0.00394
5.296,0.01891
5.3,-0.03817
5.304,-0.05836
5.308,0.01689
5.312,0.03215
5.316,-0.01402
5.32,-0.03544
5.324,0.01578
5.328,-0.05915
5.332,0.04693
5.336,0.01512
5.34,-0.04822
5.344,0.00028
5.348,0.0498
5.352,0.03378
5.356,-0.02434
5.36,0.02178
5.364,-0.00761
5.368,-0.00027
5.372,-0.04987
5.376,-0.00553
5.38,0.05457
5.384,0.05768
5.388,0.05633
5.392,0.04674
5.396,0.00653
5.4,0.02694
5.404,0.12315
5.408,0.15496
5.412,0.11236
5.416,0.0786
5.42,0.14866
5.424,0.23192
5.428,0.13805
5.432,0.11123
5.436,0.15388
5.44,0.11838
5.444,0.1785
5.448,0.14053
5.452,0.17644
5.456,0.23841
5.46,0.19314
5.464,0.23186
5.468,0.20512
5.472,0.20769
5.476,0.22482
5.48,0.25174
5.484,0.15109
5.488,0.21445
5.492,0.19505
5.496,0.21244
5.5,0.19874
5.504,0.15788
5.508,0.12549
5.512,0.20668
5.516,0.18478
5.52,0.16329
5.524,0.12914
5.528,0.09597
5.532,0.14637
5.536,0.10842
5.54,0.13584
5.544,0.17046
5.548,0.12075
5.552,-0.02137
5.556,0.03648
5.56,0.02785
5.564,0.06324
5.568,0.04949
5.572,0.06969
5.576,-0.02585
5.58,0.01109
5.584,0.02972
5.588,0.06147
5.592,-0.00426
5.596,0.05715
5.6,-0.02462
5.604,0.0503
5.608,0.00725
5.612,0.00071
5.616,-0.00065
5.62,0.04014
5.624,0.08679
5.628,-0.01428
5.632,-0.03052
5.636,0.00373
5.64,-0.02495
5.644,0.02877
5.648,-0.00835
5.652,-0.03492
5.656,0.06767
5.66,0.07719
5.664,0.05785
5.668,0.05711
5.672,0.07448
5.676,0.00846
5.68,0.02059
5.684,0.00807
5.688,0.08796
5.692,0.04488
5.696,-0.00084
5.7,0.03607
5.704,0.04243
5.708,0.00518
5.712,-0.01546
5.716,0.01903
5.72,0.02468
5.724,-0.00632
5.728,0.05407
5.732,-0.03877
5.736,0.0621
5.74,-0.03439
5.744,0.11885
5.748,-0.00235
5.752,0.00552
5.756,0.02292
5.76,0.0215
5.764,-0.04892
5.768,-0.00806
5.772,0.05007
5.776,0.02642
5.78,0.02091
5.784,0.00034
5.788,0.0306
5.792,-0.00649
5.796,0.06274
5.8,-0.05586
5.804,0.00934
5.808,0.03838
5.812,-0.00127
5.816,0.02117
5.82,-0.01193
5.824,0.08305
5.828,-0.02124
5.832,0.0193
5.836,0.06429
5.84,9e-05
5.844,0.06294
5.848,0.02969
5.852,0.06483
5.856,0.03832
5.86,0.04322
5.864,-0.01737
5.868,0.00514
5.872,-0.01959
5.876,0.05425
5.88,0.00463
5.884,-0.02246
5.888,-0.00782
5.892,-0.01175
5.896,0.00178
5.9,0.0597
5.904,0.07873
5.908,-0.06398
5.912,0.02781
5.916,0.04361
5.92,-0.01457
5.924,0.0065
5.928,0.09549
5.932,0.07854
5.936,0.03887
5.94,0.0573
5.944,0.01484
5.948,-0.01303
5.952,0.01249
5.956,0.01657
5.96,0.02115
5.964,0.0379
5.968,0.05697
5.972,0.05684
5.976,0.04163
5.98,0.07484
5.984,0.09305
5.988,0.16973
5.992,0.09414
5.996,0.11033
6.0,0.1015
6.004,0.08749
6.008,0.10257
6.012,0.15003
6.016,0.07108
6.02,0.05681
6.024,0.04789
6.028,0.02236
6.032,-0.03093
6.036,0.05048
6.04,0.02962
6.044,0.03095
6.048,0.02294
6.052,0.02033
6.056,0.00741
6.06,0.02291
6.064,0.08185
6.068,0.00289
6.072,0.02814
6.076,0.00373
6.08,0.01975
6.084,0.05497
6.088,0.0194
6.092,0.11829
6.096,-0.00746
6.1,-0.02246
6.104,0.04108
6.108,-0.04524
6.112,0.03567
6.116,-0.02129
6.12,-0.03786
6.124,-0.09962
6.128,-0.01393
6.132,0.02325
6.136,0.14436
6.14,0.33622
6.144,0.5654
6.148,0.70875
6.152,1.02926
6.156,0.93774
6.16,0.96129
6.164,0.85753
6.168,0.60595
6.172,0.40854
6.176,0.25798
6.18,0.00626
6.184,-0.12619
6.188,-0.1894
6.192,-0.14751
6.196,-0.09301
6.2,-0.01782
6.204,-0.0147
6.208,0.02233
6.212,0.0002
6.216,0.03887
6.22,0.0403
6.224,0.01619
6.228,-0.01283
6.232,-0.02817
6.236,0.06322
6.24,-0.00769
6.244,0.10422
6.248,-0.00145
6.252,0.03838
6.256,0.01257
6.26,0.03509
6.264,0.05088
6.268,0.01281
6.272,-0.00084
6.276,0.05601
6.28,-0.00604
6.284,0.02683
6.288,0.06341
6.292,0.02799
6.296,0.01063
6.3,0.00394
6.304,0.1139
6.308,0.06705
6.312,0.05615
6.316,0.03144
6.32,-0.01399
6.324,-0.03211
6.328,0.0185
6.332,0.06963
6.336,0.01737
6.34,0.04248
6.344,0.03698
6.348,0.09888
6.352,0.02499
6.356,0.02798
6.36,0.06061
6.364,0.02184
6.368,0.10721
6.372,0.12469
6.376,0.11228
6.38,0.12958
6.384,0.10744
6.388,0.17866
6.392,0.15212
6.396,0.18339
6.4,0.18976
6.404,0.15956
6.408,0.26805
6.412,0.22246
6.416,0.24817
6.42,0.2211
6.424,0.23819
6.428,0.24748
6.432,0.22028
6.436,0.2426
6.44,0.19522
6.444,0.25194
6.448,0.23513
6.452,0.22061
6.456,0.26551
6.46,0.25179
6.464,0.24432
6.468,0.17498
6.472,0.25717
6.476,0.19526
6.48,0.14172
6.484,0.11256
6.488,0.15299
6.492,0.17774
6.496,0.19368
6.5,0.15009
6.504,0.10468
6.508,0.10076
6.512,0.11877
6.516,0.1344
6.52,0.11842
6.524,0.14265
6.528,0.1399
6.532,0.10537
6.536,0.17713
6.54,0.13329
6.544,0.07317
6.548,0.16113
6.552,0.11119
6.556,0.08739
6.56,0.06194
6.564,0.02556
6.568,0.05706
6.572,0.06524
6.576,0.06746
6.58,-0.02757
6.584,0.03259
6.588,-0.00449
6.592,0.03544
6.596,0.02313
6.6,0.00783
6.604,0.01381
6.608,0.02096
6.612,0.05062
6.616,0.04225
6.62,0.01498
6.624,0.01321
6.628,0.09046
6.632,-0.0397
6.636,0.06874
6.64,0.00446
6.644,-0.00206
6.648,0.02305
6.652,-0.01505
6.656,-0.04989
6.66,-0.06115
6.664,-0.11105
6.668,0.01057
6.672,0.03003
6.676,0.26658
6.68,0.44455
6.684,0.65966
6.688,0.8924
6.692,0.99066
6.696,1.02965
6.7,0.96381
6.704,0.75651
6.708,0.49513
6.712,0.29405
6.716,0.15695
6.72,-0.03066
6.724,-0.11161
6.728,-0.16028
6.732,-0.18221
6.736,-0.01219
6.74,-0.01368
6.744,-0.0041
6.748,0.06703
6.752,-0.02924
6.756,-0.02153
6.76,0.06398
6.764,0.03125
6.768,0.03403
6.772,0.08928
6.776,0.01275
6.78,0.06293
6.784,0.06629
6.788,0.06393
6.792,0.01247
6.796,0.04295
6.8,0.06439
6.804,0.03078
6.808,0.02214
6.812,0.06162
6.816,0.05846
6.82,0.02169
6.824,0.07906
6.828,0.00613
6.832,-0.06321
6.836,0.03737
6.84,0.04353
6.844,-0.00924
6.848,0.10203
6.852,0.01822
6.856,0.09094
6.86,-0.00998
6.864,0.0339
6.868,0.07043
6.872,0.04816
6.876,0.02143
6.88,0.11966
6.884,0.0514
6.888,0.02002
6.892,0.03948
6.896,0.06721
6.9,0.0864
6.904,0.08217
6.908,0.12851
6.912,0.13564
6.916,0.12945
6.92,0.17322
6.924,0.14392
6.928,0.15988
6.932,0.1506
6.936,0.17987
6.94,0.15514
6.944,0.18444
6.948,0.19581
6.952,0.21908
6.956,0.18889
6.96,0.26082
6.964,0.28684
6.968,0.31472
6.972,0.2775
6.976,0.27889
6.98,0.16679
6.984,0.25647
6.988,0.26213
6.992,0.28322
6.996,0.22218
7.0,0.24416
7.004,0.18105
7.008,0.23719
7.012,0.16863
7.016,0.14434
7.02,0.16021
7.024,0.21523
7.028,0.14739
7.032,0.16594
7.036,0.0583
7.04,0.16066
7.044,0.15643
7.048,0.06653
7.052,0.11257
7.056,0.08507
7.06,0.01737
7.064,-0.04005
7.068,0.03351
7.072,0.06039
7.076,0.05488
7.08,0.07603
7.084,0.0834
7.088,0.08012
7.092,0.05017
7.096,0.03357
7.1,0.08548
7.104,0.01469
7.108,0.0739
7.112,-0.00914
7.116,0.05584
7.12,-0.05556
7.124,0.03024
7.128,0.0425
7.132,0.04643
7.136,0.00092
7.14,0.05783
7.144,0.02041
7.148,0.08897
7.152,-0.01734
7.156,0.05645
7.16,0.06542
7.164,0.06742
7.168,0.00202
7.172,0.07048
7.176,0.11175
7.18,0.05748
7.184,0.07942
7.188,0.01779
7.192,0.03402
7.196,0.04902
7.2,0.10126
7.204,0.03591
7.208,0.04413
7.212,0.13886
7.216,0.1016
7.22,0.05853
7.224,0.11913
7.228,0.14651
7.232,0.1494
7.236,0.11826
7.24,0.10574
7.244,0.10725
7.248,0.06056
7.252,0.1038
7.256,-0.03064
7.26,0.08974
7.264,0.04516
7.268,0.10457
7.272,0.05609
7.276,0.06419
7.28,0.0133
7.284,0.03825
7.288,0.01017
7.292,0.0505
7.296,0.00901
7.3,0.03016
7.304,0.02354
7.308,0.03572
7.312,-0.00895
7.316,0.03494
7.32,0.01831
7.324,0.0339
7.328,0.0266
7.332,-0.01094
7.336,0.0111
7.34,-0.03723
7.344,-0.03265
7.348,-0.07956
7.352,-0.03983
7.356,0.01869
7.36,0.09808
7.364,0.2961
7.368,0.48176
7.372,0.75002
7.376,0.96069
7.38,0.9451
7.384,0.97156
7.388,0.89452
7.392,0.71576
7.396,0.45726
7.4,0.24507
7.404,0.07717
7.408,-0.0311
7.412,-0.06658
7.416,-0.1507
7.42,-0.13851
7.424,-0.05287
7.428,-0.08459
7.432,0.00554
7.436,0.04728
7.44,0.00471
7.444,-0.00321
7.448,0.01717
7.452,-0.03841
7.456,-0.00858
7.46,0.09237
7.464,0.02446
7.468,0.01097
7.472,0.04446
7.476,0.09056
7.48,0.01772
7.484,0.04909
7.488,-0.01504
7.492,-0.02732
7.496,-0.00355
7.5,0.00967
7.504,0.03749
7.508,-0.01822
7.512,0.01834
7.516,0.02
7.52,0.0042
7.524,0.06787
7.528,0.05417
7.532,0.01924
7.536,0.05147
7.54,0.09422
7.544,0.005
7.548,0.02136
7.552,0.04438
7.556,0.00707
7.56,0.05633
7.564,0.02473
7.568,-0.03041
7.572,-0.00725
7.576,0.09191
7.58,0.13291
7.584,0.03773
7.588,0.06898
7.592,0.12851
7.596,0.10747
7.6,0.05299
7.604,0.14857
7.608,0.11472
7.612,0.1616
7.616,0.1394
7.62,0.15612
7.624,0.22142
7.628,0.20658
7.632,0.12727
7.636,0.16513
7.64,0.24333
7.644,0.17893
7.648,0.20192
7.652,0.16267
7.656,0.21115
7.66,0.24298
7.664,0.23975
7.668,0.21532
7.672,0.2594
7.676,0.24265
7.68,0.27594
7.684,0.26379
7.688,0.16622
7.692,0.18334
7.696,0.14937
7.7,0.23518
7.704,0.19977
7.708,0.20478
7.712,0.1478
7.716,0.17162
7.72,0.10849
7.724,0.11561
7.728,0.11308
7.732,0.06232
7.736,0.02408
7.74,0.00067
7.744,0.02296
7.748,0.03248
7.752,0.08378
7.756,0.05245
7.76,-0.00525
7.764,0.064
7.768,0.02884
7.772,0.04651
7.776,0.05201
7.78,0.04321
7.784,0.02148
7.788,0.00414
7.792,0.04619
7.796,0.02215
7.8,0.03762
7.804,0.0479
7.808,-0.01153
7.812,-0.02494
7.816,-0.02493
7.82,0.03203
7.824,0.05128
7.828,0.02267
7.832,0.07226
7.836,0.02857
7.84,0.00946
7.844,0.01751
7.848,-0.05566
7.852,0.03334
7.856,0.01759
7.86,0.07084
7.864,-0.03298
7.868,-0.05955
7.872,-0.04539
7.876,0.05073
7.88,0.00938
7.884,0.04408
7.888,-0.00354
7.892,0.04666
7.896,-0.03698
7.9,-0.00381
7.904,0.04855
7.908,0.04332
7.912,0.00174
7.916,0.04205
7.92,0.01954
7.924,-0.00031
7.928,-0.02121
7.932,-0.00751
7.936,0.01034
7.94,0.01298
7.944,0.01171
7.948,0.08599
7.952,-0.01049
7.956,0.05936
7.96,-0.00417
7.964,0.01422
7.968,0.00887
7.972,0.04433
7.976,0.01233
7.98,-0.00319
7.984,0.01173
7.988,0.03582
7.992,0.00576
7.996,0.00045
8.0,-0.00378
8.004,0.0542
8.008,0.05034
8.012,0.02807
8.016,0.12255
8.02,0.00236
8.024,0.01131
8.028,0.04062
8.032,0.06362
8.036,0.11403
8.04,0.0907
8.044,0.13251
8.048,0.15368
8.052,0.09091
8.056,0.15145
8.06,0.07539
8.064,0.1527
8.068,0.03411
8.072,0.10883
8.076,0.01504
8.08,0.06166
8.084,0.0513
8.088,0.06117
8.092,0.04675
8.096,0.00139
8.1,0.00335
8.104,0.00357
8.108,-0.01353
8.112,0.01982
8.116,0.01032
8.12,0.01521
8.124,-0.02469
8.128,0.01847
8.132,0.02376
8.136,0.01845
8.14,-0.00115
8.144,0.03406
8.148,0.01256
8.152,0.03807
8.156,-0.00345
8.16,-0.0149
8.164,-0.09354
8.168,-0.06971
8.172,-0.11958
8.176,-0.07541
8.18,0.07181
8.184,0.19505
8.188,0.40554
8.192,0.62574
8.196,0.84951
8.2,0.94148
8.204,1.06346
8.208,0.93381
8.212,0.79593
8.216,0.56884
8.22,0.35082
8.224,0.0866
8.228,-0.08762
8.232,-0.17555
8.236,-0.15437
8.24,-0.10371
8.244,-0.12249
8.248,-0.10601
8.252,-0.0761
8.256,0.00031
8.26,-0.00746
8.264,0.01748
8.268,0.03133
8.272,-0.0865
8.276,0.08808
8.28,-0.01431
8.284,-0.00716
8.288,0.01176
8.292,0.02572
8.296,-0.04431
8.3,-0.04445
8.304,-0.06233
8.308,-0.01741
8.312,-0.00815
8.316,0.02601
8.32,-0.03348
8.324,0.01122
8.328,-0.00242
8.332,0.04162
8.336,0.04194
8.34,-0.01122
8.344,0.08448
8.348,-0.0012
8.352,-0.01784
8.356,0.00359
8.36,-0.00716
8.364,0.03321
8.368,-0.01795
8.372,0.01769
8.376,0.00597
8.38,-0.01716
8.384,-0.01766
8.388,0.05563
8.392,0.1074
8.396,0.04178
8.4,0.05186
8.404,0.1209
8.408,0.08077
8.412,0.0763
8.416,0.05398
8.42,0.03809
8.424,0.04317
8.428,0.06415
8.432,0.0631
8.436,0.09211
8.44,0.18408
8.444,0.17654
8.448,0.08676
8.452,0.1863
8.456,0.21733
8.46,0.19879
8.464,0.13281
8.468,0.17495
8.472,0.20539
8.476,0.23641
8.48,0.18559
8.484,0.19967
8.488,0.26893
8.492,0.26103
8.496,0.19401
8.5,0.20908
8.504,0.26406
8.508,0.18613
8.512,0.19806
8.516,0.1333
8.52,0.15413
8.524,0.15106
8.528,0.0934
8.532,0.13109
8.536,0.12875
8.54,0.07803
8.544,0.05058
8.548,0.07345
8.552,-0.00435
8.556,0.08887
8.56,0.04699
8.564,0.02607
8.568,0.09482
8.572,0.03687
8.576,0.05125
8.58,0.05133
8.584,0.06387
8.588,0.04575
8.592,-0.0165
8.596,0.04366
8.6,-0.0424
8.604,0.00932
8.608,0.04678
8.612,0.00723
8.616,0.00199
8.62,-0.0575
8.624,0.05558
8.628,0.01301
8.632,0.03682
8.636,-0.01985
8.64,-0.05625
8.644,0.03341
8.648,-0.01949
8.652,-0.00133
8.656,0.07865
8.66,-0.00402
8.664,-0.02892
8.668,0.02399
8.672,-0.00644
8.676,-0.00978
8.68,-0.00704
8.684,-0.0166
8.688,-0.00373
8.692,0.0111
8.696,-0.01133
8.7,0.00023
8.704,-0.1013
8.708,-0.02436
8.712,0.03223
8.716,-0.02566
8.72,-0.04679
8.724,-0.01078
8.728,0.01968
8.732,-0.04635
8.736,-0.01069
8.74,-0.00607
8.744,-0.03362
8.748,0.00683
8.752,-0.03814
8.756,-0.00301
8.76,-0.01708
8.764,0.05935
8.768,-0.03595
8.772,-0.01764
8.776,-0.00667
8.78,0.02766
8.784,0.01186
8.788,-0.01682
8.792,-0.01713
8.796,-0.01844
8.8,0.06879
8.804,0.02124
8.808,-0.03001
8.812,0.07756
8.816,0.04402
8.82,0.00174
8.824,0.10724
8.828,0.04686
8.832,0.03028
8.836,0.09145
8.84,0.02825
8.844,0.07094
8.848,0.14309
8.852,0.11613
8.856,0.09191
8.86,0.07524
8.864,0.03938
8.868,-0.00328
8.872,0.02462
8.876,-0.08015
8.88,0.06286
8.884,0.05424
8.888,-0.06353
8.892,-0.01004
8.896,-0.00091
8.9,0.03215
8.904,0.04372
8.908,-0.036
8.912,0.00454
8.916,0.07215
8.92,-0.01291
8.924,0.02253
8.928,0.01218
8.932,0.07537
8.936,0.05824
8.94,-0.08291
8.944,-0.06219
8.948,0.01405
8.952,-0.04994
8.956,-0.02639
8.96,0.05505
8.964,-0.07686
8.968,-0.12871
8.972,-0.06877
8.976,-0.07472
8.98,-0.04687
8.984,0.12566
8.988,0.29545
8.992,0.52056
8.996,0.77445
9.0,0.88717
9.004,0.96664
9.008,0.97215
9.012,0.78724
9.016,0.69665
9.02,0.39889
9.024,0.1159
9.028,0.01375
9.032,-0.10632
9.036,-0.16488
9.04,-0.24804
9.044,-0.16281
9.048,-0.10333
9.052,-0.01738
9.056,-0.03462
9.06,0.01583
9.064,0.02137
9.068,0.00396
9.072,0.01151
9.076,0.01433
9.08,0.06076
9.084,0.029
9.088,-0.07418
9.092,0.02685
9.096,-0.02041
9.1,-0.05723
9.104,-0.0927
9.108,0.03002
9.112,-0.12398
9.116,-0.02337
9.12,0.00945
9.124,-0.01527
9.128,-0.0294
9.132,-0.03088
9.136,-0.03145
9.14,-0.02473
9.144,-0.07898
9.148,-0.03026
9.152,-0.03778
9.156,-0.10049
9.16,-0.00741
9.164,-0.02089
9.168,0.03328
9.172,0.00847
9.176,-0.04548
9.18,0.00632
9.184,0.02785
9.188,-0.02142
9.192,0.02694
9.196,0.06526
9.2,0.02216
9.204,0.0342
9.208,0.02177
9.212,0.08303
9.216,0.08281
9.22,0.08393
9.224,0.08482
9.228,0.08315
9.232,0.07449
9.236,0.13335
9.24,0.15828
9.244,0.1511
9.248,0.07452
9.252,0.14272
9.256,0.16836
9.26,0.19437
9.264,0.14096
9.268,0.23293
9.272,0.21077
9.276,0.16771
9.28,0.17388
9.284,0.22677
9.288,0.19125
9.292,0.15951
9.296,0.20944
9.3,0.23139
9.304,0.22769
9.308,0.15931
9.312,0.15382
9.316,0.15596
9.32,0.14955
9.324,0.20465
9.328,0.07671
9.332,0.06941
9.336,0.13438
9.34,0.07986
9.344,0.11002
9.348,0.14174
9.352,0.10273
9.356,0.05089
9.36,0.02241
9.364,0.01181
9.368,-0.02665
9.372,0.01069
9.376,-0.03354
9.38,-0.04954
9.384,0.03744
9.388,-0.00452
9.392,-0.03876
9.396,0.06132
9.4,-0.02855
9.404,-0.01347
9.408,-0.06816
9.412,-0.06521
9.416,0.03108
9.42,-0.00775
9.424,-0.03323
9.428,0.02215
9.432,-0.01065
9.436,0.00665
9.44,-0.04675
9.444,-0.05195
9.448,-0.01128
9.452,-0.11032
9.456,-0.01181
9.46,-0.06085
9.464,-0.08379
9.468,-0.02339
9.472,-0.03038
9.476,-0.0353
9.48,-0.01467
9.484,0.04167
9.488,-0.03507
9.492,-0.06176
9.496,-0.04391
9.5,0.06238
9.504,-0.07831
9.508,-0.01884
9.512,-0.02996
9.516,-0.03924
9.52,-0.0265
9.524,-0.01421
9.528,0.0222
9.532,0.00222
9.536,0.00772
9.54,-0.10498
9.544,-0.04088
9.548,-0.06759
9.552,-0.04755
9.556,-0.04185
9.56,0.04318
9.564,0.00084
9.568,0.00021
9.572,-0.01717
9.576,-0.04494
9.58,-0.08682
9.584,-0.03806
9.588,-0.04687
9.592,-0.04388
9.596,-0.05499
9.6,-0.05664
9.604,0.03385
9.608,-0.03917
9.612,0.01857
9.616,0.00666
9.62,-0.00393
9.624,-0.03215
9.628,-0.01364
9.632,0.01597
9.636,0.02602
9.64,0.02984
9.644,0.03448
9.648,0.12061
9.652,0.05557
9.656,0.07238
9.66,0.1177
9.664,-0.0018
9.668,0.06478
9.672,0.0665
9.676,0.04829
9.68,0.00342
9.684,0.02384
9.688,0.04191
9.692,-0.03172
9.696,-0.07626
9.7,-0.07731
9.704,-0.03206
9.708,-0.00492
9.712,-0.01746
9.716,-0.02756
9.72,0.00999
9.724,-0.04443
9.728,-0.03204
9.732,0.02982
9.736,-0.01772
9.74,-0.07078
9.744,0.01357
9.748,0.01138
9.752,-0.03737
9.756,-0.0228
9.76,-0.06256
9.764,-0.0009
9.768,-0.06846
9.772,-0.05739
9.776,-0.1242
9.78,-0.05947
9.784,-0.1481
9.788,-0.15802
9.792,-0.10019
9.796,0.11507
9.8,0.23613
9.804,0.43323
9.808,0.71971
9.812,0.78076
9.816,0.89058
9.82,0.98358
9.824,0.85299
9.828,0.65634
9.832,0.36162
9.836,0.28492
9.84,0.04367
9.844,-0.13461
9.848,-0.20146
9.852,-0.21183
9.856,-0.18247
9.86,-0.13913
9.864,-0.07603
9.868,-0.04391
9.872,-0.05356
9.876,-0.0115
9.88,-0.10517
9.884,-0.03116
9.888,0.0125
9.892,-0.00428
9.896,-0.02369
9.9,0.02119
9.904,-0.05562
9.908,-0.01603
9.912,-0.02631
9.916,-0.03189
9.92,-0.02814
9.924,-0.00673
9.928,-0.00877
9.932,-0.0526
9.936,-0.04369
9.94,-0.03546
9.944,-0.02561
9.948,-0.04069
9.952,-0.01899
9.956,-0.0274
9.96,-0.03146
9.964,0.00047
9.968,-0.02806
9.972,-0.02802
9.976,-0.02685
9.98,-0.04894
9.984,-0.04688
9.988,-0.11108
9.992,0.01827
9.996,0.0229
