t_seg,ecg_mV
0.0,0.03837
0.004,0.00731
0.008,-0.04044
0.012,0.02867
0.016,0.05345
0.02,0.05879
0.024,0.03642
0.028,0.03203
0.032,-0.01782
0.036,-0.01884
0.04,-0.0096
0.044,0.05358
0.048,0.02963
0.052,-0.00587
0.056,0.12867
0.06,-0.05794
0.064,0.05163
0.068,0.06312
0.072,-0.01348
0.076,0.05221
0.08,0.04784
0.084,0.05238
0.088,0.06955
0.092,0.00708
0.096,0.03831
0.1,-0.03459
0.104,-0.00619
0.108,0.02268
0.112,0.02108
0.116,0.02682
0.12,-0.00949
0.124,0.01247
0.128,-0.00061
0.132,0.01554
0.136,0.04511
0.14,0.03116
0.144,0.04299
0.148,0.04927
0.152,0.01626
0.156,0.07028
0.16,0.0413
0.164,0.03109
0.168,0.03347
0.172,0.10073
0.176,0.04778
0.18,0.0289
0.184,0.09744
0.188,0.11615
0.192,0.1292
0.196,0.12494
0.2,0.19105
0.204,0.07569
0.208,0.16481
0.212,0.17874
0.216,0.0993
0.22,0.05945
0.224,0.12693
0.228,0.02842
0.232,0.09096
0.236,0.08067
0.24,0.01263
0.244,0.0616
0.248,0.03601
0.252,0.01107
0.256,0.03563
0.26,0.04748
0.264,-0.01704
0.268,0.06469
0.272,0.02448
0.276,0.06865
0.28,0.00952
0.284,0.00165
0.288,-0.0101
0.292,0.04226
0.296,0.00373
0.3,0.0133
0.304,0.05087
0.308,0.03877
0.312,0.03248
0.316,-0.01742
0.32,-0.00311
0.324,-0.05155
0.328,-0.04064
0.332,-0.01632
0.336,-0.0208
0.34,0.1577
0.344,0.37777
0.348,0.57111
0.352,0.82022
0.356,0.89461
0.36,1.04195
0.364,1.0093
0.368,0.92111
0.372,0.7038
0.376,0.45996
0.38,0.17194
0.384,0.04188
0.388,-0.07358
0.392,-0.08999
0.396,-0.09426
0.4,-0.14935
0.404,-0.04965
0.408,-0.00662
0.412,-0.00596
0.416,0.00145
0.42,-0.05353
0.424,0.03423
0.428,-0.02466
0.432,0.08543
0.436,0.0409
0.44,0.01361
0.444,0.00581
0.448,-0.05458
0.452,0.06396
0.456,0.0083
0.46,0.04124
0.464,0.02342
0.468,0.04356
0.472,0.02273
0.476,-0.06546
0.48,0.03915
0.484,0.02823
0.488,-0.02427
0.492,0.03228
0.496,0.05716
0.5,0.04894
0.504,-0.04144
0.508,0.02555
0.512,0.01178
0.516,0.03167
0.52,0.0338
0.524,0.09619
0.528,0.0691
0.532,0.05521
0.536,0.05985
0.54,0.1391
0.544,0.08432
0.548,0.03814
0.552,-0.00208
0.556,0.17719
0.56,0.01366
0.564,0.0819
0.568,0.07953
0.572,0.08225
0.576,0.06494
0.58,0.07369
0.584,0.19414
0.588,0.10992
0.592,0.17005
0.596,0.17652
0.6,0.22853
0.604,0.24893
0.608,0.1553
0.612,0.26689
0.616,0.18552
0.62,0.19235
0.624,0.25769
0.628,0.23205
0.632,0.22268
0.636,0.23905
0.64,0.25249
0.644,0.22861
0.648,0.24388
0.652,0.25184
0.656,0.24349
0.66,0.21804
0.664,0.20623
0.668,0.17599
0.672,0.14582
0.676,0.18019
0.68,0.23244
0.684,0.11665
0.688,0.10516
0.692,0.14588
0.696,0.15981
0.7,0.14186
0.704,0.1631
0.708,0.08967
0.712,0.115
0.716,0.15027
0.72,0.13574
0.724,0.07907
0.728,0.05967
0.732,0.07702
0.736,-0.02904
0.74,0.03121
0.744,0.08455
0.748,-0.00052
0.752,0.06006
0.756,0.02371
0.76,0.09232
0.764,0.06649
0.768,0.03111
0.772,0.06187
0.776,0.03995
0.78,0.06363
0.784,-0.02544
0.788,-0.01923
0.792,-0.00442
0.796,0.08152
0.8,0.04914
0.804,-0.04664
0.808,0.02739
0.812,0.02439
0.816,0.12352
0.82,0.0077
0.824,0.06237
0.828,0.02527
0.832,-0.03267
0.836,0.06313
0.84,0.03073
0.844,0.09598
0.848,0.01713
0.852,0.02066
0.856,0.01843
0.86,0.03761
0.864,0.03628
0.868,0.04206
0.872,0.04417
0.876,0.03708
0.88,-0.01795
0.884,0.00234
0.888,0.02332
0.892,0.08312
0.896,-0.0342
0.9,-0.00667
0.904,0.12774
0.908,0.04984
0.912,0.08996
0.916,0.07723
0.92,0.06272
0.924,0.01775
0.928,0.0997
0.932,0.05432
0.936,-0.00907
0.94,0.00357
0.944,-0.03089
0.948,-0.05645
0.952,-0.00065
0.956,0.13954
0.96,0.00412
0.964,0.03759
0.968,-0.00835
0.972,0.01551
0.976,0.12119
0.98,0.09508
0.984,0.04396
0.988,0.05187
0.992,0.00225
0.996,0.12199
1.0,0.14076
1.004,0.08526
1.008,0.07238
1.012,0.19596
1.016,0.18185
1.02,0.08725
1.024,0.08532
1.028,0.10312
1.032,0.15909
1.036,0.05908
1.04,0.12102
1.044,0.0248
1.048,0.01286
1.052,0.0441
1.056,0.01204
1.06,0.04656
1.064,0.04905
1.068,0.028
1.072,0.04464
1.076,0.02949
1.08,0.01489
1.084,-0.00798
1.088,-0.01103
1.092,0.04169
1.096,0.01271
1.1,0.0035
1.104,0.0514
1.108,0.00845
1.112,0.07942
1.116,0.01674
1.12,0.03848
1.124,0.05395
1.128,0.02609
1.132,0.021
1.136,0.00066
1.14,-0.04167
1.144,-0.13163
1.148,-0.06887
1.152,-0.05185
1.156,-0.01762
1.16,0.11068
1.164,0.21372
1.168,0.26938
1.172,0.37506
1.176,0.40312
1.18,0.43447
1.184,0.31073
1.188,0.32093
1.192,0.12772
1.196,0.08702
1.2,-0.08881
1.204,-0.15333
1.208,-0.12958
1.212,-0.14013
1.216,-0.17045
1.22,-0.07236
1.224,-0.06846
1.228,-0.09168
1.232,0.03149
1.236,0.02648
1.24,0.04954
1.244,0.00519
1.248,0.00891
1.252,0.01621
1.256,0.05408
1.26,0.02995
1.264,0.0337
1.268,0.11699
1.272,0.08616
1.276,0.11381
1.28,0.11154
1.284,0.11368
1.288,0.13851
1.292,0.16811
1.296,0.13097
1.3,0.1003
1.304,0.08595
1.308,0.05908
1.312,0.10058
1.316,0.06507
1.32,0.02551
1.324,0.06543
1.328,0.04712
1.332,0.06151
1.336,0.04317
1.34,0.03919
1.344,0.05415
1.348,-0.00295
1.352,-0.00485
1.356,0.06256
1.36,0.0359
1.364,0.03051
1.368,0.0785
1.372,0.06742
1.376,0.0729
1.38,0.1219
1.384,0.07548
1.388,0.0735
1.392,0.08518
1.396,0.08679
1.4,0.13084
1.404,0.07133
1.408,0.05033
1.412,0.09607
1.416,0.05494
1.42,0.10497
1.424,0.17801
1.428,0.36424
1.432,0.56281
1.436,0.81821
1.44,1.02334
1.444,1.15951
1.448,1.22554
1.452,1.22178
1.456,1.00096
1.46,0.84544
1.464,0.53398
1.468,0.35506
1.472,0.15053
1.476,0.0969
1.48,0.05452
1.484,0.08538
1.488,0.10829
1.492,0.1611
1.496,0.13375
1.5,0.14667
1.504,0.15484
1.508,0.17852
1.512,0.14622
1.516,0.1135
1.52,0.11485
1.524,0.03095
1.528,0.08946
1.532,0.04898
1.536,0.00168
1.54,0.07011
1.544,0.07303
1.548,0.07214
1.552,0.081
1.556,0.06838
1.56,0.03311
1.564,0.0407
1.568,0.01564
1.572,0.0239
1.576,-0.02903
1.58,0.05848
1.584,0.01649
1.588,-0.00064
1.592,0.06324
1.596,-0.01304
1.6,-0.03108
1.604,-0.00698
1.608,0.016
1.612,0.01208
1.616,0.04053
1.62,0.01884
1.624,0.05566
1.628,-0.02426
1.632,0.06568
1.636,0.05203
1.64,0.0669
1.644,0.04961
1.648,0.09929
1.652,0.2034
1.656,0.13821
1.66,0.14942
1.664,0.10365
1.668,0.19245
1.672,0.11337
1.676,0.2521
1.68,0.25314
1.684,0.21387
1.688,0.26618
1.692,0.26115
1.696,0.26987
1.7,0.27337
1.704,0.2116
1.708,0.23262
1.712,0.22844
1.716,0.14933
1.72,0.21255
1.724,0.22192
1.728,0.22566
1.732,0.22618
1.736,0.2371
1.74,0.17566
1.744,0.21947
1.748,0.2246
1.752,0.25169
1.756,0.21454
1.76,0.16867
1.764,0.16542
1.768,0.17266
1.772,0.1382
1.776,0.11276
1.78,0.13033
1.784,0.06695
1.788,0.01885
1.792,0.00362
1.796,-0.05494
1.8,-0.00448
1.804,0.00478
1.808,0.08823
1.812,0.26499
1.816,0.44409
1.82,0.73349
1.824,0.86797
1.828,0.95867
1.832,0.98864
1.836,0.88804
1.84,0.79143
1.844,0.56555
1.848,0.32396
1.852,0.09765
1.856,-0.02226
1.86,-0.13807
1.864,-0.18533
1.868,-0.12972
1.872,-0.08228
1.876,0.02578
1.88,-0.06351
1.884,0.00388
1.888,0.0214
1.892,0.05567
1.896,-0.0326
1.9,0.01294
1.904,0.04683
1.908,0.01927
1.912,0.00328
1.916,0.01148
1.92,-0.01055
1.924,0.00902
1.928,-0.00871
1.932,0.01216
1.936,0.00084
1.94,0.00496
1.944,-0.0019
1.948,-0.00182
1.952,-0.02872
1.956,0.02849
1.96,0.02027
1.964,-0.00442
1.968,-0.00809
1.972,0.01667
1.976,0.0155
1.98,0.03596
1.984,-0.03137
1.988,0.02325
1.992,0.01824
1.996,-0.01004
2.0,0.03956
2.004,0.03606
2.008,0.04946
2.012,0.04658
2.016,0.08288
2.02,0.01956
2.024,0.02704
2.028,0.05227
2.032,0.15038
2.036,0.14927
2.04,0.15106
2.044,0.15485
2.048,0.16832
2.052,0.15665
2.056,0.2322
2.06,0.25305
2.064,0.2671
2.068,0.31407
2.072,0.27676
2.076,0.26309
2.08,0.16572
2.084,0.29703
2.088,0.29445
2.092,0.22539
2.096,0.25441
2.1,0.23988
2.104,0.14109
2.108,0.25203
2.112,0.18023
2.116,0.22686
2.12,0.22201
2.124,0.21192
2.128,0.22519
2.132,0.20413
2.136,0.19118
2.14,0.17085
2.144,0.14011
2.148,0.18276
2.152,0.15782
2.156,0.15274
2.16,0.15185
2.164,0.13316
2.168,0.12575
2.172,0.11291
2.176,0.09391
2.18,0.04101
2.184,-0.06396
2.188,-0.1093
2.192,-0.02105
2.196,-0.00398
2.2,0.15899
2.204,0.3623
2.208,0.53115
2.212,0.70063
2.216,0.98884
2.22,0.99993
2.224,0.93608
2.228,0.80385
2.232,0.65544
2.236,0.43769
2.24,0.22393
2.244,-0.00163
2.248,-0.10061
2.252,-0.12633
2.256,-0.17177
2.26,-0.11268
2.264,-0.05724
2.268,-0.09272
2.272,-0.01588
2.276,0.02073
2.28,-0.08894
2.284,0.0382
2.288,0.00413
2.292,0.0201
2.296,0.02076
2.3,0.01297
2.304,0.01603
2.308,0.01449
2.312,0.00948
2.316,-0.01403
2.32,0.04377
2.324,-0.01757
2.328,-0.05204
2.332,-0.00714
2.336,-0.0827
2.34,-0.00777
2.344,0.01845
2.348,0.00631
2.352,-0.00577
2.356,-0.0076
2.36,-0.04685
2.364,-0.02254
2.368,-0.00248
2.372,-0.01112
2.376,-0.09991
2.38,0.0108
2.384,0.02808
2.388,-0.01331
2.392,-0.07976
2.396,0.04757
2.4,-0.07592
2.404,0.02121
2.408,-0.04832
2.412,0.06121
2.416,0.04103
2.42,0.04561
2.424,0.03034
2.428,-0.0036
2.432,0.038
2.436,0.07928
2.44,-0.02811
2.444,0.11925
2.448,0.11489
2.452,0.06203
2.456,0.16988
2.46,0.16968
2.464,0.15569
2.468,0.1977
2.472,0.10056
2.476,0.17363
2.48,0.18884
2.484,0.14548
2.488,0.16467
2.492,0.22609
2.496,0.24227
2.5,0.19449
2.504,0.18802
2.508,0.27831
2.512,0.22993
2.516,0.20271
2.52,0.15492
2.524,0.14383
2.528,0.18191
2.532,0.10849
2.536,0.18278
2.54,0.16014
2.544,0.11378
2.548,0.05578
2.552,0.09247
2.556,0.13854
2.56,0.07031
2.564,0.06991
2.568,-0.01388
2.572,0.10076
2.576,0.0011
2.58,0.08307
2.584,0.08417
2.588,0.07055
2.592,0.02187
2.596,0.05713
2.6,0.02761
2.604,0.00713
2.608,-0.02604
2.612,0.00327
2.616,0.02556
2.62,0.0022
2.624,-0.05429
2.628,0.03998
2.632,0.02019
2.636,-0.02885
2.64,-0.04741
2.644,0.02099
2.648,0.00248
2.652,-0.02856
2.656,-0.00817
2.66,-0.02736
2.664,0.00935
2.668,-0.03508
2.672,-0.03261
2.676,-0.08374
2.68,-0.04254
2.684,-0.04316
2.688,0.04901
2.692,-0.00182
2.696,-0.05958
2.7,0.03304
2.704,0.009
2.708,0.01597
2.712,-0.08007
2.716,0.03924
2.72,-0.05601
2.724,-0.02666
2.728,-0.01986
2.732,-0.0075
2.736,0.00016
2.74,0.01678
2.744,0.02766
2.748,-0.03117
2.752,-0.00028
2.756,-0.0147
2.76,-0.03655
2.764,-0.02741
2.768,-0.04729
2.772,-0.03714
2.776,-0.01792
2.78,0.02233
2.784,0.0427
2.788,-0.01312
2.792,0.00637
2.796,-0.02717
2.8,-0.00777
2.804,-0.00089
2.808,0.01525
2.812,-0.03098
2.816,-0.09045
2.82,-0.03576
2.824,0.01649
2.828,0.00922
2.832,-0.09045
2.836,-0.0556
2.84,-0.05604
2.844,0.01374
2.848,0.02792
2.852,-0.0721
2.856,0.01396
2.86,0.0048
2.864,-0.05267
2.868,-0.02148
2.872,-0.02707
2.876,-0.05476
2.88,-0.03343
2.884,0.03526
2.888,-0.03385
2.892,0.0743
2.896,0.002
2.9,-0.00946
2.904,0.05303
2.908,0.04083
2.912,0.02621
2.916,0.05105
2.92,0.01348
2.924,0.01905
2.928,0.09216
2.932,0.09437
2.936,0.07141
2.94,0.07302
2.944,0.11627
2.948,0.09708
2.952,0.05308
2.956,0.05254
2.96,0.00738
2.964,0.01718
2.968,0.05115
2.972,-0.00265
2.976,-0.08716
2.98,-0.02567
2.984,-0.01161
2.988,0.03451
2.992,-0.03648
2.996,-0.058
3.0,-0.01008
3.004,-0.03481
3.008,-0.02216
3.012,0.03523
3.016,-0.04732
3.02,-0.04388
3.024,-0.02961
3.028,-0.00288
3.032,0.02367
3.036,-0.00914
3.04,-0.03843
3.044,0.00603
3.048,-0.02785
3.052,-0.07919
3.056,-0.04307
3.06,-0.12876
3.064,-0.11212
3.068,-0.09118
3.072,0.01637
3.076,0.1264
3.08,0.39506
3.084,0.59574
3.088,0.82525
3.092,0.96262
3.096,0.93706
3.1,0.93252
3.104,0.72196
3.108,0.47531
3.112,0.23609
3.116,0.08282
3.12,-0.10921
3.124,-0.13809
3.128,-0.20231
3.132,-0.18622
3.136,-0.17354
3.14,-0.05962
3.144,-0.02862
3.148,-0.02703
3.152,-0.04874
3.156,-0.11537
3.16,-0.01074
3.164,-0.00926
3.168,-0.05096
3.172,-0.02515
3.176,-0.03772
3.18,-0.01552
3.184,0.00776
3.188,-0.0658
3.192,-0.01933
3.196,-0.00152
3.2,-0.03813
3.204,0.06019
3.208,-0.05694
3.212,-0.04118
3.216,-0.03576
3.22,-0.04859
3.224,-0.04827
3.228,-0.02282
3.232,-0.00083
3.236,-0.05101
3.24,-0.05382
3.244,-0.05993
3.248,-0.01026
3.252,-0.02556
3.256,-0.11786
3.26,-0.05359
3.264,0.00603
3.268,0.01227
3.272,-0.06159
3.276,0.04074
3.28,-0.06568
3.284,0.06808
3.288,0.05607
3.292,0.04582
3.296,0.0702
3.3,0.08004
3.304,0.0888
3.308,0.08653
3.312,0.06079
3.316,0.11238
3.32,0.13888
3.324,0.23465
3.328,0.26273
3.332,0.17727
3.336,0.27061
3.34,0.28307
3.344,0.20468
3.348,0.22203
3.352,0.18429
3.356,0.27392
3.36,0.17212
3.364,0.26055
3.368,0.28506
3.372,0.19885
3.376,0.20723
3.38,0.17838
3.384,0.18012
3.388,0.18735
3.392,0.11823
3.396,0.16592
3.4,0.11159
3.404,0.13841
3.408,0.15415
3.412,0.15003
3.416,0.09111
3.42,0.04293
3.424,0.13584
3.428,-0.00554
3.432,0.10393
3.436,0.09147
3.44,0.05706
3.444,0.09322
3.448,0.08731
3.452,0.06417
3.456,0.01193
3.46,-0.02684
3.464,-0.10926
3.468,-0.12146
3.472,-0.17982
3.476,-0.00792
3.48,0.12579
3.484,0.28225
3.488,0.53587
3.492,0.76053
3.496,0.90603
3.5,0.97837
3.504,0.94718
3.508,0.86888
3.512,0.67073
3.516,0.4089
3.52,0.1507
3.524,-0.02806
3.528,-0.09717
3.532,-0.17445
3.536,-0.19055
3.54,-0.15378
3.544,-0.11724
3.548,-0.04724
3.552,-0.07134
3.556,-0.01305
3.56,-0.01647
3.564,-0.04292
3.568,-0.03317
3.572,-0.03114
3.576,-0.0769
3.58,0.00342
3.584,-0.05167
3.588,-0.07164
3.592,-0.04867
3.596,-0.02467
3.6,-0.08539
3.604,0.01277
3.608,-0.02868
3.612,-0.05784
3.616,-0.0815
3.62,-0.00991
3.624,-0.06495
3.628,0.02927
3.632,-0.05354
3.636,-0.01903
3.64,-0.03393
3.644,-0.03258
3.648,-0.01929
3.652,-0.02662
3.656,-0.0127
3.66,-0.0516
3.664,0.03064
3.668,0.04536
3.672,0.02641
3.676,0.00975
3.68,-0.01767
3.684,-0.03313
3.688,0.01312
3.692,0.03568
3.696,0.02305
3.7,-0.00763
3.704,-0.00942
3.708,-0.03171
3.712,-0.02199
3.716,0.1034
3.72,0.04739
3.724,0.08756
3.728,0.16538
3.732,0.09681
3.736,0.04802
3.74,0.08689
3.744,0.0971
3.748,0.14395
3.752,0.13982
3.756,0.14729
3.76,0.14434
3.764,0.20276
3.768,0.17003
3.772,0.1725
3.776,0.23621
3.78,0.14591
3.784,0.17524
3.788,0.17647
3.792,0.16907
3.796,0.13555
3.8,0.191
3.804,0.15829
3.808,0.16987
3.812,0.12151
3.816,0.13587
3.82,0.07856
3.824,0.13936
3.828,0.15867
3.832,0.12358
3.836,0.03735
3.84,0.01547
3.844,0.00841
3.848,0.04609
3.852,0.0103
3.856,-0.00209
3.86,-0.00695
3.864,-0.00014
3.868,-0.03351
3.872,0.02133
3.876,0.10487
3.88,-0.10581
3.884,0.04361
3.888,-0.02475
3.892,0.02037
3.896,-0.04077
3.9,-0.02158
3.904,-0.05422
3.908,-0.02147
3.912,-0.00943
3.916,-0.03275
3.92,-0.10471
3.924,-0.07591
3.928,-0.07148
3.932,-0.0035
3.936,-0.0338
3.94,-0.07966
3.944,0.03812
3.948,0.00742
3.952,-0.01578
3.956,0.05862
3.96,0.02409
3.964,0.08823
3.968,0.07961
3.972,0.03691
3.976,0.06876
3.98,-0.00552
3.984,0.09781
3.988,0.00494
3.992,0.07229
3.996,0.12467
4.0,-0.03496
4.004,0.00202
4.008,-0.03167
4.012,0.01539
4.016,-0.08583
4.02,0.00676
4.024,-0.08631
4.028,0.00039
4.032,-0.00322
4.036,-0.02193
4.04,-0.02332
4.044,-0.06582
4.048,-0.04706
4.052,-0.06493
4.056,-0.03115
4.06,-0.03722
4.064,-0.0608
4.068,-0.01641
4.072,0.01685
4.076,-0.09751
4.08,-0.02749
4.084,-0.08922
4.088,-0.01457
4.092,-0.09346
4.096,-0.07618
4.1,-0.13872
4.104,-0.08181
4.108,-0.20357
4.112,-0.14723
4.116,0.02961
4.12,0.19168
4.124,0.4018
4.128,0.54323
4.132,0.81056
4.136,0.99119
4.14,1.00842
4.144,0.88058
4.148,0.71648
4.152,0.48152
4.156,0.26844
4.16,-0.04916
4.164,-0.12624
4.168,-0.20093
4.172,-0.20495
4.176,-0.12308
4.18,-0.12674
4.184,-0.13059
4.188,-0.02803
4.192,-0.04742
4.196,-0.02013
4.2,-0.03376
4.204,-0.02542
4.208,-0.04349
4.212,-0.02099
4.216,0.0067
4.22,-0.03589
4.224,-0.07674
4.228,-0.04927
4.232,0.01601
4.236,-0.04665
4.24,-0.05239
4.244,-0.01956
4.248,0.00616
4.252,0.02514
4.256,-0.03106
4.26,-0.02973
4.264,-0.00262
4.268,0.01993
4.272,-0.00356
4.276,-0.02057
4.28,-0.09602
4.284,-0.09127
4.288,-0.08801
4.292,-0.0511
4.296,-0.05784
4.3,0.00834
4.304,-0.04722
4.308,-0.05854
4.312,0.04584
4.316,0.03935
4.32,0.01232
4.324,-0.02797
4.328,0.07239
4.332,-0.03142
4.336,-0.05731
4.34,0.00083
4.344,0.02056
4.348,0.0523
4.352,0.01752
4.356,0.11233
4.36,0.0096
4.364,0.09769
4.368,0.06415
4.372,0.10018
4.376,0.0996
4.38,0.13953
4.384,0.13849
4.388,0.19727
4.392,0.17666
4.396,0.1801
4.4,0.19993
4.404,0.12343
4.408,0.16713
4.412,0.12
4.416,0.17489
4.42,0.19553
4.424,0.13024
4.428,0.23344
4.432,0.13036
4.436,0.21578
4.44,0.11469
4.444,0.1857
4.448,0.12831
4.452,0.17588
4.456,0.12579
4.46,0.13677
4.464,0.08776
4.468,0.12772
4.472,0.09559
4.476,0.09314
4.48,0.0859
4.484,0.08925
4.488,0.0267
4.492,-0.01943
4.496,-0.00393
4.5,0.04436
4.504,0.0283
4.508,0.00891
4.512,-0.02954
4.516,0.07166
4.52,-0.04417
4.524,-0.02868
4.528,-0.05425
4.532,0.01011
4.536,-0.03329
4.54,-0.03105
4.544,-0.0063
4.548,0.03139
4.552,0.04291
4.556,-0.08515
4.56,-0.00935
4.564,0.00196
4.568,-0.04441
4.572,0.03767
4.576,0.05432
4.58,0.08593
4.584,0.07928
4.588,0.14511
4.592,0.15841
4.596,0.16018
4.6,0.09798
4.604,0.07417
4.608,0.08193
4.612,0.08265
4.616,0.03474
4.62,0.01058
4.624,0.02784
4.628,0.03005
4.632,-0.02767
4.636,-0.00942
4.64,0.0166
4.644,0.0158
4.648,0.00064
4.652,0.01478
4.656,0.00339
4.66,-0.02433
4.664,-0.07743
4.668,0.00432
4.672,0.07054
4.676,-0.06604
4.68,-0.04392
4.684,-0.02117
4.688,-0.06631
4.692,-0.04064
4.696,-0.02973
4.7,-0.03912
4.704,0.00749
4.708,0.0212
4.712,-0.03451
4.716,-0.0044
4.72,-0.05154
4.724,-0.09397
4.728,-0.19763
4.732,-0.12511
4.736,-0.01105
4.74,0.13066
4.744,0.3657
4.748,0.52877
4.752,0.76842
4.756,0.92584
4.76,1.02315
4.764,0.99997
4.768,0.79021
4.772,0.58996
4.776,0.3517
4.78,0.18659
4.784,-0.01164
4.788,-0.12291
4.792,-0.18659
4.796,-0.18574
4.8,-0.13741
4.804,-0.09984
4.808,0.01216
4.812,-0.03975
4.816,-0.03201
4.82,-0.03171
4.824,-0.02508
4.828,-0.08792
4.832,0.00618
4.836,-0.08702
4.84,-0.02393
4.844,-0.04446
4.848,-0.03556
4.852,-0.04263
4.856,-0.00985
4.86,0.00863
4.864,0.01198
4.868,0.0
4.872,0.02913
4.876,0.00137
4.88,0.00529
4.884,-0.10689
4.888,-0.04249
4.892,-0.07101
4.896,-0.05245
4.9,0.03203
4.904,-0.01565
4.908,0.00279
4.912,-0.0628
4.916,-0.00287
4.92,-0.0267
4.924,0.03226
4.928,0.01798
4.932,0.02569
4.936,-0.00641
4.94,0.03449
4.944,0.01839
4.948,-0.0148
4.952,-0.02098
4.956,0.06606
4.96,0.02152
4.964,0.07231
4.968,0.11608
4.972,0.13809
4.976,0.12041
4.98,0.064
4.984,0.0595
4.988,0.07858
4.992,0.10607
4.996,0.11495
5.0,0.14169
5.004,0.28
5.008,0.24129
5.012,0.26659
5.016,0.27395
5.02,0.18372
5.024,0.29501
5.028,0.30365
5.032,0.28634
5.036,0.28514
5.04,0.30126
5.044,0.33004
5.048,0.27911
5.052,0.29565
5.056,0.20364
5.06,0.23405
5.064,0.18153
5.068,0.18888
5.072,0.18394
5.076,0.14731
5.08,0.17818
5.084,0.1222
5.088,0.09004
5.092,0.06627
5.096,0.08019
5.1,0.08146
5.104,0.04588
5.108,-0.04227
5.112,-0.01249
5.116,0.01967
5.12,0.03109
5.124,0.03421
5.128,-0.00656
5.132,0.03804
5.136,0.02151
5.14,-0.07086
5.144,-0.08642
5.148,-0.10874
5.152,-0.1202
5.156,-0.05204
5.16,0.05768
5.164,0.15243
5.168,0.39062
5.172,0.61342
5.176,0.76905
5.18,0.98162
5.184,1.00837
5.188,0.93259
5.192,0.75833
5.196,0.59458
5.2,0.31748
5.204,0.1163
5.208,-0.04835
5.212,-0.1372
5.216,-0.14393
5.22,-0.11568
5.224,-0.11756
5.228,-0.07415
5.232,-0.03263
5.236,0.01335
5.24,-0.00943
5.244,-0.00165
5.248,0.02295
5.252,-0.01825
5.256,-0.04222
5.26,-0.07237
5.264,0.04194
5.268,-0.01466
5.272,-0.06645
5.276,-0.02979
5.28,0.02398
5.284,-0.01829
5.288,0.04064
5.292,0.05727
5.296,0.01354
5.3,-0.03119
5.304,-0.02417
5.308,-0.08695
5.312,-0.03554
5.316,-0.046
5.32,0.00889
5.324,-0.09302
5.328,0.03796
5.332,0.00575
5.336,0.01268
5.34,-0.04924
5.344,0.02915
5.348,-0.00741
5.352,-0.01644
5.356,-0.0033
5.36,0.0064
5.364,-0.03714
5.368,-0.00874
5.372,0.02885
5.376,0.03936
5.38,0.03449
5.384,0.00722
5.388,0.08967
5.392,0.07488
5.396,0.11116
5.4,0.09057
5.404,0.07927
5.408,0.11811
5.412,0.06135
5.416,0.1167
5.42,0.08574
5.424,0.11287
5.428,0.14711
5.432,0.17234
5.436,0.19909
5.44,0.13588
5.444,0.20307
5.448,0.23313
5.452,0.21173
5.456,0.21929
5.46,0.19806
5.464,0.29465
5.468,0.25548
5.472,0.20573
5.476,0.23773
5.48,0.14174
5.484,0.24462
5.488,0.14293
5.492,0.21336
5.496,0.13694
5.5,0.16215
5.504,0.15133
5.508,0.12993
5.512,0.05967
5.516,0.10561
5.52,0.10272
5.524,0.05826
5.528,0.08348
5.532,0.05633
5.536,0.10994
5.54,0.06641
5.544,0.02906
5.548,0.1073
5.552,0.05764
5.556,-0.00131
5.56,0.02767
5.564,-0.00637
5.568,0.00564
5.572,0.00831
5.576,0.03675
5.58,-0.00647
5.584,-0.06202
5.588,0.00532
5.592,0.03139
5.596,0.08064
5.6,0.05054
5.604,-0.074
5.608,-0.00504
5.612,0.1243
5.616,0.01001
5.62,0.03356
5.624,0.0592
5.628,0.12865
5.632,0.07527
5.636,0.10053
5.64,0.05243
5.644,0.14693
5.648,0.11897
5.652,0.11217
5.656,0.09206
5.66,0.04406
5.664,0.07337
5.668,0.07163
5.672,0.03947
5.676,0.09039
5.68,0.01598
5.684,-0.00482
5.688,0.00054
5.692,0.04254
5.696,0.01274
5.7,0.01435
5.704,-0.03981
5.708,0.04425
5.712,0.01931
5.716,0.05925
5.72,0.01101
5.724,0.03526
5.728,0.00047
5.732,0.02093
5.736,0.0152
5.74,0.06295
5.744,0.00492
5.748,0.00181
5.752,-0.01618
5.756,-0.0129
5.76,0.01254
5.764,-0.08455
5.768,-0.13423
5.772,-0.12334
5.776,-0.01808
5.78,0.0342
5.784,0.20101
5.788,0.51404
5.792,0.62417
5.796,0.88446
5.8,0.99195
5.804,0.961
5.808,0.8811
5.812,0.71517
5.816,0.48176
5.82,0.3522
5.824,0.05097
5.828,-0.0799
5.832,-0.11943
5.836,-0.06053
5.84,-0.09488
5.844,-0.06367
5.848,-0.04608
5.852,0.02809
5.856,-0.03955
5.86,-0.00097
5.864,0.07309
5.868,-0.05413
5.872,-0.00166
5.876,-0.02562
5.88,0.00793
5.884,-0.04289
5.888,-0.0137
5.892,-0.01188
5.896,0.01861
5.9,-0.03997
5.904,0.03171
5.908,-0.01694
5.912,0.05978
5.916,0.00223
5.92,0.01185
5.924,-0.00861
5.928,-0.03233
5.932,0.00324
5.936,0.0436
5.94,0.03945
5.944,0.01821
5.948,0.10043
5.952,0.07509
5.956,0.12281
5.96,0.14526
5.964,0.13434
5.968,0.12024
5.972,0.07796
5.976,0.06767
5.98,0.13857
5.984,0.09378
5.988,0.07137
5.992,0.12313
5.996,0.11871
6.0,0.0532
6.004,0.07252
6.008,0.13498
6.012,0.12323
6.016,0.05648
6.02,0.10683
6.024,0.14593
6.028,0.12831
6.032,0.15677
6.036,0.09808
6.04,0.208
6.044,0.13386
6.048,0.19498
6.052,0.1751
6.056,0.19462
6.06,0.20167
6.064,0.19592
6.068,0.30652
6.072,0.23069
6.076,0.20449
6.08,0.21727
6.084,0.21367
6.088,0.18575
6.092,0.09746
6.096,0.10831
6.1,0.14372
6.104,0.28475
6.108,0.43056
6.112,0.51582
6.116,0.77228
6.12,0.95541
6.124,1.09404
6.128,1.16638
6.132,1.1087
6.136,0.95724
6.14,0.72568
6.144,0.44371
6.148,0.22676
6.152,0.0492
6.156,-0.03505
6.16,-0.08674
6.164,-0.13482
6.168,-0.09077
6.172,-0.02955
6.176,0.04519
6.18,0.07819
6.184,0.05714
6.188,0.04738
6.192,0.04941
6.196,0.00244
6.2,0.06867
6.204,0.0045
6.208,0.02544
6.212,0.02055
6.216,-0.01397
6.22,0.02769
6.224,-0.02364
6.228,-0.00246
6.232,0.01655
6.236,0.04197
6.24,0.04033
6.244,0.02084
6.248,0.04192
6.252,0.01092
6.256,0.05082
6.26,0.04563
6.264,0.02177
6.268,0.0917
6.272,0.00488
6.276,0.03815
6.28,0.0174
6.284,0.0131
6.288,0.01824
6.292,0.01391
6.296,0.06172
6.3,0.04396
6.304,0.04308
6.308,0.04248
6.312,0.06369
6.316,0.03866
6.32,0.11002
6.324,0.05865
6.328,0.13174
6.332,0.07922
6.336,0.10981
6.34,0.08818
6.344,0.11734
6.348,0.12539
6.352,0.1791
6.356,0.14199
6.36,0.15388
6.364,0.1702
6.368,0.14711
6.372,0.20454
6.376,0.17917
6.38,0.22439
6.384,0.16178
6.388,0.22368
6.392,0.21108
6.396,0.22765
6.4,0.2852
6.404,0.30511
6.408,0.25535
6.412,0.23352
6.416,0.24287
6.42,0.26184
6.424,0.2256
6.428,0.23974
6.432,0.16615
6.436,0.24864
6.44,0.20165
6.444,0.13776
6.448,0.17087
6.452,0.16681
6.456,0.1756
6.46,0.1252
6.464,0.11398
6.468,0.1722
6.472,0.10645
6.476,0.04607
6.48,0.07809
6.484,0.09648
6.488,0.0718
6.492,0.08145
6.496,0.03262
6.5,-0.01652
6.504,0.03764
6.508,0.1151
6.512,0.06984
6.516,0.00576
6.52,0.00908
6.524,-0.00819
6.528,-0.00271
6.532,0.02723
6.536,0.02969
6.54,-0.02851
6.544,-0.00023
6.548,-0.0147
6.552,-0.04485
6.556,0.05558
6.56,0.04334
6.564,0.05719
6.568,0.04986
6.572,-0.01901
6.576,0.0195
6.58,0.05109
6.584,0.04353
6.588,-0.05192
6.592,0.10078
6.596,0.00863
6.6,0.0156
6.604,0.01373
6.608,-0.01145
6.612,0.01085
6.616,0.02142
6.62,0.06309
6.624,0.02339
6.628,0.01837
6.632,0.01842
6.636,0.04733
6.64,0.02975
6.644,0.09556
6.648,-0.05233
6.652,0.04873
6.656,0.00658
6.66,0.08754
6.664,0.11307
6.668,0.09313
6.672,0.09116
6.676,0.1561
6.68,0.12877
6.684,0.15722
6.688,0.1017
6.692,0.17163
6.696,0.06922
6.7,0.15537
6.704,0.06654
6.708,0.12927
6.712,0.03614
6.716,0.01537
6.72,0.0175
6.724,0.01926
6.728,-0.00493
6.732,0.08811
6.736,0.03229
6.74,0.05828
6.744,0.03325
6.748,0.0745
6.752,0.01059
6.756,0.00962
6.76,0.05476
6.764,-0.00289
6.768,-0.00366
6.772,-0.01567
6.776,0.07455
6.78,0.0198
6.784,0.07436
6.788,0.12143
6.792,0.03925
6.796,0.01516
6.8,-0.03316
6.804,-0.03255
6.808,-0.08958
6.812,-0.12848
6.816,-0.05947
6.82,-0.09225
6.824,0.13322
6.828,0.26499
6.832,0.5022
6.836,0.6918
6.84,0.85426
6.844,1.03261
6.848,1.07113
6.852,0.89751
6.856,0.75911
6.86,0.58149
6.864,0.34272
6.868,0.12153
6.872,-0.01734
6.876,-0.14506
6.88,-0.14393
6.884,-0.12716
6.888,-0.13632
6.892,-0.02473
6.896,0.01193
6.9,0.02906
6.904,0.02682
6.908,-0.02016
6.912,0.02496
6.916,0.02443
6.92,0.0254
6.924,-0.00657
6.928,0.00309
6.932,0.0045
6.936,0.05797
6.94,0.02397
6.944,0.07098
6.948,0.045
6.952,0.07431
6.956,0.04079
6.96,0.04524
6.964,0.02878
6.968,-0.04793
6.972,0.0523
6.976,0.03517
6.98,-0.01805
6.984,0.0768
6.988,0.02967
6.992,0.03211
6.996,-0.01788
7.0,-0.03608
7.004,0.08208
7.008,0.01569
7.012,0.01924
7.016,0.0246
7.02,0.07823
7.024,0.04709
7.028,0.07595
7.032,0.08181
7.036,-0.00217
7.04,-0.04094
7.044,0.11025
7.048,0.0919
7.052,0.10372
7.056,0.09831
7.06,0.12847
7.064,0.09849
7.068,0.16594
7.072,0.07922
7.076,0.20641
7.08,0.1372
7.084,0.1136
7.088,0.22834
7.092,0.23236
7.096,0.20913
7.1,0.23295
7.104,0.22645
7.108,0.21909
7.112,0.24822
7.116,0.31237
7.12,0.19886
7.124,0.19928
7.128,0.28166
7.132,0.21447
7.136,0.28964
7.14,0.24898
7.144,0.21199
7.148,0.21592
7.152,0.23855
7.156,0.19138
7.16,0.21184
7.164,0.17621
7.168,0.12166
7.172,0.21562
7.176,0.13193
7.18,0.11193
7.184,0.11185
7.188,0.06891
7.192,0.07087
7.196,0.05876
7.2,0.09847
7.204,0.06411
7.208,0.07066
7.212,0.11483
7.216,0.12728
7.22,0.02491
7.224,0.09685
7.228,0.04023
7.232,0.08895
7.236,0.01619
7.24,0.02454
7.244,-0.01396
7.248,0.06988
7.252,0.04837
7.256,-0.0077
7.26,0.05152
7.264,0.05052
7.268,0.06976
7.272,-0.03275
7.276,0.00297
7.28,0.02559
7.284,0.05475
7.288,0.02115
7.292,0.09017
7.296,0.08644
7.3,0.03395
7.304,0.0284
7.308,-0.00909
7.312,0.0776
7.316,0.0073
7.32,0.02613
7.324,-0.01419
7.328,0.05755
7.332,0.06369
7.336,-0.044
7.34,0.01763
7.344,0.01203
7.348,0.03913
7.352,-0.02242
7.356,0.03996
7.36,0.13869
7.364,0.09392
7.368,0.02816
7.372,-0.0147
7.376,0.01011
7.38,0.00481
7.384,0.00503
7.388,0.09396
7.392,0.07356
7.396,0.02963
7.4,0.0008
7.404,-0.01803
7.408,0.0264
7.412,0.01565
7.416,0.00338
7.42,0.08612
7.424,0.12568
7.428,-0.01152
7.432,-0.03198
7.436,0.00654
7.44,0.03169
7.444,0.03587
7.448,0.02629
7.452,0.05596
7.456,-0.00802
7.46,0.03354
7.464,0.08455
7.468,0.11398
7.472,0.13339
7.476,0.12085
7.48,0.21268
7.484,0.19138
7.488,0.13379
7.492,0.17884
7.496,0.09967
7.5,0.06789
7.504,0.13406
7.508,0.12778
7.512,0.0978
7.516,0.05345
7.52,0.09162
7.524,0.04662
7.528,0.02056
7.532,0.01168
7.536,0.01963
7.54,0.07695
7.544,-0.03106
7.548,0.00485
7.552,0.03507
7.556,-0.01068
7.56,0.03068
7.564,0.03968
7.568,0.00701
7.572,0.00118
7.576,0.03727
7.58,0.04057
7.584,0.04009
7.588,0.03273
7.592,0.08802
7.596,0.02021
7.6,0.02824
7.604,-0.04431
7.608,-0.0181
7.612,-0.00162
7.616,-0.11282
7.62,-0.07488
7.624,-0.05495
7.628,0.08604
7.632,0.32061
7.636,0.50215
7.64,0.75231
7.644,0.91944
7.648,0.96227
7.652,1.02814
7.656,0.91293
7.66,0.71407
7.664,0.46418
7.668,0.21184
7.672,0.06304
7.676,-0.06582
7.68,-0.13722
7.684,-0.15405
7.688,-0.05058
7.692,-0.04172
7.696,-0.0586
7.7,-0.001
7.704,0.05717
7.708,0.0309
7.712,0.0512
7.716,0.13183
7.72,0.05307
7.724,-0.00033
7.728,0.01906
7.732,0.05824
7.736,-0.00722
7.74,0.02487
7.744,-0.03621
7.748,0.03344
7.752,0.08518
7.756,0.01702
7.76,-0.04439
7.764,0.00911
7.768,0.0698
7.772,0.00525
7.776,-0.02091
7.78,0.02822
7.784,0.04029
7.788,0.0584
7.792,-0.01125
7.796,0.01031
7.8,0.02455
7.804,0.01091
7.808,0.05691
7.812,0.00213
7.816,-0.03719
7.82,0.03157
7.824,0.0568
7.828,0.09374
7.832,0.04053
7.836,0.06582
7.84,0.0756
7.844,0.04053
7.848,0.12591
7.852,0.09705
7.856,0.07784
7.86,0.12919
7.864,0.13635
7.868,0.06383
7.872,0.15105
7.876,0.19271
7.88,0.08739
7.884,0.12551
7.888,0.24429
7.892,0.17571
7.896,0.23266
7.9,0.21822
7.904,0.1979
7.908,0.21798
7.912,0.25403
7.916,0.28213
7.92,0.26517
7.924,0.27388
7.928,0.24685
7.932,0.22219
7.936,0.31101
7.94,0.16292
7.944,0.22221
7.948,0.20652
7.952,0.21191
7.956,0.19059
7.96,0.16968
7.964,0.17731
7.968,0.16024
7.972,0.1814
7.976,0.17698
7.98,0.12543
7.984,0.11339
7.988,0.13277
7.992,0.04309
7.996,0.03108
8.0,0.13416
8.004,0.01582
8.008,0.11116
8.012,0.10388
8.016,0.02448
8.02,0.0689
8.024,0.02661
8.028,0.04856
8.032,0.05097
8.036,0.0248
8.04,0.00408
8.044,0.04257
8.048,0.04894
8.052,-0.01008
8.056,0.01364
8.06,-0.02204
8.064,0.09921
8.068,0.06421
8.072,0.05527
8.076,0.04135
8.08,0.01804
8.084,0.03207
8.088,0.0065
8.092,0.01313
8.096,0.03099
8.1,-0.012
8.104,-0.02764
8.108,-0.02238
8.112,0.01244
8.116,0.02169
8.12,0.00901
8.124,0.00507
8.128,-0.02026
8.132,0.05645
8.136,0.05986
8.14,-0.01127
8.144,0.0279
8.148,-0.01319
8.152,-0.00037
8.156,0.05601
8.16,0.03895
8.164,0.03543
8.168,0.02488
8.172,0.05577
8.176,-0.02873
8.18,-0.0017
8.184,0.03782
8.188,0.0724
8.192,0.05541
8.196,0.03232
8.2,0.0576
8.204,0.12548
8.208,0.07955
8.212,0.14868
8.216,0.09405
8.22,0.1437
8.224,0.10258
8.228,0.17943
8.232,0.0918
8.236,0.11782
8.24,0.07964
8.244,0.05497
8.248,0.05264
8.252,0.11545
8.256,-0.00027
8.26,0.10644
8.264,0.04143
8.268,0.05713
8.272,0.05488
8.276,0.02554
8.28,-0.00336
8.284,0.02744
8.288,-0.02467
8.292,0.01107
8.296,0.046
8.3,-0.0141
8.304,0.00886
8.308,-0.02333
8.312,0.00727
8.316,0.04892
8.32,0.03287
8.324,-0.04073
8.328,0.0053
8.332,-0.02471
8.336,-0.03888
8.34,0.00762
8.344,-0.05912
8.348,-0.05713
8.352,-0.06814
8.356,-0.05477
8.36,0.0776
8.364,0.17966
8.368,0.39814
8.372,0.60792
8.376,0.82266
8.38,0.99924
8.384,1.04668
8.388,0.95818
8.392,0.81355
8.396,0.57891
8.4,0.41575
8.404,0.09789
8.408,0.02723
8.412,-0.08814
8.416,-0.11272
8.42,-0.20629
8.424,-0.10281
8.428,-0.09713
8.432,0.0156
8.436,0.02984
8.44,0.01981
8.444,0.02377
8.448,0.01353
8.452,-0.02307
8.456,0.02837
8.46,0.00647
8.464,0.03512
8.468,0.02439
8.472,0.02619
8.476,0.01302
8.48,0.08452
8.484,0.02361
8.488,-0.02307
8.492,0.01062
8.496,0.05495
8.5,-0.016
8.504,0.02276
8.508,0.07187
8.512,0.00912
8.516,0.024
8.52,-0.01051
8.524,0.01924
8.528,0.0986
8.532,0.03116
8.536,-0.00076
8.54,-0.02658
8.544,0.00891
8.548,0.08265
8.552,0.03018
8.556,-0.0222
8.56,0.03721
8.564,0.05591
8.568,0.02588
8.572,0.05659
8.576,-0.00774
8.58,0.06365
8.584,0.02631
8.588,0.0098
8.592,0.00235
8.596,0.09915
8.6,0.11871
8.604,0.0509
8.608,0.14735
8.612,0.13878
8.616,0.18593
8.62,0.1969
8.624,0.15395
8.628,0.20597
8.632,0.13477
8.636,0.1805
8.64,0.21436
8.644,0.23546
8.648,0.20096
8.652,0.19116
8.656,0.25572
8.66,0.23466
8.664,0.23716
8.668,0.21293
8.672,0.22859
8.676,0.27685
8.68,0.20586
8.684,0.24657
8.688,0.20132
8.692,0.20366
8.696,0.25024
8.7,0.18449
8.704,0.15933
8.708,0.15368
8.712,0.14462
8.716,0.16692
8.72,0.08715
8.724,0.1578
8.728,0.07998
8.732,0.09904
8.736,0.14442
8.74,0.12364
8.744,0.10884
8.748,0.10982
8.752,0.16904
8.756,0.14086
8.76,0.03448
8.764,0.10595
8.768,0.10446
8.772,0.06786
8.776,0.10168
8.78,-0.03752
8.784,0.02359
8.788,0.01357
8.792,0.05262
8.796,0.04069
8.8,0.05575
8.804,-0.04619
8.808,0.03513
8.812,0.0487
8.816,0.02827
8.82,-0.00287
8.824,-0.0331
8.828,-0.08985
8.832,0.03684
8.836,-0.04227
8.84,-0.02151
8.844,-0.0806
8.848,-0.08469
8.852,-0.01416
8.856,-0.01279
8.86,-0.06611
8.864,0.02803
8.868,-0.04384
8.872,0.06246
8.876,-0.08135
8.88,-0.06225
8.884,-0.12223
8.888,-0.09739
8.892,-0.11907
8.896,-0.00152
8.9,0.19377
8.904,0.38465
8.908,0.58649
8.912,0.75306
8.916,0.92535
8.92,1.0514
8.924,0.95488
8.928,0.81204
8.932,0.63178
8.936,0.34438
8.94,0.10571
8.944,-0.0148
8.948,-0.11035
8.952,-0.1975
8.956,-0.18291
8.96,-0.11465
8.964,-0.09176
8.968,-0.01593
8.972,0.0068
8.976,0.0004
8.98,0.04187
8.984,0.00062
8.988,0.05034
8.992,-0.00509
8.996,-0.03619
9.0,0.01507
9.004,-0.06384
9.008,-0.00537
9.012,0.05511
9.016,0.00167
9.02,0.00805
9.024,0.00689
9.028,-0.00582
9.032,-0.03392
9.036,-0.01516
9.04,0.02487
9.044,-0.01715
9.048,-0.00873
9.052,-0.00882
9.056,0.00847
9.06,0.00938
9.064,-0.00776
9.068,-0.01857
9.072,0.00821
9.076,0.03121
9.08,0.04263
9.084,0.00565
9.088,0.00873
9.092,0.0113
9.096,-0.04474
9.1,-0.02369
9.104,0.0136
9.108,0.02237
9.112,-0.01549
9.116,-0.01403
9.12,0.05916
9.124,0.01973
9.128,0.06383
9.132,0.06965
9.136,0.02169
9.14,0.10707
9.144,0.11908
9.148,0.07095
9.152,0.04805
9.156,0.0821
9.16,0.1638
9.164,0.18927
9.168,0.19506
9.172,0.15789
9.176,0.12032
9.18,0.16441
9.184,0.15109
9.188,0.18611
9.192,0.22049
9.196,0.2208
9.2,0.13731
9.204,0.25488
9.208,0.22159
9.212,0.16189
9.216,0.17926
9.22,0.21242
9.224,0.14933
9.228,0.16737
9.232,0.14509
9.236,0.20416
9.24,0.0361
9.244,0.12145
9.248,0.16477
9.252,0.16089
9.256,0.0516
9.26,0.14665
9.264,0.13053
9.268,0.11126
9.272,0.13531
9.276,0.13374
9.28,0.1338
9.284,0.03888
9.288,0.14604
9.292,0.01645
9.296,0.14258
9.3,0.14763
9.304,0.10128
9.308,0.09404
9.312,0.05631
9.316,0.07116
9.32,-0.01525
9.324,0.07454
9.328,0.01904
9.332,0.11079
9.336,0.02146
9.34,0.02272
9.344,-0.02334
9.348,0.06153
9.352,0.05388
9.356,-0.02904
9.36,-0.10133
9.364,0.02382
9.368,0.0315
9.372,-0.00639
9.376,-0.0393
9.38,-0.01176
9.384,-0.08267
9.388,0.01174
9.392,-0.08945
9.396,-0.03803
9.4,-0.07243
9.404,-0.06892
9.408,0.03098
9.412,-0.05667
9.416,-0.04577
9.42,-0.00246
9.424,-0.10175
9.428,-0.12604
9.432,-0.07813
9.436,-0.03798
9.44,0.07451
9.444,0.30477
9.448,0.46257
9.452,0.69902
9.456,0.89281
9.46,0.99012
9.464,0.97987
9.468,0.89534
9.472,0.65534
9.476,0.35413
9.48,0.22107
9.484,0.11164
9.488,-0.05683
9.492,-0.09283
9.496,-0.17479
9.5,-0.2249
9.504,-0.10051
9.508,-0.117
9.512,0.01233
9.516,-0.02913
9.52,-0.06841
9.524,-0.04451
9.528,0.01345
9.532,-0.02294
9.536,0.00093
9.54,-0.02092
9.544,-0.02488
9.548,-0.03836
9.552,-0.01678
9.556,-0.01188
9.56,-0.00227
9.564,-0.05633
9.568,0.05701
9.572,-0.05108
9.576,0.01479
9.58,-0.00682
9.584,0.00796
9.588,-0.05405
9.592,-0.04909
9.596,-0.01745
9.6,0.0014
9.604,0.00077
9.608,-0.00352
9.612,-0.09593
9.616,-0.01338
9.62,-0.00226
9.624,0.04366
9.628,-0.00602
9.632,-0.04263
9.636,0.01973
9.64,0.02014
9.644,0.03354
9.648,-0.03283
9.652,0.00579
9.656,0.03332
9.66,0.07799
9.664,0.04399
9.668,0.0642
9.672,0.05609
9.676,0.12341
9.68,0.07888
9.684,0.0949
9.688,0.13777
9.692,0.06922
9.696,0.12068
9.7,0.15597
9.704,0.17251
9.708,0.1744
9.712,0.15926
9.716,0.15116
9.72,0.21701
9.724,0.17221
9.728,0.17029
9.732,0.20554
9.736,0.21871
9.74,0.18465
9.744,0.25141
9.748,0.20142
9.752,0.186
9.756,0.19104
9.76,0.20789
9.764,0.16316
9.768,0.17369
9.772,0.13119
9.776,0.06383
9.78,0.1299
9.784,0.06447
9.788,0.06461
9.792,0.10565
9.796,0.09796
9.8,0.06104
9.804,0.06382
9.808,0.01751
9.812,0.05727
9.816,-0.02225
9.82,0.04456
9.824,0.02381
9.828,0.04784
9.832,-0.0058
9.836,-0.03373
9.84,-0.01244
9.844,0.01921
9.848,-0.01839
9.852,0.01592
9.856,-0.00236
9.86,0.04644
9.864,-0.06118
9.868,0.04437
9.872,0.01307
9.876,-0.0952
9.88,0.02582
9.884,0.00694
9.888,-0.00684
9.892,-0.00329
9.896,-0.01629
9.9,0.00324
9.904,-0.04989
9.908,-0.02576
9.912,0.00453
9.916,-0.00422
9.92,-0.02298
9.924,-0.07522
9.928,-0.0138
9.932,-0.00843
9.936,-0.00481
9.94,-0.05969
9.944,-0.07459
9.948,-0.09312
9.952,-0.04164
9.956,-0.02464
9.96,-0.02222
9.964,-0.01244
9.968,-0.03237
9.972,0.02767
9.976,-0.03885
9.98,0.00627
9.984,-0.0065
9.988,-0.11343
9.992,-0.03037
9.996,-0.05221
