t_seg,ecg_mV
0.0,-0.02452
0.004,0.01511
0.008,0.04009
0.012,-0.05544
0.016,-0.03113
0.02,-0.01785
0.024,0.00682
0.028,-0.08521
0.032,-0.01687
0.036,-0.01717
0.04,0.00315
0.044,-0.00878
0.048,-0.03401
0.052,-0.03809
0.056,0.02423
0.06,-0.03452
0.064,-0.04577
0.068,0.03983
0.072,0.0133
0.076,0.02108
0.08,0.00804
0.084,-0.02012
0.088,0.00947
0.092,-0.04273
0.096,-0.03144
0.1,-0.01517
0.104,0.03221
0.108,0.04718
0.112,0.0139
0.116,0.04108
0.12,-0.04225
0.124,0.06972
0.128,0.01886
0.132,0.04949
0.136,0.0354
0.14,0.01364
0.144,0.10716
0.148,0.07786
0.152,0.13467
0.156,0.14541
0.16,0.13845
0.164,0.03431
0.168,0.06922
0.172,0.03222
0.176,0.03267
0.18,0.08701
0.184,-0.04221
0.188,0.03786
0.192,0.01322
0.196,0.00338
0.2,0.01564
0.204,0.02403
0.208,0.00758
0.212,-0.06112
0.216,-0.07005
0.22,-0.02237
0.224,0.01037
0.228,-0.02508
0.232,0.02859
0.236,-0.00858
0.24,-0.04632
0.244,0.06343
0.248,-0.04798
0.252,-0.05139
0.256,0.0035
0.26,-0.0468
0.264,-0.01729
0.268,-0.04712
0.272,-0.0415
0.276,-0.1358
0.28,-0.11549
0.284,-0.04545
0.288,0.07201
0.292,0.16904
0.296,0.45379
0.3,0.54742
0.304,0.77111
0.308,0.94289
0.312,1.06382
0.316,0.89171
0.32,0.76911
0.324,0.52125
0.328,0.30778
0.332,0.08001
0.336,-0.07321
0.34,-0.14947
0.344,-0.21869
0.348,-0.22073
0.352,-0.14533
0.356,-0.04425
0.36,0.00527
0.364,-0.07758
0.368,-0.06543
0.372,-0.03964
0.376,-0.0264
0.38,0.02141
0.384,-0.05139
0.388,-0.04271
0.392,-0.01083
0.396,-0.03724
0.4,-0.04066
0.404,-0.02866
0.408,-0.01989
0.412,0.01248
0.416,-0.06421
0.42,-0.00855
0.424,0.01454
0.428,0.04023
0.432,-0.00167
0.436,-0.00776
0.44,-0.03684
0.444,-0.01833
0.448,-0.00259
0.452,0.02952
0.456,0.06011
0.46,0.03458
0.464,0.07164
0.468,0.05013
0.472,0.08255
0.476,0.07304
0.48,0.16003
0.484,0.17783
0.488,0.13744
0.492,0.10836
0.496,0.07106
0.5,0.10605
0.504,0.05701
0.508,0.03376
0.512,0.04494
0.516,-0.00257
0.52,0.03146
0.524,0.08162
0.528,0.06637
0.532,0.06374
0.536,0.1286
0.54,0.14313
0.544,0.08327
0.548,0.10984
0.552,0.15195
0.556,0.15912
0.56,0.16876
0.564,0.13574
0.568,0.26373
0.572,0.20921
0.576,0.15177
0.58,0.29868
0.584,0.21655
0.588,0.20299
0.592,0.15485
0.596,0.18481
0.6,0.05172
0.604,0.07373
0.608,0.12437
0.612,0.31954
0.616,0.45528
0.62,0.59747
0.624,0.84209
0.628,0.94619
0.632,1.10758
0.636,1.13942
0.64,0.98158
0.644,0.82585
0.648,0.55642
0.652,0.35485
0.656,0.17049
0.66,0.01532
0.664,-0.09779
0.668,-0.12478
0.672,-0.15946
0.676,-0.11291
0.68,-0.06204
0.684,-0.05404
0.688,-0.05494
0.692,-0.00061
0.696,-0.03254
0.7,-0.08043
0.704,-0.00629
0.708,-0.01311
0.712,0.03816
0.716,0.00095
0.72,0.08586
0.724,-0.00614
0.728,0.03059
0.732,0.10639
0.736,0.03269
0.74,0.06427
0.744,0.04239
0.748,0.05228
0.752,0.10411
0.756,0.02171
0.76,0.02115
0.764,-0.00423
0.768,0.0071
0.772,-0.01643
0.776,0.08397
0.78,0.01613
0.784,-0.04984
0.788,-0.02011
0.792,0.07553
0.796,0.01076
0.8,-0.00788
0.804,-0.03636
0.808,-0.0176
0.812,-0.09504
0.816,0.00036
0.82,-0.0475
0.824,-0.01651
0.828,0.0824
0.832,0.01451
0.836,0.03794
0.84,0.01916
0.844,0.00657
0.848,-0.00421
0.852,0.00644
0.856,0.08747
0.86,0.01308
0.864,-0.00364
0.868,-0.01026
0.872,0.0887
0.876,0.16105
0.88,0.29339
0.884,0.47978
0.888,0.67628
0.892,0.95026
0.896,1.12804
0.9,1.12575
0.904,1.13885
0.908,0.99435
0.912,0.71077
0.916,0.57242
0.92,0.32855
0.924,0.22225
0.928,0.02323
0.932,0.00378
0.936,0.03109
0.94,0.0828
0.944,0.0593
0.948,0.08685
0.952,0.10233
0.956,0.11675
0.96,0.10282
0.964,0.10945
0.968,0.07694
0.972,0.08257
0.976,-0.00062
0.98,0.04713
0.984,-0.03373
0.988,0.01599
0.992,0.02826
0.996,0.00206
1.0,-0.00213
1.004,0.01226
1.008,0.01878
1.012,-0.04335
1.016,0.07584
1.02,-0.01834
1.024,-0.05931
1.028,-0.01202
1.032,0.02057
1.036,0.00435
1.04,-0.01223
1.044,0.02735
1.048,-0.04404
1.052,0.03208
1.056,0.00939
1.06,0.00455
1.064,0.02107
1.068,0.02012
1.072,-0.06243
1.076,-0.03333
1.08,-0.01804
1.084,0.0814
1.088,0.00131
1.092,0.01221
1.096,0.04463
1.1,0.13338
1.104,0.08337
1.108,0.13765
1.112,0.17344
1.116,0.11156
1.12,0.16054
1.124,0.17161
1.128,0.17197
1.132,0.13222
1.136,0.21654
1.14,0.19029
1.144,0.17115
1.148,0.20954
1.152,0.11641
1.156,0.12724
1.16,0.15513
1.164,0.151
1.168,0.18839
1.172,0.17942
1.176,0.20947
1.18,0.13222
1.184,0.15784
1.188,0.2272
1.192,0.212
1.196,0.18497
1.2,0.12481
1.204,0.18709
1.208,0.19724
1.212,0.12466
1.216,0.12475
1.22,0.10789
1.224,0.14456
1.228,0.05555
1.232,0.09549
1.236,-0.02851
1.24,0.00036
1.244,-0.07415
1.248,-0.0137
1.252,0.0836
1.256,0.3446
1.26,0.5223
1.264,0.76217
1.268,0.92806
1.272,0.93048
1.276,1.00895
1.28,0.81532
1.284,0.64562
1.288,0.41328
1.292,0.09293
1.296,-0.01652
1.3,-0.10959
1.304,-0.19749
1.308,-0.25302
1.312,-0.15906
1.316,-0.07858
1.32,-0.07001
1.324,-0.02935
1.328,-0.05774
1.332,-0.03937
1.336,0.01584
1.34,-0.03847
1.344,-0.05661
1.348,-0.02872
1.352,-0.00994
1.356,-0.08465
1.36,-0.06193
1.364,-0.02155
1.368,-0.02587
1.372,-0.0882
1.376,-0.02856
1.38,-0.04827
1.384,-0.02413
1.388,-0.00946
1.392,0.02114
1.396,-0.03324
1.4,-0.02277
1.404,-0.04152
1.408,-0.05652
1.412,-0.03385
1.416,0.02161
1.42,-0.07087
1.424,-0.08309
1.428,-0.08871
1.432,-0.05793
1.436,-0.02932
1.44,0.00625
1.444,-0.06177
1.448,-0.01698
1.452,0.0089
1.456,-0.00126
1.46,0.04686
1.464,0.08034
1.468,0.01726
1.472,0.0087
1.476,0.05067
1.48,0.03428
1.484,0.07852
1.488,0.05507
1.492,0.07205
1.496,0.08084
1.5,0.08546
1.504,0.11003
1.508,0.15955
1.512,0.09912
1.516,0.09335
1.52,0.09062
1.524,0.0851
1.528,0.16128
1.532,0.17592
1.536,0.19136
1.54,0.13521
1.544,0.1901
1.548,0.20652
1.552,0.23642
1.556,0.18662
1.56,0.19199
1.564,0.19443
1.568,0.21836
1.572,0.19936
1.576,0.20505
1.58,0.19036
1.584,0.28517
1.588,0.28336
1.592,0.20768
1.596,0.15711
1.6,0.27007
1.604,0.19671
1.608,0.15156
1.612,0.12943
1.616,0.09305
1.62,0.15093
1.624,0.09832
1.628,0.07246
1.632,0.02397
1.636,0.10553
1.64,-0.03628
1.644,0.02459
1.648,0.01015
1.652,0.03817
1.656,0.05429
1.66,0.03342
1.664,0.0044
1.668,-0.00798
1.672,-0.04964
1.676,0.05068
1.68,-0.04639
1.684,1e-05
1.688,-0.03423
1.692,-0.08287
1.696,-0.0595
1.7,0.00247
1.704,-0.07722
1.708,-0.05742
1.712,0.02438
1.716,-0.02044
1.72,0.01298
1.724,-0.1387
1.728,-0.10167
1.732,-0.20623
1.736,-0.1468
1.74,0.03933
1.744,0.22417
1.748,0.38776
1.752,0.66418
1.756,0.91939
1.76,0.8947
1.764,0.98565
1.768,0.86452
1.772,0.69155
1.776,0.50841
1.78,0.24691
1.784,0.00578
1.788,-0.07024
1.792,-0.17698
1.796,-0.21533
1.8,-0.14728
1.804,-0.15056
1.808,-0.06927
1.812,-0.1138
1.816,-0.0415
1.82,-0.06146
1.824,-0.00967
1.828,-0.0876
1.832,0.00437
1.836,-0.08944
1.84,-0.0612
1.844,-0.01622
1.848,-0.03735
1.852,-0.01335
1.856,-0.08621
1.86,-0.09598
1.864,-0.0404
1.868,0.00088
1.872,-0.03879
1.876,0.00011
1.88,-0.0386
1.884,-0.00101
1.888,0.03236
1.892,-0.04054
1.896,-0.06946
1.9,-0.04539
1.904,-0.04969
1.908,-0.02687
1.912,0.01256
1.916,-0.00092
1.92,-0.02328
1.924,-0.09344
1.928,0.01425
1.932,-0.05139
1.936,0.00083
1.94,0.01432
1.944,0.04144
1.948,0.06139
1.952,-0.00329
1.956,0.06059
1.96,-0.02184
1.964,0.02449
1.968,0.03566
1.972,0.06994
1.976,0.09315
1.98,0.07118
1.984,0.07057
1.988,0.13716
1.992,0.07422
1.996,0.10758
2.0,0.08284
2.004,0.08041
2.008,0.12415
2.012,0.156
2.016,0.125
2.02,0.10449
2.024,0.14212
2.028,0.25543
2.032,0.1509
2.036,0.17381
2.04,0.19957
2.044,0.15073
2.048,0.13843
2.052,0.16647
2.056,0.20651
2.06,0.11615
2.064,0.16286
2.068,0.17075
2.072,0.11802
2.076,0.13814
2.08,0.13711
2.084,0.16313
2.088,0.15589
2.092,0.09689
2.096,0.06844
2.1,0.11533
2.104,0.05128
2.108,0.08939
2.112,0.01812
2.116,0.02739
2.12,-0.00045
2.124,0.05158
2.128,0.08632
2.132,0.01987
2.136,-0.01987
2.14,0.01124
2.144,0.02668
2.148,0.0236
2.152,0.03109
2.156,-0.05986
2.16,0.03354
2.164,-0.01622
2.168,0.06145
2.172,0.03755
2.176,0.13473
2.18,0.05981
2.184,0.0631
2.188,0.01453
2.192,0.10063
2.196,0.12873
2.2,0.06669
2.204,0.04688
2.208,-0.01517
2.212,0.00217
2.216,0.02501
2.22,-0.02433
2.224,-0.04066
2.228,-0.03557
2.232,-0.00963
2.236,0.00481
2.24,-0.05055
2.244,-0.00063
2.248,-0.03157
2.252,-0.00202
2.256,-0.06835
2.26,-0.0281
2.264,-0.03629
2.268,-0.02614
2.272,-0.05076
2.276,-0.05442
2.28,-0.07299
2.284,0.06441
2.288,0.02329
2.292,-0.015
2.296,-0.0524
2.3,-0.08076
2.304,0.01794
2.308,-0.06975
2.312,-0.08025
2.316,-0.09387
2.32,-0.05221
2.324,0.02688
2.328,0.11941
2.332,0.30225
2.336,0.57119
2.34,0.72025
2.344,0.90846
2.348,0.96149
2.352,0.9963
2.356,0.78329
2.36,0.60969
2.364,0.36279
2.368,0.1305
2.372,-0.05409
2.376,-0.14851
2.38,-0.17123
2.384,-0.18615
2.388,-0.18928
2.392,-0.02526
2.396,-0.03597
2.4,-0.03259
2.404,-0.08688
2.408,-0.0339
2.412,-0.01321
2.416,0.01941
2.42,-0.05254
2.424,-0.05552
2.428,-0.00581
2.432,0.04377
2.436,-0.07369
2.44,0.01252
2.444,0.00626
2.448,-0.04175
2.452,-0.00695
2.456,-0.01038
2.46,0.04229
2.464,-0.03092
2.468,0.01466
2.472,-0.01187
2.476,0.00916
2.48,-0.0321
2.484,-0.03369
2.488,-0.01725
2.492,0.01629
2.496,0.0036
2.5,-0.05777
2.504,-0.01198
2.508,-0.08726
2.512,-0.02906
2.516,0.06975
2.52,-0.06081
2.524,-0.0235
2.528,0.0044
2.532,-0.00321
2.536,-0.03314
2.54,0.02946
2.544,-0.01101
2.548,-0.02265
2.552,0.04332
2.556,0.06182
2.56,0.02743
2.564,0.06829
2.568,0.03136
2.572,0.10627
2.576,0.10294
2.58,0.06696
2.584,0.16879
2.588,0.09358
2.592,0.13854
2.596,0.24766
2.6,0.16721
2.604,0.23014
2.608,0.27117
2.612,0.22113
2.616,0.22511
2.62,0.27262
2.624,0.3014
2.628,0.29192
2.632,0.3987
2.636,0.23858
2.64,0.29713
2.644,0.26129
2.648,0.28697
2.652,0.25377
2.656,0.22107
2.66,0.21575
2.664,0.18745
2.668,0.1798
2.672,0.18536
2.676,0.07725
2.68,0.09124
2.684,0.08197
2.688,0.07946
2.692,0.07297
2.696,0.0689
2.7,0.02749
2.704,0.12017
2.708,0.10559
2.712,-0.02166
2.716,0.03597
2.72,-0.00977
2.724,-0.0152
2.728,0.03825
2.732,0.01546
2.736,0.01184
2.74,0.00422
2.744,-0.0355
2.748,-0.01924
2.752,-0.00967
2.756,-0.14706
2.76,-0.1192
2.764,-0.14521
2.768,-0.06127
2.772,0.07915
2.776,0.20081
2.78,0.37219
2.784,0.65032
2.788,0.84774
2.792,0.98126
2.796,1.0141
2.8,0.90545
2.804,0.63395
2.808,0.44088
2.812,0.25517
2.816,0.10193
2.82,-0.0714
2.824,-0.18434
2.828,-0.19502
2.832,-0.1137
2.836,-0.11417
2.84,-0.06733
2.844,-0.05099
2.848,-0.0346
2.852,-0.01182
2.856,-0.05864
2.86,0.05148
2.864,-0.00195
2.868,-0.02665
2.872,-0.03551
2.876,0.01571
2.88,0.03169
2.884,0.05521
2.888,-0.02713
2.892,0.04896
2.896,-0.02763
2.9,-0.02155
2.904,-0.01078
2.908,0.04187
2.912,-0.00245
2.916,0.01259
2.92,0.034
2.924,0.04756
2.928,0.01727
2.932,-0.0175
2.936,0.05772
2.94,0.0182
2.944,0.00337
2.948,-0.0002
2.952,-0.00697
2.956,0.03302
2.96,0.06577
2.964,0.07238
2.968,0.05167
2.972,0.02547
2.976,-0.00718
2.98,0.03581
2.984,-0.00824
2.988,0.0307
2.992,0.04249
2.996,0.01146
3.0,0.06868
3.004,0.02309
3.008,0.10822
3.012,0.09319
3.016,0.11724
3.02,0.12582
3.024,0.09684
3.028,0.08187
3.032,0.1863
3.036,0.11816
3.04,0.17845
3.044,0.15658
3.048,0.19687
3.052,0.15414
3.056,0.28335
3.06,0.20087
3.064,0.24444
3.068,0.20169
3.072,0.27499
3.076,0.24689
3.08,0.1738
3.084,0.21255
3.088,0.22349
3.092,0.24044
3.096,0.20079
3.1,0.17419
3.104,0.12169
3.108,0.13596
3.112,0.11527
3.116,0.17193
3.12,0.18232
3.124,0.12301
3.128,0.11009
3.132,0.12685
3.136,0.08463
3.14,0.04062
3.144,0.06176
3.148,0.15047
3.152,0.06434
3.156,0.11803
3.16,0.10054
3.164,0.09129
3.168,0.11454
3.172,0.08148
3.176,-0.00265
3.18,0.00126
3.184,0.00225
3.188,0.01141
3.192,0.0095
3.196,-0.0481
3.2,0.02205
3.204,0.01507
3.208,0.00796
3.212,0.01234
3.216,0.03457
3.22,-0.01483
3.224,0.04224
3.228,0.07299
3.232,-0.02509
3.236,-0.04922
3.24,0.03109
3.244,-0.05958
3.248,-0.02773
3.252,0.03682
3.256,0.04752
3.26,-0.02091
3.264,0.03883
3.268,0.0252
3.272,-0.017
3.276,-0.00386
3.28,0.042
3.284,-0.00022
3.288,0.02188
3.292,0.04449
3.296,-0.01491
3.3,-0.02715
3.304,-0.03147
3.308,-0.02956
3.312,-0.00051
3.316,0.03953
3.32,-0.03121
3.324,-0.06279
3.328,-0.03683
3.332,0.0172
3.336,-0.04244
3.34,0.04059
3.344,0.01374
3.348,0.01242
3.352,0.0495
3.356,0.05241
3.36,0.03074
3.364,0.01888
3.368,0.04219
3.372,0.06115
3.376,0.02345
3.38,-0.03411
3.384,0.019
3.388,-0.04267
3.392,-0.00601
3.396,0.03639
3.4,0.03355
3.404,-0.00947
3.408,0.03231
3.412,-0.03615
3.416,0.03495
3.42,0.00972
3.424,-0.02268
3.428,-0.0283
3.432,0.0092
3.436,0.02458
3.44,-2e-05
3.444,0.00687
3.448,0.01864
3.452,0.04915
3.456,0.02276
3.46,0.08552
3.464,0.04572
3.468,0.00973
3.472,0.12219
3.476,0.0988
3.48,0.10892
3.484,0.14796
3.488,0.12248
3.492,0.14427
3.496,0.1278
3.5,0.09274
3.504,0.09189
3.508,0.05009
3.512,0.06003
3.516,0.09499
3.52,0.03212
3.524,0.04117
3.528,-0.04607
3.532,0.09343
3.536,0.0231
3.54,0.00167
3.544,0.01403
3.548,0.01699
3.552,-0.0073
3.556,-0.01042
3.56,0.01268
3.564,0.02237
3.568,0.04341
3.572,0.05141
3.576,0.0478
3.58,0.01751
3.584,0.02623
3.588,-0.01616
3.592,-0.04417
3.596,0.0696
3.6,0.04535
3.604,0.01415
3.608,-0.0188
3.612,-0.06745
3.616,-0.08038
3.62,-0.09568
3.624,0.01562
3.628,0.11301
3.632,0.33354
3.636,0.54654
3.64,0.75864
3.644,0.91971
3.648,1.06274
3.652,0.9833
3.656,0.92982
3.66,0.68932
3.664,0.47677
3.668,0.20227
3.672,0.09988
3.676,-0.11442
3.68,-0.14113
3.684,-0.16187
3.688,-0.11771
3.692,-0.04351
3.696,-0.12437
3.7,-0.08423
3.704,-0.05639
3.708,-0.00301
3.712,0.04561
3.716,-0.00515
3.72,0.02934
3.724,0.01115
3.728,0.01084
3.732,0.03989
3.736,0.03958
3.74,-0.01264
3.744,0.04297
3.748,-0.0185
3.752,0.04703
3.756,0.08509
3.76,0.03338
3.764,0.015
3.768,-0.02703
3.772,0.0515
3.776,0.0531
3.78,0.03847
3.784,0.03483
3.788,0.02119
3.792,0.04902
3.796,0.04084
3.8,0.05053
3.804,0.03001
3.808,0.02465
3.812,-0.03791
3.816,0.00621
3.82,0.02672
3.824,0.02903
3.828,0.11295
3.832,0.05332
3.836,0.11166
3.84,0.02497
3.844,0.06982
3.848,0.12138
3.852,0.18037
3.856,0.13028
3.86,0.24435
3.864,0.20605
3.868,0.16394
3.872,0.23327
3.876,0.16979
3.88,0.25778
3.884,0.25763
3.888,0.22185
3.892,0.26731
3.896,0.23209
3.9,0.21539
3.904,0.30214
3.908,0.25088
3.912,0.22659
3.916,0.24162
3.92,0.24702
3.924,0.29376
3.928,0.27196
3.932,0.24863
3.936,0.2649
3.94,0.22165
3.944,0.14439
3.948,0.24842
3.952,0.25667
3.956,0.23232
3.96,0.19579
3.964,0.17099
3.968,0.21501
3.972,0.13469
3.976,0.17927
3.98,0.18311
3.984,0.15611
3.988,0.11014
3.992,0.08206
3.996,0.07994
4.0,-0.00161
4.004,-0.08582
4.008,-0.0108
4.012,0.12195
4.016,0.24861
4.02,0.38895
4.024,0.61439
4.028,0.88074
4.032,1.00111
4.036,1.0642
4.04,0.96603
4.044,0.82474
4.048,0.64005
4.052,0.32485
4.056,0.15061
4.06,0.02935
4.064,-0.06428
4.068,-0.12422
4.072,-0.04739
4.076,-0.15397
4.08,-0.08994
4.084,-0.01231
4.088,-0.02669
4.092,-0.01885
4.096,-0.00042
4.1,0.00034
4.104,0.06239
4.108,0.01037
4.112,0.04284
4.116,0.00464
4.12,0.03459
4.124,0.06871
4.128,0.02585
4.132,0.04828
4.136,0.06523
4.14,-0.01166
4.144,0.01809
4.148,0.04323
4.152,0.05175
4.156,0.05724
4.16,-0.02824
4.164,0.06086
4.168,0.01151
4.172,-0.01853
4.176,0.01802
4.18,0.01124
4.184,0.07191
4.188,-0.00145
4.192,0.02123
4.196,-0.01242
4.2,0.04714
4.204,0.06914
4.208,0.07708
4.212,0.03969
4.216,0.04913
4.22,0.09307
4.224,0.02669
4.228,0.04036
4.232,0.06579
4.236,0.10028
4.24,0.04417
4.244,0.08913
4.248,0.08728
4.252,0.07785
4.256,0.12152
4.26,0.1348
4.264,0.19571
4.268,0.13211
4.272,0.16061
4.276,0.13413
4.28,0.17297
4.284,0.1867
4.288,0.31935
4.292,0.29965
4.296,0.26737
4.3,0.30396
4.304,0.3726
4.308,0.29871
4.312,0.38465
4.316,0.35884
4.32,0.35051
4.324,0.3438
4.328,0.32031
4.332,0.28445
4.336,0.26344
4.34,0.2431
4.344,0.23621
4.348,0.22313
4.352,0.23595
4.356,0.18682
4.36,0.19007
4.364,0.17942
4.368,0.14559
4.372,0.13913
4.376,0.16107
4.38,0.09922
4.384,0.13445
4.388,0.16157
4.392,0.08672
4.396,0.06137
4.4,0.06533
4.404,0.08112
4.408,0.07159
4.412,0.05482
4.416,0.08947
4.42,0.08091
4.424,0.05621
4.428,0.04435
4.432,-0.06465
4.436,-0.07387
4.44,-0.14444
4.444,-0.10195
4.448,-0.06604
4.452,0.03247
4.456,0.26848
4.46,0.45142
4.464,0.66723
4.468,0.83667
4.472,0.97871
4.476,1.01186
4.48,0.87063
4.484,0.736
4.488,0.52171
4.492,0.29008
4.496,0.12209
4.5,0.03016
4.504,-0.15482
4.508,-0.16765
4.512,-0.19678
4.516,-0.02789
4.52,-0.05532
4.524,0.00494
4.528,0.02967
4.532,0.04623
4.536,0.00269
4.54,0.0295
4.544,0.06869
4.548,0.00998
4.552,0.07903
4.556,0.00308
4.56,0.0154
4.564,0.05081
4.568,0.01573
4.572,0.05423
4.576,0.02377
4.58,0.02071
4.584,-0.06432
4.588,0.10453
4.592,0.02068
4.596,0.08305
4.6,0.07301
4.604,0.07907
4.608,0.00982
4.612,-0.00024
4.616,0.01221
4.62,0.05619
4.624,0.09021
4.628,0.05641
4.632,-0.05137
4.636,0.04893
4.64,0.02058
4.644,0.01876
4.648,-0.02216
4.652,0.05025
4.656,0.00622
4.66,0.06402
4.664,0.09968
4.668,0.05979
4.672,0.06003
4.676,0.07609
4.68,0.13117
4.684,0.0897
4.688,0.07112
4.692,0.10574
4.696,0.14124
4.7,0.05609
4.704,0.15442
4.708,0.18152
4.712,0.18212
4.716,0.20946
4.72,0.29011
4.724,0.29678
4.728,0.26629
4.732,0.30966
4.736,0.38713
4.74,0.36684
4.744,0.31215
4.748,0.33938
4.752,0.31098
4.756,0.34237
4.76,0.28647
4.764,0.2634
4.768,0.29602
4.772,0.31541
4.776,0.2334
4.78,0.23778
4.784,0.22758
4.788,0.19937
4.792,0.18875
4.796,0.16352
4.8,0.16233
4.804,0.11246
4.808,0.14817
4.812,0.12914
4.816,0.09314
4.82,0.10204
4.824,0.08646
4.828,0.10128
4.832,0.12024
4.836,0.08013
4.84,0.06495
4.844,0.01894
4.848,0.10985
4.852,0.10444
4.856,0.00839
4.86,-0.0077
4.864,-0.02274
4.868,-0.04217
4.872,-0.10701
4.876,0.06457
4.88,0.19713
4.884,0.3133
4.888,0.47875
4.892,0.81994
4.896,0.89856
4.9,1.01849
4.904,0.97755
4.908,0.88903
4.912,0.67713
4.916,0.46702
4.92,0.19226
4.924,0.11952
4.928,-0.06583
4.932,-0.15992
4.936,-0.19564
4.94,-0.07251
4.944,-0.04517
4.948,-0.04804
4.952,0.02763
4.956,0.08115
4.96,0.09618
4.964,-0.0186
4.968,0.0747
4.972,0.01147
4.976,0.04666
4.98,0.01256
4.984,0.02137
4.988,0.07091
4.992,0.06838
4.996,-0.02922
5.0,0.08535
5.004,0.06888
5.008,0.05823
5.012,-0.06788
5.016,0.00354
5.02,0.06284
5.024,0.06403
5.028,-0.04264
5.032,0.0262
5.036,0.07753
5.04,0.06815
5.044,0.10647
5.048,0.0534
5.052,-0.01751
5.056,0.09197
5.06,0.08221
5.064,0.04396
5.068,0.07769
5.072,0.03747
5.076,0.05675
5.08,0.03856
5.084,0.03699
5.088,0.0361
5.092,0.00865
5.096,0.09032
5.1,0.0199
5.104,0.08441
5.108,0.12204
5.112,0.12382
5.116,0.1181
5.12,0.18729
5.124,0.16672
5.128,0.13505
5.132,0.11185
5.136,0.10847
5.14,0.15351
5.144,0.22256
5.148,0.22721
5.152,0.16813
5.156,0.16934
5.16,0.24933
5.164,0.27599
5.168,0.28679
5.172,0.22239
5.176,0.17924
5.18,0.33817
5.184,0.24186
5.188,0.27916
5.192,0.20547
5.196,0.27089
5.2,0.22912
5.204,0.18882
5.208,0.20838
5.212,0.16765
5.216,0.19918
5.22,0.18986
5.224,0.14766
5.228,0.1225
5.232,0.12503
5.236,0.0843
5.24,0.12945
5.244,0.08746
5.248,0.15482
5.252,0.12747
5.256,0.09479
5.26,0.09791
5.264,0.06742
5.268,0.03173
5.272,0.11778
5.276,0.08334
5.28,0.05315
5.284,0.04354
5.288,0.02506
5.292,-0.01258
5.296,0.01691
5.3,0.0393
5.304,0.02719
5.308,-0.01533
5.312,0.05575
5.316,-0.02031
5.32,0.08192
5.324,0.02024
5.328,-0.00608
5.332,-0.02978
5.336,0.09216
5.34,0.07683
5.344,0.04946
5.348,0.06911
5.352,0.07663
5.356,0.12586
5.36,0.10564
5.364,0.13216
5.368,0.07675
5.372,0.14756
5.376,0.13308
5.38,0.0802
5.384,0.04333
5.388,0.07552
5.392,0.08301
5.396,0.02562
5.4,0.01889
5.404,0.00896
5.408,0.02416
5.412,0.0941
5.416,0.0947
5.42,0.01209
5.424,0.0295
5.428,0.08656
5.432,0.02519
5.436,-0.03576
5.44,0.01026
5.444,0.03782
5.448,0.05491
5.452,0.05294
5.456,0.04246
5.46,-0.07512
5.464,0.03863
5.468,0.01644
5.472,0.02002
5.476,0.01092
5.48,0.07426
5.484,-0.04845
5.488,-0.11247
5.492,-0.06641
5.496,-0.08915
5.5,-0.02355
5.504,0.11964
5.508,0.27938
5.512,0.55281
5.516,0.75068
5.52,0.88187
5.524,0.99722
5.528,0.98973
5.532,0.78997
5.536,0.64338
5.54,0.34184
5.544,0.25959
5.548,0.05801
5.552,-0.11756
5.556,-0.14934
5.56,-0.12115
5.564,-0.06633
5.568,-0.08671
5.572,-0.03149
5.576,-0.02685
5.58,0.0234
5.584,0.05349
5.588,0.02749
5.592,0.00429
5.596,-0.06143
5.6,0.02886
5.604,0.06286
5.608,0.02723
5.612,-0.00582
5.616,0.03806
5.62,-0.00488
5.624,0.04943
5.628,0.09071
5.632,-0.01756
5.636,0.07638
5.64,0.04053
5.644,0.06016
5.648,0.01536
5.652,-0.00413
5.656,-0.02705
5.66,0.02406
5.664,0.02694
5.668,0.03711
5.672,0.08493
5.676,0.05592
5.68,0.04965
5.684,0.01769
5.688,0.02521
5.692,0.0344
5.696,0.04171
5.7,0.05403
5.704,0.01067
5.708,0.04045
5.712,0.02926
5.716,0.04538
5.72,0.0575
5.724,-0.00855
5.728,0.07906
5.732,0.0428
5.736,0.12156
5.74,0.06473
5.744,0.10756
5.748,0.06177
5.752,0.11991
5.756,0.15471
5.76,0.16903
5.764,0.14975
5.768,0.14997
5.772,0.15101
5.776,0.21763
5.78,0.21329
5.784,0.22845
5.788,0.24404
5.792,0.22828
5.796,0.27951
5.8,0.26405
5.804,0.2977
5.808,0.21139
5.812,0.24347
5.816,0.19295
5.82,0.17394
5.824,0.23779
5.828,0.20566
5.832,0.18377
5.836,0.17023
5.84,0.15334
5.844,0.21768
5.848,0.2006
5.852,0.08918
5.856,0.21098
5.86,0.14528
5.864,0.10406
5.868,0.12374
5.872,0.02148
5.876,0.15426
5.88,0.06845
5.884,0.0403
5.888,0.09758
5.892,0.14195
5.896,0.11675
5.9,0.10232
5.904,0.06455
5.908,0.08123
5.912,0.12302
5.916,0.1382
5.92,0.17019
5.924,0.11825
5.928,0.14822
5.932,0.08929
5.936,0.14032
5.94,0.13042
5.944,0.08676
5.948,0.10056
5.952,0.10965
5.956,-0.01187
5.96,0.00802
5.964,0.01423
5.968,0.04525
5.972,-0.0218
5.976,0.01567
5.98,-0.04451
5.984,0.01643
5.988,0.06577
5.992,-0.01937
5.996,0.00546
6.0,-0.01303
6.004,-0.0519
6.008,0.01673
6.012,0.04664
6.016,0.01979
6.02,-0.01243
6.024,-0.00559
6.028,0.08514
6.032,-0.01946
6.036,0.02342
6.04,0.01467
6.044,-0.09891
6.048,-0.05198
6.052,-0.12417
6.056,-0.05861
6.06,-0.00828
6.064,0.12732
6.068,0.3231
6.072,0.50489
6.076,0.78113
6.08,0.86999
6.084,1.05052
6.088,0.99842
6.092,0.76168
6.096,0.6117
6.1,0.39354
6.104,0.11166
6.108,-0.03361
6.112,-0.06985
6.116,-0.20923
6.12,-0.16261
6.124,-0.15358
6.128,-0.06465
6.132,-0.05738
6.136,-0.00958
6.14,0.02251
6.144,0.03508
6.148,0.09426
6.152,0.06229
6.156,0.09211
6.16,0.16259
6.164,0.14774
6.168,0.11791
6.172,0.11508
6.176,0.14785
6.18,0.04119
6.184,0.04298
6.188,0.0678
6.192,0.09363
6.196,0.06377
6.2,0.07805
6.204,0.07924
6.208,0.03037
6.212,0.00606
6.216,-0.022
6.22,0.01016
6.224,-0.00733
6.228,0.02248
6.232,0.02528
6.236,0.05829
6.24,0.08701
6.244,0.10609
6.248,0.05121
6.252,0.02808
6.256,0.02658
6.26,0.01641
6.264,0.0619
6.268,0.04553
6.272,0.03531
6.276,0.06866
6.28,0.04351
6.284,0.0745
6.288,0.05248
6.292,-0.04273
6.296,-0.0466
6.3,-0.04193
6.304,0.052
6.308,0.03659
6.312,0.16531
6.316,0.32893
6.32,0.60738
6.324,0.81558
6.328,0.9964
6.332,1.14851
6.336,1.17899
6.34,1.02744
6.344,0.92729
6.348,0.72411
6.352,0.47639
6.356,0.26787
6.36,0.1041
6.364,0.10166
6.368,0.0301
6.372,0.02716
6.376,0.08259
6.38,0.18355
6.384,0.16234
6.388,0.14317
6.392,0.16578
6.396,0.15993
6.4,0.15957
6.404,0.10694
6.408,0.18346
6.412,0.10057
6.416,0.17832
6.42,0.0924
6.424,0.13076
6.428,0.13546
6.432,0.06
6.436,-0.00313
6.44,0.07507
6.444,0.0982
6.448,0.02777
6.452,0.02479
6.456,-0.01463
6.46,0.03765
6.464,0.02571
6.468,0.00813
6.472,0.05041
6.476,-0.05894
6.48,0.04598
6.484,0.04627
6.488,0.01085
6.492,-0.02193
6.496,-0.04934
6.5,-0.01764
6.504,-0.04269
6.508,0.03726
6.512,0.0412
6.516,0.03009
6.52,-0.0391
6.524,0.05653
6.528,0.08509
6.532,0.01786
6.536,0.08843
6.54,0.07578
6.544,0.08424
6.548,0.04581
6.552,0.09372
6.556,0.11288
6.56,0.12777
6.564,0.17426
6.568,0.14662
6.572,0.1338
6.576,0.14926
6.58,0.16362
6.584,0.15087
6.588,0.13041
6.592,0.22095
6.596,0.19806
6.6,0.23326
6.604,0.14829
6.608,0.20716
6.612,0.23487
6.616,0.25398
6.62,0.20733
6.624,0.22265
6.628,0.24036
6.632,0.19881
6.636,0.22178
6.64,0.18211
6.644,0.23226
6.648,0.09041
6.652,0.10508
6.656,0.09734
6.66,0.14043
6.664,0.09468
6.668,0.08099
6.672,0.14764
6.676,0.11786
6.68,0.14318
6.684,0.05858
6.688,0.05653
6.692,0.06719
6.696,0.04481
6.7,0.06257
6.704,0.00383
6.708,0.01315
6.712,-0.02713
6.716,0.05229
6.72,-0.03798
6.724,-0.02149
6.728,-0.01253
6.732,-0.0226
6.736,-0.00654
6.74,0.00412
6.744,0.04122
6.748,-0.04296
6.752,0.0118
6.756,-0.00298
6.76,-0.0564
6.764,-0.03898
6.768,0.03788
6.772,-0.05734
6.776,-0.04211
6.78,-0.07555
6.784,-0.00247
6.788,-0.00573
6.792,0.02974
6.796,0.02678
6.8,0.01922
6.804,-0.0172
6.808,0.02852
6.812,-0.04098
6.816,-0.01017
6.82,-0.00762
6.824,0.00377
6.828,0.02683
6.832,-0.01261
6.836,0.08754
6.84,0.1368
6.844,0.11205
6.848,0.0315
6.852,0.06377
6.856,0.04798
6.86,0.12461
6.864,0.128
6.868,0.12606
6.872,0.06792
6.876,0.09155
6.88,0.07618
6.884,0.04247
6.888,0.00871
6.892,0.00018
6.896,0.00215
6.9,-0.05418
6.904,-0.04425
6.908,0.01054
6.912,-0.08236
6.916,0.00045
6.92,-0.03263
6.924,-0.00275
6.928,-0.04743
6.932,-0.01486
6.936,0.00436
6.94,-0.00728
6.944,-0.00866
6.948,-0.05359
6.952,-0.05379
6.956,-0.0269
6.96,-0.03351
6.964,-0.0312
6.968,0.01298
6.972,-0.01946
6.976,-0.10531
6.98,-0.06958
6.984,-0.1874
6.988,-0.06069
6.992,-0.04297
6.996,0.0492
7.0,0.23847
7.004,0.40908
7.008,0.63756
7.012,0.86895
7.016,0.92114
7.02,0.93975
7.024,0.88722
7.028,0.6976
7.032,0.56878
7.036,0.31239
7.04,0.06853
7.044,-0.12669
7.048,-0.20995
7.052,-0.2029
7.056,-0.18092
7.06,-0.12609
7.064,-0.06297
7.068,-0.01449
7.072,-0.00372
7.076,-0.07931
7.08,-0.0018
7.084,-0.05437
7.088,-0.06434
7.092,-0.03882
7.096,0.00278
7.1,-0.08187
7.104,-0.03305
7.108,-0.02006
7.112,0.00178
7.116,-0.03523
7.12,-0.05036
7.124,-0.02206
7.128,-0.0303
7.132,-0.03368
7.136,-0.054
7.14,-0.0002
7.144,-0.06165
7.148,-0.00648
7.152,0.0254
7.156,-0.02292
7.16,-0.00454
7.164,-0.01337
7.168,-0.02813
7.172,0.01514
7.176,-0.04804
7.18,-0.0538
7.184,-0.00319
7.188,0.03352
7.192,0.03328
7.196,-0.02454
7.2,-0.06637
7.204,-0.01315
7.208,-0.00763
7.212,0.09249
7.216,0.05967
7.22,-0.01666
7.224,0.00693
7.228,0.13297
7.232,0.06204
7.236,0.06283
7.24,0.10656
7.244,0.08952
7.248,0.13936
7.252,0.16157
7.256,0.18475
7.26,0.2389
7.264,0.21759
7.268,0.26706
7.272,0.25262
7.276,0.29299
7.28,0.23154
7.284,0.24993
7.288,0.2876
7.292,0.25605
7.296,0.24236
7.3,0.22632
7.304,0.20852
7.308,0.23613
7.312,0.16705
7.316,0.2032
7.32,0.2194
7.324,0.16198
7.328,0.16088
7.332,0.13117
7.336,0.08191
7.34,0.13112
7.344,0.10025
7.348,0.0596
7.352,0.11717
7.356,0.0554
7.36,0.02678
7.364,0.01923
7.368,-0.02619
7.372,0.0108
7.376,-0.01073
7.38,-0.05408
7.384,0.01754
7.388,-0.02731
7.392,-0.0137
7.396,-0.14335
7.4,-0.10423
7.404,-0.07353
7.408,-0.0032
7.412,0.15914
7.416,0.37142
7.42,0.58944
7.424,0.7706
7.428,0.97435
7.432,0.98889
7.436,0.88029
7.44,0.69611
7.444,0.4976
7.448,0.30819
7.452,0.1612
7.456,-0.07772
7.46,-0.16307
7.464,-0.19846
7.468,-0.19804
7.472,-0.18279
7.476,-0.06069
7.48,-0.04301
7.484,0.02678
7.488,-0.05282
7.492,-0.01804
7.496,-0.07186
7.5,-0.04226
7.504,-0.07901
7.508,-0.04311
7.512,-0.03963
7.516,-0.02876
7.52,-0.03435
7.524,-0.01382
7.528,-0.03752
7.532,-0.0023
7.536,0.06306
7.54,-0.05889
7.544,-0.00894
7.548,0.00319
7.552,-0.0348
7.556,0.00948
7.56,-0.01065
7.564,-3e-05
7.568,-0.02
7.572,-0.04038
7.576,-0.0265
7.58,-0.03578
7.584,-0.06564
7.588,-0.01784
7.592,-0.06722
7.596,0.027
7.6,-0.08542
7.604,0.02273
7.608,-0.03403
7.612,-0.0145
7.616,-0.04381
7.62,0.01601
7.624,-0.06731
7.628,0.01606
7.632,-0.00839
7.636,-0.02248
7.64,0.01008
7.644,0.04652
7.648,0.04523
7.652,0.08986
7.656,0.02449
7.66,0.10902
7.664,0.04234
7.668,0.1578
7.672,0.15049
7.676,0.13902
7.68,0.13867
7.684,0.1559
7.688,0.19638
7.692,0.22084
7.696,0.19054
7.7,0.23739
7.704,0.17925
7.708,0.1986
7.712,0.19014
7.716,0.24364
7.72,0.33113
7.724,0.22003
7.728,0.30344
7.732,0.21772
7.736,0.25286
7.74,0.28062
7.744,0.23554
7.748,0.24194
7.752,0.25784
7.756,0.13521
7.76,0.20103
7.764,0.13977
7.768,0.1358
7.772,0.1125
7.776,0.08358
7.78,0.12824
7.784,-0.0284
7.788,0.03772
7.792,0.04045
7.796,-0.01898
7.8,0.03636
7.804,-0.03245
7.808,0.00749
7.812,-0.03777
7.816,-0.03106
7.82,-0.03485
7.824,-0.01131
7.828,-0.01793
7.832,-0.03388
7.836,-0.01252
7.84,-0.0279
7.844,-0.04589
7.848,-0.10339
7.852,-0.01485
7.856,-0.08829
7.86,-0.05387
7.864,-0.10545
7.868,-0.16609
7.872,-0.12194
7.876,-0.05287
7.88,0.23098
7.884,0.42304
7.888,0.55261
7.892,0.79071
7.896,0.90545
7.9,0.93704
7.904,0.96354
7.908,0.75377
7.912,0.52495
7.916,0.31884
7.92,0.05799
7.924,-0.05151
7.928,-0.10965
7.932,-0.11398
7.936,-0.21446
7.94,-0.15662
7.944,-0.10006
7.948,-0.07928
7.952,0.00928
7.956,-0.02911
7.96,-0.0614
7.964,0.01687
7.968,-0.07389
7.972,-0.04262
7.976,-0.00918
7.98,-0.07314
7.984,0.0137
7.988,-0.11322
7.992,-0.06628
7.996,-0.04595
8.0,-0.04966
8.004,0.01689
8.008,-0.00157
8.012,-0.10511
8.016,-0.01236
8.02,-0.00896
8.024,-0.01192
8.028,-0.05349
8.032,-0.03356
8.036,-0.01347
8.04,-0.0397
8.044,-0.03268
8.048,-0.06694
8.052,-0.08135
8.056,-0.04615
8.06,-0.04373
8.064,-0.05449
8.068,0.04716
8.072,-0.06821
8.076,-0.06163
8.08,-0.04749
8.084,-0.02124
8.088,0.0175
8.092,0.0458
8.096,-0.00921
8.1,-0.03562
8.104,0.00595
8.108,0.05223
8.112,0.00556
8.116,0.04316
8.12,0.10354
8.124,0.05656
8.128,0.07182
8.132,0.1185
8.136,0.17302
8.14,0.11278
8.144,0.14392
8.148,0.20873
8.152,0.15448
8.156,0.14058
8.16,0.18113
8.164,0.21001
8.168,0.17301
8.172,0.22037
8.176,0.23366
8.18,0.17843
8.184,0.20351
8.188,0.19063
8.192,0.1535
8.196,0.22108
8.2,0.18024
8.204,0.16204
8.208,0.18265
8.212,0.10328
8.216,0.1483
8.22,0.11109
8.224,0.07559
8.228,0.03637
8.232,0.07728
8.236,0.07224
8.24,0.00966
8.244,0.0719
8.248,0.0561
8.252,0.03849
8.256,0.04516
8.26,0.02886
8.264,-0.01047
8.268,-0.03198
8.272,0.0334
8.276,-0.06397
8.28,0.04293
8.284,-0.02995
8.288,0.04776
8.292,-0.05349
8.296,-0.045
8.3,0.00465
8.304,0.00669
8.308,0.00261
8.312,-0.07439
8.316,0.01644
8.32,-0.0129
8.324,-0.00495
8.328,-0.09719
8.332,-0.06416
8.336,-0.00675
8.34,-0.06523
8.344,-0.03046
8.348,-0.0542
8.352,-0.00584
8.356,-0.05321
8.36,-0.0053
8.364,-0.03512
8.368,-0.02464
8.372,0.00181
8.376,-0.04505
8.38,-0.0222
8.384,-0.11763
8.388,-0.01354
8.392,-0.04293
8.396,-0.06842
8.4,-0.01501
8.404,0.00144
8.408,-0.09602
8.412,-0.02398
8.416,-0.03599
8.42,-0.03446
8.424,-0.01063
8.428,-0.01746
8.432,-0.03346
8.436,-0.04413
8.44,-0.04638
8.444,-0.09011
8.448,0.05159
8.452,0.05398
8.456,-0.05954
8.46,-0.0115
8.464,-0.05272
8.468,-0.01368
8.472,-0.04624
8.476,-0.00898
8.48,0.03471
8.484,-0.02968
8.488,-0.01236
8.492,0.01995
8.496,-0.04714
8.5,0.00408
8.504,-0.05725
8.508,-0.0047
8.512,0.03451
8.516,0.00528
8.52,0.01211
8.524,-0.0048
8.528,-0.04253
8.532,-0.03819
8.536,-0.01007
8.54,-0.05303
8.544,0.02395
8.548,-0.01072
8.552,-0.07257
8.556,-0.00272
8.56,-0.02175
8.564,-0.02206
8.568,-0.01634
8.572,-0.103
8.576,-0.05068
8.58,-0.02874
8.584,-0.01645
8.588,-0.04896
8.592,0.00795
8.596,0.02431
8.6,-0.05153
8.604,-0.04041
8.608,0.00222
8.612,0.09668
8.616,0.0318
8.62,0.06132
8.624,0.04283
8.628,0.11085
8.632,0.03913
8.636,0.07047
8.64,0.0898
8.644,0.03596
8.648,0.1229
8.652,0.0396
8.656,0.03523
8.66,-0.01402
8.664,-0.0269
8.668,0.03982
8.672,-0.00629
8.676,-0.02235
8.68,0.05148
8.684,-0.01685
8.688,0.01721
8.692,-0.0364
8.696,-0.04209
8.7,0.0251
8.704,-0.03578
8.708,-0.02774
8.712,-0.01312
8.716,-0.08527
8.72,0.01954
8.724,-0.06147
8.728,0.0115
8.732,-0.00702
8.736,0.02208
8.74,0.01338
8.744,-0.02548
8.748,-0.09136
8.752,-0.0833
8.756,-0.06846
8.76,-0.1118
8.764,-0.12274
8.768,-0.19009
8.772,0.0371
8.776,0.16125
8.78,0.31517
8.784,0.55264
8.788,0.75384
8.792,0.936
8.796,0.98389
8.8,0.86015
8.804,0.71499
8.808,0.55485
8.812,0.25234
8.816,0.10734
8.82,-0.07035
8.824,-0.12388
8.828,-0.17196
8.832,-0.1594
8.836,-0.09747
8.84,-0.12372
8.844,-0.15736
8.848,-0.06033
8.852,-0.03145
8.856,-0.04172
8.86,-0.03332
8.864,-0.07454
8.868,-0.09501
8.872,-0.00806
8.876,-0.08842
8.88,-0.01087
8.884,-0.00794
8.888,-0.03363
8.892,0.00798
8.896,-6e-05
8.9,0.01052
8.904,0.01465
8.908,0.0472
8.912,-0.00171
8.916,-0.00975
8.92,0.01344
8.924,0.02066
8.928,0.0031
8.932,0.02328
8.936,0.06959
8.94,-0.06952
8.944,0.0359
8.948,-0.05457
8.952,-0.04244
8.956,-0.07123
8.96,0.00591
8.964,-0.00997
8.968,-0.01706
8.972,-0.00715
8.976,-0.04798
8.98,0.02737
8.984,0.00143
8.988,0.01966
8.992,0.03156
8.996,0.03593
9.0,0.05839
9.004,0.00781
9.008,0.06336
9.012,0.0753
9.016,0.02
9.02,0.09886
9.024,0.06552
9.028,0.12091
9.032,0.14374
9.036,0.11976
9.04,0.1479
9.044,0.17178
9.048,0.18858
9.052,0.16776
9.056,0.1599
9.06,0.13182
9.064,0.19827
9.068,0.13745
9.072,0.20937
9.076,0.15573
9.08,0.18238
9.084,0.15396
9.088,0.15078
9.092,0.16503
9.096,0.15517
9.1,0.15772
9.104,0.17854
9.108,0.16666
9.112,0.1028
9.116,0.11769
9.12,0.07157
9.124,0.12525
9.128,0.06594
9.132,0.08269
9.136,0.10563
9.14,0.10103
9.144,0.04356
9.148,0.03109
9.152,0.0235
9.156,0.06059
9.16,0.05472
9.164,0.10417
9.168,0.0181
9.172,0.11854
9.176,0.09779
9.18,0.14259
9.184,0.14379
9.188,0.14908
9.192,0.08033
9.196,0.04323
9.2,0.03392
9.204,0.08854
9.208,0.10173
9.212,0.09085
9.216,-0.02817
9.22,-0.01652
9.224,0.02527
9.228,-0.01649
9.232,0.03717
9.236,0.00471
9.24,0.01824
9.244,-0.02331
9.248,-0.04944
9.252,-0.00913
9.256,0.00084
9.26,0.05019
9.264,0.01075
9.268,0.03735
9.272,-0.02429
9.276,-0.01906
9.28,0.04625
9.284,-0.05953
9.288,-0.00434
9.292,-0.032
9.296,-0.03263
9.3,-0.05019
9.304,0.03682
9.308,-0.02408
9.312,-0.10148
9.316,-0.12692
9.32,-0.15292
9.324,-0.10103
9.328,0.0254
9.332,0.12217
9.336,0.31374
9.34,0.59324
9.344,0.81026
9.348,0.93441
9.352,1.00332
9.356,0.97183
9.36,0.86326
9.364,0.53886
9.368,0.32354
9.372,0.13421
9.376,-0.0225
9.38,-0.09057
9.384,-0.1677
9.388,-0.22325
9.392,-0.14981
9.396,-0.09379
9.4,0.01247
9.404,-0.03158
9.408,-0.03824
9.412,-0.02217
9.416,0.00041
9.42,-0.00349
9.424,-0.02666
9.428,0.03757
9.432,-0.01896
9.436,-0.03286
9.44,-0.03508
9.444,0.01684
9.448,0.04121
9.452,0.00727
9.456,6e-05
9.46,0.01851
9.464,0.01292
9.468,0.02334
9.472,-0.03837
9.476,-0.02023
9.48,-0.00351
9.484,0.0041
9.488,0.00338
9.492,-0.01713
9.496,0.00206
9.5,-0.00867
9.504,-0.01112
9.508,-0.00527
9.512,-0.00017
9.516,0.01647
9.52,0.04311
9.524,0.02401
9.528,0.00599
9.532,-0.0309
9.536,0.01707
9.54,0.00061
9.544,-0.00262
9.548,0.04402
9.552,0.02555
9.556,0.07027
9.56,0.06974
9.564,0.0797
9.568,0.07525
9.572,0.06777
9.576,0.04851
9.58,0.17237
9.584,0.16819
9.588,0.21631
9.592,0.19964
9.596,0.26462
9.6,0.28326
9.604,0.31185
9.608,0.27689
9.612,0.27613
9.616,0.3049
9.62,0.31863
9.624,0.29434
9.628,0.22784
9.632,0.22619
9.636,0.25581
9.64,0.22333
9.644,0.17156
9.648,0.22561
9.652,0.15421
9.656,0.18429
9.66,0.13514
9.664,0.16188
9.668,0.15901
9.672,0.20714
9.676,0.17795
9.68,0.09929
9.684,0.16268
9.688,0.0877
9.692,0.16508
9.696,0.08727
9.7,0.05548
9.704,0.05438
9.708,0.07476
9.712,0.03862
9.716,0.00605
9.72,0.00939
9.724,0.00473
9.728,-0.10134
9.732,-0.15066
9.736,0.00873
9.74,0.08326
9.744,0.18866
9.748,0.41764
9.752,0.62386
9.756,0.83064
9.76,0.97558
9.764,1.00346
9.768,0.8927
9.772,0.8033
9.776,0.50698
9.78,0.30203
9.784,0.15004
9.788,-0.05849
9.792,-0.11002
9.796,-0.22783
9.8,-0.10985
9.804,-0.0803
9.808,-0.05519
9.812,-0.02175
9.816,0.04925
9.82,-0.02681
9.824,-0.0162
9.828,-0.04144
9.832,-0.00809
9.836,0.00388
9.84,-0.0183
9.844,0.09898
9.848,0.04949
9.852,0.02082
9.856,-0.00142
9.86,0.02495
9.864,-0.04576
9.868,0.02955
9.872,0.00899
9.876,-0.00948
9.88,-0.02835
9.884,0.04506
9.888,0.02445
9.892,-0.04122
9.896,-0.00516
9.9,0.03682
9.904,0.04117
9.908,-0.00032
9.912,-0.05295
9.916,0.04414
9.92,0.02919
9.924,0.00125
9.928,7e-05
9.932,-0.01225
9.936,-0.00661
9.94,0.03368
9.944,0.02621
9.948,0.07554
9.952,0.00127
9.956,0.02204
9.96,0.05032
9.964,0.05007
9.968,0.02808
9.972,0.05591
9.976,0.00264
9.98,0.11511
9.984,0.09432
9.988,0.12146
9.992,0.10243
9.996,0.16247
