t_seg,ecg_mV
0.0,0.83527
0.004,0.96711
0.008,1.04253
0.012,0.94367
0.016,0.80683
0.02,0.61363
0.024,0.36363
0.028,0.13646
0.032,-0.00901
0.036,-0.12878
0.04,-0.13149
0.044,-0.15864
0.048,-0.079
0.052,-0.0457
0.056,-0.02934
0.06,0.0118
0.064,0.02713
0.068,0.00947
0.072,-0.00977
0.076,0.03082
0.08,0.0364
0.084,0.02344
0.088,0.02229
0.092,0.02442
0.096,0.0098
0.1,0.01309
0.104,0.02651
0.108,0.03458
0.112,0.01973
0.116,0.01408
0.12,0.00747
0.124,0.02529
0.128,0.00885
0.132,0.02293
0.136,0.04233
0.14,0.00755
0.144,0.01651
0.148,0.0125
0.152,0.03026
0.156,0.02626
0.16,0.02107
0.164,0.00891
0.168,0.00391
0.172,0.04466
0.176,0.01436
0.18,0.03977
0.184,0.02645
0.188,0.04174
0.192,0.0643
0.196,0.04832
0.2,0.07455
0.204,0.03521
0.208,0.03874
0.212,0.07726
0.216,0.079
0.22,0.07552
0.224,0.10461
0.228,0.09298
0.232,0.11657
0.236,0.13517
0.24,0.14356
0.244,0.14033
0.248,0.18302
0.252,0.17634
0.256,0.19952
0.26,0.22166
0.264,0.24396
0.268,0.25363
0.272,0.24483
0.276,0.27114
0.28,0.23365
0.284,0.25319
0.288,0.23002
0.292,0.23454
0.296,0.22945
0.3,0.23491
0.304,0.22604
0.308,0.22855
0.312,0.22489
0.316,0.18934
0.32,0.19638
0.324,0.20961
0.328,0.21565
0.332,0.16203
0.336,0.14611
0.34,0.14776
0.344,0.11655
0.348,0.10798
0.352,0.10364
0.356,0.07642
0.36,0.1245
0.364,0.0863
0.368,0.07916
0.372,0.08089
0.376,0.05801
0.38,0.02444
0.384,0.01749
0.388,0.04063
0.392,0.04784
0.396,0.0285
0.4,0.05175
0.404,0.02171
0.408,0.00318
0.412,0.02085
0.416,0.01965
0.42,0.01461
0.424,0.00067
0.428,0.01162
0.432,0.04138
0.436,0.00243
0.44,0.02306
0.444,-0.00639
0.448,0.03663
0.452,0.0116
0.456,0.01219
0.46,0.0388
0.464,0.01249
0.468,0.01161
0.472,0.02723
0.476,0.01068
0.48,0.03685
0.484,0.01303
0.488,0.01017
0.492,0.03426
0.496,0.0344
0.5,0.00227
0.504,0.03521
0.508,0.02745
0.512,-0.00687
0.516,0.02643
0.52,-0.0036
0.524,0.03072
0.528,0.0204
0.532,0.01564
0.536,-0.00236
0.54,0.01755
0.544,0.03138
0.548,0.00677
0.552,-0.00053
0.556,0.06215
0.56,-0.00787
0.564,0.02556
0.568,0.02648
0.572,0.02428
0.576,-0.01946
0.58,0.00827
0.584,0.01566
0.588,-0.01051
0.592,0.02452
0.596,-0.01105
0.6,-0.00934
0.604,0.03204
0.608,-0.02292
0.612,0.00244
0.616,0.0168
0.62,0.03994
0.624,0.03237
0.628,0.02427
0.632,0.04106
0.636,0.014
0.64,0.01774
0.644,0.00111
0.648,0.02652
0.652,0.01883
0.656,-0.00768
0.66,0.01919
0.664,0.03572
0.668,-0.00548
0.672,0.00996
0.676,-0.01442
0.68,-0.01695
0.684,-0.01456
0.688,0.01416
0.692,0.01359
0.696,0.00319
0.7,0.01955
0.704,0.01495
0.708,-0.00528
0.712,0.02031
0.716,-0.01005
0.72,-0.01599
0.724,-7e-05
0.728,0.03071
0.732,0.00128
0.736,0.02293
0.74,0.00227
0.744,0.01866
0.748,-0.01695
0.752,0.01654
0.756,0.01162
0.76,-0.00204
0.764,0.01457
0.768,0.00581
0.772,0.03196
0.776,0.04969
0.78,0.02258
0.784,0.06286
0.788,0.01976
0.792,0.05729
0.796,0.05552
0.8,0.11336
0.804,0.1105
0.808,0.09441
0.812,0.12354
0.816,0.115
0.82,0.10261
0.824,0.09932
0.828,0.07883
0.832,0.08069
0.836,0.05807
0.84,0.03242
0.844,0.02857
0.848,0.01457
0.852,0.01311
0.856,0.00213
0.86,0.01094
0.864,-0.02642
0.868,0.02221
0.872,0.02409
0.876,0.03076
0.88,-0.00621
0.884,0.01943
0.888,0.0192
0.892,-0.0063
0.896,0.01291
0.9,0.00667
0.904,-0.00507
0.908,0.00871
0.912,-0.00252
0.916,-0.00575
0.92,0.00053
0.924,-0.00112
0.928,-0.02937
0.932,-0.05762
0.936,-0.10746
0.94,-0.12759
0.944,-0.06513
0.948,0.02033
0.952,0.17189
0.956,0.3841
0.96,0.58894
0.964,0.81423
0.968,0.93623
0.972,0.9897
0.976,0.95115
0.98,0.79731
0.984,0.53829
0.988,0.32887
0.992,0.15123
0.996,-0.01282
1.0,-0.1281
1.004,-0.18974
1.008,-0.16295
1.012,-0.11737
1.016,-0.09959
1.02,-0.05692
1.024,-0.02086
1.028,0.01994
1.032,0.00579
1.036,0.00793
1.04,0.01179
1.044,-0.01268
1.048,-0.01535
1.052,0.00526
1.056,0.02776
1.06,0.0127
1.064,-0.00676
1.068,-0.0122
1.072,-0.01338
1.076,0.00557
1.08,0.00112
1.084,-0.00907
1.088,0.02164
1.092,0.01804
1.096,-0.00782
1.1,0.00017
1.104,-0.00823
1.108,0.02022
1.112,-0.01578
1.116,0.01385
1.12,0.01121
1.124,-0.01637
1.128,0.00343
1.132,0.00978
1.136,0.02398
1.14,-0.01434
1.144,-0.02096
1.148,0.01844
1.152,0.03743
1.156,0.01667
1.16,0.03698
1.164,0.02128
1.168,0.02943
1.172,0.04962
1.176,0.05849
1.18,0.05714
1.184,0.05289
1.188,0.10401
1.192,0.08514
1.196,0.10701
1.2,0.13159
1.204,0.09752
1.208,0.13404
1.212,0.16412
1.216,0.15145
1.22,0.14285
1.224,0.16995
1.228,0.21027
1.232,0.21985
1.236,0.1981
1.24,0.18746
1.244,0.20139
1.248,0.1931
1.252,0.22862
1.256,0.24
1.26,0.20911
1.264,0.2045
1.268,0.20115
1.272,0.19995
1.276,0.19656
1.28,0.18156
1.284,0.18651
1.288,0.12954
1.292,0.15227
1.296,0.13128
1.3,0.09329
1.304,0.08333
1.308,0.08205
1.312,0.07536
1.316,0.06719
1.32,0.05927
1.324,0.07017
1.328,0.07084
1.332,0.04522
1.336,0.03144
1.34,0.00673
1.344,0.01801
1.348,0.00507
1.352,0.00028
1.356,0.02283
1.36,0.00203
1.364,-0.02066
1.368,0.01771
1.372,0.00638
1.376,-0.01602
1.38,-0.0152
1.384,-0.01245
1.388,0.01326
1.392,-0.00277
1.396,0.0032
1.4,-0.0001
1.404,0.00993
1.408,-0.04093
1.412,0.00201
1.416,0.01583
1.42,-0.01633
1.424,0.00226
1.428,-0.04042
1.432,-0.01573
1.436,-0.00412
1.44,-0.01119
1.444,0.00314
1.448,-0.02151
1.452,-0.01258
1.456,0.0013
1.46,0.00993
1.464,-0.00533
1.468,-0.0075
1.472,-0.00891
1.476,-0.01361
1.48,-0.03779
1.484,-0.00058
1.488,-0.01729
1.492,-0.01018
1.496,-0.01576
1.5,-0.04437
1.504,-0.03154
1.508,0.01607
1.512,-0.01366
1.516,0.01076
1.52,0.01143
1.524,-0.00295
1.528,-0.00352
1.532,-0.01231
1.536,-0.01323
1.54,-0.01394
1.544,-0.00444
1.548,-0.01978
1.552,-0.01669
1.556,-0.00707
1.56,-0.00635
1.564,-0.00925
1.568,-0.00057
1.572,0.00634
1.576,-0.04232
1.58,-0.00156
1.584,0.00455
1.588,0.01446
1.592,0.00075
1.596,-0.02515
1.6,-0.00179
1.604,0.00189
1.608,-0.02629
1.612,-0.01786
1.616,-0.00217
1.62,-0.02237
1.624,-0.01547
1.628,-0.0152
1.632,-0.02688
1.636,-0.03832
1.64,-0.03993
1.644,-0.01556
1.648,-0.00055
1.652,-0.00512
1.656,-0.03335
1.66,0.01283
1.664,-0.03052
1.668,-0.02715
1.672,-0.02622
1.676,-0.04359
1.68,-0.03143
1.684,0.00931
1.688,-0.01079
1.692,-0.00593
1.696,-0.01881
1.7,0.00298
1.704,0.00904
1.708,0.04023
1.712,0.02003
1.716,0.02812
1.72,0.03628
1.724,0.07466
1.728,0.06201
1.732,0.07793
1.736,0.08737
1.74,0.07474
1.744,0.07977
1.748,0.05489
1.752,0.07204
1.756,0.03957
1.76,0.01919
1.764,0.01599
1.768,0.01349
1.772,0.00178
1.776,0.01595
1.78,0.03208
1.784,-0.0099
1.788,0.0114
1.792,-0.01589
1.796,0.00186
1.8,-0.04765
1.804,-0.04117
1.808,-0.03196
1.812,-0.00921
1.816,-0.01925
1.82,-0.01859
1.824,-0.03112
1.828,-0.00757
1.832,-0.02688
1.836,-0.02662
1.84,-0.00536
1.844,-0.02637
1.848,-0.01604
1.852,-0.00751
1.856,-0.06454
1.86,-0.12664
1.864,-0.13921
1.868,-0.16481
1.872,-0.08286
1.876,0.0261
1.88,0.17048
1.884,0.38213
1.888,0.61101
1.892,0.78745
1.896,0.94856
1.9,0.98009
1.904,0.89656
1.908,0.72427
1.912,0.51934
1.916,0.26163
1.92,0.05183
1.924,-0.04134
1.928,-0.15575
1.932,-0.20417
1.936,-0.16768
1.94,-0.1345
1.944,-0.10845
1.948,-0.07213
1.952,-0.02142
1.956,-0.02998
1.96,-0.03878
1.964,-0.03216
1.968,-0.03198
1.972,-0.0114
1.976,-0.00154
1.98,-0.0488
1.984,-0.03363
1.988,-0.03082
1.992,-0.05504
1.996,-0.01486
2.0,0.00271
2.004,-0.03652
2.008,-0.03114
2.012,-0.01766
2.016,-0.03957
2.02,0.00607
2.024,-0.04755
2.028,-0.07048
2.032,-0.03227
2.036,-0.02522
2.04,-0.00909
2.044,-0.01675
2.048,-0.01449
2.052,-0.03705
2.056,-0.00894
2.06,-0.01528
2.064,-0.0224
2.068,-0.04164
2.072,-0.02379
2.076,-0.00441
2.08,-0.0048
2.084,-0.05466
2.088,0.0128
2.092,0.0094
2.096,0.01015
2.1,0.02686
2.104,0.06307
2.108,0.0327
2.112,0.05678
2.116,0.05336
2.12,0.06538
2.124,0.08203
2.128,0.08881
2.132,0.08425
2.136,0.13486
2.14,0.15151
2.144,0.15745
2.148,0.1577
2.152,0.16309
2.156,0.16557
2.16,0.16157
2.164,0.20519
2.168,0.1735
2.172,0.2008
2.176,0.16206
2.18,0.18953
2.184,0.19244
2.188,0.19131
2.192,0.16828
2.196,0.18601
2.2,0.17265
2.204,0.18591
2.208,0.16463
2.212,0.15558
2.216,0.146
2.22,0.13181
2.224,0.13292
2.228,0.0919
2.232,0.09863
2.236,0.05942
2.24,0.06212
2.244,0.05858
2.248,0.04041
2.252,0.03251
2.256,0.01432
2.26,0.02978
2.264,0.00177
2.268,0.0112
2.272,-0.0043
2.276,-0.00594
2.28,0.0003
2.284,0.00708
2.288,0.0116
2.292,-0.01336
2.296,-0.02951
2.3,-0.02792
2.304,-0.01647
2.308,-0.05245
2.312,0.00054
2.316,-0.00717
2.32,-0.03424
2.324,-0.03537
2.328,-0.02237
2.332,-0.02322
2.336,-0.04927
2.34,-0.03531
2.344,-0.0389
2.348,-0.03763
2.352,-0.0389
2.356,-0.05481
2.36,-0.03241
2.364,-0.0298
2.368,-0.04314
2.372,-0.00924
2.376,-0.03184
2.38,-0.02486
2.384,-0.03229
2.388,-0.05432
2.392,-0.05035
2.396,-0.03441
2.4,-0.02835
2.404,-0.03845
2.408,-0.00532
2.412,-0.03491
2.416,-0.03782
2.42,-0.00322
2.424,-0.04477
2.428,-0.03898
2.432,-0.00521
2.436,-0.03388
2.44,-0.02987
2.444,-0.00444
2.448,-0.0584
2.452,-0.02356
2.456,-0.02229
2.46,-0.01716
2.464,-0.01775
2.468,-0.03842
2.472,-0.02046
2.476,-0.0251
2.48,-0.01528
2.484,-0.04111
2.488,-0.02462
2.492,-0.02295
2.496,-0.0174
2.5,-0.01154
2.504,-0.06049
2.508,-0.01085
2.512,-0.05211
2.516,-0.02815
2.52,-0.01393
2.524,-0.03864
2.528,-0.01118
2.532,-0.03283
2.536,-0.02433
2.54,-0.0353
2.544,-0.03556
2.548,-0.0079
2.552,-0.03198
2.556,-0.025
2.56,-0.03245
2.564,-0.02348
2.568,-0.01759
2.572,-0.01433
2.576,-0.04948
2.58,-0.04298
2.584,-0.0346
2.588,-0.03553
2.592,-0.02069
2.596,-0.04011
2.6,-0.01831
2.604,0.01868
2.608,-0.02856
2.612,-0.03644
2.616,-0.006
2.62,-0.0295
2.624,-0.01505
2.628,-0.03402
2.632,-0.03137
2.636,-0.00282
2.64,-0.03418
2.644,-0.03501
2.648,-0.01537
2.652,-0.01242
2.656,-0.01357
2.66,-0.00592
2.664,-0.03812
2.668,-0.03981
2.672,-0.03304
2.676,-0.03097
2.68,-0.02601
2.684,-0.00529
2.688,-0.02088
2.692,-0.03735
2.696,-0.02759
2.7,-0.0376
2.704,-0.04231
2.708,-0.03314
2.712,-0.0514
2.716,-0.0152
2.72,-0.02618
2.724,-0.03858
2.728,-0.0053
2.732,-0.02518
2.736,-0.03561
2.74,-0.02063
2.744,-0.03371
2.748,-0.03387
2.752,-0.02826
2.756,-0.00037
2.76,-0.0374
2.764,-0.03516
2.768,-0.02344
2.772,-0.04752
2.776,-0.03864
2.78,-0.01091
2.784,-0.00705
2.788,-0.04244
2.792,-0.03898
2.796,-0.00742
2.8,-0.01479
2.804,-0.01802
2.808,-0.04883
2.812,-0.03933
2.816,-0.01742
2.82,-0.02101
2.824,-0.03225
2.828,-0.0038
2.832,-0.01749
2.836,-0.00791
2.84,0.02012
2.844,0.02591
2.848,0.0064
2.852,0.0574
2.856,0.04223
2.86,0.05633
2.864,0.09572
2.868,0.05597
2.872,0.06952
2.876,0.05422
2.88,0.04415
2.884,0.04354
2.888,0.03848
2.892,0.00207
2.896,-0.01014
2.9,-0.00088
2.904,-0.01238
2.908,-0.01885
2.912,-0.04308
2.916,-0.00926
2.92,-0.01489
2.924,-0.01181
2.928,-0.02414
2.932,-0.01612
2.936,-0.02527
2.94,-0.02159
2.944,-0.02873
2.948,-0.04058
2.952,-0.02222
2.956,-0.03972
2.96,0.01782
2.964,-0.02955
2.968,-0.01983
2.972,-0.02931
2.976,-0.03565
2.98,-0.03319
2.984,-0.03328
2.988,-0.07767
2.992,-0.13463
2.996,-0.1504
3.0,-0.13001
3.004,-0.04724
3.008,0.10028
3.012,0.31013
3.016,0.49918
3.02,0.701
3.024,0.89252
3.028,0.97874
3.032,0.93905
3.036,0.8162
3.04,0.60005
3.044,0.35913
3.048,0.17557
3.052,0.0069
3.056,-0.1452
3.06,-0.20309
3.064,-0.17939
3.068,-0.15681
3.072,-0.09083
3.076,-0.09327
3.08,-0.06339
3.084,-0.04449
3.088,-0.03519
3.092,-0.02941
3.096,-0.06412
3.1,-0.04108
3.104,-0.03082
3.108,-0.05119
3.112,-0.03884
3.116,-0.0377
3.12,-0.04057
3.124,-0.0073
3.128,-0.01264
3.132,-0.03061
3.136,-0.02669
3.14,-0.0341
3.144,-0.02009
3.148,-0.03733
3.152,-0.05349
3.156,-0.02783
3.16,-0.0353
3.164,-0.03177
3.168,-0.01757
3.172,-0.03883
3.176,-0.02372
3.18,-0.00493
3.184,-0.04687
3.188,-0.04215
3.192,-0.01884
3.196,0.00752
3.2,0.0041
3.204,-0.00279
3.208,-0.00504
3.212,-0.01077
3.216,-0.00326
3.22,-0.00095
3.224,-0.01202
3.228,0.01419
3.232,0.02589
3.236,0.02446
3.24,0.05312
3.244,0.04248
3.248,0.06573
3.252,0.08314
3.256,0.0989
3.26,0.08863
3.264,0.0939
3.268,0.1183
3.272,0.13362
3.276,0.10243
3.28,0.15526
3.284,0.14306
3.288,0.14996
3.292,0.20336
3.296,0.19672
3.3,0.19542
3.304,0.18717
3.308,0.19395
3.312,0.21375
3.316,0.17748
3.32,0.19102
3.324,0.1828
3.328,0.17695
3.332,0.16985
3.336,0.13818
3.34,0.15026
3.344,0.14379
3.348,0.15206
3.352,0.12427
3.356,0.11241
3.36,0.10488
3.364,0.07505
3.368,0.07068
3.372,0.03966
3.376,0.05586
3.38,0.03068
3.384,0.03056
3.388,0.01327
3.392,0.02079
3.396,-0.00898
3.4,0.00525
3.404,-0.00883
3.408,0.00935
3.412,-0.02752
3.416,-0.01236
3.42,-0.03233
3.424,-0.00677
3.428,-0.01084
3.432,-0.02119
3.436,-0.04714
3.44,-0.02558
3.444,-0.02843
3.448,-0.02175
3.452,-0.0194
3.456,-0.02761
3.46,-0.01947
3.464,-0.04178
3.468,-0.02983
3.472,-0.01823
3.476,-0.05682
3.48,-0.03256
3.484,0.00011
3.488,-0.03543
3.492,0.01877
3.496,-0.03689
3.5,-0.02089
3.504,-0.03862
3.508,-0.01005
3.512,-0.01943
3.516,-0.03778
3.52,-0.06045
3.524,-0.032
3.528,-0.01788
3.532,-0.0303
3.536,0.0021
3.54,-0.01535
3.544,-0.05288
3.548,-0.03269
3.552,-0.00583
3.556,-0.03712
3.56,-0.01368
3.564,-0.01182
3.568,-0.01122
3.572,0.0043
3.576,0.00244
3.58,-0.03112
3.584,-0.04816
3.588,0.00045
3.592,0.00792
3.596,0.00761
3.6,-0.03637
3.604,0.0019
3.608,-0.02399
3.612,-0.00989
3.616,-0.02903
3.62,0.01178
3.624,-0.03842
3.628,-0.00114
3.632,-0.03412
3.636,0.00401
3.64,0.00195
3.644,-0.02563
3.648,-0.01711
3.652,-0.03179
3.656,-0.01558
3.66,-0.01769
3.664,-0.03944
3.668,-0.0214
3.672,-0.01973
3.676,-0.03005
3.68,-0.0398
3.684,-0.02675
3.688,-0.02186
3.692,-0.00789
3.696,-0.04866
3.7,-0.04363
3.704,-0.0385
3.708,-0.02277
3.712,-0.00995
3.716,-0.01709
3.72,-0.00776
3.724,-0.02026
3.728,-0.00977
3.732,0.00467
3.736,-0.00349
3.74,-0.01996
3.744,-0.02739
3.748,-0.00205
3.752,-0.03662
3.756,0.01269
3.76,-0.01235
3.764,-0.02912
3.768,0.00177
3.772,-0.00152
3.776,0.01082
3.78,0.03011
3.784,0.0108
3.788,0.0417
3.792,0.02022
3.796,0.07383
3.8,0.07965
3.804,0.0745
3.808,0.06488
3.812,0.07631
3.816,0.08825
3.82,0.06625
3.824,0.05894
3.828,0.07119
3.832,0.03468
3.836,0.0697
3.84,0.04022
3.844,0.02479
3.848,-0.02019
3.852,-0.00654
3.856,-0.01276
3.86,-0.01415
3.864,-0.01169
3.868,-0.02706
3.872,-0.02682
3.876,-0.00476
3.88,-0.00849
3.884,-0.00186
3.888,0.00665
3.892,-0.00887
3.896,0.00817
3.9,-0.02838
3.904,0.0108
3.908,-0.01152
3.912,-0.01501
3.916,0.00702
3.92,-0.02592
3.924,-0.02974
3.928,-0.03468
3.932,-0.07437
3.936,-0.09243
3.94,-0.13023
3.944,-0.09183
3.948,0.02089
3.952,0.15686
3.956,0.36074
3.96,0.56975
3.964,0.80061
3.968,0.94319
3.972,0.97993
3.976,0.93269
3.98,0.7708
3.984,0.5595
3.988,0.35775
3.992,0.07615
3.996,-0.05493
4.0,-0.13947
4.004,-0.19152
4.008,-0.14811
4.012,-0.12413
4.016,-0.10742
4.02,-0.0421
4.024,-0.03798
4.028,-0.00458
4.032,-0.02728
4.036,-0.00673
4.04,-0.01634
4.044,0.00693
4.048,-0.03642
4.052,-0.01033
4.056,-0.0391
4.06,0.01221
4.064,-0.01129
4.068,0.00024
4.072,-0.01756
4.076,-0.02774
4.08,-0.01417
4.084,-0.02213
4.088,0.0254
4.092,0.00446
4.096,-0.00842
4.1,0.00477
4.104,-0.00423
4.108,-0.01321
4.112,-0.00519
4.116,-0.01109
4.12,0.01716
4.124,0.01846
4.128,0.0166
4.132,0.01049
4.136,0.00506
4.14,0.00128
4.144,0.01034
4.148,0.02739
4.152,0.00567
4.156,-0.00384
4.16,0.00966
4.164,0.03983
4.168,0.02778
4.172,0.04765
4.176,0.05411
4.18,0.05916
4.184,0.06451
4.188,0.05874
4.192,0.0703
4.196,0.07449
4.2,0.10513
4.204,0.13618
4.208,0.12929
4.212,0.12866
4.216,0.14981
4.22,0.15432
4.224,0.17259
4.228,0.19775
4.232,0.21606
4.236,0.16942
4.24,0.22999
4.244,0.2017
4.248,0.22993
4.252,0.21674
4.256,0.21378
4.26,0.23043
4.264,0.20925
4.268,0.18803
4.272,0.20032
4.276,0.18092
4.28,0.1813
4.284,0.18617
4.288,0.15504
4.292,0.12766
4.296,0.12336
4.3,0.13198
4.304,0.10769
4.308,0.08673
4.312,0.09581
4.316,0.08678
4.32,0.0895
4.324,0.07047
4.328,0.05501
4.332,0.02707
4.336,0.03406
4.34,-0.0059
4.344,0.02306
4.348,0.01012
4.352,0.01509
4.356,0.01918
4.36,0.01104
4.364,0.00017
4.368,-0.00632
4.372,0.03078
4.376,-0.00373
4.38,-0.00737
4.384,0.01205
4.388,0.02141
4.392,0.02613
4.396,0.00945
4.4,0.0148
4.404,-0.03498
4.408,-0.00289
4.412,-0.00906
4.416,-0.0001
4.42,-0.00575
4.424,-0.00191
4.428,-0.0048
4.432,0.02924
4.436,0.01706
4.44,0.00951
4.444,0.00976
4.448,-0.02554
4.452,0.00372
4.456,-0.00355
4.46,0.02291
4.464,0.00057
4.468,0.01195
4.472,-0.00233
4.476,-0.02574
4.48,0.02865
4.484,-0.02861
4.488,0.00547
4.492,0.00038
4.496,0.01971
4.5,0.02137
4.504,0.01217
4.508,0.01542
4.512,0.02074
4.516,0.00918
4.52,0.00229
4.524,0.02054
4.528,0.00276
4.532,-0.00711
4.536,-0.01724
4.54,0.0274
4.544,-0.00388
4.548,-0.00577
4.552,-0.01027
4.556,-0.00078
4.56,0.00244
4.564,0.02404
4.568,-0.02145
4.572,0.01739
4.576,0.01712
4.58,-0.01365
4.584,0.00654
4.588,-0.01003
4.592,0.04944
4.596,-0.01446
4.6,0.01124
4.604,0.023
4.608,-0.02781
4.612,0.00897
4.616,-0.00266
4.62,-0.01646
4.624,0.02261
4.628,-0.00055
4.632,-0.01726
4.636,0.00441
4.64,-0.01015
4.644,0.01213
4.648,0.00027
4.652,0.01315
4.656,0.01643
4.66,-0.00464
4.664,0.00942
4.668,0.02312
4.672,0.04337
4.676,0.03799
4.68,0.03516
4.684,0.0575
4.688,0.068
4.692,0.08938
4.696,0.09603
4.7,0.12658
4.704,0.10539
4.708,0.08912
4.712,0.07897
4.716,0.1191
4.72,0.10102
4.724,0.08218
4.728,0.05452
4.732,0.05779
4.736,0.04505
4.74,0.03682
4.744,0.02111
4.748,0.01086
4.752,0.00344
4.756,0.02887
4.76,0.00425
4.764,-0.01294
4.768,-0.00649
4.772,0.00962
4.776,-0.01004
4.78,-0.02007
4.784,-0.00765
4.788,0.01919
4.792,0.00439
4.796,0.00086
4.8,0.0166
4.804,-0.02139
4.808,-0.00116
4.812,-0.0112
4.816,0.00469
4.82,-0.00581
4.824,-0.00956
4.828,-0.06332
4.832,-0.10991
4.836,-0.10465
4.84,-0.06063
4.844,0.01086
4.848,0.1603
4.852,0.38306
4.856,0.59432
4.86,0.81115
4.864,0.94491
4.868,1.02019
4.872,0.98118
4.876,0.82431
4.88,0.61772
4.884,0.35791
4.888,0.16098
4.892,-0.05171
4.896,-0.10611
4.9,-0.13376
4.904,-0.16516
4.908,-0.08509
4.912,-0.06436
4.916,-0.01411
4.92,0.00309
4.924,-0.01062
4.928,0.01394
4.932,0.01733
4.936,0.03282
4.94,0.02069
4.944,0.03791
4.948,0.0146
4.952,0.036
4.956,0.00235
4.96,0.01526
4.964,0.03167
4.968,-0.00128
4.972,0.03148
4.976,-0.00031
4.98,0.0319
4.984,0.02162
4.988,-0.00424
4.992,0.02206
4.996,0.0069
5.0,0.02007
5.004,0.01749
5.008,-0.01364
5.012,-0.00651
5.016,0.04456
5.02,0.02286
5.024,0.03665
5.028,0.02798
5.032,0.04937
5.036,0.02924
5.04,0.03837
5.044,0.04613
5.048,0.05883
5.052,0.01389
5.056,0.03971
5.06,0.04645
5.064,0.07189
5.068,0.03863
5.072,0.07062
5.076,0.09736
5.08,0.10802
5.084,0.09371
5.088,0.13142
5.092,0.13203
5.096,0.14631
5.1,0.12358
5.104,0.17505
5.108,0.17497
5.112,0.16633
5.116,0.1737
5.12,0.19718
5.124,0.20397
5.128,0.22364
5.132,0.2293
5.136,0.23372
5.14,0.24492
5.144,0.22584
5.148,0.21325
5.152,0.21551
5.156,0.26845
5.16,0.24209
5.164,0.23618
5.168,0.22479
5.172,0.2194
5.176,0.21635
5.18,0.15613
5.184,0.17561
5.188,0.16376
5.192,0.15948
5.196,0.14774
5.2,0.1283
5.204,0.11309
5.208,0.13947
5.212,0.11733
5.216,0.10584
5.22,0.08074
5.224,0.06576
5.228,0.08099
5.232,0.04922
5.236,0.0573
5.24,0.03727
5.244,0.0502
5.248,0.03759
5.252,0.05559
5.256,0.00618
5.26,0.0034
5.264,0.02879
5.268,0.02962
5.272,0.01892
5.276,0.01294
5.28,0.01928
5.284,0.03517
5.288,0.02737
5.292,0.02355
5.296,0.02547
5.3,0.02682
5.304,0.02813
5.308,-0.00215
5.312,0.02248
5.316,0.04172
5.32,0.01237
5.324,0.02717
5.328,0.02268
5.332,0.00134
5.336,0.01786
5.34,0.01256
5.344,-0.00158
5.348,0.04025
5.352,0.03248
5.356,0.00471
5.36,0.02173
5.364,-0.00569
5.368,0.01713
5.372,0.0372
5.376,0.03679
5.38,0.03082
5.384,0.02315
5.388,0.05715
5.392,0.06393
5.396,0.04158
5.4,0.03543
5.404,0.06505
5.408,0.05483
5.412,0.08116
5.416,0.07869
5.42,0.11396
5.424,0.12421
5.428,0.12488
5.432,0.09414
5.436,0.12845
5.44,0.10865
5.444,0.09776
5.448,0.09507
5.452,0.083
5.456,0.06971
5.46,0.05784
5.464,0.04732
5.468,0.0235
5.472,0.01541
5.476,0.02819
5.48,0.03519
5.484,0.06735
5.488,0.02472
5.492,0.01393
5.496,0.02344
5.5,0.03358
5.504,0.03207
5.508,0.03431
5.512,0.04087
5.516,0.016
5.52,0.01275
5.524,0.02971
5.528,0.0553
5.532,0.01269
5.536,0.02077
5.54,0.04117
5.544,0.01196
5.548,0.00547
5.552,-0.0656
5.556,-0.09383
5.56,-0.08727
5.564,-0.02601
5.568,0.08069
5.572,0.23262
5.576,0.45184
5.58,0.64491
5.584,0.86593
5.588,0.9796
5.592,1.05273
5.596,0.94323
5.6,0.78489
5.604,0.56432
5.608,0.34496
5.612,0.11843
5.616,-0.0417
5.62,-0.11359
5.624,-0.14882
5.628,-0.10924
5.632,-0.08969
5.636,-0.04516
5.64,0.00378
5.644,0.02083
5.648,0.02708
5.652,-0.0147
5.656,0.03119
5.66,0.04954
5.664,0.03662
5.668,0.01023
5.672,0.0339
5.676,0.03881
5.68,0.00572
5.684,0.02698
5.688,0.01686
5.692,0.04491
5.696,0.02013
5.7,0.03625
5.704,0.02058
5.708,0.03856
5.712,0.0453
5.716,0.04094
5.72,-0.00208
5.724,0.01536
5.728,0.03218
5.732,0.04477
5.736,0.01766
5.74,0.00249
5.744,0.02351
5.748,0.03879
5.752,0.05915
5.756,0.01056
5.76,0.03422
5.764,0.00757
5.768,0.02517
5.772,0.05057
5.776,0.07016
5.78,0.03173
5.784,0.08945
5.788,0.05483
5.792,0.06218
5.796,0.07166
5.8,0.08843
5.804,0.10325
5.808,0.11457
5.812,0.12986
5.816,0.13376
5.82,0.13118
5.824,0.18003
5.828,0.15686
5.832,0.19442
5.836,0.18331
5.84,0.19799
5.844,0.2475
5.848,0.23911
5.852,0.20659
5.856,0.24083
5.86,0.22281
5.864,0.24049
5.868,0.2533
5.872,0.24947
5.876,0.25676
5.88,0.23831
5.884,0.22009
5.888,0.24945
5.892,0.23687
5.896,0.21487
5.9,0.19794
5.904,0.20468
5.908,0.20242
5.912,0.17937
5.916,0.16953
5.92,0.15712
5.924,0.13236
5.928,0.13131
5.932,0.12564
5.936,0.1018
5.94,0.10601
5.944,0.09832
5.948,0.06742
5.952,0.06893
5.956,0.04902
5.96,0.05552
5.964,0.0627
5.968,0.06856
5.972,0.0483
5.976,0.00679
5.98,0.06539
5.984,0.03919
5.988,0.04773
5.992,0.04425
5.996,0.03358
6.0,0.05842
6.004,0.05129
6.008,0.01511
6.012,0.02448
6.016,0.04599
6.02,0.05038
6.024,0.02839
6.028,0.02798
6.032,0.00828
6.036,0.04566
6.04,0.03036
6.044,0.03172
6.048,0.02523
6.052,0.01288
6.056,0.04567
6.06,0.04252
6.064,0.03187
6.068,0.02746
6.072,0.01575
6.076,0.01788
6.08,0.00643
6.084,0.03142
6.088,0.03378
6.092,0.03927
6.096,0.02219
6.1,0.04755
6.104,0.01318
6.108,0.02178
6.112,0.04661
6.116,0.04174
6.12,0.01201
6.124,0.068
6.128,0.01845
6.132,0.0388
6.136,0.04005
6.14,0.01785
6.144,0.01947
6.148,0.03622
6.152,0.02523
6.156,0.06902
6.16,0.0553
6.164,0.05432
6.168,0.028
6.172,0.03234
6.176,0.0348
6.18,0.02483
6.184,0.02789
6.188,0.04477
6.192,0.031
6.196,0.04177
6.2,0.02902
6.204,0.01019
6.208,0.03683
6.212,0.03405
6.216,0.01715
6.22,0.03008
6.224,0.02132
6.228,0.0363
6.232,0.01452
6.236,0.00408
6.24,0.02524
6.244,0.02435
6.248,0.03883
6.252,0.01112
6.256,0.04117
6.26,0.04166
6.264,0.00201
6.268,0.02429
6.272,0.02588
6.276,0.01992
6.28,0.02808
6.284,0.03072
6.288,0.04845
6.292,0.04833
6.296,0.02264
6.3,0.03366
6.304,0.03209
6.308,0.02595
6.312,0.03564
6.316,0.0202
6.32,0.03377
6.324,0.01911
6.328,0.05443
6.332,0.0074
6.336,0.03689
6.34,0.02749
6.344,0.02395
6.348,0.05143
6.352,0.04435
6.356,0.02916
6.36,0.03603
6.364,0.02707
6.368,0.0295
6.372,0.034
6.376,0.05933
6.38,0.04748
6.384,0.02889
6.388,-0.0027
6.392,0.03635
6.396,0.06276
6.4,0.02747
6.404,0.05008
6.408,0.02421
6.412,0.02802
6.416,0.03541
6.42,0.0473
6.424,0.00767
6.428,0.02906
6.432,0.02258
6.436,0.06505
6.44,0.06234
6.444,0.06834
6.448,0.07502
6.452,0.10606
6.456,0.09144
6.46,0.12334
6.464,0.13989
6.468,0.13499
6.472,0.08998
6.476,0.13391
6.48,0.10191
6.484,0.10519
6.488,0.08597
6.492,0.07436
6.496,0.06074
6.5,0.06168
6.504,0.0377
6.508,0.03733
6.512,0.03722
6.516,0.01984
6.52,0.01672
6.524,0.02325
6.528,0.00561
6.532,0.03834
6.536,0.03827
6.54,0.01468
6.544,-0.00177
6.548,0.01853
6.552,0.03595
6.556,0.04763
6.56,0.02866
6.564,0.0379
6.568,0.03435
6.572,0.02659
6.576,0.03011
6.58,0.0111
6.584,0.02862
6.588,-0.0273
6.592,-0.07601
6.596,-0.0915
6.6,-0.05825
6.604,0.03046
6.608,0.17741
6.612,0.37096
6.616,0.58326
6.62,0.82745
6.624,0.98312
6.628,1.00306
6.632,0.96168
6.636,0.84065
6.64,0.60585
6.644,0.3982
6.648,0.17405
6.652,-0.0005
6.656,-0.10674
6.66,-0.13694
6.664,-0.16278
6.668,-0.11332
6.672,-0.06686
6.676,-0.01943
6.68,0.03195
6.684,0.05482
6.688,0.01383
6.692,0.0332
6.696,0.00768
6.7,0.00879
6.704,0.0334
6.708,0.04073
6.712,0.03057
6.716,0.02309
6.72,0.00725
6.724,0.06806
6.728,-0.00194
6.732,0.01869
6.736,0.01964
6.74,-0.02001
6.744,0.0036
6.748,0.01826
6.752,0.03257
6.756,0.01638
6.76,0.03456
6.764,0.0509
6.768,0.03354
6.772,0.01848
6.776,0.03018
6.78,0.05421
6.784,0.02488
6.788,0.05045
6.792,0.04339
6.796,0.0295
6.8,0.00277
6.804,0.05102
6.808,0.05498
6.812,0.03899
6.816,0.03636
6.82,0.06585
6.824,0.05588
6.828,0.07918
6.832,0.07658
6.836,0.06758
6.84,0.10342
6.844,0.09354
6.848,0.12155
6.852,0.12734
6.856,0.14741
6.86,0.16541
6.864,0.13409
6.868,0.17823
6.872,0.16782
6.876,0.19025
6.88,0.2108
6.884,0.16029
6.888,0.1971
6.892,0.25649
6.896,0.23366
6.9,0.2715
6.904,0.24572
6.908,0.2478
6.912,0.24155
6.916,0.23461
6.92,0.23231
6.924,0.22829
6.928,0.24758
6.932,0.21192
6.936,0.19796
6.94,0.19048
6.944,0.17943
6.948,0.16773
6.952,0.14176
6.956,0.14629
6.96,0.12163
6.964,0.10735
6.968,0.10882
6.972,0.11283
6.976,0.11059
6.98,0.11102
6.984,0.04738
6.988,0.06304
6.992,0.07156
6.996,0.03506
7.0,0.03015
7.004,0.04462
7.008,0.07389
7.012,0.0524
7.016,0.0459
7.02,0.0169
7.024,0.02278
7.028,0.02242
7.032,0.02827
7.036,0.01967
7.04,0.02598
7.044,0.03451
7.048,0.04726
7.052,0.01879
7.056,0.01918
7.06,0.04263
7.064,0.0328
7.068,0.01664
7.072,0.02457
7.076,0.028
7.08,0.0312
7.084,-0.00878
7.088,0.02992
7.092,0.00141
7.096,-0.00637
7.1,0.0216
7.104,0.01303
7.108,0.02434
7.112,0.02911
7.116,0.0389
7.12,-0.00098
7.124,0.03243
7.128,0.0201
7.132,0.02413
7.136,0.02499
7.14,0.01545
7.144,-0.00989
7.148,0.04636
7.152,0.03749
7.156,-0.00404
7.16,0.03546
7.164,0.02433
7.168,-0.01595
7.172,0.02643
7.176,0.01005
7.18,0.01016
7.184,0.03774
7.188,0.03643
7.192,-0.0034
7.196,-0.01157
7.2,0.00849
7.204,0.02087
7.208,0.01458
7.212,-0.01568
7.216,0.01465
7.22,0.03356
7.224,0.05533
7.228,0.02187
7.232,0.02279
7.236,0.0288
7.24,0.01629
7.244,0.02254
7.248,0.01643
7.252,-0.0078
7.256,0.02119
7.26,0.01818
7.264,0.02623
7.268,0.03048
7.272,0.01092
7.276,0.0206
7.28,0.00779
7.284,0.01641
7.288,0.01407
7.292,0.00054
7.296,0.01939
7.3,0.01058
7.304,0.02003
7.308,0.01815
7.312,0.0197
7.316,0.02028
7.32,0.02271
7.324,0.01277
7.328,0.01245
7.332,0.02384
7.336,0.02238
7.34,0.00121
7.344,0.01812
7.348,0.02213
7.352,0.00789
7.356,0.01089
7.36,0.02683
7.364,0.04198
7.368,0.04762
7.372,0.0579
7.376,0.06261
7.38,0.07454
7.384,0.121
7.388,0.12251
7.392,0.10618
7.396,0.1273
7.4,0.09576
7.404,0.09539
7.408,0.09425
7.412,0.08332
7.416,0.07778
7.42,0.06071
7.424,0.03345
7.428,0.03344
7.432,0.02508
7.436,-0.00275
7.44,0.0117
7.444,0.02632
7.448,-0.00155
7.452,0.04015
7.456,0.00183
7.46,0.00538
7.464,0.01536
7.468,0.01718
7.472,0.01281
7.476,0.00524
7.48,0.02103
7.484,0.01819
7.488,0.02081
7.492,0.00848
7.496,0.00747
7.5,0.01356
7.504,0.008
7.508,-0.00476
7.512,-0.04965
7.516,-0.06451
7.52,-0.09452
7.524,-0.12398
7.528,-0.08304
7.532,0.00456
7.536,0.17148
7.54,0.33854
7.544,0.56213
7.548,0.75991
7.552,0.91823
7.556,0.98768
7.56,0.97591
7.564,0.79098
7.568,0.6118
7.572,0.37289
7.576,0.1526
7.58,-0.0061
7.584,-0.09264
7.588,-0.15805
7.592,-0.15905
7.596,-0.13694
7.6,-0.07893
7.604,-0.0597
7.608,-0.0264
7.612,-0.00046
7.616,-0.00078
7.62,-0.01172
7.624,0.00115
7.628,0.01012
7.632,0.01201
7.636,-0.02559
7.64,0.02114
7.644,0.00056
7.648,-0.03045
7.652,0.01677
7.656,-0.01085
7.66,-0.01007
7.664,0.01359
7.668,0.01808
7.672,0.00465
7.676,0.0016
7.68,0.01156
7.684,-0.00104
7.688,0.00977
7.692,0.018
7.696,0.01467
7.7,0.0017
7.704,0.01085
7.708,0.01382
7.712,0.01228
7.716,0.01076
7.72,0.01296
7.724,0.00896
7.728,0.03676
7.732,0.02781
7.736,0.00695
7.74,0.05172
7.744,0.04192
7.748,0.03827
7.752,0.02594
7.756,0.0165
7.76,0.04594
7.764,0.04578
7.768,0.04073
7.772,0.06464
7.776,0.07744
7.78,0.11322
7.784,0.0971
7.788,0.11359
7.792,0.13217
7.796,0.13899
7.8,0.15153
7.804,0.18079
7.808,0.18651
7.812,0.18669
7.816,0.17178
7.82,0.20083
7.824,0.18444
7.828,0.2183
7.832,0.22814
7.836,0.20073
7.84,0.20437
7.844,0.21132
7.848,0.20083
7.852,0.19962
7.856,0.16733
7.86,0.21318
7.864,0.18143
7.868,0.182
7.872,0.16386
7.876,0.15182
7.88,0.12989
7.884,0.13141
7.888,0.1215
7.892,0.09367
7.896,0.09982
7.9,0.07173
7.904,0.08026
7.908,0.03261
7.912,0.03007
7.916,0.04548
7.92,0.01704
7.924,0.02483
7.928,0.03298
7.932,0.01801
7.936,0.00117
7.94,0.01212
7.944,0.02658
7.948,0.01342
7.952,0.0321
7.956,-0.02372
7.96,0.01246
7.964,0.00631
7.968,-0.00356
7.972,0.02293
7.976,-0.00965
7.98,0.01129
7.984,0.03564
7.988,-0.00549
7.992,-0.02211
7.996,-0.00683
8.0,-0.02324
8.004,-0.01541
8.008,0.01773
8.012,-0.01579
8.016,-0.03286
8.02,-0.01687
8.024,-0.00818
8.028,0.02465
8.032,-0.01745
8.036,-0.02956
8.04,-0.00046
8.044,-0.00401
8.048,-0.0223
8.052,-0.00482
8.056,0.00222
8.06,0.00463
8.064,-0.00267
8.068,-1e-05
8.072,-0.00605
8.076,-0.00864
8.08,-0.01329
8.084,-0.02868
8.088,-0.01467
8.092,-0.02675
8.096,-0.0247
8.1,-0.03096
8.104,-0.02971
8.108,-0.03013
8.112,0.00729
8.116,-0.01204
8.12,0.00519
8.124,-0.01543
8.128,-0.02879
8.132,-0.01205
8.136,-0.0202
8.14,-0.02745
8.144,-0.01375
8.148,-0.03689
8.152,-0.01078
8.156,-0.00052
8.16,-0.01012
8.164,-0.01513
8.168,0.0251
8.172,-0.0254
8.176,-0.04263
8.18,-0.0149
8.184,-0.02967
8.188,0.00727
8.192,-0.00693
8.196,-0.00683
8.2,0.00365
8.204,-0.00051
8.208,-0.00032
8.212,-0.00047
8.216,-0.003
8.22,0.00795
8.224,0.00219
8.228,0.01474
8.232,-0.02027
8.236,-0.02356
8.24,-0.00444
8.244,-0.01989
8.248,0.00096
8.252,-0.00861
8.256,-0.00834
8.26,-0.02082
8.264,-0.03988
8.268,-0.01033
8.272,-0.05919
8.276,0.00755
8.28,-0.04251
8.284,-0.01405
8.288,-0.01089
8.292,-0.00782
8.296,0.02764
8.3,-0.0095
8.304,-0.00217
8.308,0.0116
8.312,0.03573
8.316,0.03696
8.32,0.02808
8.324,0.05078
8.328,0.07918
8.332,0.05002
8.336,0.08005
8.34,0.11531
8.344,0.08748
8.348,0.09872
8.352,0.07924
8.356,0.08313
8.36,0.06961
8.364,0.02397
8.368,0.03932
8.372,0.02939
8.376,0.01996
8.38,-0.03068
8.384,0.00124
8.388,-0.02702
8.392,-0.00538
8.396,0.00298
8.4,0.00916
8.404,-0.00976
8.408,-0.01938
8.412,-0.00619
8.416,-0.00477
8.42,-0.015
8.424,-0.03353
8.428,-0.02949
8.432,-0.0171
8.436,-0.01571
8.44,-0.03483
8.444,-0.00213
8.448,-0.04018
8.452,-0.01563
8.456,-0.00205
8.46,0.00331
8.464,-0.06372
8.468,-0.09454
8.472,-0.12866
8.476,-0.12134
8.48,-0.10044
8.484,0.04416
8.488,0.17704
8.492,0.42427
8.496,0.61769
8.5,0.831
8.504,0.92559
8.508,0.98553
8.512,0.88416
8.516,0.71353
8.52,0.50814
8.524,0.28236
8.528,0.07259
8.532,-0.06234
8.536,-0.16194
8.54,-0.16398
8.544,-0.19175
8.548,-0.10875
8.552,-0.09598
8.556,-0.05259
8.56,-0.04533
8.564,-0.02273
8.568,-0.01487
8.572,-0.02942
8.576,-0.01286
8.58,-0.03394
8.584,-0.03082
8.588,-0.02539
8.592,-0.01678
8.596,-0.02537
8.6,-0.00902
8.604,-0.02568
8.608,-0.00799
8.612,-0.05284
8.616,-0.03124
8.62,-0.00655
8.624,-0.00273
8.628,-0.00033
8.632,-0.02425
8.636,-0.03728
8.64,-0.02767
8.644,-0.03831
8.648,-0.02416
8.652,-0.02945
8.656,-0.02241
8.66,-0.01858
8.664,-0.02786
8.668,-0.00349
8.672,-0.01382
8.676,-0.00829
8.68,0.02822
8.684,-0.01495
8.688,0.02151
8.692,0.02156
8.696,0.0428
8.7,0.0252
8.704,0.00684
8.708,0.00626
8.712,0.04684
8.716,0.01187
8.72,0.04445
8.724,0.05769
8.728,0.05138
8.732,0.07546
8.736,0.09037
8.74,0.10661
8.744,0.12852
8.748,0.14471
8.752,0.12868
8.756,0.16509
8.76,0.14424
8.764,0.15209
8.768,0.17658
8.772,0.16679
8.776,0.18883
8.78,0.19163
8.784,0.18766
8.788,0.18841
8.792,0.20584
8.796,0.18736
8.8,0.17109
8.804,0.20009
8.808,0.17071
8.812,0.17352
8.816,0.12286
8.82,0.12935
8.824,0.14265
8.828,0.12943
8.832,0.12027
8.836,0.09373
8.84,0.0858
8.844,0.07236
8.848,0.05568
8.852,0.04486
8.856,0.02877
8.86,0.04545
8.864,0.05855
8.868,0.01157
8.872,0.00699
8.876,-0.01256
8.88,0.00601
8.884,0.00149
8.888,-0.00792
8.892,-0.01617
8.896,-0.00699
8.9,-0.02064
8.904,-0.02459
8.908,-0.02805
8.912,-0.01061
8.916,-0.02175
8.92,-0.00346
8.924,-0.00704
8.928,-0.02265
8.932,-0.03412
8.936,-0.03717
8.94,-0.01129
8.944,-0.04086
8.948,-0.03722
8.952,-0.02223
8.956,-0.01272
8.96,-0.01916
8.964,-0.0294
8.968,-0.03682
8.972,-0.04952
8.976,-0.03513
8.98,-0.0434
8.984,-0.02925
8.988,-0.05199
8.992,-0.00191
8.996,-0.027
9.0,-0.03758
9.004,-0.00622
9.008,-0.0387
9.012,-0.02523
9.016,-0.0187
9.02,-0.02528
9.024,-0.00226
9.028,-0.04417
9.032,-0.0188
9.036,-0.01656
9.04,-0.01568
9.044,-0.02552
9.048,-0.03144
9.052,-0.0397
9.056,-0.03209
9.06,-0.01382
9.064,-0.0331
9.068,-0.05357
9.072,-0.01288
9.076,-0.01799
9.08,-0.04964
9.084,-0.04405
9.088,-0.05059
9.092,-0.01852
9.096,-0.0246
9.1,-0.05816
9.104,-0.03209
9.108,-0.02892
9.112,-0.05452
9.116,-0.01443
9.12,-0.01502
9.124,-0.03284
9.128,-0.03293
9.132,-0.03712
9.136,-0.05125
9.14,-0.02822
9.144,-0.03268
9.148,-0.03496
9.152,-0.055
9.156,-0.02901
9.16,-0.05227
9.164,-0.03311
9.168,-0.04358
9.172,-0.07043
9.176,-0.01195
9.18,-0.03444
9.184,-0.02046
9.188,-0.05332
9.192,-0.03318
9.196,-0.03284
9.2,-0.04935
9.204,-0.04412
9.208,-0.02169
9.212,-0.03059
9.216,-0.02673
9.22,-0.04633
9.224,-0.00507
9.228,-0.03715
9.232,-0.01446
9.236,-0.01461
9.24,-0.05813
9.244,-0.03984
9.248,-0.03318
9.252,-0.0095
9.256,-0.02024
9.26,-0.0446
9.264,-0.02159
9.268,-0.00537
9.272,-0.03659
9.276,-0.00984
9.28,-0.02881
9.284,-0.06753
9.288,-0.03749
9.292,-0.02157
9.296,-0.02198
9.3,-0.01698
9.304,-0.03321
9.308,-0.03318
9.312,-0.02849
9.316,-0.03095
9.32,-0.02618
9.324,-0.02486
9.328,-0.02701
9.332,-0.04839
9.336,-0.03721
9.34,-0.01838
9.344,-0.03299
9.348,-0.01598
9.352,-0.04259
9.356,-0.0281
9.36,-0.0421
9.364,-0.0202
9.368,-0.04029
9.372,-0.02799
9.376,-0.02721
9.38,-0.03351
9.384,-0.03279
9.388,0.00079
9.392,-0.01028
9.396,-0.00366
9.4,-0.01533
9.404,-0.00827
9.408,-0.03891
9.412,-0.01666
9.416,-0.03467
9.42,-0.00942
9.424,-0.01291
9.428,-0.04054
9.432,-0.03282
9.436,-0.00497
9.44,-0.04459
9.444,0.00257
9.448,-0.02923
9.452,-0.06245
9.456,-0.02083
9.46,-0.0386
9.464,-0.02012
9.468,-0.02485
9.472,-0.0089
9.476,-0.0275
9.48,-0.03327
9.484,-0.0025
9.488,-0.01871
9.492,-0.02258
9.496,-0.0346
9.5,0.00244
9.504,-0.04319
9.508,-0.03725
9.512,-0.04172
9.516,-0.03859
9.52,-0.03318
9.524,-0.01693
9.528,-0.04774
9.532,-0.03562
9.536,-0.03542
9.54,-0.01938
9.544,-0.02892
9.548,-0.06418
9.552,-0.02085
9.556,-0.02745
9.56,-0.05152
9.564,-0.03165
9.568,-0.0736
9.572,-0.02712
9.576,-0.04402
9.58,-0.02095
9.584,-0.03133
9.588,-0.0146
9.592,0.00943
9.596,-0.00153
9.6,-0.01081
9.604,0.03227
9.608,0.00078
9.612,0.04015
9.616,0.05806
9.62,0.06161
9.624,0.0747
9.628,0.04913
9.632,0.02608
9.636,0.05718
9.64,0.03976
9.644,0.01755
9.648,0.02823
9.652,0.0271
9.656,0.02409
9.66,-0.01026
9.664,-0.04802
9.668,-0.00242
9.672,-0.02126
9.676,-0.03273
9.68,-0.02075
9.684,-0.00102
9.688,-0.04572
9.692,-0.02332
9.696,-0.02828
9.7,-0.03753
9.704,-0.01406
9.708,-0.05842
9.712,-0.00576
9.716,-0.03085
9.72,-0.03785
9.724,-0.05074
9.728,-0.04794
9.732,-0.06233
9.736,-0.05446
9.74,-0.04491
9.744,-0.06366
9.748,-0.10179
9.752,-0.13203
9.756,-0.1332
9.76,-0.10512
9.764,0.00032
9.768,0.13622
9.772,0.35845
9.776,0.56269
9.78,0.74849
9.784,0.9395
9.788,1.00613
9.792,0.90093
9.796,0.75221
9.8,0.51756
9.804,0.30809
9.808,0.09114
9.812,-0.04709
9.816,-0.16131
9.82,-0.19896
9.824,-0.1823
9.828,-0.10978
9.832,-0.10075
9.836,-0.07733
9.84,-0.05497
9.844,-0.03024
9.848,-0.00248
9.852,-0.03625
9.856,-0.02792
9.86,-0.02748
9.864,-0.03571
9.868,-0.02375
9.872,-0.03034
9.876,-0.01341
9.88,-0.03349
9.884,-0.03291
9.888,-0.01616
9.892,-0.04847
9.896,-0.01114
9.9,-0.0107
9.904,-0.03344
9.908,-0.03291
9.912,-0.01276
9.916,-0.0118
9.92,-0.01321
9.924,-0.02719
9.928,-0.01644
9.932,-0.01748
9.936,-0.04269
9.94,-0.00445
9.944,-0.03027
9.948,-0.03416
9.952,-0.00496
9.956,0.00254
9.96,-0.00686
9.964,-0.03214
9.968,-0.01466
9.972,-0.02107
9.976,0.00696
9.98,0.01761
9.984,0.04298
9.988,0.02584
9.992,0.01778
9.996,0.01087
