t_seg,ecg_mV
0.0,0.04543
0.004,0.02885
0.008,0.02637
0.012,0.02929
0.016,0.06171
0.02,0.00752
0.024,0.03656
0.028,0.0337
0.032,0.03423
0.036,0.03974
0.04,0.04876
0.044,0.05103
0.048,0.00572
0.052,0.02927
0.056,0.02645
0.06,0.05459
0.064,0.0353
0.068,0.0221
0.072,0.01323
0.076,0.02818
0.08,0.046
0.084,0.04338
0.088,0.01291
0.092,0.0158
0.096,0.04557
0.1,0.00394
0.104,0.02013
0.108,0.04295
0.112,0.02901
0.116,0.01737
0.12,0.01794
0.124,0.03323
0.128,0.01765
0.132,0.03268
0.136,-0.00986
0.14,0.03423
0.144,0.00693
0.148,0.00921
0.152,0.01432
0.156,0.02626
0.16,0.03048
0.164,-0.01943
0.168,0.00733
0.172,0.03507
0.176,0.04865
0.18,0.03456
0.184,0.0357
0.188,0.02882
0.192,0.04072
0.196,0.02778
0.2,0.06107
0.204,0.01855
0.208,0.05127
0.212,0.07785
0.216,0.01119
0.22,0.04382
0.224,0.04793
0.228,0.03317
0.232,0.02223
0.236,0.01857
0.24,0.0339
0.244,0.01351
0.248,0.03306
0.252,0.01932
0.256,0.04797
0.26,0.05385
0.264,0.01726
0.268,0.03149
0.272,0.03883
0.276,0.05835
0.28,0.03188
0.284,0.00843
0.288,0.0446
0.292,0.00312
0.296,0.03029
0.3,0.0475
0.304,0.00213
0.308,0.0534
0.312,0.04693
0.316,0.02266
0.32,0.02753
0.324,0.00294
0.328,0.01926
0.332,0.04203
0.336,0.02044
0.34,0.02559
0.344,0.03579
0.348,0.03026
0.352,0.04823
0.356,0.06167
0.36,-0.00108
0.364,0.04881
0.368,0.00199
0.372,0.03631
0.376,0.01801
0.38,0.01837
0.384,0.03924
0.388,0.06271
0.392,0.05499
0.396,0.02195
0.4,0.00827
0.404,0.01839
0.408,0.02554
0.412,0.0326
0.416,0.02189
0.42,0.03504
0.424,0.04516
0.428,0.03341
0.432,0.04023
0.436,0.0346
0.44,0.02005
0.444,0.04173
0.448,0.06337
0.452,0.02625
0.456,0.03179
0.46,0.02461
0.464,0.01847
0.468,0.06465
0.472,0.03209
0.476,0.04899
0.48,0.01451
0.484,0.03571
0.488,0.02644
0.492,0.00821
0.496,0.03244
0.5,-0.01067
0.504,0.03675
0.508,0.01629
0.512,0.03245
0.516,0.04644
0.52,0.03843
0.524,0.01348
0.528,0.04733
0.532,0.01038
0.536,0.01213
0.54,0.02494
0.544,0.05524
0.548,0.03019
0.552,0.04134
0.556,0.056
0.56,0.0577
0.564,0.08888
0.568,0.06732
0.572,0.08154
0.576,0.10806
0.58,0.11117
0.584,0.13305
0.588,0.10929
0.592,0.10952
0.596,0.11343
0.6,0.13425
0.604,0.1224
0.608,0.09233
0.612,0.10719
0.616,0.06805
0.62,0.05009
0.624,0.06316
0.628,0.03781
0.632,0.02723
0.636,0.06197
0.64,0.03112
0.644,0.01177
0.648,0.02528
0.652,0.01947
0.656,0.03752
0.66,0.02014
0.664,0.04973
0.668,0.0275
0.672,0.02278
0.676,0.02294
0.68,0.01592
0.684,0.02328
0.688,0.03163
0.692,0.03763
0.696,0.04672
0.7,0.03217
0.704,0.03342
0.708,0.00444
0.712,-0.05467
0.716,-0.09416
0.72,-0.08169
0.724,-0.04363
0.728,0.07434
0.732,0.19871
0.736,0.38722
0.74,0.59818
0.744,0.83451
0.748,0.96237
0.752,1.04345
0.756,0.9733
0.76,0.82094
0.764,0.58626
0.768,0.3674
0.772,0.14725
0.776,-0.01241
0.78,-0.09889
0.784,-0.15663
0.788,-0.14048
0.792,-0.09576
0.796,-0.04237
0.8,-0.01665
0.804,-0.0005
0.808,0.02349
0.812,0.01412
0.816,0.00623
0.82,0.03419
0.824,0.02503
0.828,0.00606
0.832,0.05132
0.836,0.01737
0.84,0.04694
0.844,0.03331
0.848,0.05055
0.852,0.00887
0.856,0.0179
0.86,0.03615
0.864,0.05358
0.868,0.02838
0.872,0.01696
0.876,0.02959
0.88,0.03319
0.884,0.00261
0.888,0.05459
0.892,0.01638
0.896,0.01298
0.9,0.05162
0.904,0.03191
0.908,0.02575
0.912,0.05802
0.916,0.02929
0.92,0.04183
0.924,0.05321
0.928,0.06293
0.932,0.06354
0.936,0.02351
0.94,0.05909
0.944,0.06335
0.948,0.08442
0.952,0.08102
0.956,0.09591
0.96,0.0941
0.964,0.09639
0.968,0.11711
0.972,0.1314
0.976,0.1435
0.98,0.1283
0.984,0.14799
0.988,0.18542
0.992,0.17168
0.996,0.17069
1.0,0.20365
1.004,0.20318
1.008,0.21918
1.012,0.22382
1.016,0.25268
1.02,0.23145
1.024,0.2533
1.028,0.23738
1.032,0.24062
1.036,0.24851
1.04,0.25962
1.044,0.24922
1.048,0.23742
1.052,0.23064
1.056,0.22497
1.06,0.23204
1.064,0.22296
1.068,0.21935
1.072,0.16946
1.076,0.16973
1.08,0.14679
1.084,0.14467
1.088,0.11535
1.092,0.09075
1.096,0.09098
1.1,0.08694
1.104,0.10386
1.108,0.08023
1.112,0.06653
1.116,0.06249
1.12,0.06295
1.124,0.03769
1.128,0.04366
1.132,0.06899
1.136,0.05094
1.14,0.01839
1.144,0.05436
1.148,0.04347
1.152,0.03353
1.156,0.03157
1.16,0.02305
1.164,0.0182
1.168,0.0248
1.172,0.0229
1.176,0.03689
1.18,0.02497
1.184,0.03002
1.188,0.01369
1.192,0.03118
1.196,0.06109
1.2,-0.0004
1.204,0.03485
1.208,0.04826
1.212,0.03306
1.216,0.02787
1.22,0.02486
1.224,0.02349
1.228,0.02918
1.232,0.05064
1.236,0.01675
1.24,0.03339
1.244,0.0388
1.248,0.02315
1.252,0.04312
1.256,0.00905
1.26,0.01632
1.264,0.02185
1.268,0.007
1.272,0.03922
1.276,0.03676
1.28,0.01759
1.284,0.02617
1.288,0.01247
1.292,0.03935
1.296,0.00204
1.3,0.02227
1.304,0.036
1.308,0.0467
1.312,0.00614
1.316,0.01734
1.32,0.0408
1.324,0.03301
1.328,0.04363
1.332,-0.0038
1.336,0.03178
1.34,0.03685
1.344,0.00753
1.348,0.03661
1.352,0.00725
1.356,0.01516
1.36,0.0189
1.364,-0.00394
1.368,0.01384
1.372,0.03848
1.376,0.03928
1.38,0.025
1.384,0.03923
1.388,0.01666
1.392,0.02837
1.396,0.02015
1.4,0.01831
1.404,0.01029
1.408,0.00983
1.412,0.02747
1.416,0.02174
1.42,0.02454
1.424,0.03504
1.428,0.02082
1.432,0.01511
1.436,0.03754
1.44,0.04172
1.444,0.02766
1.448,0.01995
1.452,0.02943
1.456,0.02649
1.46,0.02762
1.464,0.00958
1.468,0.03164
1.472,0.01555
1.476,0.04613
1.48,0.04182
1.484,0.07215
1.488,0.0991
1.492,0.09028
1.496,0.08484
1.5,0.09055
1.504,0.08765
1.508,0.12768
1.512,0.08419
1.516,0.1508
1.52,0.11858
1.524,0.09545
1.528,0.09368
1.532,0.07129
1.536,0.0549
1.54,0.08221
1.544,0.05449
1.548,0.02564
1.552,0.01524
1.556,0.04386
1.56,0.0221
1.564,0.02391
1.568,0.01486
1.572,0.01291
1.576,0.00542
1.58,0.02456
1.584,0.00306
1.588,0.04187
1.592,0.02178
1.596,0.00273
1.6,0.02701
1.604,0.00635
1.608,-0.00318
1.612,0.00805
1.616,0.03123
1.62,0.0355
1.624,-0.0256
1.628,-0.02582
1.632,-0.05149
1.636,-0.09402
1.64,-0.08841
1.644,-0.05412
1.648,0.07862
1.652,0.25506
1.656,0.47026
1.66,0.66494
1.664,0.87477
1.668,1.01355
1.672,1.00043
1.676,0.91839
1.68,0.75314
1.684,0.48105
1.688,0.27349
1.692,0.04485
1.696,-0.0452
1.7,-0.15334
1.704,-0.1563
1.708,-0.10874
1.712,-0.1305
1.716,-0.01594
1.72,-0.04639
1.724,0.01341
1.728,0.00695
1.732,0.02936
1.736,0.0039
1.74,0.0211
1.744,0.04132
1.748,0.02705
1.752,0.01094
1.756,0.00268
1.76,0.01603
1.764,0.01691
1.768,0.01573
1.772,0.00225
1.776,0.00499
1.78,0.01994
1.784,0.00322
1.788,0.02327
1.792,0.01582
1.796,-0.00182
1.8,0.00593
1.804,0.01518
1.808,0.0162
1.812,0.04533
1.816,0.02699
1.82,0.03962
1.824,0.01548
1.828,0.00854
1.832,-0.01199
1.836,0.02112
1.84,0.03203
1.844,0.00944
1.848,0.03492
1.852,0.03874
1.856,0.05606
1.86,0.06544
1.864,0.04721
1.868,0.02411
1.872,0.08302
1.876,0.08668
1.88,0.07002
1.884,0.08544
1.888,0.11502
1.892,0.10099
1.896,0.11394
1.9,0.107
1.904,0.15943
1.908,0.15283
1.912,0.19268
1.916,0.16353
1.92,0.20827
1.924,0.19307
1.928,0.23072
1.932,0.19107
1.936,0.21045
1.94,0.22649
1.944,0.2101
1.948,0.21736
1.952,0.21848
1.956,0.23626
1.96,0.2347
1.964,0.20292
1.968,0.21253
1.972,0.18554
1.976,0.19179
1.98,0.18755
1.984,0.17257
1.988,0.17434
1.992,0.16743
1.996,0.10861
2.0,0.15229
2.004,0.1014
2.008,0.07389
2.012,0.08983
2.016,0.10052
2.02,0.09343
2.024,0.062
2.028,0.04079
2.032,0.06519
2.036,0.03867
2.04,0.02874
2.044,0.04773
2.048,0.06587
2.052,0.01567
2.056,0.03933
2.06,0.01015
2.064,0.00352
2.068,0.01488
2.072,0.01224
2.076,0.03099
2.08,0.02325
2.084,0.02817
2.088,0.01591
2.092,0.00152
2.096,-0.0029
2.1,0.01006
2.104,0.01519
2.108,0.01578
2.112,0.01758
2.116,-0.00714
2.12,-0.00034
2.124,0.00815
2.128,-0.0008
2.132,0.0081
2.136,-0.00305
2.14,-0.01597
2.144,0.02188
2.148,0.01316
2.152,-0.00613
2.156,-0.02246
2.16,0.00909
2.164,0.00808
2.168,0.02475
2.172,0.01657
2.176,-0.01649
2.18,0.0306
2.184,0.01744
2.188,0.00436
2.192,0.01616
2.196,-0.00082
2.2,0.01526
2.204,0.00436
2.208,-0.01019
2.212,-0.00543
2.216,0.00269
2.22,-0.01269
2.224,0.00926
2.228,-0.01144
2.232,-0.01198
2.236,-0.0077
2.24,0.00237
2.244,0.01044
2.248,0.01122
2.252,-0.01069
2.256,0.0014
2.26,-0.00667
2.264,-0.01612
2.268,-0.00724
2.272,-0.00757
2.276,0.02187
2.28,-0.00784
2.284,-0.00913
2.288,-0.00172
2.292,-0.01202
2.296,0.02259
2.3,-0.0181
2.304,-0.0093
2.308,-0.01964
2.312,-0.00099
2.316,-0.01295
2.32,-0.00085
2.324,0.00805
2.328,0.00059
2.332,0.00076
2.336,0.00851
2.34,0.01607
2.344,0.05214
2.348,0.04812
2.352,0.05963
2.356,0.05427
2.36,0.06804
2.364,0.09214
2.368,0.08228
2.372,0.06933
2.376,0.08445
2.38,0.09457
2.384,0.07848
2.388,0.06453
2.392,0.06779
2.396,0.05501
2.4,0.04304
2.404,0.03876
2.408,0.00168
2.412,0.03305
2.416,0.00887
2.42,0.02267
2.424,-0.01342
2.428,-0.01085
2.432,0.01441
2.436,0.02636
2.44,-0.00591
2.444,-0.01067
2.448,-0.00444
2.452,0.02978
2.456,-0.00345
2.46,-0.04825
2.464,-0.02847
2.468,0.00406
2.472,-0.03412
2.476,-0.03999
2.48,-0.01865
2.484,-0.04351
2.488,0.00474
2.492,-0.0124
2.496,-0.07334
2.5,-0.11373
2.504,-0.098
2.508,-0.0275
2.512,0.03761
2.516,0.24374
2.52,0.46158
2.524,0.63392
2.528,0.82943
2.532,0.96004
2.536,0.96469
2.54,0.90325
2.544,0.69913
2.548,0.48359
2.552,0.24709
2.556,0.04291
2.56,-0.06215
2.564,-0.15073
2.568,-0.1785
2.572,-0.15392
2.576,-0.12007
2.58,-0.049
2.584,-0.01737
2.588,-0.0129
2.592,-0.03885
2.596,0.00873
2.6,0.00992
2.604,-0.02161
2.608,-0.03279
2.612,-0.03159
2.616,-0.01788
2.62,-0.01949
2.624,-0.0172
2.628,-0.01774
2.632,-0.03622
2.636,-0.03308
2.64,-0.02501
2.644,0.00019
2.648,-0.02441
2.652,0.00776
2.656,-0.02667
2.66,0.02237
2.664,-0.02325
2.668,0.01505
2.672,-0.02814
2.676,-0.00283
2.68,-0.02735
2.684,0.00261
2.688,0.01657
2.692,-0.02521
2.696,-0.00072
2.7,0.02145
2.704,-0.03245
2.708,-0.00104
2.712,-0.00476
2.716,-0.02781
2.72,0.02636
2.724,0.00938
2.728,0.02873
2.732,0.03614
2.736,0.00479
2.74,0.04577
2.744,0.04933
2.748,0.05149
2.752,0.07894
2.756,0.08118
2.76,0.10112
2.764,0.10177
2.768,0.12313
2.772,0.11608
2.776,0.12378
2.78,0.15501
2.784,0.12935
2.788,0.17624
2.792,0.17863
2.796,0.19723
2.8,0.21313
2.804,0.21023
2.808,0.19231
2.812,0.21137
2.816,0.21465
2.82,0.21367
2.824,0.19251
2.828,0.20406
2.832,0.1871
2.836,0.1766
2.84,0.18531
2.844,0.15254
2.848,0.17518
2.852,0.1454
2.856,0.12578
2.86,0.08806
2.864,0.08314
2.868,0.10759
2.872,0.08093
2.876,0.06237
2.88,0.0822
2.884,0.04839
2.888,0.04464
2.892,0.03107
2.896,0.01548
2.9,-0.0125
2.904,0.02935
2.908,-0.00744
2.912,-0.00729
2.916,-0.00126
2.92,0.01673
2.924,0.00596
2.928,-0.03089
2.932,0.00879
2.936,-0.02331
2.94,-0.01686
2.944,-0.01173
2.948,-0.02816
2.952,-0.01703
2.956,-0.00745
2.96,-0.00609
2.964,-0.01839
2.968,-0.02226
2.972,-0.02423
2.976,-0.00494
2.98,-0.02924
2.984,-0.02836
2.988,-0.00386
2.992,-0.02302
2.996,-0.00028
3.0,-0.01875
3.004,-0.01061
3.008,-0.01948
3.012,-0.01013
3.016,-0.01649
3.02,-0.03914
3.024,6e-05
3.028,-0.01419
3.032,-0.01439
3.036,-0.02702
3.04,-0.02667
3.044,0.0026
3.048,-0.01843
3.052,-0.02209
3.056,-0.00726
3.06,-0.01639
3.064,-0.0298
3.068,-0.025
3.072,-0.00666
3.076,-0.03013
3.08,-0.03486
3.084,-0.01535
3.088,-0.03072
3.092,-0.02139
3.096,-0.02982
3.1,-0.00465
3.104,-0.00534
3.108,-0.03407
3.112,-0.03744
3.116,-0.00532
3.12,-0.01575
3.124,0.00225
3.128,-0.02886
3.132,-0.0427
3.136,-0.02048
3.14,-0.03454
3.144,-0.03634
3.148,-0.02994
3.152,-0.03615
3.156,-0.03123
3.16,-0.01685
3.164,-0.04081
3.168,-0.01552
3.172,-0.00865
3.176,-0.02442
3.18,0.00742
3.184,-0.01547
3.188,-0.01297
3.192,-0.03529
3.196,-0.03625
3.2,-0.02319
3.204,-0.01327
3.208,-0.02853
3.212,-0.02157
3.216,-0.00285
3.22,-0.02751
3.224,0.00228
3.228,0.00741
3.232,0.02576
3.236,0.01654
3.24,0.0295
3.244,0.01479
3.248,0.0589
3.252,0.07218
3.256,0.09437
3.26,0.08093
3.264,0.08125
3.268,0.06733
3.272,0.05263
3.276,0.05073
3.28,0.0287
3.284,0.03386
3.288,0.02614
3.292,0.00615
3.296,-0.01853
3.3,-0.01829
3.304,-0.01826
3.308,-0.01812
3.312,-0.01709
3.316,-0.03251
3.32,-0.03788
3.324,-0.01378
3.328,0.00283
3.332,-0.0272
3.336,-0.02655
3.34,-0.00559
3.344,-0.03135
3.348,-0.00588
3.352,-0.0024
3.356,-0.02086
3.36,-0.03895
3.364,-0.028
3.368,-0.0042
3.372,-0.05072
3.376,-0.03108
3.38,-0.05171
3.384,-0.10052
3.388,-0.11243
3.392,-0.1525
3.396,-0.07149
3.4,0.01988
3.404,0.205
3.408,0.44062
3.412,0.64111
3.416,0.80852
3.42,0.94807
3.424,0.93894
3.428,0.89132
3.432,0.70284
3.436,0.4623
3.44,0.23689
3.444,0.04975
3.448,-0.07461
3.452,-0.16357
3.456,-0.20102
3.46,-0.16798
3.464,-0.13845
3.468,-0.09547
3.472,-0.06753
3.476,-0.04126
3.48,0.00352
3.484,-0.03448
3.488,-0.03907
3.492,-0.06148
3.496,-0.02852
3.5,-0.03013
3.504,-0.06407
3.508,-0.03273
3.512,-0.02605
3.516,-0.02475
3.52,-0.03727
3.524,-0.03613
3.528,-0.02431
3.532,-0.01429
3.536,-0.05235
3.54,-0.02812
3.544,-0.01228
3.548,-0.0347
3.552,-0.00392
3.556,-0.0462
3.56,-0.04832
3.564,-0.01585
3.568,-0.02621
3.572,-0.05397
3.576,-0.03747
3.58,-0.0451
3.584,-0.04319
3.588,-0.03458
3.592,-0.02058
3.596,-0.02485
3.6,0.00032
3.604,0.01205
3.608,-0.01732
3.612,0.00373
3.616,0.01678
3.62,0.02278
3.624,0.01742
3.628,0.03787
3.632,0.03392
3.636,0.01811
3.64,0.05571
3.644,0.04816
3.648,0.04696
3.652,0.07446
3.656,0.12153
3.66,0.08434
3.664,0.12328
3.668,0.11595
3.672,0.13866
3.676,0.14536
3.68,0.1628
3.684,0.20278
3.688,0.16225
3.692,0.1706
3.696,0.17063
3.7,0.1889
3.704,0.18384
3.708,0.20906
3.712,0.20261
3.716,0.1602
3.72,0.17578
3.724,0.20174
3.728,0.15724
3.732,0.16159
3.736,0.14053
3.74,0.11823
3.744,0.11657
3.748,0.11563
3.752,0.08642
3.756,0.06108
3.76,0.07371
3.764,0.07314
3.768,0.02899
3.772,0.0364
3.776,0.02662
3.78,0.02456
3.784,0.02243
3.788,-0.01631
3.792,0.00527
3.796,-0.01122
3.8,0.00789
3.804,-0.0273
3.808,-0.0179
3.812,-0.00286
3.816,-0.01116
3.82,-0.0154
3.824,0.01867
3.828,-0.04642
3.832,-0.00449
3.836,-0.02798
3.84,-0.00731
3.844,-0.04291
3.848,-0.03105
3.852,-0.04092
3.856,-0.02763
3.86,-0.00318
3.864,-0.03902
3.868,-0.02684
3.872,-0.02813
3.876,-0.0316
3.88,-0.01386
3.884,-0.02541
3.888,-0.02742
3.892,-0.01569
3.896,-0.02625
3.9,-0.01088
3.904,-0.04761
3.908,-0.03179
3.912,-0.04522
3.916,-0.06343
3.92,-0.01348
3.924,-0.0222
3.928,-0.01916
3.932,-0.02382
3.936,-0.04609
3.94,-0.02991
3.944,-0.02768
3.948,-0.02736
3.952,-0.03655
3.956,-0.01443
3.96,-0.03219
3.964,-0.02354
3.968,-0.02679
3.972,-0.01745
3.976,-0.00892
3.98,-0.01571
3.984,-0.05317
3.988,0.00236
3.992,-0.04329
3.996,-0.02967
4.0,-0.01198
4.004,-0.01645
4.008,-0.03142
4.012,-0.01453
4.016,-0.0303
4.02,-0.02612
4.024,-0.04296
4.028,-0.01404
4.032,-0.0236
4.036,-0.04431
4.04,-0.02711
4.044,-0.01749
4.048,-0.02559
4.052,-0.02634
4.056,-0.02761
4.06,-0.03323
4.064,-0.0424
4.068,-0.04075
4.072,-0.01637
4.076,-0.00303
4.08,-0.0256
4.084,-0.03908
4.088,-0.02496
4.092,-0.01938
4.096,-0.01621
4.1,-0.02403
4.104,-0.05376
4.108,-0.01508
4.112,-0.02814
4.116,-0.01167
4.12,-0.04074
4.124,-0.00616
4.128,0.00743
4.132,0.00971
4.136,-0.00234
4.14,0.00517
4.144,0.01874
4.148,0.04407
4.152,0.05653
4.156,0.06055
4.16,0.05431
4.164,0.08444
4.168,0.07738
4.172,0.08144
4.176,0.07014
4.18,0.04523
4.184,0.00768
4.188,-0.00199
4.192,0.03728
4.196,-0.00082
4.2,-0.01113
4.204,-0.01496
4.208,-0.02369
4.212,-0.02688
4.216,-0.02767
4.22,-0.02454
4.224,-0.04361
4.228,-0.03009
4.232,-0.01303
4.236,-0.02144
4.24,-0.05222
4.244,-0.01492
4.248,-0.06537
4.252,-0.05544
4.256,-0.01904
4.26,-0.03146
4.264,-0.03592
4.268,-0.06235
4.272,-0.04459
4.276,-0.05285
4.28,-0.05086
4.284,-0.08413
4.288,-0.11946
4.292,-0.14052
4.296,-0.0854
4.3,-5e-05
4.304,0.152
4.308,0.32917
4.312,0.54872
4.316,0.75305
4.32,0.89297
4.324,0.9559
4.328,0.93596
4.332,0.77391
4.336,0.5612
4.34,0.31123
4.344,0.13643
4.348,-0.03052
4.352,-0.1567
4.356,-0.19954
4.36,-0.19763
4.364,-0.15656
4.368,-0.09049
4.372,-0.08419
4.376,-0.02858
4.38,-0.04749
4.384,-0.05001
4.388,-0.03366
4.392,-0.01935
4.396,0.00449
4.4,-0.03523
4.404,-0.03395
4.408,-0.00903
4.412,-0.05534
4.416,-0.01655
4.42,-0.055
4.424,-0.04485
4.428,-0.042
4.432,-0.01735
4.436,-0.03135
4.44,-0.03712
4.444,-0.02596
4.448,-0.01646
4.452,-0.04011
4.456,-0.02457
4.46,-0.0313
4.464,-0.00998
4.468,-0.02731
4.472,-0.0131
4.476,-0.01874
4.48,-0.02724
4.484,-0.01366
4.488,-0.02142
4.492,0.00032
4.496,0.00147
4.5,-0.00049
4.504,-0.00699
4.508,0.0062
4.512,-0.01384
4.516,-0.00585
4.52,-0.00778
4.524,0.01473
4.528,0.01732
4.532,0.05749
4.536,0.03745
4.54,0.05036
4.544,0.07669
4.548,0.0397
4.552,0.08015
4.556,0.11576
4.56,0.09849
4.564,0.1255
4.568,0.1756
4.572,0.14541
4.576,0.11929
4.58,0.17875
4.584,0.21532
4.588,0.19715
4.592,0.17351
4.596,0.18635
4.6,0.19264
4.604,0.19403
4.608,0.21441
4.612,0.17648
4.616,0.19688
4.62,0.17396
4.624,0.18163
4.628,0.15633
4.632,0.18281
4.636,0.16526
4.64,0.14197
4.644,0.12722
4.648,0.08038
4.652,0.12506
4.656,0.0914
4.66,0.08073
4.664,0.06534
4.668,0.04814
4.672,0.07173
4.676,0.05877
4.68,0.03245
4.684,0.01478
4.688,0.01521
4.692,0.02374
4.696,0.01678
4.7,-0.00505
4.704,0.00602
4.708,-0.0126
4.712,0.0109
4.716,0.01816
4.72,-0.01006
4.724,0.0011
4.728,-0.03717
4.732,-0.02595
4.736,-0.01204
4.74,-0.04782
4.744,-0.03757
4.748,0.00367
4.752,-0.02631
4.756,-0.06889
4.76,-0.02478
4.764,-0.01526
4.768,-0.00397
4.772,0.0116
4.776,-0.01693
4.78,-0.00323
4.784,-0.0331
4.788,-0.03963
4.792,-0.00714
4.796,-0.04055
4.8,-0.03829
4.804,-0.02389
4.808,0.004
4.812,-0.00296
4.816,-0.00249
4.82,-0.01966
4.824,-0.01407
4.828,-0.0182
4.832,-0.02966
4.836,-0.02011
4.84,-0.03448
4.844,-0.00894
4.848,-0.0032
4.852,-0.03965
4.856,-0.0438
4.86,-0.01128
4.864,-0.03434
4.868,0.00155
4.872,-0.03519
4.876,-0.00225
4.88,-0.02029
4.884,-0.01472
4.888,-0.03396
4.892,-0.00458
4.896,0.0048
4.9,-0.02558
4.904,-0.02004
4.908,-0.0219
4.912,-0.03059
4.916,-0.0422
4.92,-0.01148
4.924,-0.01658
4.928,-0.03579
4.932,-0.01834
4.936,-0.00975
4.94,6e-05
4.944,-0.01131
4.948,-0.0098
4.952,-0.01482
4.956,-0.03422
4.96,-0.01559
4.964,0.00595
4.968,-0.00926
4.972,-0.00542
4.976,0.00467
4.98,-0.0299
4.984,-0.01422
4.988,-0.02274
4.992,0.00196
4.996,0.00046
5.0,0.00918
5.004,-0.00021
5.008,-0.00243
5.012,-0.00907
5.016,0.00273
5.02,-0.03591
5.024,-0.00177
5.028,0.00098
5.032,-0.04308
5.036,-0.03356
5.04,-0.01525
5.044,-0.01235
5.048,-0.00713
5.052,-0.01383
5.056,0.00016
5.06,-0.03426
5.064,-0.01319
5.068,-0.02724
5.072,-0.00249
5.076,-0.03574
5.08,-0.03302
5.084,-0.00626
5.088,-0.01035
5.092,0.00225
5.096,-0.00735
5.1,-0.00211
5.104,0.01527
5.108,-0.01774
5.112,-0.00594
5.116,0.00226
5.12,0.00141
5.124,-0.02124
5.128,9e-05
5.132,-0.02072
5.136,-0.00942
5.14,-0.01664
5.144,-0.03757
5.148,-0.00488
5.152,-0.01552
5.156,-0.01969
5.16,-0.00033
5.164,-0.01426
5.168,0.01803
5.172,-0.0002
5.176,0.05116
5.18,0.04153
5.184,0.05609
5.188,0.06773
5.192,0.07138
5.196,0.08158
5.2,0.10285
5.204,0.10733
5.208,0.0723
5.212,0.09641
5.216,0.09651
5.22,0.0584
5.224,0.07101
5.228,0.02495
5.232,0.03477
5.236,0.00631
5.24,-0.003
5.244,0.01177
5.248,-0.00585
5.252,-0.00144
5.256,-0.00265
5.26,-0.00751
5.264,-0.01267
5.268,-0.02823
5.272,-0.01082
5.276,0.01502
5.28,-0.01926
5.284,-0.01431
5.288,-0.02464
5.292,-0.02797
5.296,-0.01002
5.3,0.01684
5.304,-0.00077
5.308,-0.01178
5.312,-0.02061
5.316,-0.02211
5.32,-0.03622
5.324,-0.06248
5.328,-0.09367
5.332,-0.12508
5.336,-0.04823
5.34,0.02137
5.344,0.19727
5.348,0.4189
5.352,0.64611
5.356,0.80106
5.36,0.94154
5.364,1.00442
5.368,0.91823
5.372,0.71372
5.376,0.51231
5.38,0.2949
5.384,0.09755
5.388,-0.04171
5.392,-0.16813
5.396,-0.17032
5.4,-0.1546
5.404,-0.12481
5.408,-0.06764
5.412,-0.01508
5.416,-0.0075
5.42,-0.03209
5.424,-0.01753
5.428,-0.00818
5.432,-0.00785
5.436,-0.02937
5.44,0.0065
5.444,-0.01906
5.448,-0.00737
5.452,-0.0184
5.456,-0.00069
5.46,0.00955
5.464,-0.01537
5.468,-0.00226
5.472,-0.00776
5.476,-0.03469
5.48,-0.01868
5.484,-0.01093
5.488,-0.00944
5.492,-0.00035
5.496,-0.01283
5.5,-0.02995
5.504,0.00448
5.508,-0.00075
5.512,0.01687
5.516,0.0144
5.52,0.02359
5.524,-0.02249
5.528,0.00489
5.532,0.0468
5.536,-0.01447
5.54,0.01822
5.544,0.00431
5.548,0.04623
5.552,0.0167
5.556,0.03491
5.56,0.04566
5.564,0.05669
5.568,0.02153
5.572,0.03636
5.576,0.07498
5.58,0.03204
5.584,0.09427
5.588,0.12157
5.592,0.1111
5.596,0.14158
5.6,0.11338
5.604,0.15425
5.608,0.18444
5.612,0.17207
5.616,0.20429
5.62,0.21378
5.624,0.18953
5.628,0.20589
5.632,0.22554
5.636,0.24416
5.64,0.22969
5.644,0.19869
5.648,0.20145
5.652,0.2276
5.656,0.20492
5.66,0.18823
5.664,0.22404
5.668,0.17953
5.672,0.19073
5.676,0.17293
5.68,0.14478
5.684,0.1417
5.688,0.12263
5.692,0.10828
5.696,0.1143
5.7,0.10739
5.704,0.08166
5.708,0.09974
5.712,0.06615
5.716,0.09045
5.72,0.05816
5.724,0.05655
5.728,0.05648
5.732,0.02915
5.736,0.04024
5.74,0.04436
5.744,0.02002
5.748,0.0251
5.752,0.02424
5.756,0.01211
5.76,0.02908
5.764,0.0153
5.768,0.02286
5.772,0.01239
5.776,-0.00381
5.78,0.00612
5.784,-0.01286
5.788,-0.01579
5.792,-0.00114
5.796,-0.00685
5.8,0.00385
5.804,-0.00362
5.808,0.01054
5.812,0.01092
5.816,0.02167
5.82,-0.0074
5.824,-0.00937
5.828,-0.016
5.832,-0.0044
5.836,0.03592
5.84,0.02505
5.844,-0.00986
5.848,0.00077
5.852,-0.01329
5.856,-0.00819
5.86,0.02563
5.864,0.02113
5.868,0.04257
5.872,0.01421
5.876,0.01622
5.88,0.02942
5.884,0.01865
5.888,0.01038
5.892,0.00903
5.896,0.01479
5.9,0.02956
5.904,0.00039
5.908,0.02433
5.912,0.01832
5.916,0.0191
5.92,0.01786
5.924,0.02137
5.928,0.01882
5.932,0.02167
5.936,0.01894
5.94,0.01934
5.944,0.02511
5.948,0.09395
5.952,0.07655
5.956,0.06144
5.96,0.09449
5.964,0.08972
5.968,0.10618
5.972,0.09948
5.976,0.09959
5.98,0.09401
5.984,0.11913
5.988,0.10693
5.992,0.07282
5.996,0.08399
6.0,0.07268
6.004,0.04211
6.008,0.04246
6.012,0.02561
6.016,0.01137
6.02,0.03552
6.024,0.01775
6.028,0.03147
6.032,0.02948
6.036,0.01958
6.04,-0.00792
6.044,0.02732
6.048,0.02505
6.052,0.0231
6.056,0.03634
6.06,0.00904
6.064,0.01569
6.068,-0.01932
6.072,0.02911
6.076,-0.01204
6.08,-0.00634
6.084,0.00424
6.088,0.0136
6.092,0.00743
6.096,-0.03287
6.1,-0.07384
6.104,-0.09459
6.108,-0.09353
6.112,0.00805
6.116,0.14718
6.12,0.3117
6.124,0.53753
6.128,0.73852
6.132,0.94533
6.136,0.99644
6.14,0.96248
6.144,0.87644
6.148,0.65836
6.152,0.45245
6.156,0.19673
6.16,0.02684
6.164,-0.10618
6.168,-0.12513
6.172,-0.15468
6.176,-0.1424
6.18,-0.08017
6.184,-0.03339
6.188,-0.00193
6.192,0.02891
6.196,0.00139
6.2,0.00869
6.204,0.0396
6.208,0.00906
6.212,-0.00232
6.216,0.03974
6.22,0.01215
6.224,0.03812
6.228,0.02718
6.232,0.01513
6.236,0.01213
6.24,0.0333
6.244,0.04335
6.248,0.01941
6.252,0.03423
6.256,0.02177
6.26,0.01971
6.264,0.00421
6.268,0.01856
6.272,0.02202
6.276,0.05185
6.28,0.00995
6.284,0.04492
6.288,0.0176
6.292,0.02841
6.296,0.0237
6.3,0.05453
6.304,0.06022
6.308,0.01872
6.312,0.03428
6.316,0.0254
6.32,0.04562
6.324,0.04299
6.328,0.05117
6.332,0.06108
6.336,0.08053
6.34,0.06403
6.344,0.06076
6.348,0.09933
6.352,0.08861
6.356,0.07094
6.36,0.12037
6.364,0.09727
6.368,0.12017
6.372,0.1634
6.376,0.17715
6.38,0.1851
6.384,0.19009
6.388,0.20397
6.392,0.19501
6.396,0.20408
6.4,0.20382
6.404,0.22
6.408,0.24723
6.412,0.23037
6.416,0.25645
6.42,0.25019
6.424,0.23462
6.428,0.2182
6.432,0.21498
6.436,0.2026
6.44,0.22168
6.444,0.24664
6.448,0.20607
6.452,0.17733
6.456,0.15476
6.46,0.15431
6.464,0.14608
6.468,0.14749
6.472,0.13634
6.476,0.10216
6.48,0.09747
6.484,0.10732
6.488,0.07928
6.492,0.05347
6.496,0.06286
6.5,0.06954
6.504,0.10176
6.508,0.04632
6.512,0.03591
6.516,0.03849
6.52,0.03792
6.524,0.04852
6.528,0.06258
6.532,0.01737
6.536,0.05352
6.54,0.00904
6.544,0.03281
6.548,0.05087
6.552,0.0409
6.556,0.01046
6.56,0.03815
6.564,0.03152
6.568,0.01711
6.572,0.01102
6.576,0.01746
6.58,0.04724
6.584,0.00973
6.588,0.02001
6.592,0.03653
6.596,0.02268
6.6,0.03598
6.604,0.02051
6.608,0.02574
6.612,0.02931
6.616,0.01873
6.62,0.03098
6.624,0.02038
6.628,0.02851
6.632,0.03571
6.636,0.02749
6.64,0.01852
6.644,0.00216
6.648,-0.00312
6.652,0.03484
6.656,0.01568
6.66,-0.0002
6.664,0.02922
6.668,0.01887
6.672,0.01531
6.676,0.0106
6.68,0.03842
6.684,0.02022
6.688,0.02561
6.692,0.01943
6.696,0.03061
6.7,0.0312
6.704,0.03159
6.708,0.0311
6.712,0.02124
6.716,0.01497
6.72,-0.01195
6.724,0.02594
6.728,0.02328
6.732,0.02351
6.736,0.01537
6.74,0.01537
6.744,0.06184
6.748,0.02263
6.752,0.05785
6.756,0.03554
6.76,0.01511
6.764,0.03136
6.768,0.01795
6.772,0.03115
6.776,0.0149
6.78,0.02192
6.784,0.0048
6.788,0.02957
6.792,0.04053
6.796,0.05382
6.8,0.02365
6.804,0.03807
6.808,0.02597
6.812,0.02695
6.816,0.0512
6.82,0.04828
6.824,0.04705
6.828,0.04587
6.832,0.05701
6.836,0.09038
6.84,0.10768
6.844,0.12011
6.848,0.10251
6.852,0.13806
6.856,0.12458
6.86,0.14652
6.864,0.12018
6.868,0.10421
6.872,0.09794
6.876,0.1147
6.88,0.06609
6.884,0.0957
6.888,0.05304
6.892,0.051
6.896,0.02821
6.9,0.05015
6.904,0.04421
6.908,0.03592
6.912,0.02078
6.916,0.05685
6.92,0.05046
6.924,0.03223
6.928,0.01049
6.932,0.04234
6.936,0.02477
6.94,0.03492
6.944,0.05782
6.948,0.01612
6.952,0.05983
6.956,0.02362
6.96,0.01856
6.964,0.02712
6.968,0.04286
6.972,0.01911
6.976,-0.0284
6.98,-0.0586
6.984,-0.08096
6.988,-0.06337
6.992,0.01505
6.996,0.15343
7.0,0.31228
7.004,0.54838
7.008,0.79413
7.012,0.91684
7.016,1.02308
7.02,1.0038
7.024,0.89044
7.028,0.70138
7.032,0.44079
7.036,0.22006
7.04,0.05118
7.044,-0.04474
7.048,-0.12025
7.052,-0.14948
7.056,-0.08146
7.06,-0.04926
7.064,-0.03542
7.068,-0.00833
7.072,0.0231
7.076,0.0201
7.08,0.043
7.084,0.00755
7.088,0.0377
7.092,0.01477
7.096,0.01608
7.1,0.04482
7.104,0.02649
7.108,0.01954
7.112,0.02921
7.116,0.03248
7.12,0.02201
7.124,0.03198
7.128,0.02834
7.132,0.04459
7.136,0.01444
7.14,0.03348
7.144,0.02797
7.148,0.06256
7.152,0.0536
7.156,0.03817
7.16,0.05712
7.164,0.0417
7.168,0.03717
7.172,0.0328
7.176,0.03144
7.18,0.03958
7.184,0.04293
7.188,0.04556
7.192,0.04624
7.196,0.04893
7.2,0.05361
7.204,0.04195
7.208,0.05747
7.212,0.08626
7.216,0.057
7.22,0.06212
7.224,0.06186
7.228,0.10971
7.232,0.09357
7.236,0.12269
7.24,0.11359
7.244,0.11191
7.248,0.15007
7.252,0.15024
7.256,0.16943
7.26,0.19953
7.264,0.22589
7.268,0.22847
7.272,0.22589
7.276,0.2369
7.28,0.24481
7.284,0.18744
7.288,0.23689
7.292,0.2402
7.296,0.23221
7.3,0.25185
7.304,0.26069
7.308,0.2579
7.312,0.23672
7.316,0.24612
7.32,0.21891
7.324,0.22517
7.328,0.23457
7.332,0.1788
7.336,0.19039
7.34,0.16134
7.344,0.13097
7.348,0.13996
7.352,0.16124
7.356,0.13157
7.36,0.09804
7.364,0.10696
7.368,0.07948
7.372,0.08207
7.376,0.0829
7.38,0.01596
7.384,0.05406
7.388,0.04619
7.392,0.04138
7.396,0.05693
7.4,0.07958
7.404,0.0482
7.408,0.03576
7.412,0.01374
7.416,0.02777
7.42,0.03135
7.424,0.00176
7.428,0.04316
7.432,0.02602
7.436,0.0206
7.44,0.03653
7.444,0.0321
7.448,0.02323
7.452,0.04946
7.456,0.01604
7.46,0.03046
7.464,0.02054
7.468,0.03231
7.472,0.04262
7.476,0.02982
7.48,0.01248
7.484,0.03316
7.488,0.04264
7.492,0.02034
7.496,0.02
7.5,0.05252
7.504,0.04003
7.508,0.02415
7.512,0.01406
7.516,0.03237
7.52,0.02294
7.524,0.01282
7.528,0.03252
7.532,0.01304
7.536,0.05202
7.54,0.04287
7.544,0.05071
7.548,0.03804
7.552,0.00677
7.556,0.02329
7.56,0.05016
7.564,0.01461
7.568,0.0366
7.572,0.04783
7.576,0.03053
7.58,0.03223
7.584,0.05066
7.588,-0.0102
7.592,0.03621
7.596,0.04757
7.6,0.03864
7.604,0.05119
7.608,0.0126
7.612,0.02344
7.616,0.02876
7.62,-3e-05
7.624,0.03682
7.628,0.04798
7.632,0.04651
7.636,0.01598
7.64,0.012
7.644,0.04241
7.648,0.00424
7.652,0.01381
7.656,0.05018
7.66,0.0051
7.664,0.05064
7.668,0.04572
7.672,0.02884
7.676,0.03346
7.68,0.0126
7.684,0.00409
7.688,0.00091
7.692,0.0337
7.696,0.03046
7.7,0.03311
7.704,0.02969
7.708,0.02909
7.712,0.01589
7.716,0.02838
7.72,0.04883
7.724,0.05625
7.728,0.0455
7.732,0.05501
7.736,0.05494
7.74,0.10171
7.744,0.09249
7.748,0.09662
7.752,0.12294
7.756,0.11773
7.76,0.16454
7.764,0.1077
7.768,0.14112
7.772,0.10198
7.776,0.12008
7.78,0.07884
7.784,0.08741
7.788,0.04021
7.792,0.08566
7.796,0.0221
7.8,0.06541
7.804,0.02497
7.808,0.01721
7.812,0.02447
7.816,0.03844
7.82,0.02952
7.824,0.02729
7.828,0.00354
7.832,0.00446
7.836,0.02712
7.84,0.01303
7.844,0.00645
7.848,0.03421
7.852,0.00499
7.856,0.01639
7.86,0.0264
7.864,0.0102
7.868,0.014
7.872,0.01566
7.876,0.03529
7.88,-0.00144
7.884,-0.06535
7.888,-0.0827
7.892,-0.07474
7.896,-0.02148
7.9,0.108
7.904,0.27046
7.908,0.45159
7.912,0.68309
7.916,0.88045
7.92,1.00642
7.924,1.02336
7.928,0.92769
7.932,0.72734
7.936,0.51187
7.94,0.28715
7.944,0.08174
7.948,-0.05814
7.952,-0.12897
7.956,-0.13732
7.96,-0.13287
7.964,-0.08633
7.968,-0.02623
7.972,-0.03178
7.976,0.01329
7.98,0.01064
7.984,0.01487
7.988,0.04477
7.992,0.03406
7.996,0.02763
8.0,0.01751
8.004,-0.00431
8.008,0.04236
8.012,0.00533
8.016,0.02754
8.02,0.02056
8.024,0.01526
8.028,-0.00239
8.032,0.00071
8.036,0.0414
8.04,0.02507
8.044,0.0565
8.048,0.01956
8.052,0.00555
8.056,-0.01982
8.06,0.00749
8.064,0.02218
8.068,0.03152
8.072,0.04661
8.076,0.05063
8.08,0.01212
8.084,0.02172
8.088,0.047
8.092,0.02946
8.096,0.03023
8.1,0.01409
8.104,0.03637
8.108,0.04708
8.112,0.07811
8.116,0.0384
8.12,0.03092
8.124,0.08133
8.128,0.0782
8.132,0.06192
8.136,0.1108
8.14,0.10002
8.144,0.15155
8.148,0.12348
8.152,0.11079
8.156,0.13377
8.16,0.15497
8.164,0.16672
8.168,0.17996
8.172,0.19075
8.176,0.20698
8.18,0.22342
8.184,0.25349
8.188,0.25586
8.192,0.24656
8.196,0.21593
8.2,0.24547
8.204,0.25434
8.208,0.25941
8.212,0.24874
8.216,0.22232
8.22,0.21529
8.224,0.20111
8.228,0.21102
8.232,0.1971
8.236,0.18784
8.24,0.18534
8.244,0.15319
8.248,0.14791
8.252,0.13292
8.256,0.14729
8.26,0.12503
8.264,0.06759
8.268,0.06626
8.272,0.07402
8.276,0.10304
8.28,0.05857
8.284,0.09831
8.288,0.05665
8.292,0.05487
8.296,0.02685
8.3,0.0309
8.304,0.03914
8.308,0.03444
8.312,0.00948
8.316,0.04341
8.32,0.01499
8.324,0.02203
8.328,0.02604
8.332,0.01449
8.336,0.02628
8.34,0.05116
8.344,0.02232
8.348,0.03783
8.352,-0.02336
8.356,0.03541
8.36,0.02144
8.364,0.0335
8.368,0.01923
8.372,0.03197
8.376,-0.00727
8.38,0.02891
8.384,0.0097
8.388,0.04922
8.392,0.01034
8.396,0.03525
8.4,0.00809
8.404,0.01547
8.408,0.03975
8.412,0.023
8.416,0.00179
8.42,0.03665
8.424,0.0653
8.428,0.06069
8.432,0.09768
8.436,0.08155
8.44,0.08814
8.444,0.15284
8.448,0.10494
8.452,0.12117
8.456,0.11125
8.46,0.11171
8.464,0.08747
8.468,0.07209
8.472,0.05228
8.476,0.06601
8.48,0.04739
8.484,0.03481
8.488,0.04188
8.492,0.0204
8.496,0.01379
8.5,0.01044
8.504,-0.0086
8.508,0.00554
8.512,-0.00448
8.516,0.00288
8.52,0.0115
8.524,0.01326
8.528,0.01692
8.532,0.02415
8.536,-0.01158
8.54,0.02916
8.544,0.01851
8.548,-0.0196
8.552,0.00136
8.556,-0.01033
8.56,0.01991
8.564,-0.00965
8.568,-0.02348
8.572,-0.07121
8.576,-0.12384
8.58,-0.1272
8.584,-0.05065
8.588,0.0739
8.592,0.27112
8.596,0.48339
8.6,0.71109
8.604,0.86198
8.608,1.00343
8.612,1.01882
8.616,0.90691
8.62,0.74396
8.624,0.49611
8.628,0.2882
8.632,0.07971
8.636,-0.078
8.64,-0.14938
8.644,-0.15189
8.648,-0.15131
8.652,-0.10014
8.656,-0.05259
8.66,-0.01539
8.664,0.0176
8.668,0.00611
8.672,-0.00472
8.676,0.01893
8.68,0.00076
8.684,0.00237
8.688,-0.02808
8.692,0.00793
8.696,0.02785
8.7,-0.01088
8.704,-0.01978
8.708,0.04107
8.712,0.05842
8.716,0.00986
8.72,0.01892
8.724,-0.00223
8.728,0.00867
8.732,0.02074
8.736,-0.0215
8.74,-0.01143
8.744,0.00122
8.748,-0.00546
8.752,0.02335
8.756,-0.00659
8.76,0.00502
8.764,-0.01394
8.768,0.02205
8.772,0.01805
8.776,0.00599
8.78,0.02347
8.784,0.0181
8.788,0.01294
8.792,0.01493
8.796,0.0206
8.8,0.03609
8.804,0.0518
8.808,0.02353
8.812,0.05292
8.816,0.08065
8.82,0.06162
8.824,0.049
8.828,0.1032
8.832,0.10061
8.836,0.10154
8.84,0.12287
8.844,0.14047
8.848,0.12472
8.852,0.15327
8.856,0.17187
8.86,0.18636
8.864,0.19824
8.868,0.20219
8.872,0.16693
8.876,0.1779
8.88,0.22016
8.884,0.24824
8.888,0.2139
8.892,0.23482
8.896,0.22234
8.9,0.21336
8.904,0.21415
8.908,0.17333
8.912,0.20815
8.916,0.18785
8.92,0.17985
8.924,0.17635
8.928,0.15747
8.932,0.1454
8.936,0.11922
8.94,0.11866
8.944,0.11144
8.948,0.10242
8.952,0.08981
8.956,0.08116
8.96,0.05915
8.964,0.06643
8.968,0.04485
8.972,0.04816
8.976,0.03615
8.98,0.01637
8.984,0.02062
8.988,0.00546
8.992,0.02354
8.996,-0.00984
9.0,0.01842
9.004,-0.0076
9.008,0.00868
9.012,0.02009
9.016,-0.0077
9.02,-0.00993
9.024,-0.01182
9.028,0.00078
9.032,-0.01596
9.036,-0.04184
9.04,-0.00965
9.044,0.02358
9.048,-0.00482
9.052,-0.01186
9.056,0.01483
9.06,-0.01117
9.064,0.0071
9.068,-0.00391
9.072,0.02687
9.076,-0.0076
9.08,-0.03841
9.084,-0.00742
9.088,-0.02709
9.092,-0.01195
9.096,-0.01206
9.1,0.00288
9.104,0.00498
9.108,0.00107
9.112,-0.00804
9.116,-0.00156
9.12,0.01834
9.124,-0.02034
9.128,-0.006
9.132,0.0008
9.136,0.00279
9.14,0.01145
9.144,0.01052
9.148,-0.0199
9.152,-0.01015
9.156,0.01658
9.16,-0.00376
9.164,-0.01071
9.168,-0.00137
9.172,-0.01931
9.176,-0.00468
9.18,-0.01797
9.184,-0.01081
9.188,-0.00158
9.192,0.00301
9.196,-0.03598
9.2,-0.00216
9.204,0.00365
9.208,-0.01417
9.212,0.00381
9.216,-0.01047
9.22,-0.0269
9.224,-0.02202
9.228,-0.04589
9.232,-0.01071
9.236,-0.00537
9.24,-0.01669
9.244,-0.01902
9.248,-0.01441
9.252,-0.02809
9.256,-0.02817
9.26,-0.02357
9.264,-0.01028
9.268,-0.04665
9.272,0.01748
9.276,-0.00364
9.28,-0.01725
9.284,0.00172
9.288,0.01317
9.292,-0.00878
9.296,0.03563
9.3,0.01269
9.304,0.03732
9.308,0.04539
9.312,0.03374
9.316,0.07238
9.32,0.0778
9.324,0.08723
9.328,0.07912
9.332,0.11092
9.336,0.06889
9.34,0.07066
9.344,0.03429
9.348,0.04172
9.352,0.03349
9.356,0.02476
9.36,0.00635
9.364,0.00665
9.368,0.01567
9.372,-0.03555
9.376,-0.02302
9.38,0.00245
9.384,-0.0237
9.388,-0.03133
9.392,-0.01
9.396,-0.03079
9.4,-0.01124
9.404,-0.00365
9.408,-0.03296
9.412,-0.02175
9.416,-0.01581
9.42,0.00582
9.424,-0.01913
9.428,0.00873
9.432,-0.0079
9.436,-0.01292
9.44,-0.02694
9.444,-0.04024
9.448,-0.07927
9.452,-0.12798
9.456,-0.1303
9.46,-0.06079
9.464,0.0391
9.468,0.1842
9.472,0.4461
9.476,0.62919
9.48,0.8211
9.484,0.95289
9.488,0.95829
9.492,0.91624
9.496,0.7124
9.5,0.47573
9.504,0.25954
9.508,0.06327
9.512,-0.05078
9.516,-0.14207
9.52,-0.20107
9.524,-0.16914
9.528,-0.11946
9.532,-0.07199
9.536,-0.06069
9.54,-0.02267
9.544,-0.00728
9.548,-0.01739
9.552,-0.02223
9.556,-0.00153
9.56,-0.01768
9.564,-0.03064
9.568,-0.041
9.572,-0.00259
9.576,-0.03921
9.58,-0.0239
9.584,-0.00519
9.588,-0.01514
9.592,0.01896
9.596,-0.027
9.6,-0.01391
9.604,-0.01661
9.608,-0.02513
9.612,0.00634
9.616,-0.02128
9.62,-0.00813
9.624,-0.02215
9.628,-0.02041
9.632,-0.01907
9.636,0.00311
9.64,-0.01384
9.644,0.00173
9.648,-0.00106
9.652,-0.00691
9.656,-0.03163
9.66,-0.0125
9.664,0.00348
9.668,-0.01312
9.672,-0.01488
9.676,-0.00597
9.68,-0.00287
9.684,0.03892
9.688,0.04446
9.692,0.0615
9.696,0.05564
9.7,0.0583
9.704,0.02734
9.708,0.07902
9.712,0.09186
9.716,0.11905
9.72,0.12921
9.724,0.13924
9.728,0.1427
9.732,0.14407
9.736,0.15247
9.74,0.16747
9.744,0.17364
9.748,0.18762
9.752,0.20511
9.756,0.19084
9.76,0.20984
9.764,0.18729
9.768,0.21162
9.772,0.19569
9.776,0.18527
9.78,0.20204
9.784,0.18834
9.788,0.17818
9.792,0.18577
9.796,0.15806
9.8,0.13497
9.804,0.14063
9.808,0.11889
9.812,0.11074
9.816,0.10854
9.82,0.07862
9.824,0.07434
9.828,0.09079
9.832,0.07922
9.836,0.03947
9.84,0.04606
9.844,0.02072
9.848,0.03053
9.852,0.01276
9.856,0.01824
9.86,0.01674
9.864,-0.01881
9.868,0.00168
9.872,-0.02129
9.876,-0.01387
9.88,-0.0239
9.884,0.01723
9.888,-0.02481
9.892,-0.00748
9.896,-0.03786
9.9,-0.05488
9.904,0.00395
9.908,-0.02697
9.912,-0.0223
9.916,-0.01391
9.92,-0.03147
9.924,-0.0319
9.928,-0.01498
9.932,-0.0027
9.936,-0.04547
9.94,-0.02746
9.944,-0.02434
9.948,-0.01627
9.952,-0.03911
9.956,-0.02878
9.96,-0.02112
9.964,-0.0282
9.968,-0.02381
9.972,-0.03456
9.976,-0.0251
9.98,-0.01243
9.984,-0.01837
9.988,-0.01655
9.992,-0.01545
9.996,-0.01037
