t_seg,ecg_mV
0.0,-0.01057
0.004,0.00325
0.008,0.01734
0.012,0.0186
0.016,0.02129
0.02,-0.00747
0.024,0.02175
0.028,0.02347
0.032,-0.02093
0.036,0.01374
0.04,0.0316
0.044,0.0048
0.048,0.00294
0.052,-0.01284
0.056,0.01823
0.06,-0.01698
0.064,0.00063
0.068,0.00117
0.072,-0.00744
0.076,0.02524
0.08,0.0072
0.084,0.02784
0.088,0.00454
0.092,0.0057
0.096,0.015
0.1,0.0009
0.104,-0.00822
0.108,0.03544
0.112,0.02529
0.116,0.0137
0.12,0.00093
0.124,0.01891
0.128,0.02321
0.132,0.00166
0.136,0.02245
0.14,0.01418
0.144,0.00515
0.148,0.01311
0.152,-0.01053
0.156,-0.02308
0.16,0.00163
0.164,0.00396
0.168,0.01222
0.172,0.02979
0.176,0.01071
0.18,0.00128
0.184,0.02399
0.188,0.01252
0.192,0.0249
0.196,-0.01635
0.2,-0.005
0.204,0.00801
0.208,0.00152
0.212,0.00157
0.216,-0.00456
0.22,-0.02323
0.224,0.02585
0.228,0.0052
0.232,0.04175
0.236,-0.00697
0.24,0.0182
0.244,0.04567
0.248,0.07666
0.252,0.03852
0.256,0.04993
0.26,0.06223
0.264,0.07757
0.268,0.08072
0.272,0.09241
0.276,0.08746
0.28,0.10059
0.284,0.10707
0.288,0.09509
0.292,0.06316
0.296,0.07508
0.3,0.051
0.304,0.03187
0.308,0.03048
0.312,0.02841
0.316,0.00253
0.32,0.02291
0.324,0.00128
0.328,0.00716
0.332,-0.0026
0.336,0.00905
0.34,-0.00612
0.344,-0.00261
0.348,0.02102
0.352,-0.00531
0.356,-0.01231
0.36,-0.03329
0.364,3e-05
0.368,0.01543
0.372,0.00549
0.376,-0.01581
0.38,0.00914
0.384,0.00473
0.388,-0.00189
0.392,-0.01533
0.396,-0.06303
0.4,-0.08538
0.404,-0.08275
0.408,-0.07958
0.412,-0.01363
0.416,0.12625
0.42,0.33971
0.424,0.54632
0.428,0.70888
0.432,0.8776
0.436,0.98077
0.44,0.97453
0.444,0.81813
0.448,0.61155
0.452,0.38766
0.456,0.17932
0.46,-0.02088
0.464,-0.08708
0.468,-0.16572
0.472,-0.16757
0.476,-0.12143
0.48,-0.10438
0.484,-0.0427
0.488,-0.01229
0.492,-0.00017
0.496,-0.01318
0.5,0.00208
0.504,-0.02508
0.508,0.02976
0.512,-0.00879
0.516,0.01888
0.52,-0.00084
0.524,0.01285
0.528,-0.00589
0.532,-0.00728
0.536,0.00266
0.54,-0.03467
0.544,-0.00938
0.548,-0.00115
0.552,-0.01811
0.556,-0.0187
0.56,-0.03072
0.564,-0.0048
0.568,-0.02073
0.572,0.00332
0.576,0.01151
0.58,-0.02371
0.584,-0.00647
0.588,0.01047
0.592,-0.00516
0.596,0.03531
0.6,0.02203
0.604,0.00252
0.608,0.00717
0.612,0.04139
0.616,0.01939
0.62,0.01974
0.624,0.0224
0.628,0.02274
0.632,0.04131
0.636,0.02976
0.64,0.04634
0.644,0.03101
0.648,0.04465
0.652,0.06447
0.656,0.07962
0.66,0.07448
0.664,0.10638
0.668,0.12536
0.672,0.12462
0.676,0.16582
0.68,0.14291
0.684,0.18467
0.688,0.18037
0.692,0.18047
0.696,0.13489
0.7,0.21803
0.704,0.19291
0.708,0.21443
0.712,0.21673
0.716,0.22172
0.72,0.18761
0.724,0.20141
0.728,0.22484
0.732,0.18799
0.736,0.17322
0.74,0.204
0.744,0.18753
0.748,0.1859
0.752,0.14515
0.756,0.15907
0.76,0.14892
0.764,0.11448
0.768,0.08823
0.772,0.0883
0.776,0.09679
0.78,0.07107
0.784,0.06606
0.788,0.04805
0.792,0.04449
0.796,0.0159
0.8,0.06237
0.804,0.02084
0.808,0.02466
0.812,0.02333
0.816,0.03314
0.82,0.02319
0.824,0.00888
0.828,-0.0129
0.832,-0.00554
0.836,-0.02211
0.84,-0.01649
0.844,-0.01122
0.848,0.00419
0.852,-0.01124
0.856,-0.03683
0.86,-0.0011
0.864,0.0121
0.868,-0.04959
0.872,0.00114
0.876,-0.00961
0.88,-0.00937
0.884,-0.01477
0.888,-0.00309
0.892,0.00757
0.896,0.00256
0.9,-0.02037
0.904,0.01111
0.908,0.00266
0.912,-0.02891
0.916,-0.01629
0.92,-0.03065
0.924,-0.0058
0.928,-0.03524
0.932,-0.03569
0.936,0.00447
0.94,0.00127
0.944,-0.012
0.948,-0.01928
0.952,-0.00077
0.956,0.0041
0.96,-0.03947
0.964,0.00088
0.968,-0.03369
0.972,-0.0174
0.976,-0.02311
0.98,-0.02206
0.984,-0.02694
0.988,-0.01452
0.992,-0.03576
0.996,-0.03874
1.0,-0.03395
1.004,-0.01433
1.008,-0.01401
1.012,-0.00485
1.016,-0.01804
1.02,-0.00258
1.024,0.00091
1.028,-0.03256
1.032,-0.00174
1.036,-0.00864
1.04,-0.03171
1.044,-0.00147
1.048,-0.04762
1.052,-0.03466
1.056,0.0145
1.06,-0.01892
1.064,-0.04215
1.068,-0.00656
1.072,-0.00316
1.076,-0.01479
1.08,-0.01783
1.084,-0.02756
1.088,-0.01667
1.092,-0.0007
1.096,-0.02996
1.1,-0.00812
1.104,-0.00437
1.108,0.01303
1.112,-0.01353
1.116,0.00394
1.12,-0.01324
1.124,-0.0484
1.128,-0.00228
1.132,0.00611
1.136,-0.01066
1.14,-0.0139
1.144,-0.02614
1.148,0.01877
1.152,-0.024
1.156,0.00503
1.16,0.00152
1.164,-0.02685
1.168,0.02252
1.172,-0.0013
1.176,0.01288
1.18,0.00778
1.184,0.04243
1.188,0.04773
1.192,0.05874
1.196,0.11169
1.2,0.0683
1.204,0.08937
1.208,0.06624
1.212,0.08086
1.216,0.06569
1.22,0.08471
1.224,0.08264
1.228,0.04883
1.232,0.0334
1.236,0.0151
1.24,0.00576
1.244,0.00541
1.248,-0.0275
1.252,-0.00556
1.256,-0.0457
1.26,-0.00751
1.264,-0.00743
1.268,-0.03589
1.272,-0.02156
1.276,-0.00318
1.28,-0.03303
1.284,-0.02768
1.288,-0.00444
1.292,-0.02627
1.296,0.00307
1.3,-0.03693
1.304,-0.0438
1.308,-0.00837
1.312,-0.05096
1.316,-0.01175
1.32,-0.04376
1.324,-0.05196
1.328,-0.10449
1.332,-0.12091
1.336,-0.15362
1.34,-0.06132
1.344,0.01832
1.348,0.2196
1.352,0.40139
1.356,0.63664
1.36,0.76715
1.364,0.94688
1.368,0.9804
1.372,0.87039
1.376,0.70176
1.38,0.48366
1.384,0.26608
1.388,0.06334
1.392,-0.1025
1.396,-0.20073
1.4,-0.19035
1.404,-0.16403
1.408,-0.15255
1.412,-0.0869
1.416,-0.05173
1.42,-0.03541
1.424,-0.02897
1.428,-0.03361
1.432,-0.01887
1.436,-0.03287
1.44,-0.03155
1.444,-0.03052
1.448,-0.04017
1.452,-0.02853
1.456,-0.00406
1.46,-0.02505
1.464,-0.01604
1.468,-0.02827
1.472,-0.01881
1.476,-0.01239
1.48,-0.03584
1.484,-0.04271
1.488,-0.04469
1.492,-0.05114
1.496,-0.02447
1.5,-0.02579
1.504,-0.01969
1.508,0.00941
1.512,-0.01496
1.516,-0.03782
1.52,-0.01311
1.524,-0.0316
1.528,-0.01511
1.532,-0.00068
1.536,0.01202
1.54,-0.02233
1.544,-0.01813
1.548,-0.02268
1.552,-0.01301
1.556,-0.00064
1.56,-0.00249
1.564,0.0184
1.568,0.03744
1.572,0.03186
1.576,0.03251
1.58,0.05511
1.584,0.07716
1.588,0.08797
1.592,0.08736
1.596,0.08064
1.6,0.11066
1.604,0.12541
1.608,0.10364
1.612,0.11085
1.616,0.13337
1.62,0.14377
1.624,0.19178
1.628,0.15725
1.632,0.15073
1.636,0.18214
1.64,0.19839
1.644,0.1828
1.648,0.22763
1.652,0.18225
1.656,0.19255
1.66,0.21517
1.664,0.17248
1.668,0.13331
1.672,0.187
1.676,0.12324
1.68,0.13008
1.684,0.13396
1.688,0.10331
1.692,0.10113
1.696,0.08699
1.7,0.09055
1.704,0.06979
1.708,0.05979
1.712,0.05595
1.716,0.06249
1.72,0.02968
1.724,-0.00863
1.728,-0.01179
1.732,0.03351
1.736,-0.01152
1.74,-0.0129
1.744,-0.00511
1.748,-0.01456
1.752,-0.00866
1.756,-0.00701
1.76,-0.02473
1.764,-0.00965
1.768,-0.04663
1.772,-0.024
1.776,-0.01528
1.78,-0.03147
1.784,-0.0345
1.788,-0.04621
1.792,0.01627
1.796,-0.00851
1.8,-0.05656
1.804,-0.0402
1.808,-0.01639
1.812,-0.0173
1.816,-0.03617
1.82,-0.00237
1.824,-0.02729
1.828,-0.0496
1.832,-0.0211
1.836,-0.02322
1.84,-0.0168
1.844,-0.06423
1.848,-0.01824
1.852,-0.04326
1.856,0.00276
1.86,-0.01983
1.864,-0.04003
1.868,-0.04002
1.872,-0.03879
1.876,-0.00819
1.88,-0.01138
1.884,-0.02909
1.888,-0.02719
1.892,-0.02537
1.896,-0.02729
1.9,-0.02513
1.904,-0.0553
1.908,-0.02864
1.912,-0.02211
1.916,0.0056
1.92,-0.03726
1.924,-0.03763
1.928,-0.03045
1.932,-0.03369
1.936,-0.02074
1.94,-0.03055
1.944,-0.03343
1.948,-0.05164
1.952,-0.0439
1.956,-0.0273
1.96,-0.036
1.964,-0.03798
1.968,-0.0012
1.972,-0.03522
1.976,-0.00397
1.98,-0.04312
1.984,-0.02333
1.988,-0.00953
1.992,-0.02112
1.996,-0.00266
2.0,-0.05711
2.004,-0.00761
2.008,-0.03965
2.012,-0.02541
2.016,-0.05005
2.02,-0.01624
2.024,-0.02649
2.028,-0.01765
2.032,-0.0091
2.036,-0.02332
2.04,-0.01267
2.044,-0.05278
2.048,-0.01818
2.052,-0.04622
2.056,-0.03604
2.06,-0.03327
2.064,-0.03062
2.068,-0.04701
2.072,-0.02737
2.076,-0.0155
2.08,-0.05219
2.084,-0.06842
2.088,-0.04107
2.092,-0.04481
2.096,-0.03222
2.1,-0.02376
2.104,-0.0218
2.108,-0.04225
2.112,-0.02628
2.116,-0.02737
2.12,-0.01456
2.124,-0.03351
2.128,-0.02955
2.132,-0.03648
2.136,-0.01338
2.14,0.0061
2.144,-0.01103
2.148,-0.0529
2.152,-0.01175
2.156,-0.02006
2.16,-0.02846
2.164,-0.00166
2.168,0.01654
2.172,0.00239
2.176,0.01449
2.18,0.049
2.184,0.05064
2.188,0.06976
2.192,0.07354
2.196,0.07446
2.2,0.09
2.204,0.05254
2.208,0.05335
2.212,0.019
2.216,0.04528
2.22,0.04004
2.224,0.01705
2.228,0.02222
2.232,-0.00969
2.236,-0.00216
2.24,-0.01987
2.244,-0.02928
2.248,-0.01469
2.252,-0.03934
2.256,-0.03703
2.26,-0.01639
2.264,-0.00044
2.268,-0.03456
2.272,-0.05754
2.276,-0.01408
2.28,-0.01685
2.284,-0.02793
2.288,-0.00933
2.292,-0.01489
2.296,-0.04093
2.3,-0.02757
2.304,-0.02507
2.308,-0.01704
2.312,-0.03991
2.316,-0.06774
2.32,-0.13642
2.324,-0.11975
2.328,-0.13327
2.332,-0.03101
2.336,0.01507
2.34,0.20459
2.344,0.4068
2.348,0.64225
2.352,0.81555
2.356,0.95846
2.36,0.96447
2.364,0.88983
2.368,0.70873
2.372,0.45329
2.376,0.25668
2.38,0.05038
2.384,-0.08904
2.388,-0.18849
2.392,-0.18719
2.396,-0.17593
2.4,-0.12403
2.404,-0.09106
2.408,-0.06022
2.412,-0.0454
2.416,-0.00175
2.42,-0.03535
2.424,-0.01293
2.428,-0.01858
2.432,-0.0271
2.436,-0.03291
2.44,-0.05126
2.444,-0.03971
2.448,-0.03598
2.452,-0.03461
2.456,-0.0183
2.46,-0.01979
2.464,-0.03189
2.468,0.00237
2.472,-0.04181
2.476,-0.02699
2.48,-0.00724
2.484,-0.03906
2.488,-0.0198
2.492,-0.0253
2.496,-0.02825
2.5,-0.0236
2.504,-0.0043
2.508,-0.02833
2.512,-0.02974
2.516,-0.0444
2.52,-0.03976
2.524,-0.00153
2.528,0.00615
2.532,-0.02928
2.536,-0.03937
2.54,0.00277
2.544,-0.01256
2.548,-0.00138
2.552,0.00823
2.556,0.02699
2.56,0.01404
2.564,0.05019
2.568,0.02806
2.572,0.07034
2.576,0.0858
2.58,0.08759
2.584,0.09839
2.588,0.07958
2.592,0.09911
2.596,0.1089
2.6,0.13388
2.604,0.12374
2.608,0.13208
2.612,0.14909
2.616,0.14464
2.62,0.19564
2.624,0.19632
2.628,0.15727
2.632,0.16287
2.636,0.18005
2.64,0.19496
2.644,0.21288
2.648,0.17237
2.652,0.19352
2.656,0.16449
2.66,0.16824
2.664,0.1526
2.668,0.12362
2.672,0.16288
2.676,0.11667
2.68,0.12671
2.684,0.11651
2.688,0.12028
2.692,0.07947
2.696,0.07417
2.7,0.07686
2.704,0.08445
2.708,0.02584
2.712,0.07458
2.716,0.01535
2.72,0.03876
2.724,-0.0065
2.728,0.01634
2.732,0.00024
2.736,0.00246
2.74,-0.01228
2.744,-0.01135
2.748,-0.02816
2.752,-0.01173
2.756,-0.04246
2.76,0.00607
2.764,-0.03748
2.768,-0.02431
2.772,-0.00914
2.776,-0.01237
2.78,0.00147
2.784,-0.02366
2.788,-0.02035
2.792,-0.02063
2.796,-0.03483
2.8,-0.02841
2.804,-0.0395
2.808,-0.02838
2.812,-0.0483
2.816,-0.03089
2.82,0.00078
2.824,-0.0342
2.828,-0.03141
2.832,0.01404
2.836,-0.0113
2.84,-0.05329
2.844,-0.02294
2.848,-0.00599
2.852,-0.03173
2.856,-0.02367
2.86,-0.01719
2.864,-0.01272
2.868,-0.02743
2.872,-0.01214
2.876,-0.01673
2.88,-0.01855
2.884,-0.06563
2.888,-0.01552
2.892,0.0029
2.896,-0.04232
2.9,-0.03734
2.904,0.02044
2.908,-0.01626
2.912,-0.03333
2.916,-0.03595
2.92,-0.0418
2.924,-0.01307
2.928,-0.03077
2.932,-0.03129
2.936,-0.02762
2.94,-0.01306
2.944,-0.00584
2.948,-0.0164
2.952,-0.03621
2.956,-0.00165
2.96,-0.02173
2.964,-0.00406
2.968,-0.03459
2.972,0.0095
2.976,-0.00783
2.98,-0.01543
2.984,-0.02215
2.988,-0.0441
2.992,0.0081
2.996,-0.03244
3.0,-0.03018
3.004,-0.0143
3.008,-0.00405
3.012,-0.01775
3.016,-0.03251
3.02,-0.00667
3.024,-0.01774
3.028,-0.03729
3.032,-0.02702
3.036,-0.0101
3.04,-0.02907
3.044,-0.02679
3.048,-0.00804
3.052,-0.0348
3.056,0.00029
3.06,-0.01324
3.064,-0.03113
3.068,0.01774
3.072,-0.02732
3.076,-0.01755
3.08,-0.0235
3.084,-0.02527
3.088,-0.00577
3.092,-0.03166
3.096,-0.05294
3.1,-0.00108
3.104,-0.02495
3.108,-0.01544
3.112,-0.02181
3.116,-0.03497
3.12,-0.0247
3.124,-0.01331
3.128,-0.00419
3.132,0.00799
3.136,-0.02808
3.14,-0.00686
3.144,0.00302
3.148,-0.01888
3.152,-0.00622
3.156,0.01665
3.16,-0.01583
3.164,0.00296
3.168,-0.01791
3.172,-0.02991
3.176,-0.01566
3.18,-0.01335
3.184,-0.04536
3.188,-0.03721
3.192,-0.02978
3.196,-0.01705
3.2,0.00339
3.204,-0.01069
3.208,-0.00554
3.212,0.01957
3.216,0.03549
3.22,0.03403
3.224,0.0279
3.228,0.0301
3.232,0.06195
3.236,0.04775
3.24,0.05029
3.244,0.07431
3.248,0.08334
3.252,0.10855
3.256,0.09607
3.26,0.07095
3.264,0.08819
3.268,0.04955
3.272,0.03566
3.276,0.03435
3.28,0.02504
3.284,0.0052
3.288,-0.00583
3.292,0.01556
3.296,-0.02539
3.3,-0.0097
3.304,0.00612
3.308,-0.01476
3.312,-0.00647
3.316,-0.00813
3.32,-0.02385
3.324,-0.02741
3.328,-0.02812
3.332,-0.00944
3.336,-0.00836
3.34,-0.00738
3.344,-0.01987
3.348,-0.03466
3.352,0.001
3.356,1e-05
3.36,0.00799
3.364,-0.0353
3.368,-0.08601
3.372,-0.12171
3.376,-0.11725
3.38,-0.14826
3.384,-0.01151
3.388,0.11657
3.392,0.28522
3.396,0.50642
3.4,0.73311
3.404,0.92709
3.408,0.98845
3.412,0.95456
3.416,0.80898
3.42,0.6203
3.424,0.38953
3.428,0.15438
3.432,-0.0056
3.436,-0.07132
3.44,-0.17475
3.444,-0.16904
3.448,-0.15402
3.452,-0.11494
3.456,-0.04277
3.46,-0.03435
3.464,-0.02773
3.468,-0.02328
3.472,-0.00419
3.476,-0.00966
3.48,0.02627
3.484,-0.01867
3.488,-0.00851
3.492,-0.04045
3.496,0.00615
3.5,-0.02905
3.504,0.00603
3.508,-0.00463
3.512,-0.01026
3.516,-0.0189
3.52,0.00098
3.524,-0.01374
3.528,-0.04977
3.532,-0.00748
3.536,0.02729
3.54,-0.01962
3.544,-0.00989
3.548,-0.00565
3.552,-0.01619
3.556,0.00712
3.56,0.00202
3.564,-0.00378
3.568,0.006
3.572,0.03116
3.576,0.0072
3.58,-0.01665
3.584,0.02441
3.588,0.0015
3.592,0.03093
3.596,-0.00238
3.6,0.0303
3.604,0.01419
3.608,0.04631
3.612,0.02628
3.616,0.06755
3.62,0.05284
3.624,0.06197
3.628,0.06878
3.632,0.07653
3.636,0.10319
3.64,0.14182
3.644,0.10942
3.648,0.15977
3.652,0.17319
3.656,0.16204
3.66,0.18877
3.664,0.19808
3.668,0.22011
3.672,0.21563
3.676,0.20255
3.68,0.21775
3.684,0.19993
3.688,0.2275
3.692,0.22675
3.696,0.21811
3.7,0.21813
3.704,0.18256
3.708,0.20781
3.712,0.19196
3.716,0.18472
3.72,0.19175
3.724,0.16933
3.728,0.1344
3.732,0.17586
3.736,0.1262
3.74,0.10413
3.744,0.10661
3.748,0.10278
3.752,0.07723
3.756,0.07509
3.76,0.03993
3.764,0.05384
3.768,0.047
3.772,0.02254
3.776,0.00322
3.78,0.05276
3.784,0.03473
3.788,0.02178
3.792,0.04525
3.796,0.01111
3.8,0.04283
3.804,0.00756
3.808,0.00459
3.812,0.02322
3.816,0.01066
3.82,-0.01553
3.824,-0.01576
3.828,0.03363
3.832,0.01228
3.836,-0.00055
3.84,0.00983
3.844,0.00812
3.848,0.01307
3.852,0.02505
3.856,-0.01002
3.86,-0.00548
3.864,0.02241
3.868,0.00599
3.872,-0.0174
3.876,-0.0103
3.88,0.0176
3.884,0.00787
3.888,-0.02672
3.892,0.00835
3.896,-0.01186
3.9,-0.00754
3.904,-0.0039
3.908,0.01446
3.912,0.01353
3.916,0.00084
3.92,0.01304
3.924,0.01588
3.928,-0.00263
3.932,0.02483
3.936,0.00978
3.94,0.00811
3.944,0.01762
3.948,0.0006
3.952,0.00657
3.956,-0.01408
3.96,0.01918
3.964,0.01265
3.968,-0.00207
3.972,-0.02046
3.976,-0.0055
3.98,0.00585
3.984,-0.00113
3.988,0.01074
3.992,-0.00068
3.996,0.02414
4.0,0.01594
4.004,0.01778
4.008,0.0169
4.012,-0.00945
4.016,-0.0022
4.02,-0.0162
4.024,0.0184
4.028,0.03217
4.032,0.0246
4.036,0.00344
4.04,0.00926
4.044,0.04048
4.048,0.01581
4.052,-0.00196
4.056,-0.00382
4.06,-0.00275
4.064,2e-05
4.068,-0.01066
4.072,0.0405
4.076,-0.00235
4.08,0.00974
4.084,0.01885
4.088,-0.00461
4.092,0.01852
4.096,0.01711
4.1,-0.00024
4.104,0.0079
4.108,0.06689
4.112,0.04444
4.116,0.07623
4.12,0.04327
4.124,0.07909
4.128,0.08597
4.132,0.10184
4.136,0.10824
4.14,0.08379
4.144,0.11132
4.148,0.11714
4.152,0.07296
4.156,0.06558
4.16,0.06058
4.164,0.09497
4.168,0.01909
4.172,0.03276
4.176,0.03014
4.18,0.0212
4.184,0.02368
4.188,0.02757
4.192,0.00181
4.196,0.01394
4.2,-0.00677
4.204,0.0044
4.208,-0.00129
4.212,-0.01106
4.216,0.00527
4.22,-0.01173
4.224,-0.01558
4.228,0.01301
4.232,0.02123
4.236,0.01032
4.24,0.02926
4.244,-0.00858
4.248,0.03463
4.252,-0.00283
4.256,-0.01858
4.26,-0.03935
4.264,-0.09205
4.268,-0.11302
4.272,-0.10781
4.276,-0.00658
4.28,0.13014
4.284,0.33334
4.288,0.54443
4.292,0.73937
4.296,0.92761
4.3,1.01991
4.304,1.00284
4.308,0.85933
4.312,0.64151
4.316,0.40878
4.32,0.22181
4.324,0.0424
4.328,-0.10076
4.332,-0.16049
4.336,-0.1331
4.34,-0.11459
4.344,-0.07468
4.348,-0.02186
4.352,-0.01577
4.356,0.02053
4.36,0.03278
4.364,0.00432
4.368,0.02903
4.372,0.02302
4.376,0.02057
4.38,-0.01262
4.384,0.02526
4.388,0.04617
4.392,0.02433
4.396,0.0171
4.4,0.01436
4.404,-0.00511
4.408,0.00124
4.412,0.02125
4.416,0.03004
4.42,0.00856
4.424,0.02111
4.428,-0.00385
4.432,0.01997
4.436,0.01447
4.44,0.00549
4.444,-0.0038
4.448,0.01931
4.452,0.03646
4.456,-0.00176
4.46,0.02152
4.464,0.03686
4.468,0.01492
4.472,0.01367
4.476,0.03171
4.48,0.05202
4.484,0.02679
4.488,0.07171
4.492,0.0365
4.496,0.04902
4.5,0.06237
4.504,0.06771
4.508,0.08552
4.512,0.0918
4.516,0.10136
4.52,0.12194
4.524,0.12634
4.528,0.13901
4.532,0.11292
4.536,0.14857
4.54,0.17485
4.544,0.18666
4.548,0.18509
4.552,0.21267
4.556,0.21499
4.56,0.21976
4.564,0.23173
4.568,0.23163
4.572,0.23492
4.576,0.24235
4.58,0.22814
4.584,0.23525
4.588,0.23426
4.592,0.23635
4.596,0.2198
4.6,0.23432
4.604,0.20589
4.608,0.20593
4.612,0.18221
4.616,0.19021
4.62,0.13672
4.624,0.1514
4.628,0.15213
4.632,0.15395
4.636,0.12849
4.64,0.11927
4.644,0.10594
4.648,0.09257
4.652,0.10204
4.656,0.08681
4.66,0.09066
4.664,0.06479
4.668,0.05639
4.672,0.04665
4.676,0.05124
4.68,0.01291
4.684,0.00321
4.688,0.02279
4.692,0.02994
4.696,0.06655
4.7,0.02301
4.704,0.0246
4.708,0.02732
4.712,0.01986
4.716,0.04039
4.72,0.01795
4.724,0.00906
4.728,0.0128
4.732,0.03553
4.736,0.02333
4.74,0.03092
4.744,0.03532
4.748,0.02952
4.752,0.00087
4.756,0.02148
4.76,0.02107
4.764,0.01245
4.768,0.02481
4.772,0.05748
4.776,0.02405
4.78,0.01661
4.784,0.01113
4.788,0.02585
4.792,0.02555
4.796,0.02026
4.8,0.04092
4.804,0.05418
4.808,0.05919
4.812,0.03122
4.816,0.06925
4.82,0.08457
4.824,0.08411
4.828,0.10903
4.832,0.11083
4.836,0.11469
4.84,0.12
4.844,0.1223
4.848,0.11359
4.852,0.13074
4.856,0.12489
4.86,0.11577
4.864,0.08382
4.868,0.06567
4.872,0.04437
4.876,0.07119
4.88,0.0601
4.884,0.06525
4.888,0.05803
4.892,0.03648
4.896,0.03836
4.9,0.00895
4.904,0.02558
4.908,0.02264
4.912,0.01722
4.916,0.04461
4.92,0.01582
4.924,0.01409
4.928,0.00174
4.932,0.01438
4.936,0.01177
4.94,0.04154
4.944,0.01265
4.948,0.01385
4.952,0.02967
4.956,0.01547
4.96,-0.02202
4.964,-0.05045
4.968,-0.07224
4.972,-0.08098
4.976,-0.05938
4.98,0.02433
4.984,0.14258
4.988,0.37842
4.992,0.58465
4.996,0.79905
5.0,0.93793
5.004,1.00794
5.008,0.95838
5.012,0.80504
5.016,0.64553
5.02,0.39739
5.024,0.18006
5.028,0.02154
5.032,-0.1174
5.036,-0.15642
5.04,-0.11552
5.044,-0.08616
5.048,-0.05352
5.052,0.00709
5.056,0.00921
5.06,0.01318
5.064,0.01599
5.068,0.03739
5.072,0.04046
5.076,0.01203
5.08,0.00415
5.084,0.01829
5.088,0.0183
5.092,0.02712
5.096,0.0448
5.1,0.0164
5.104,0.01975
5.108,0.02814
5.112,0.03465
5.116,0.02717
5.12,0.01273
5.124,0.03401
5.128,0.01259
5.132,0.04339
5.136,0.03281
5.14,3e-05
5.144,0.02834
5.148,0.0145
5.152,0.00906
5.156,0.01962
5.16,0.01917
5.164,0.02783
5.168,0.04485
5.172,0.04094
5.176,0.05674
5.18,0.07376
5.184,0.07475
5.188,0.04625
5.192,0.07443
5.196,0.02881
5.2,0.04558
5.204,0.07743
5.208,0.08262
5.212,0.09374
5.216,0.10683
5.22,0.11753
5.224,0.10842
5.228,0.12491
5.232,0.13973
5.236,0.15274
5.24,0.16201
5.244,0.13846
5.248,0.18956
5.252,0.18088
5.256,0.21324
5.26,0.21926
5.264,0.21957
5.268,0.22715
5.272,0.23675
5.276,0.27281
5.28,0.25376
5.284,0.25523
5.288,0.27124
5.292,0.25877
5.296,0.24647
5.3,0.23236
5.304,0.2229
5.308,0.23522
5.312,0.18482
5.316,0.21681
5.32,0.17881
5.324,0.20473
5.328,0.18854
5.332,0.16457
5.336,0.12239
5.34,0.12665
5.344,0.11464
5.348,0.14077
5.352,0.08257
5.356,0.08117
5.36,0.07936
5.364,0.05869
5.368,0.04893
5.372,0.05716
5.376,0.03958
5.38,0.03824
5.384,0.03607
5.388,0.05095
5.392,0.03399
5.396,0.00527
5.4,0.06119
5.404,0.04267
5.408,0.05263
5.412,0.03756
5.416,0.03227
5.42,0.01453
5.424,0.02056
5.428,-0.00241
5.432,0.04544
5.436,0.03154
5.44,0.03411
5.444,0.05134
5.448,0.02872
5.452,0.01116
5.456,0.0088
5.46,0.02918
5.464,0.00589
5.468,0.03401
5.472,-0.00692
5.476,0.04501
5.48,0.02085
5.484,0.04078
5.488,0.04071
5.492,0.03031
5.496,0.02149
5.5,0.0351
5.504,0.06518
5.508,0.07019
5.512,0.07582
5.516,0.11027
5.52,0.11347
5.524,0.11603
5.528,0.1215
5.532,0.12234
5.536,0.1359
5.54,0.11951
5.544,0.11361
5.548,0.12272
5.552,0.10409
5.556,0.09666
5.56,0.09682
5.564,0.06557
5.568,0.04429
5.572,0.0735
5.576,0.04805
5.58,0.00771
5.584,0.05626
5.588,0.03011
5.592,0.05377
5.596,0.02018
5.6,0.02078
5.604,0.02031
5.608,0.04794
5.612,0.04035
5.616,0.04926
5.62,0.02302
5.624,-0.00198
5.628,0.02034
5.632,0.03883
5.636,0.04156
5.64,0.01332
5.644,0.03585
5.648,0.02197
5.652,0.01678
5.656,-0.02143
5.66,-0.04524
5.664,-0.0747
5.668,-0.06229
5.672,-0.00722
5.676,0.0819
5.68,0.25721
5.684,0.48548
5.688,0.70018
5.692,0.88471
5.696,1.02206
5.7,1.02017
5.704,0.95259
5.708,0.7666
5.712,0.52958
5.716,0.29412
5.72,0.11288
5.724,-0.03771
5.728,-0.11008
5.732,-0.16016
5.736,-0.10137
5.74,-0.04618
5.744,-0.04285
5.748,-0.01558
5.752,0.04092
5.756,0.01587
5.76,0.02193
5.764,0.0287
5.768,0.03472
5.772,0.05625
5.776,0.04246
5.78,0.0399
5.784,0.03637
5.788,0.0112
5.792,0.0245
5.796,0.03392
5.8,0.01806
5.804,0.05534
5.808,0.03682
5.812,0.03765
5.816,0.0052
5.82,0.01774
5.824,0.01917
5.828,0.00435
5.832,0.03775
5.836,0.03615
5.84,0.02227
5.844,0.06217
5.848,0.05982
5.852,0.01423
5.856,0.01311
5.86,0.06934
5.864,0.02387
5.868,0.0588
5.872,0.04034
5.876,0.02621
5.88,0.0785
5.884,0.03748
5.888,0.05265
5.892,0.07914
5.896,0.05881
5.9,0.05843
5.904,0.06177
5.908,0.07421
5.912,0.09699
5.916,0.0945
5.92,0.10987
5.924,0.10551
5.928,0.134
5.932,0.15287
5.936,0.15205
5.94,0.18372
5.944,0.21501
5.948,0.20378
5.952,0.19525
5.956,0.24163
5.96,0.22034
5.964,0.24609
5.968,0.2411
5.972,0.24486
5.976,0.25962
5.98,0.24193
5.984,0.25026
5.988,0.27772
5.992,0.22833
5.996,0.25453
6.0,0.24187
6.004,0.1953
6.008,0.22264
6.012,0.2091
6.016,0.18696
6.02,0.17366
6.024,0.18216
6.028,0.13775
6.032,0.15835
6.036,0.1329
6.04,0.14554
6.044,0.09143
6.048,0.10364
6.052,0.06477
6.056,0.09132
6.06,0.08668
6.064,0.04115
6.068,0.03837
6.072,0.03515
6.076,0.05605
6.08,0.01196
6.084,0.0142
6.088,0.03623
6.092,0.03052
6.096,0.01158
6.1,0.03379
6.104,0.01876
6.108,0.05835
6.112,0.02879
6.116,0.00666
6.12,0.01414
6.124,0.01189
6.128,0.0085
6.132,0.00575
6.136,0.03054
6.14,0.02202
6.144,0.00297
6.148,0.01802
6.152,0.01859
6.156,0.02582
6.16,-0.0011
6.164,0.0321
6.168,0.03959
6.172,0.02159
6.176,0.04155
6.18,0.05927
6.184,0.03072
6.188,0.02339
6.192,0.01693
6.196,0.02296
6.2,0.02503
6.204,0.01285
6.208,0.01927
6.212,0.02097
6.216,0.01126
6.22,0.02361
6.224,0.03017
6.228,0.01721
6.232,0.03885
6.236,-0.00402
6.24,0.03067
6.244,0.04421
6.248,0.01779
6.252,0.00079
6.256,0.01374
6.26,-0.00667
6.264,0.00413
6.268,0.00647
6.272,0.03655
6.276,0.02539
6.28,0.01899
6.284,-0.03874
6.288,0.01832
6.292,0.00841
6.296,0.02527
6.3,0.02654
6.304,0.02166
6.308,0.01807
6.312,0.04514
6.316,0.00793
6.32,0.03332
6.324,0.03139
6.328,0.013
6.332,-0.00348
6.336,0.02871
6.34,0.02628
6.344,0.04223
6.348,0.05448
6.352,0.06029
6.356,0.04313
6.36,0.07361
6.364,0.07519
6.368,0.09461
6.372,0.09043
6.376,0.11774
6.38,0.13586
6.384,0.10416
6.388,0.12428
6.392,0.1154
6.396,0.11419
6.4,0.11808
6.404,0.089
6.408,0.06632
6.412,0.05089
6.416,0.05918
6.42,0.06511
6.424,0.0529
6.428,0.03766
6.432,0.03106
6.436,0.04748
6.44,0.02532
6.444,-0.00511
6.448,0.04801
6.452,0.0244
6.456,-0.01667
6.46,0.01302
6.464,0.01501
6.468,0.00206
6.472,0.02335
6.476,0.02534
6.48,0.04646
6.484,0.00576
6.488,0.00211
6.492,0.01508
6.496,0.0018
6.5,-0.03131
6.504,-0.03447
6.508,-0.06675
6.512,-0.10763
6.516,-0.07861
6.52,0.03192
6.524,0.21503
6.528,0.3912
6.532,0.61352
6.536,0.79362
6.54,0.96561
6.544,1.01018
6.548,0.96058
6.552,0.79786
6.556,0.58315
6.56,0.35014
6.564,0.17064
6.568,-0.0121
6.572,-0.11185
6.576,-0.17962
6.58,-0.11718
6.584,-0.0973
6.588,-0.08129
6.592,-0.01387
6.596,-0.00648
6.6,0.01431
6.604,-0.01273
6.608,0.01518
6.612,0.02213
6.616,0.02598
6.62,0.03819
6.624,0.00576
6.628,0.01542
6.632,-0.0022
6.636,0.00181
6.64,-0.00274
6.644,0.00187
6.648,0.01326
6.652,0.02145
6.656,0.03002
6.66,0.00922
6.664,0.03517
6.668,0.04031
6.672,0.03147
6.676,-0.01497
6.68,0.04561
6.684,-0.00102
6.688,0.0148
6.692,0.02279
6.696,0.01741
6.7,0.00832
6.704,0.01953
6.708,0.03599
6.712,0.02798
6.716,0.01821
6.72,0.02511
6.724,0.02779
6.728,0.05525
6.732,0.02817
6.736,0.04922
6.74,0.01201
6.744,0.05478
6.748,0.07495
6.752,0.04465
6.756,0.06948
6.76,0.09065
6.764,0.09853
6.768,0.11474
6.772,0.10222
6.776,0.14804
6.78,0.12795
6.784,0.17016
6.788,0.18549
6.792,0.20742
6.796,0.22619
6.8,0.1943
6.804,0.18485
6.808,0.21179
6.812,0.21527
6.816,0.21989
6.82,0.21687
6.824,0.21667
6.828,0.24419
6.832,0.25087
6.836,0.21408
6.84,0.23559
6.844,0.17885
6.848,0.16919
6.852,0.20663
6.856,0.15618
6.86,0.18176
6.864,0.12188
6.868,0.17147
6.872,0.12423
6.876,0.13736
6.88,0.10017
6.884,0.08694
6.888,0.10256
6.892,0.08667
6.896,0.0708
6.9,0.04327
6.904,0.06961
6.908,0.04641
6.912,0.06242
6.916,0.01324
6.92,0.03825
6.924,0.03164
6.928,0.01681
6.932,0.01198
6.936,0.02622
6.94,0.00844
6.944,-0.00577
6.948,0.01605
6.952,-0.01056
6.956,0.02961
6.96,0.01603
6.964,-0.00404
6.968,0.01347
6.972,0.03208
6.976,-0.01078
6.98,-0.00702
6.984,-0.00421
6.988,-0.01272
6.992,0.00452
6.996,0.02586
7.0,0.01046
7.004,0.00125
7.008,0.04163
7.012,-0.00186
7.016,-0.0108
7.02,-0.01323
7.024,0.00236
7.028,0.00047
7.032,-0.01955
7.036,-0.01324
7.04,0.01634
7.044,0.00698
7.048,0.01822
7.052,0.02292
7.056,0.00194
7.06,-0.00528
7.064,0.00462
7.068,-0.00224
7.072,-0.0135
7.076,0.01337
7.08,-0.00155
7.084,-0.00867
7.088,0.0198
7.092,-0.00337
7.096,-0.00834
7.1,-0.00662
7.104,-0.04061
7.108,0.04563
7.112,-0.00812
7.116,-0.01099
7.12,-0.00747
7.124,0.01486
7.128,-0.0294
7.132,-0.00909
7.136,-0.03006
7.14,0.00409
7.144,-0.01131
7.148,0.01595
7.152,0.00875
7.156,-0.01279
7.16,0.02264
7.164,-0.00163
7.168,0.00012
7.172,0.00381
7.176,0.00379
7.18,0.00974
7.184,0.00263
7.188,-0.02457
7.192,0.02179
7.196,0.03306
7.2,0.03912
7.204,0.04748
7.208,0.05542
7.212,0.05488
7.216,0.11453
7.22,0.07128
7.224,0.0825
7.228,0.09625
7.232,0.08828
7.236,0.08097
7.24,0.08244
7.244,0.06456
7.248,0.04185
7.252,0.04325
7.256,0.05749
7.26,0.04658
7.264,0.00779
7.268,0.01893
7.272,0.01566
7.276,0.0228
7.28,0.00532
7.284,0.01604
7.288,0.02444
7.292,-0.00993
7.296,0.01222
7.3,-0.00851
7.304,-0.01538
7.308,-0.02564
7.312,0.00967
7.316,-0.01871
7.32,-0.00548
7.324,0.00154
7.328,0.00792
7.332,-0.02733
7.336,-0.0307
7.34,-0.02008
7.344,-0.03307
7.348,-0.05834
7.352,-0.06841
7.356,-0.12989
7.36,-0.09667
7.364,-0.01768
7.368,0.12677
7.372,0.32241
7.376,0.52881
7.38,0.72361
7.384,0.89238
7.388,0.99263
7.392,1.00327
7.396,0.82436
7.4,0.62041
7.404,0.38861
7.408,0.1778
7.412,-0.01965
7.416,-0.11273
7.42,-0.18847
7.424,-0.17763
7.428,-0.15068
7.432,-0.09673
7.436,-0.04744
7.44,-0.0265
7.444,-0.03657
7.448,-0.00258
7.452,0.01249
7.456,-0.04728
7.46,0.00452
7.464,-0.01666
7.468,-0.00247
7.472,-0.0064
7.476,-0.01313
7.48,-0.03285
7.484,-0.04127
7.488,0.00913
7.492,-0.02672
7.496,-0.00121
7.5,-0.03171
7.504,-0.01277
7.508,-0.01286
7.512,-0.00432
7.516,-0.03125
7.52,-0.01922
7.524,-0.0152
7.528,-0.03211
7.532,-0.02541
7.536,0.00123
7.54,-0.0084
7.544,-0.00088
7.548,-0.01956
7.552,-0.02115
7.556,-0.03262
7.56,0.00928
7.564,0.00179
7.568,0.01866
7.572,0.00623
7.576,0.00094
7.58,0.03617
7.584,0.02737
7.588,0.02773
7.592,0.01387
7.596,0.03974
7.6,0.03496
7.604,0.05607
7.608,0.10385
7.612,0.06102
7.616,0.10676
7.62,0.09817
7.624,0.11663
7.628,0.14403
7.632,0.11692
7.636,0.15528
7.64,0.15144
7.644,0.19202
7.648,0.16
7.652,0.1995
7.656,0.18874
7.66,0.18662
7.664,0.18672
7.668,0.2191
7.672,0.1805
7.676,0.19738
7.68,0.18106
7.684,0.18298
7.688,0.1834
7.692,0.19102
7.696,0.18164
7.7,0.1425
7.704,0.16445
7.708,0.12834
7.712,0.10954
7.716,0.13215
7.72,0.10364
7.724,0.12135
7.728,0.08519
7.732,0.07535
7.736,0.05756
7.74,0.03995
7.744,0.04123
7.748,0.04673
7.752,0.02059
7.756,0.0254
7.76,0.00862
7.764,0.02707
7.768,-0.01558
7.772,0.01155
7.776,-0.00917
7.78,-0.01184
7.784,-0.00186
7.788,-0.03402
7.792,-0.00035
7.796,-0.038
7.8,-0.00412
7.804,-0.00986
7.808,0.00369
7.812,-0.00666
7.816,0.00748
7.82,-0.02173
7.824,0.00466
7.828,-0.01714
7.832,-0.0217
7.836,-0.0039
7.84,-0.03173
7.844,-0.00896
7.848,-0.01107
7.852,-0.01896
7.856,0.01117
7.86,-0.00914
7.864,-0.02982
7.868,-0.03522
7.872,-0.00174
7.876,0.00644
7.88,-0.03594
7.884,-0.02096
7.888,-0.03187
7.892,-0.03114
7.896,-0.0386
7.9,-0.03716
7.904,-0.00181
7.908,-0.00509
7.912,-0.00742
7.916,-0.03025
7.92,0.02566
7.924,-0.0016
7.928,-0.00455
7.932,0.02076
7.936,0.05291
7.94,0.04508
7.944,0.04183
7.948,0.05733
7.952,0.05964
7.956,0.05615
7.96,0.05408
7.964,0.06692
7.968,0.08039
7.972,0.07917
7.976,0.07674
7.98,0.02589
7.984,0.05378
7.988,0.04986
7.992,0.00481
7.996,-0.00994
8.0,-0.00739
8.004,-0.03091
8.008,-0.03701
8.012,-0.02571
8.016,0.0051
8.02,-0.02978
8.024,-0.01149
8.028,-0.03514
8.032,-0.00209
8.036,-0.02896
8.04,-0.03074
8.044,-0.01946
8.048,-0.0396
8.052,-0.024
8.056,-0.03129
8.06,-0.033
8.064,-0.01582
8.068,-0.03676
8.072,-0.02558
8.076,-0.00798
8.08,-0.06922
8.084,-0.1063
8.088,-0.13524
8.092,-0.12282
8.096,-0.07837
8.1,0.07624
8.104,0.22971
8.108,0.46566
8.112,0.68558
8.116,0.82581
8.12,0.96808
8.124,0.95776
8.128,0.84652
8.132,0.69356
8.136,0.43347
8.14,0.20719
8.144,0.01763
8.148,-0.10719
8.152,-0.16967
8.156,-0.20235
8.16,-0.15046
8.164,-0.09534
8.168,-0.09181
8.172,-0.08689
8.176,-0.06214
8.18,-0.01982
8.184,-0.01462
8.188,-0.00247
8.192,-0.02295
8.196,-0.035
8.2,-0.03868
8.204,-0.00325
8.208,-0.0242
8.212,-0.02712
8.216,-0.02133
8.22,-0.00786
8.224,-0.02447
8.228,-0.01714
8.232,-0.02086
8.236,-0.04333
8.24,-0.03118
8.244,-0.0147
8.248,-0.00214
8.252,-0.02667
8.256,-0.00975
8.26,-0.03474
8.264,-0.03808
8.268,-0.01822
8.272,0.00166
8.276,-0.01517
8.28,-0.00577
8.284,-0.02563
8.288,-0.03086
8.292,-0.02226
8.296,-0.01868
8.3,-0.01778
8.304,0.00084
8.308,0.02269
8.312,-0.00843
8.316,0.06185
8.32,0.0335
8.324,0.03515
8.328,0.03565
8.332,0.07112
8.336,0.03004
8.34,0.06729
8.344,0.08665
8.348,0.09542
8.352,0.06697
8.356,0.1109
8.36,0.12836
8.364,0.12441
8.368,0.1454
8.372,0.15904
8.376,0.16065
8.38,0.13538
8.384,0.18826
8.388,0.18514
8.392,0.16367
8.396,0.20539
8.4,0.18397
8.404,0.23166
8.408,0.21193
8.412,0.17989
8.416,0.19022
8.42,0.16226
8.424,0.17203
8.428,0.16888
8.432,0.17364
8.436,0.13631
8.44,0.13193
8.444,0.10092
8.448,0.10923
8.452,0.10209
8.456,0.07001
8.46,0.03708
8.464,0.05017
8.468,0.04891
8.472,0.04454
8.476,0.0357
8.48,0.02092
8.484,0.01549
8.488,0.00363
8.492,0.00521
8.496,-0.01088
8.5,-0.04114
8.504,-0.01523
8.508,-0.0258
8.512,-0.01974
8.516,-0.01012
8.52,-0.01212
8.524,-0.00329
8.528,-0.0363
8.532,-0.01247
8.536,-0.04815
8.54,-0.02758
8.544,-0.03796
8.548,-0.03239
8.552,-0.00927
8.556,-0.01699
8.56,-0.0264
8.564,-0.02634
8.568,-0.01518
8.572,-0.0277
8.576,-0.02247
8.58,-0.04143
8.584,-0.02728
8.588,-0.02287
8.592,-0.08668
8.596,-0.04661
8.6,-0.03208
8.604,-0.02654
8.608,-0.06295
8.612,-0.02717
8.616,-0.03223
8.62,-0.02035
8.624,-0.02364
8.628,-0.00137
8.632,-0.03562
8.636,-0.01248
8.64,-0.00711
8.644,-0.04062
8.648,-0.04109
8.652,-0.03672
8.656,-0.02948
8.66,-0.03558
8.664,-0.01274
8.668,-0.04472
8.672,-0.03865
8.676,-0.01057
8.68,-0.02544
8.684,-0.00616
8.688,0.00367
8.692,-0.04406
8.696,-0.01819
8.7,-0.01297
8.704,-0.04948
8.708,-0.01262
8.712,-0.06223
8.716,-0.02622
8.72,-0.01278
8.724,-0.03826
8.728,-0.03089
8.732,-0.0209
8.736,-0.03601
8.74,-0.02678
8.744,0.00927
8.748,-0.02428
8.752,-0.02443
8.756,-0.03154
8.76,-0.03558
8.764,-0.03804
8.768,-0.03104
8.772,-0.04075
8.776,-0.02827
8.78,-0.02358
8.784,-0.00711
8.788,-0.00223
8.792,-0.05214
8.796,-0.01775
8.8,-0.03173
8.804,-0.01521
8.808,9e-05
8.812,-0.00888
8.816,-0.02923
8.82,-0.03558
8.824,-0.03545
8.828,-0.04928
8.832,-0.04044
8.836,-0.03261
8.84,-0.02674
8.844,-0.02761
8.848,-0.02034
8.852,-0.0331
8.856,-0.04951
8.86,-0.03283
8.864,-0.02085
8.868,-0.04694
8.872,-0.01164
8.876,0.02202
8.88,0.0105
8.884,0.01666
8.888,0.04124
8.892,0.01434
8.896,0.0371
8.9,0.04608
8.904,0.06241
8.908,0.05997
8.912,0.06706
8.916,0.06506
8.92,0.06823
8.924,0.02504
8.928,0.05301
8.932,0.01882
8.936,0.03083
8.94,0.02205
8.944,0.00821
8.948,-0.00972
8.952,-0.00603
8.956,-0.03536
8.96,-0.02703
8.964,-0.0221
8.968,-0.05468
8.972,-0.01578
8.976,-0.03562
8.98,-0.00993
8.984,-0.05157
8.988,-0.04412
8.992,-0.04115
8.996,-0.02807
9.0,-0.02472
9.004,-0.0498
9.008,-0.02546
9.012,-0.03104
9.016,-0.03167
9.02,-0.0258
9.024,-0.09096
9.028,-0.09031
9.032,-0.12145
9.036,-0.13597
9.04,-0.08584
9.044,0.02769
9.048,0.18851
9.052,0.39798
9.056,0.58789
9.06,0.81482
9.064,0.92119
9.068,0.94705
9.072,0.885
9.076,0.7117
9.08,0.49281
9.084,0.24752
9.088,0.05692
9.092,-0.06724
9.096,-0.17677
9.1,-0.21017
9.104,-0.16776
9.108,-0.12755
9.112,-0.10155
9.116,-0.07746
9.12,-0.03032
9.124,-0.02413
9.128,-0.05992
9.132,-0.04396
9.136,-0.0072
9.14,-0.03062
9.144,-0.04177
9.148,-0.00316
9.152,-0.00422
9.156,-0.0384
9.16,-0.02672
9.164,-0.03022
9.168,-0.02558
9.172,-0.03394
9.176,-0.02696
9.18,-0.01707
9.184,-0.04683
9.188,-0.03585
9.192,-0.03874
9.196,-0.00102
9.2,-0.02262
9.204,-0.01215
9.208,-0.01599
9.212,-0.02833
9.216,-0.04406
9.22,-0.0173
9.224,-0.00135
9.228,-0.05903
9.232,-0.03715
9.236,-0.01124
9.24,0.00058
9.244,-0.04042
9.248,-0.01657
9.252,-0.00707
9.256,-0.00607
9.26,0.0073
9.264,0.00842
9.268,-0.01218
9.272,0.0107
9.276,0.01788
9.28,0.04487
9.284,0.03969
9.288,0.07691
9.292,0.05938
9.296,0.08865
9.3,0.09174
9.304,0.09331
9.308,0.12202
9.312,0.13315
9.316,0.14339
9.32,0.16466
9.324,0.17539
9.328,0.16253
9.332,0.17226
9.336,0.19031
9.34,0.19442
9.344,0.20596
9.348,0.22883
9.352,0.19414
9.356,0.19635
9.36,0.181
9.364,0.18569
9.368,0.18262
9.372,0.17329
9.376,0.15983
9.38,0.12621
9.384,0.13831
9.388,0.13545
9.392,0.10074
9.396,0.10283
9.4,0.08071
9.404,0.06673
9.408,0.02648
9.412,0.06992
9.416,0.04459
9.42,0.04423
9.424,0.0366
9.428,0.04831
9.432,-0.02212
9.436,0.0045
9.44,-0.01148
9.444,0.00161
9.448,0.00088
9.452,-0.01112
9.456,-0.00397
9.46,-0.01269
9.464,-0.02772
9.468,-0.00946
9.472,-0.01984
9.476,-0.02672
9.48,-0.01469
9.484,-0.02876
9.488,-0.0233
9.492,0.00015
9.496,-0.02871
9.5,-0.06099
9.504,-0.03805
9.508,-0.02523
9.512,-0.04054
9.516,-0.01363
9.52,-0.01576
9.524,-0.00724
9.528,-0.00984
9.532,-0.02162
9.536,-0.02484
9.54,-0.04116
9.544,-0.03403
9.548,-0.03106
9.552,-0.0039
9.556,-0.01327
9.56,-0.00894
9.564,-0.03922
9.568,-0.00354
9.572,-0.04339
9.576,-0.03778
9.58,-0.05577
9.584,-0.00035
9.588,-0.02732
9.592,-0.02895
9.596,-0.01503
9.6,-0.01192
9.604,-0.03653
9.608,-0.03539
9.612,-0.01457
9.616,-0.03028
9.62,-0.04042
9.624,0.00391
9.628,-0.0358
9.632,0.03035
9.636,0.01153
9.64,-0.0229
9.644,-0.00178
9.648,-0.03748
9.652,-0.01219
9.656,-0.05193
9.66,-0.00664
9.664,-0.01675
9.668,-0.02117
9.672,0.00015
9.676,-0.01946
9.68,-0.01809
9.684,-0.04748
9.688,-0.01051
9.692,-0.02081
9.696,-0.02282
9.7,-0.01502
9.704,-0.03098
9.708,-0.0124
9.712,-0.01483
9.716,-0.03663
9.72,-0.03963
9.724,0.01901
9.728,-0.0086
9.732,-0.00745
9.736,-0.02249
9.74,-0.01161
9.744,-0.00702
9.748,-0.02311
9.752,0.01054
9.756,-0.00768
9.76,-0.0297
9.764,0.00287
9.768,-0.0286
9.772,-0.02372
9.776,-0.01992
9.78,-0.04089
9.784,-0.02269
9.788,-0.01934
9.792,-0.01953
9.796,0.01537
9.8,-0.03099
9.804,-0.02805
9.808,0.00242
9.812,-0.03735
9.816,0.02426
9.82,-0.03159
9.824,-0.01834
9.828,-0.01255
9.832,-0.01072
9.836,-0.01745
9.84,-0.01891
9.844,-0.00589
9.848,-0.00057
9.852,-0.01799
9.856,0.00616
9.86,-0.0282
9.864,-0.00391
9.868,0.00185
9.872,-0.01995
9.876,0.00105
9.88,-0.03922
9.884,-0.05152
9.888,-0.02673
9.892,-0.03155
9.896,-0.02332
9.9,-0.02514
9.904,0.00028
9.908,-0.01696
9.912,-0.02202
9.916,-0.03028
9.92,0.01512
9.924,-0.00259
9.928,0.01136
9.932,-0.0136
9.936,-0.02163
9.94,-0.01837
9.944,0.00272
9.948,-0.00217
9.952,0.01877
9.956,-0.02773
9.96,-0.00988
9.964,-0.01164
9.968,-0.00603
9.972,0.00124
9.976,-0.03207
9.98,0.00071
9.984,0.00314
9.988,0.0019
9.992,-0.02021
9.996,0.01707
