t_seg,ecg_mV
0.0,0.01722
0.004,-0.00518
0.008,0.0177
0.012,0.0129
0.016,-0.00044
0.02,0.01437
0.024,0.00776
0.028,0.00198
0.032,0.03703
0.036,0.00441
0.04,0.00844
0.044,-0.00711
0.048,-0.01091
0.052,0.00652
0.056,0.01514
0.06,0.03126
0.064,0.04238
0.068,0.02819
0.072,-0.00892
0.076,-0.00478
0.08,-0.00038
0.084,0.00013
0.088,0.01839
0.092,0.02537
0.096,0.01922
0.1,0.00432
0.104,0.00723
0.108,0.02031
0.112,0.00509
0.116,0.01185
0.12,0.0123
0.124,0.01195
0.128,-0.00526
0.132,-0.00301
0.136,0.04496
0.14,0.02772
0.144,-0.00628
0.148,0.01796
0.152,0.01785
0.156,0.03931
0.16,-0.00361
0.164,0.01421
0.168,0.02891
0.172,0.03536
0.176,0.00461
0.18,0.02412
0.184,-0.01422
0.188,-0.00308
0.192,-0.00099
0.196,0.0295
0.2,-0.01439
0.204,0.03111
0.208,0.02724
0.212,0.04098
0.216,0.0208
0.22,0.03062
0.224,0.03142
0.228,0.00167
0.232,0.01903
0.236,0.01988
0.24,0.03366
0.244,0.00728
0.248,0.02152
0.252,0.03884
0.256,0.02536
0.26,-0.00637
0.264,0.02377
0.268,-0.0173
0.272,0.01843
0.276,-0.01124
0.28,0.01825
0.284,0.01845
0.288,0.0232
0.292,0.01684
0.296,0.03174
0.3,0.02882
0.304,0.02345
0.308,0.0009
0.312,0.03438
0.316,0.02908
0.32,0.0429
0.324,-0.00648
0.328,-0.00805
0.332,0.0066
0.336,0.00219
0.34,0.05221
0.344,-0.00201
0.348,0.04415
0.352,-0.02532
0.356,0.04974
0.36,0.0375
0.364,0.01962
0.368,0.00384
0.372,0.00475
0.376,0.00657
0.38,0.01598
0.384,0.01199
0.388,0.00787
0.392,0.05263
0.396,0.04746
0.4,0.00816
0.404,0.01492
0.408,0.00903
0.412,0.01239
0.416,0.01837
0.42,0.01307
0.424,0.03468
0.428,0.00638
0.432,0.02531
0.436,0.04831
0.44,0.04693
0.444,0.0512
0.448,0.07373
0.452,0.08015
0.456,0.09458
0.46,0.0891
0.464,0.10651
0.468,0.14252
0.472,0.14738
0.476,0.15226
0.48,0.11733
0.484,0.10196
0.488,0.10931
0.492,0.11029
0.496,0.09685
0.5,0.06446
0.504,0.05719
0.508,0.05014
0.512,0.05848
0.516,0.03374
0.52,0.06501
0.524,0.05015
0.528,0.02636
0.532,0.03931
0.536,-0.00403
0.54,0.03204
0.544,0.01904
0.548,0.0119
0.552,0.03623
0.556,0.01733
0.56,-0.00993
0.564,0.03255
0.568,0.01634
0.572,0.02263
0.576,0.04814
0.58,0.03424
0.584,0.01421
0.588,0.0339
0.592,-0.00301
0.596,-0.04682
0.6,-0.06662
0.604,-0.09654
0.608,-0.06929
0.612,0.02549
0.616,0.18996
0.62,0.4196
0.624,0.60617
0.628,0.80568
0.632,0.95719
0.636,1.01737
0.64,0.96192
0.644,0.78521
0.648,0.57606
0.652,0.34235
0.656,0.13336
0.66,-0.01452
0.664,-0.09643
0.668,-0.12376
0.672,-0.11387
0.676,-0.12096
0.68,-0.05853
0.684,-0.02523
0.688,-0.01159
0.692,0.00867
0.696,0.02647
0.7,0.02461
0.704,0.04539
0.708,0.01751
0.712,0.02853
0.716,0.064
0.72,0.03993
0.724,0.0395
0.728,0.00369
0.732,0.04088
0.736,0.03921
0.74,0.00472
0.744,0.02431
0.748,0.02817
0.752,0.03885
0.756,0.01392
0.76,0.01957
0.764,0.03631
0.768,0.03686
0.772,0.038
0.776,0.03814
0.78,0.05573
0.784,0.01053
0.788,0.02712
0.792,0.0385
0.796,0.02262
0.8,0.02422
0.804,0.04258
0.808,0.0437
0.812,0.01681
0.816,0.05656
0.82,0.05444
0.824,0.07303
0.828,0.04319
0.832,0.07869
0.836,0.08448
0.84,0.07251
0.844,0.05489
0.848,0.11387
0.852,0.10571
0.856,0.1222
0.86,0.1243
0.864,0.12961
0.868,0.15884
0.872,0.16652
0.876,0.14788
0.88,0.19053
0.884,0.18372
0.888,0.21944
0.892,0.20266
0.896,0.23842
0.9,0.20482
0.904,0.27976
0.908,0.2373
0.912,0.26559
0.916,0.26563
0.92,0.25843
0.924,0.25253
0.928,0.21874
0.932,0.23606
0.936,0.23936
0.94,0.20213
0.944,0.19134
0.948,0.21609
0.952,0.20842
0.956,0.16866
0.96,0.15861
0.964,0.16432
0.968,0.11693
0.972,0.11207
0.976,0.10607
0.98,0.12687
0.984,0.10419
0.988,0.04996
0.992,0.08944
0.996,0.05851
1.0,0.04604
1.004,0.05597
1.008,0.06419
1.012,0.07676
1.016,0.0315
1.02,0.04303
1.024,0.0803
1.028,0.0131
1.032,0.02852
1.036,0.01069
1.04,0.02397
1.044,-0.0217
1.048,0.03362
1.052,0.03891
1.056,0.04173
1.06,0.04082
1.064,0.03756
1.068,0.02116
1.072,0.03453
1.076,0.0333
1.08,0.03928
1.084,0.01745
1.088,0.01161
1.092,0.03948
1.096,0.01763
1.1,0.02552
1.104,0.03432
1.108,0.00913
1.112,0.02094
1.116,0.02908
1.12,0.04252
1.124,0.02259
1.128,0.02642
1.132,0.0389
1.136,0.01939
1.14,0.02735
1.144,0.02238
1.148,0.0304
1.152,0.03767
1.156,0.02942
1.16,0.02049
1.164,0.03027
1.168,0.02955
1.172,0.00729
1.176,0.04037
1.18,0.04218
1.184,0.00212
1.188,0.02831
1.192,0.00715
1.196,0.00179
1.2,0.03058
1.204,0.04323
1.208,0.03895
1.212,0.04214
1.216,0.01427
1.22,-0.00933
1.224,0.02816
1.228,0.05936
1.232,0.04395
1.236,0.01048
1.24,0.02409
1.244,0.04131
1.248,0.0169
1.252,0.01442
1.256,0.05458
1.26,0.02979
1.264,0.01855
1.268,0.0363
1.272,0.03117
1.276,0.03643
1.28,0.04499
1.284,0.00991
1.288,0.05903
1.292,0.04769
1.296,0.06483
1.3,0.07409
1.304,0.06874
1.308,0.09367
1.312,0.09032
1.316,0.10489
1.32,0.11923
1.324,0.12171
1.328,0.13493
1.332,0.14668
1.336,0.14932
1.34,0.15317
1.344,0.1237
1.348,0.09368
1.352,0.08999
1.356,0.08943
1.36,0.08726
1.364,0.04509
1.368,0.05216
1.372,0.02588
1.376,0.01548
1.38,0.04349
1.384,0.04298
1.388,0.04194
1.392,-0.01169
1.396,0.01343
1.4,0.03531
1.404,0.03744
1.408,0.03656
1.412,0.03617
1.416,0.00875
1.42,0.04622
1.424,0.00635
1.428,0.0427
1.432,0.03498
1.436,0.02728
1.44,-0.01011
1.444,-0.00576
1.448,-0.01771
1.452,-0.05552
1.456,-0.07877
1.46,-0.11285
1.464,-0.0156
1.468,0.13029
1.472,0.26062
1.476,0.47238
1.48,0.69778
1.484,0.9001
1.488,1.00964
1.492,1.02623
1.496,0.93186
1.5,0.75821
1.504,0.51492
1.508,0.26446
1.512,0.09688
1.516,-0.03465
1.52,-0.12302
1.524,-0.14285
1.528,-0.10445
1.532,-0.08984
1.536,-0.04876
1.54,-0.00205
1.544,0.01865
1.548,0.02036
1.552,0.02295
1.556,0.04135
1.56,0.02453
1.564,0.00451
1.568,0.01182
1.572,0.03131
1.576,0.02468
1.58,0.0381
1.584,0.00598
1.588,0.02235
1.592,0.0528
1.596,0.02304
1.6,0.03806
1.604,0.03531
1.608,0.01239
1.612,0.04089
1.616,0.04114
1.62,0.05048
1.624,0.02632
1.628,0.06367
1.632,-0.00895
1.636,0.01483
1.64,0.00334
1.644,0.01891
1.648,0.03239
1.652,0.03719
1.656,0.04227
1.66,0.04671
1.664,0.03207
1.668,0.04534
1.672,0.0201
1.676,0.03983
1.68,0.04267
1.684,0.06307
1.688,0.06539
1.692,0.08889
1.696,0.1021
1.7,0.09993
1.704,0.0924
1.708,0.1487
1.712,0.12151
1.716,0.13293
1.72,0.14538
1.724,0.16965
1.728,0.16908
1.732,0.17909
1.736,0.17204
1.74,0.19614
1.744,0.20818
1.748,0.20183
1.752,0.22734
1.756,0.25098
1.76,0.24479
1.764,0.21739
1.768,0.22883
1.772,0.22994
1.776,0.24241
1.78,0.22492
1.784,0.22159
1.788,0.20521
1.792,0.2219
1.796,0.20205
1.8,0.21088
1.804,0.21416
1.808,0.15934
1.812,0.18272
1.816,0.18315
1.82,0.14595
1.824,0.1312
1.828,0.0967
1.832,0.1264
1.836,0.12208
1.84,0.08089
1.844,0.08374
1.848,0.08487
1.852,0.05921
1.856,0.03535
1.86,0.08767
1.864,0.0403
1.868,0.04359
1.872,0.04379
1.876,0.02344
1.88,0.02206
1.884,0.03941
1.888,0.05873
1.892,0.03124
1.896,0.03324
1.9,0.02306
1.904,0.02792
1.908,0.03363
1.912,0.01946
1.916,0.01223
1.92,0.03698
1.924,0.03475
1.928,0.03552
1.932,0.00416
1.936,0.01463
1.94,0.02914
1.944,0.01192
1.948,0.01901
1.952,0.01572
1.956,0.00268
1.96,0.03261
1.964,0.03072
1.968,0.03161
1.972,0.02512
1.976,0.02125
1.98,0.01172
1.984,0.01246
1.988,0.03074
1.992,0.05664
1.996,0.02592
2.0,0.01009
2.004,0.01103
2.008,0.04175
2.012,0.02542
2.016,0.00504
2.02,0.06914
2.024,0.02508
2.028,0.04539
2.032,0.00607
2.036,0.03778
2.04,0.009
2.044,0.01843
2.048,0.04413
2.052,0.01499
2.056,0.04038
2.06,0.03842
2.064,0.00244
2.068,0.00799
2.072,0.00294
2.076,0.0152
2.08,0.03806
2.084,0.00184
2.088,0.00115
2.092,0.00573
2.096,0.01229
2.1,0.04512
2.104,0.01973
2.108,0.01981
2.112,0.00843
2.116,0.01018
2.12,0.06132
2.124,0.04731
2.128,0.02774
2.132,0.02403
2.136,0.0222
2.14,0.05747
2.144,0.05872
2.148,0.0682
2.152,0.08912
2.156,0.09944
2.16,0.12656
2.164,0.09034
2.168,0.13132
2.172,0.1697
2.176,0.12123
2.18,0.10283
2.184,0.09852
2.188,0.10281
2.192,0.08706
2.196,0.06438
2.2,0.06513
2.204,0.05767
2.208,0.03247
2.212,0.04003
2.216,0.01031
2.22,-0.00156
2.224,0.00077
2.228,0.0202
2.232,0.01786
2.236,0.00701
2.24,0.04811
2.244,0.01862
2.248,0.01222
2.252,0.02091
2.256,0.01791
2.26,0.04767
2.264,-0.00074
2.268,0.02745
2.272,0.02032
2.276,0.0288
2.28,0.01354
2.284,0.01776
2.288,-0.03615
2.292,-0.03047
2.296,-0.07541
2.3,-0.12088
2.304,-0.0655
2.308,0.03091
2.312,0.12988
2.316,0.37303
2.32,0.5662
2.324,0.7949
2.328,0.9322
2.332,1.01558
2.336,0.94423
2.34,0.81999
2.344,0.61248
2.348,0.3602
2.352,0.18301
2.356,0.01814
2.36,-0.12605
2.364,-0.14407
2.368,-0.12331
2.372,-0.12264
2.376,-0.08122
2.38,-0.0221
2.384,-0.00702
2.388,0.00813
2.392,-0.00262
2.396,0.00727
2.4,0.02972
2.404,0.00826
2.408,-0.00339
2.412,0.0034
2.416,0.00357
2.42,-0.00526
2.424,0.01578
2.428,0.0154
2.432,0.03134
2.436,0.0185
2.44,0.01332
2.444,-0.00163
2.448,0.0069
2.452,0.02895
2.456,-0.01257
2.46,0.02361
2.464,0.02072
2.468,0.01584
2.472,0.00027
2.476,0.01314
2.48,0.01597
2.484,-0.02013
2.488,0.02536
2.492,0.01993
2.496,0.01564
2.5,0.03899
2.504,0.02305
2.508,-0.02895
2.512,0.04428
2.516,0.03979
2.52,0.02206
2.524,0.02678
2.528,0.03616
2.532,0.04145
2.536,0.07369
2.54,0.07101
2.544,0.09165
2.548,0.09383
2.552,0.07376
2.556,0.0926
2.56,0.13384
2.564,0.15277
2.568,0.1383
2.572,0.1414
2.576,0.1862
2.58,0.18637
2.584,0.19435
2.588,0.20124
2.592,0.21087
2.596,0.22013
2.6,0.23725
2.604,0.23466
2.608,0.24809
2.612,0.20622
2.616,0.21067
2.62,0.23447
2.624,0.21206
2.628,0.22739
2.632,0.1914
2.636,0.18281
2.64,0.19848
2.644,0.16571
2.648,0.15899
2.652,0.17015
2.656,0.12326
2.66,0.1039
2.664,0.10709
2.668,0.12506
2.672,0.0878
2.676,0.06942
2.68,0.06553
2.684,0.06556
2.688,0.05226
2.692,0.06336
2.696,0.0527
2.7,0.05764
2.704,0.0292
2.708,0.07367
2.712,0.03164
2.716,0.02118
2.72,0.01073
2.724,0.01455
2.728,0.01747
2.732,-0.00402
2.736,0.0199
2.74,0.02758
2.744,0.004
2.748,0.03752
2.752,-0.00688
2.756,0.02795
2.76,0.00807
2.764,0.01899
2.768,-0.00438
2.772,0.00775
2.776,-0.01601
2.78,0.00914
2.784,0.00393
2.788,-0.0114
2.792,-0.00738
2.796,0.01041
2.8,0.01365
2.804,-0.00695
2.808,-0.00657
2.812,0.01828
2.816,0.00605
2.82,-0.01139
2.824,0.00864
2.828,-0.0231
2.832,0.00415
2.836,0.00805
2.84,-0.00518
2.844,0.00992
2.848,-0.00866
2.852,-0.01919
2.856,-0.00124
2.86,0.01422
2.864,-0.01694
2.868,0.01062
2.872,-0.0131
2.876,0.00058
2.88,0.01948
2.884,0.02557
2.888,-0.0141
2.892,0.01636
2.896,-0.00062
2.9,-0.00604
2.904,0.00675
2.908,-0.01842
2.912,0.00322
2.916,0.03273
2.92,0.01035
2.924,0.00432
2.928,-0.0209
2.932,-0.01574
2.936,-0.00895
2.94,0.00749
2.944,0.01126
2.948,0.0013
2.952,-0.00359
2.956,0.00086
2.96,0.00253
2.964,0.00449
2.968,0.02199
2.972,0.02754
2.976,0.02936
2.98,0.03486
2.984,0.02651
2.988,0.01959
2.992,0.02268
2.996,0.04561
3.0,0.06493
3.004,0.04221
3.008,0.07891
3.012,0.10557
3.016,0.11515
3.02,0.07333
3.024,0.10043
3.028,0.12062
3.032,0.07474
3.036,0.05989
3.04,0.07631
3.044,0.04733
3.048,0.02819
3.052,0.01789
3.056,0.01611
3.06,0.04388
3.064,0.01388
3.068,-0.00635
3.072,-0.0104
3.076,0.00837
3.08,-0.00457
3.084,-0.00535
3.088,-0.02307
3.092,0.0076
3.096,0.00432
3.1,-0.00198
3.104,-0.02109
3.108,-0.02424
3.112,-0.01616
3.116,-0.00974
3.12,-0.02688
3.124,-0.00935
3.128,0.00138
3.132,-0.0219
3.136,-0.02895
3.14,-0.06152
3.144,-0.09007
3.148,-0.10886
3.152,-0.1278
3.156,-0.03799
3.16,0.09249
3.164,0.23251
3.168,0.45792
3.172,0.65682
3.176,0.84367
3.18,0.98354
3.184,0.99433
3.188,0.86742
3.192,0.71253
3.196,0.4802
3.2,0.26385
3.204,0.07585
3.208,-0.08414
3.212,-0.17095
3.216,-0.16629
3.22,-0.14321
3.224,-0.08688
3.228,-0.04459
3.232,-0.06933
3.236,-0.02896
3.24,-0.00716
3.244,0.0281
3.248,-0.00759
3.252,-0.01355
3.256,-0.00699
3.26,-0.00793
3.264,-0.00315
3.268,0.01508
3.272,0.00016
3.276,-0.02907
3.28,0.0017
3.284,-0.00505
3.288,0.0053
3.292,-0.01941
3.296,0.0135
3.3,-0.00389
3.304,-0.01057
3.308,0.00753
3.312,-0.02976
3.316,0.00015
3.32,-0.00262
3.324,-0.00369
3.328,0.0244
3.332,-0.02124
3.336,-0.02057
3.34,0.01281
3.344,-0.017
3.348,0.039
3.352,-0.00791
3.356,-0.00896
3.36,-0.02404
3.364,-0.00109
3.368,0.0222
3.372,0.01023
3.376,0.03175
3.38,0.01828
3.384,0.0424
3.388,0.0285
3.392,0.04291
3.396,0.08566
3.4,0.04846
3.404,0.071
3.408,0.11829
3.412,0.09125
3.416,0.13171
3.42,0.11269
3.424,0.11909
3.428,0.1375
3.432,0.17367
3.436,0.18757
3.44,0.17834
3.444,0.18581
3.448,0.20834
3.452,0.184
3.456,0.20712
3.46,0.1963
3.464,0.18315
3.468,0.22445
3.472,0.19294
3.476,0.21984
3.48,0.18922
3.484,0.19747
3.488,0.16129
3.492,0.16072
3.496,0.15075
3.5,0.1526
3.504,0.14852
3.508,0.11935
3.512,0.10364
3.516,0.0861
3.52,0.09528
3.524,0.09112
3.528,0.03299
3.532,0.02834
3.536,0.04642
3.54,0.03536
3.544,0.02952
3.548,0.0376
3.552,0.03133
3.556,0.03804
3.56,0.00606
3.564,0.00191
3.568,-0.04418
3.572,-0.01939
3.576,-0.01167
3.58,0.00507
3.584,-0.0055
3.588,-0.01084
3.592,-0.00359
3.596,-0.02815
3.6,-0.01944
3.604,-0.01647
3.608,-0.03952
3.612,-0.03378
3.616,-0.00843
3.62,-0.0143
3.624,-0.00174
3.628,-0.03587
3.632,-0.00504
3.636,-0.00299
3.64,-0.00495
3.644,-0.01589
3.648,-0.04258
3.652,-0.04174
3.656,-0.02598
3.66,-0.03885
3.664,0.00578
3.668,-0.01882
3.672,-0.0085
3.676,-0.02685
3.68,3e-05
3.684,-0.04271
3.688,-0.00826
3.692,-0.02674
3.696,-0.01519
3.7,-0.00879
3.704,-0.02005
3.708,-0.00138
3.712,-0.01667
3.716,-0.00166
3.72,-0.0414
3.724,-0.01875
3.728,-0.023
3.732,-0.02483
3.736,-0.02649
3.74,-0.01781
3.744,-0.03387
3.748,-0.01028
3.752,0.00644
3.756,-0.01017
3.76,-0.01637
3.764,-0.01887
3.768,-0.00553
3.772,-0.0009
3.776,-0.02335
3.78,0.00365
3.784,0.00771
3.788,0.0161
3.792,0.04977
3.796,0.02083
3.8,0.06765
3.804,0.05041
3.808,0.04481
3.812,0.06834
3.816,0.06811
3.82,0.08155
3.824,0.07762
3.828,0.06766
3.832,0.0657
3.836,0.03143
3.84,0.04862
3.844,0.03512
3.848,-0.00876
3.852,0.00289
3.856,-0.01023
3.86,-0.01587
3.864,-0.02583
3.868,0.00238
3.872,-0.01784
3.876,-0.02821
3.88,-0.02852
3.884,-0.0452
3.888,-0.04328
3.892,-0.02338
3.896,-0.01644
3.9,-0.01844
3.904,-0.01331
3.908,-0.00834
3.912,-0.02298
3.916,-0.0392
3.92,-0.01312
3.924,-0.0191
3.928,-0.03142
3.932,-0.03917
3.936,-0.10586
3.94,-0.1527
3.944,-0.14727
3.948,-0.12443
3.952,-0.00613
3.956,0.18003
3.96,0.36704
3.964,0.5636
3.968,0.7676
3.972,0.91898
3.976,0.98863
3.98,0.89078
3.984,0.74568
3.988,0.50209
3.992,0.29679
3.996,0.09371
4.0,-0.07416
4.004,-0.19052
4.008,-0.20001
4.012,-0.19332
4.016,-0.13901
4.02,-0.08802
4.024,-0.05069
4.028,-0.05258
4.032,-0.04032
4.036,-0.0172
4.04,-0.03853
4.044,-0.02459
4.048,-0.0035
4.052,-0.01534
4.056,-0.03748
4.06,-0.03943
4.064,-0.03433
4.068,-0.06803
4.072,-0.02594
4.076,-0.03452
4.08,-0.03924
4.084,-0.04245
4.088,-0.01072
4.092,-0.01613
4.096,-0.03704
4.1,-0.0312
4.104,-0.04393
4.108,-0.01923
4.112,-0.02018
4.116,-0.02849
4.12,0.00589
4.124,0.00763
4.128,-0.01326
4.132,-0.01262
4.136,-0.00867
4.14,-0.02492
4.144,-0.00512
4.148,0.01689
4.152,-0.03367
4.156,-0.00075
4.16,-0.01075
4.164,-0.0063
4.168,-0.00679
4.172,0.00047
4.176,0.01499
4.18,0.02953
4.184,0.03327
4.188,0.05207
4.192,0.07846
4.196,0.05154
4.2,0.06442
4.204,0.08821
4.208,0.11466
4.212,0.10752
4.216,0.10648
4.22,0.16542
4.224,0.143
4.228,0.13849
4.232,0.16522
4.236,0.1887
4.24,0.17569
4.244,0.17423
4.248,0.2065
4.252,0.18308
4.256,0.20031
4.26,0.18203
4.264,0.19729
4.268,0.18834
4.272,0.17322
4.276,0.15038
4.28,0.16537
4.284,0.14006
4.288,0.14149
4.292,0.12442
4.296,0.08035
4.3,0.1356
4.304,0.07044
4.308,0.06501
4.312,0.07212
4.316,0.08245
4.32,0.03883
4.324,0.03729
4.328,0.03266
4.332,-0.00244
4.336,0.01985
4.34,0.02537
4.344,-0.01019
4.348,-0.00902
4.352,-0.01626
4.356,-0.01368
4.36,-0.00692
4.364,-0.02486
4.368,-0.05136
4.372,-0.03237
4.376,-0.02749
4.38,-0.02497
4.384,-0.04544
4.388,-0.02425
4.392,-0.03369
4.396,-0.02083
4.4,-0.03638
4.404,-0.02482
4.408,-0.0266
4.412,-0.04359
4.416,-0.02945
4.42,-0.05485
4.424,-0.02534
4.428,-0.05644
4.432,-0.02529
4.436,-0.01299
4.44,-0.03194
4.444,-0.01696
4.448,-0.02199
4.452,-0.03092
4.456,-0.01899
4.46,-0.01885
4.464,-0.03447
4.468,-0.03083
4.472,-0.00827
4.476,-0.04662
4.48,-0.00082
4.484,-0.0217
4.488,-0.05056
4.492,-0.04072
4.496,-0.03044
4.5,-0.02898
4.504,-0.03453
4.508,-0.02387
4.512,-0.01068
4.516,-0.0382
4.52,-0.01704
4.524,0.00468
4.528,-0.04287
4.532,-0.00988
4.536,-0.02866
4.54,0.00172
4.544,-0.03171
4.548,-0.02789
4.552,-0.0349
4.556,-0.03627
4.56,-0.03593
4.564,-0.02188
4.568,-0.03373
4.572,-0.0172
4.576,-0.03676
4.58,-0.02084
4.584,-0.01847
4.588,-0.03275
4.592,-0.01513
4.596,-0.00297
4.6,0.0355
4.604,0.04651
4.608,0.06279
4.612,0.04491
4.616,0.03228
4.62,0.05937
4.624,0.07725
4.628,0.05223
4.632,0.03804
4.636,0.0524
4.64,0.02991
4.644,0.02399
4.648,0.00302
4.652,0.01206
4.656,0.00337
4.66,-0.01123
4.664,-0.00401
4.668,-0.03196
4.672,-0.02933
4.676,-0.02309
4.68,-0.00603
4.684,-0.04483
4.688,-0.01992
4.692,-0.01243
4.696,-0.02084
4.7,-0.03998
4.704,-0.05487
4.708,-0.01625
4.712,0.00316
4.716,-0.05417
4.72,-0.01924
4.724,-0.03084
4.728,-0.02863
4.732,-0.03141
4.736,-0.06106
4.74,-0.07564
4.744,-0.10803
4.748,-0.12942
4.752,-0.14007
4.756,-0.07258
4.76,0.0534
4.764,0.22682
4.768,0.4246
4.772,0.63894
4.776,0.81573
4.78,0.94294
4.784,0.95883
4.788,0.82685
4.792,0.68401
4.796,0.45906
4.8,0.22003
4.804,0.06151
4.808,-0.084
4.812,-0.17562
4.816,-0.2061
4.82,-0.17512
4.824,-0.14344
4.828,-0.11696
4.832,-0.0807
4.836,-0.046
4.84,-0.04486
4.844,-0.03428
4.848,-0.0116
4.852,-0.03331
4.856,-0.02206
4.86,-0.02365
4.864,-0.05029
4.868,-0.03705
4.872,-0.0201
4.876,-0.04231
4.88,-0.04133
4.884,-0.0277
4.888,-0.03035
4.892,-0.02407
4.896,-0.02922
4.9,-0.01823
4.904,-0.02253
4.908,-0.03135
4.912,-0.00985
4.916,-0.02489
4.92,-0.02465
4.924,-0.036
4.928,-0.05147
4.932,-0.05115
4.936,-0.02563
4.94,-0.03489
4.944,-0.02079
4.948,-0.04859
4.952,-0.0286
4.956,0.01481
4.96,-0.00895
4.964,-0.02846
4.968,-0.00623
4.972,-0.00304
4.976,-0.00465
4.98,0.00873
4.984,0.02921
4.988,0.00198
4.992,0.03238
4.996,0.06693
5.0,0.05604
5.004,0.05985
5.008,0.07648
5.012,0.08878
5.016,0.09267
5.02,0.13079
5.024,0.11394
5.028,0.15198
5.032,0.15117
5.036,0.17608
5.04,0.16042
5.044,0.20243
5.048,0.16271
5.052,0.21131
5.056,0.20293
5.06,0.18699
5.064,0.19132
5.068,0.16736
5.072,0.18177
5.076,0.19079
5.08,0.21312
5.084,0.16388
5.088,0.16225
5.092,0.17067
5.096,0.11692
5.1,0.13325
5.104,0.10415
5.108,0.117
5.112,0.09376
5.116,0.09123
5.12,0.07941
5.124,0.06724
5.128,0.05985
5.132,0.05711
5.136,0.05586
5.14,0.04886
5.144,0.01779
5.148,0.00951
5.152,0.03508
5.156,0.00383
5.16,0.02472
5.164,-0.00723
5.168,-0.02414
5.172,0.00173
5.176,0.00666
5.18,-0.03576
5.184,-0.02964
5.188,-0.0267
5.192,-0.01019
5.196,-0.02796
5.2,-0.02134
5.204,-0.02845
5.208,-0.01789
5.212,-0.00144
5.216,-0.02302
5.22,-0.01999
5.224,-0.0433
5.228,-0.0158
5.232,-0.00471
5.236,-0.01532
5.24,-0.00538
5.244,-0.01022
5.248,-0.0063
5.252,-0.01796
5.256,0.0329
5.26,0.04575
5.264,0.04956
5.268,0.0475
5.272,0.05365
5.276,0.09102
5.28,0.08622
5.284,0.04552
5.288,0.05692
5.292,0.07869
5.296,0.05484
5.3,0.04559
5.304,0.03287
5.308,0.03991
5.312,0.01439
5.316,-0.00568
5.32,0.01663
5.324,-0.00949
5.328,0.00865
5.332,-0.00914
5.336,-0.01903
5.34,-0.01469
5.344,-0.03371
5.348,-0.02604
5.352,0.01376
5.356,-0.04833
5.36,-0.03421
5.364,-0.04465
5.368,-0.01136
5.372,-0.02121
5.376,-0.00968
5.38,-0.0099
5.384,-0.00669
5.388,-0.05839
5.392,-0.02782
5.396,-0.02708
5.4,-0.0759
5.404,-0.09732
5.408,-0.13683
5.412,-0.12717
5.416,-0.07214
5.42,0.03223
5.424,0.22581
5.428,0.46719
5.432,0.64387
5.436,0.84619
5.44,0.96915
5.444,0.9836
5.448,0.89357
5.452,0.70137
5.456,0.4374
5.46,0.23227
5.464,0.03778
5.468,-0.09986
5.472,-0.17743
5.476,-0.18136
5.48,-0.17301
5.484,-0.12069
5.488,-0.07408
5.492,-0.06853
5.496,0.00222
5.5,-0.03735
5.504,-0.00343
5.508,-0.01283
5.512,-0.00107
5.516,-0.00749
5.52,-0.02579
5.524,-0.01891
5.528,0.01732
5.532,-0.02998
5.536,-0.01939
5.54,-0.02508
5.544,-0.03844
5.548,-0.0204
5.552,-0.00203
5.556,-0.01741
5.56,0.00951
5.564,0.00075
5.568,-0.04196
5.572,-0.03622
5.576,-0.01721
5.58,0.00207
5.584,-0.03104
5.588,-0.00085
5.592,0.00705
5.596,-0.02601
5.6,-0.02474
5.604,-0.00475
5.608,0.00998
5.612,0.00814
5.616,-0.00761
5.62,0.0217
5.624,0.00398
5.628,0.0279
5.632,0.00988
5.636,0.03076
5.64,0.05075
5.644,0.01425
5.648,0.05242
5.652,0.05154
5.656,0.05404
5.66,0.07135
5.664,0.07214
5.668,0.11252
5.672,0.08338
5.676,0.11727
5.68,0.13897
5.684,0.15041
5.688,0.16272
5.692,0.15861
5.696,0.21553
5.7,0.17694
5.704,0.18034
5.708,0.20151
5.712,0.18298
5.716,0.20493
5.72,0.21142
5.724,0.17798
5.728,0.21301
5.732,0.17892
5.736,0.18666
5.74,0.17157
5.744,0.18645
5.748,0.18384
5.752,0.16004
5.756,0.15579
5.76,0.1363
5.764,0.11727
5.768,0.12639
5.772,0.106
5.776,0.08767
5.78,0.07327
5.784,0.07534
5.788,0.06693
5.792,0.05753
5.796,0.04835
5.8,0.03113
5.804,0.00939
5.808,0.00894
5.812,0.01536
5.816,0.0213
5.82,0.00557
5.824,-0.02588
5.828,0.01798
5.832,0.00216
5.836,0.00554
5.84,-0.01
5.844,0.01241
5.848,-0.00692
5.852,-0.00013
5.856,0.0032
5.86,0.01235
5.864,-0.00493
5.868,-0.00166
5.872,-0.02289
5.876,0.00904
5.88,-0.02451
5.884,-0.00073
5.888,0.00834
5.892,0.008
5.896,-0.00231
5.9,-0.01973
5.904,0.00131
5.908,0.00363
5.912,-0.00932
5.916,0.0149
5.92,0.00295
5.924,0.00228
5.928,-0.01291
5.932,0.00063
5.936,0.00326
5.94,-0.03389
5.944,0.01626
5.948,-0.00507
5.952,0.00881
5.956,0.00918
5.96,-0.00633
5.964,0.0006
5.968,0.02747
5.972,0.0545
5.976,0.06379
5.98,0.05905
5.984,0.07836
5.988,0.07156
5.992,0.09184
5.996,0.06675
6.0,0.10249
6.004,0.10374
6.008,0.07006
6.012,0.09837
6.016,0.06591
6.02,0.06302
6.024,0.05433
6.028,0.01182
6.032,-0.0144
6.036,0.02618
6.04,0.02886
6.044,0.01072
6.048,-0.01003
6.052,-0.002
6.056,-0.00251
6.06,0.00107
6.064,0.0015
6.068,-0.01142
6.072,0.00391
6.076,0.01012
6.08,-0.00339
6.084,0.00431
6.088,0.00603
6.092,0.00577
6.096,-0.00925
6.1,-0.007
6.104,-0.00886
6.108,-0.0032
6.112,0.00064
6.116,-0.01324
6.12,-0.05585
6.124,-0.09336
6.128,-0.13272
6.132,-0.10591
6.136,-0.00845
6.14,0.17164
6.144,0.3439
6.148,0.55055
6.152,0.73971
6.156,0.91791
6.16,0.98866
6.164,0.9411
6.168,0.79144
6.172,0.63255
6.176,0.39661
6.18,0.19266
6.184,-0.00051
6.188,-0.13313
6.192,-0.16167
6.196,-0.14779
6.2,-0.14468
6.204,-0.10958
6.208,-0.04779
6.212,-0.02839
6.216,0.00298
6.22,-0.0253
6.224,-0.01744
6.228,-0.00162
6.232,0.01598
6.236,0.00196
6.24,-0.00549
6.244,-0.01491
6.248,-0.01723
6.252,-0.00708
6.256,-0.00478
6.26,0.00014
6.264,0.00324
6.268,-0.01246
6.272,-0.00316
6.276,-0.01242
6.28,-0.01043
6.284,0.00114
6.288,-0.02306
6.292,-0.00727
6.296,0.00546
6.3,0.0023
6.304,-0.00946
6.308,0.00166
6.312,-0.03731
6.316,0.00518
6.32,0.02434
6.324,0.03449
6.328,0.03546
6.332,0.03779
6.336,0.01075
6.34,0.01152
6.344,0.03487
6.348,0.02345
6.352,0.044
6.356,0.0559
6.36,0.05748
6.364,0.05101
6.368,0.06293
6.372,0.0759
6.376,0.07559
6.38,0.11346
6.384,0.09418
6.388,0.12761
6.392,0.13836
6.396,0.14733
6.4,0.1526
6.404,0.18267
6.408,0.18291
6.412,0.17592
6.416,0.20909
6.42,0.21692
6.424,0.15961
6.428,0.2061
6.432,0.21315
6.436,0.23048
6.44,0.23863
6.444,0.22547
6.448,0.22735
6.452,0.21747
6.456,0.21692
6.46,0.1978
6.464,0.17093
6.468,0.16954
6.472,0.17715
6.476,0.1485
6.48,0.14878
6.484,0.16175
6.488,0.13449
6.492,0.09315
6.496,0.09669
6.5,0.12456
6.504,0.1025
6.508,0.0774
6.512,0.06544
6.516,0.06242
6.52,0.04307
6.524,0.02241
6.528,0.03812
6.532,0.03013
6.536,0.03805
6.54,0.02719
6.544,0.01075
6.548,0.01112
6.552,0.02073
6.556,0.02844
6.56,0.03098
6.564,-0.00899
6.568,-0.00802
6.572,0.01705
6.576,0.01868
6.58,0.02052
6.584,0.01403
6.588,-0.00024
6.592,0.03966
6.596,-0.00302
6.6,-0.00038
6.604,-0.00725
6.608,0.00587
6.612,0.00882
6.616,-0.00448
6.62,-0.01306
6.624,-0.01763
6.628,-0.00375
6.632,0.0045
6.636,-0.01939
6.64,0.01649
6.644,0.01304
6.648,0.02404
6.652,-0.02551
6.656,-0.00264
6.66,0.0091
6.664,0.00668
6.668,0.01983
6.672,-0.00179
6.676,0.00985
6.68,0.00707
6.684,-0.01558
6.688,0.00853
6.692,0.01801
6.696,0.00022
6.7,0.00622
6.704,0.02069
6.708,0.03039
6.712,0.0214
6.716,0.02417
6.72,0.01291
6.724,0.02461
6.728,0.00139
6.732,0.0159
6.736,-0.01067
6.74,0.00061
6.744,0.03189
6.748,0.036
6.752,0.02181
6.756,0.01128
6.76,-0.00708
6.764,0.01862
6.768,0.01578
6.772,0.01363
6.776,-0.00183
6.78,0.0325
6.784,0.05565
6.788,-0.00384
6.792,0.00396
6.796,0.01251
6.8,0.00786
6.804,0.02773
6.808,0.02527
6.812,0.00359
6.816,0.01556
6.82,0.03993
6.824,-0.02161
6.828,0.02561
6.832,0.04656
6.836,0.0357
6.84,0.02307
6.844,0.0409
6.848,0.04445
6.852,0.04279
6.856,0.05851
6.86,0.06487
6.864,0.07354
6.868,0.12191
6.872,0.12547
6.876,0.09647
6.88,0.12846
6.884,0.1229
6.888,0.1008
6.892,0.08347
6.896,0.07139
6.9,0.07041
6.904,0.04342
6.908,0.05769
6.912,0.02149
6.916,0.05154
6.92,0.04912
6.924,0.02572
6.928,0.03217
6.932,0.04391
6.936,0.02414
6.94,0.01951
6.944,0.02962
6.948,0.01913
6.952,0.01869
6.956,0.03917
6.96,-0.00787
6.964,0.01448
6.968,0.01618
6.972,0.01682
6.976,0.03604
6.98,0.02783
6.984,0.00097
6.988,-0.0015
6.992,-0.00129
6.996,-0.02982
7.0,-0.05418
7.004,-0.09017
7.008,-0.08184
7.012,-0.01377
7.016,0.07513
7.02,0.24838
7.024,0.51517
7.028,0.69977
7.032,0.88194
7.036,1.01867
7.04,1.06018
7.044,0.91379
7.048,0.71189
7.052,0.49419
7.056,0.24185
7.06,0.07096
7.064,-0.07606
7.068,-0.1281
7.072,-0.14628
7.076,-0.14094
7.08,-0.06454
7.084,-0.0462
7.088,-0.03762
7.092,0.01075
7.096,0.02557
7.1,0.02321
7.104,0.02663
7.108,0.00123
7.112,0.00455
7.116,0.03558
7.12,0.03701
7.124,0.04355
7.128,0.05356
7.132,0.0169
7.136,-0.00114
7.14,0.01979
7.144,0.01961
7.148,0.02729
7.152,0.01343
7.156,0.02143
7.16,0.01738
7.164,0.02339
7.168,0.03977
7.172,0.01925
7.176,0.0315
7.18,0.03298
7.184,0.03744
7.188,0.01193
7.192,0.03465
7.196,0.03161
7.2,0.04984
7.204,0.02732
7.208,0.01519
7.212,0.04045
7.216,0.04149
7.22,0.01362
7.224,0.05779
7.228,0.04582
7.232,0.05312
7.236,0.10507
7.24,0.08472
7.244,0.0729
7.248,0.08603
7.252,0.09209
7.256,0.11632
7.26,0.13029
7.264,0.12962
7.268,0.13119
7.272,0.15951
7.276,0.15545
7.28,0.16107
7.284,0.20618
7.288,0.17107
7.292,0.21494
7.296,0.19282
7.3,0.24131
7.304,0.24269
7.308,0.22339
7.312,0.25857
7.316,0.2404
7.32,0.23121
7.324,0.26871
7.328,0.24389
7.332,0.20654
7.336,0.21494
7.34,0.22026
7.344,0.21296
7.348,0.20907
7.352,0.18246
7.356,0.18257
7.36,0.17385
7.364,0.12984
7.368,0.11746
7.372,0.1539
7.376,0.12554
7.38,0.12108
7.384,0.10173
7.388,0.1113
7.392,0.07461
7.396,0.05138
7.4,0.06226
7.404,0.07647
7.408,0.05904
7.412,0.04983
7.416,0.04371
7.42,0.0434
7.424,0.03429
7.428,0.03829
7.432,0.0257
7.436,0.02074
7.44,0.04336
7.444,0.0201
7.448,0.05034
7.452,0.01161
7.456,0.04548
7.46,0.03127
7.464,0.03048
7.468,0.03781
7.472,0.00968
7.476,0.01664
7.48,0.04388
7.484,0.04075
7.488,0.01726
7.492,-0.0004
7.496,0.04098
7.5,0.02718
7.504,0.0503
7.508,0.01438
7.512,-0.01007
7.516,0.02887
7.52,0.02188
7.524,0.01419
7.528,0.02525
7.532,0.01409
7.536,0.04825
7.54,0.00344
7.544,0.05465
7.548,0.0223
7.552,0.05084
7.556,0.02911
7.56,0.01176
7.564,0.00983
7.568,0.05413
7.572,0.02696
7.576,0.03838
7.58,0.02352
7.584,0.01218
7.588,-0.00328
7.592,0.01289
7.596,0.04146
7.6,0.03958
7.604,0.01142
7.608,0.02678
7.612,0.01987
7.616,0.02916
7.62,0.01588
7.624,0.00238
7.628,0.00675
7.632,0.02678
7.636,0.04884
7.64,0.02575
7.644,0.0125
7.648,0.03862
7.652,0.03976
7.656,0.00177
7.66,0.01559
7.664,0.03561
7.668,0.0259
7.672,0.03749
7.676,0.03133
7.68,0.03732
7.684,0.03355
7.688,0.03829
7.692,0.07682
7.696,0.07142
7.7,0.11505
7.704,0.11442
7.708,0.13613
7.712,0.13876
7.716,0.13382
7.72,0.12144
7.724,0.11402
7.728,0.11087
7.732,0.09877
7.736,0.09379
7.74,0.07057
7.744,0.04513
7.748,0.04972
7.752,0.04512
7.756,0.0441
7.76,0.02278
7.764,0.03403
7.768,0.04387
7.772,0.03116
7.776,0.02284
7.78,0.05941
7.784,0.04669
7.788,0.01888
7.792,0.02417
7.796,0.04094
7.8,0.0239
7.804,0.02608
7.808,0.00883
7.812,0.03495
7.816,0.02973
7.82,0.03561
7.824,0.04413
7.828,0.0109
7.832,0.01759
7.836,-0.04811
7.84,-0.07527
7.844,-0.08012
7.848,-0.07852
7.852,0.03882
7.856,0.18433
7.86,0.37818
7.864,0.57049
7.868,0.81571
7.872,0.94132
7.876,1.03364
7.88,0.98719
7.884,0.84033
7.888,0.64279
7.892,0.40316
7.896,0.17003
7.9,0.02313
7.904,-0.08721
7.908,-0.14569
7.912,-0.11342
7.916,-0.09714
7.92,-0.03691
7.924,-0.01882
7.928,0.02335
7.932,0.05572
7.936,0.01877
7.94,0.02008
7.944,0.04883
7.948,0.02505
7.952,0.00126
7.956,0.0325
7.96,0.02137
7.964,0.03132
7.968,0.02977
7.972,0.02792
7.976,0.07187
7.98,0.01456
7.984,0.0395
7.988,0.06987
7.992,0.02193
7.996,0.02389
8.0,0.0126
8.004,0.02219
8.008,0.03994
8.012,0.00218
8.016,0.02248
8.02,-0.01139
8.024,0.02317
8.028,0.04057
8.032,0.03707
8.036,0.04392
8.04,0.03644
8.044,0.03228
8.048,0.03678
8.052,0.05571
8.056,0.04597
8.06,0.04556
8.064,0.06502
8.068,0.05281
8.072,0.06466
8.076,0.08485
8.08,0.1017
8.084,0.08757
8.088,0.11255
8.092,0.1062
8.096,0.13706
8.1,0.11576
8.104,0.1379
8.108,0.17073
8.112,0.18043
8.116,0.18506
8.12,0.17359
8.124,0.17882
8.128,0.19577
8.132,0.21885
8.136,0.22712
8.14,0.23943
8.144,0.23629
8.148,0.24203
8.152,0.24559
8.156,0.25136
8.16,0.24308
8.164,0.2306
8.168,0.25462
8.172,0.22743
8.176,0.21575
8.18,0.23273
8.184,0.20565
8.188,0.23928
8.192,0.21361
8.196,0.19591
8.2,0.1857
8.204,0.17523
8.208,0.16915
8.212,0.16791
8.216,0.15774
8.22,0.21309
8.224,0.19193
8.228,0.17632
8.232,0.1929
8.236,0.16157
8.24,0.1497
8.244,0.17891
8.248,0.13083
8.252,0.11941
8.256,0.11774
8.26,0.08316
8.264,0.07119
8.268,0.06615
8.272,0.05056
8.276,0.0664
8.28,0.02732
8.284,0.03348
8.288,0.02667
8.292,0.01924
8.296,0.00017
8.3,0.02037
8.304,0.04361
8.308,0.01527
8.312,0.01031
8.316,0.0315
8.32,0.03513
8.324,0.02341
8.328,0.03284
8.332,0.03635
8.336,0.01533
8.34,0.00715
8.344,0.02575
8.348,0.04678
8.352,-0.0029
8.356,-0.02599
8.36,-0.07412
8.364,-0.07688
8.368,-0.06643
8.372,0.02818
8.376,0.15451
8.38,0.34863
8.384,0.5908
8.388,0.77862
8.392,0.92329
8.396,1.01886
8.4,1.02513
8.404,0.83296
8.408,0.64075
8.412,0.42176
8.416,0.19865
8.42,0.01866
8.424,-0.08111
8.428,-0.1613
8.432,-0.13303
8.436,-0.08879
8.44,-0.05553
8.444,-0.01512
8.448,0.00887
8.452,0.02388
8.456,0.02721
8.46,0.00276
8.464,0.04196
8.468,0.01268
8.472,0.03284
8.476,0.02065
8.48,0.04111
8.484,0.02629
8.488,0.03283
8.492,0.01884
8.496,0.04792
8.5,0.03554
8.504,0.03307
8.508,0.01131
8.512,0.0143
8.516,0.00828
8.52,0.04045
8.524,0.00417
8.528,0.01301
8.532,0.0449
8.536,0.03974
8.54,0.00958
8.544,0.03234
8.548,0.02934
8.552,0.04227
8.556,0.01867
8.56,0.0486
8.564,0.03978
8.568,0.02781
8.572,0.04005
8.576,0.06818
8.58,0.03194
8.584,0.05718
8.588,0.06969
8.592,0.06652
8.596,0.08178
8.6,0.10522
8.604,0.08529
8.608,0.09548
8.612,0.10677
8.616,0.13536
8.62,0.10106
8.624,0.13299
8.628,0.14495
8.632,0.16065
8.636,0.19031
8.64,0.20814
8.644,0.18557
8.648,0.21532
8.652,0.2183
8.656,0.22348
8.66,0.18866
8.664,0.21679
8.668,0.22031
8.672,0.24876
8.676,0.23465
8.68,0.24553
8.684,0.23568
8.688,0.2528
8.692,0.20484
8.696,0.22178
8.7,0.18904
8.704,0.1913
8.708,0.1981
8.712,0.17147
8.716,0.13296
8.72,0.14334
8.724,0.15282
8.728,0.13549
8.732,0.12771
8.736,0.11083
8.74,0.1319
8.744,0.11964
8.748,0.07353
8.752,0.08682
8.756,0.06675
8.76,0.09522
8.764,0.05784
8.768,0.02517
8.772,0.04185
8.776,0.04067
8.78,0.05234
8.784,0.03969
8.788,0.01689
8.792,0.01961
8.796,0.03837
8.8,0.04386
8.804,0.01771
8.808,0.02258
8.812,0.02426
8.816,0.03928
8.82,0.02006
8.824,0.00438
8.828,-0.00733
8.832,0.04212
8.836,0.00594
8.84,0.03379
8.844,0.01737
8.848,-0.00763
8.852,0.02785
8.856,0.03425
8.86,0.0351
8.864,0.01361
8.868,0.02138
8.872,0.03938
8.876,0.0327
8.88,0.01885
8.884,0.02777
8.888,-0.00624
8.892,0.01838
8.896,0.00023
8.9,0.03422
8.904,0.04433
8.908,0.01692
8.912,0.01236
8.916,0.0169
8.92,0.03502
8.924,0.02801
8.928,0.01637
8.932,0.0211
8.936,0.01166
8.94,0.00338
8.944,0.04802
8.948,0.03351
8.952,-0.00186
8.956,0.0033
8.96,0.00403
8.964,0.00786
8.968,0.03303
8.972,0.01704
8.976,0.02575
8.98,-0.0197
8.984,0.01036
8.988,0.03335
8.992,0.03045
8.996,0.0228
9.0,-0.0033
9.004,0.01658
9.008,0.01544
9.012,0.02766
9.016,-0.01421
9.02,0.01591
9.024,-0.00083
9.028,0.00485
9.032,0.02359
9.036,0.00797
9.04,0.01214
9.044,0.0041
9.048,0.00308
9.052,3e-05
9.056,0.01798
9.06,-0.00405
9.064,0.00261
9.068,0.01864
9.072,0.00927
9.076,0.01811
9.08,0.01362
9.084,-0.00098
9.088,0.02842
9.092,0.04818
9.096,0.00423
9.1,-0.00128
9.104,0.02107
9.108,0.02915
9.112,0.02782
9.116,-0.00263
9.12,-0.00519
9.124,0.03057
9.128,0.03286
9.132,0.03457
9.136,-0.00794
9.14,0.01026
9.144,0.03565
9.148,0.02015
9.152,0.01615
9.156,0.00128
9.16,0.01756
9.164,-0.00168
9.168,0.01294
9.172,0.01325
9.176,0.01236
9.18,0.03257
9.184,0.03457
9.188,0.0574
9.192,0.03954
9.196,0.06154
9.2,0.08409
9.204,0.06833
9.208,0.08625
9.212,0.08261
9.216,0.11355
9.22,0.11252
9.224,0.10594
9.228,0.10868
9.232,0.11489
9.236,0.10754
9.24,0.05507
9.244,0.06732
9.248,0.06667
9.252,0.05093
9.256,0.03233
9.26,0.02084
9.264,0.0119
9.268,0.02027
9.272,0.00242
9.276,-0.00586
9.28,-0.00805
9.284,0.00621
9.288,0.03057
9.292,0.01133
9.296,-0.00779
9.3,0.00191
9.304,0.01874
9.308,0.01105
9.312,-0.01381
9.316,0.00985
9.32,0.02574
9.324,0.00182
9.328,0.00337
9.332,0.01342
9.336,-0.01211
9.34,-0.02586
9.344,-0.07703
9.348,-0.10694
9.352,-0.08548
9.356,-0.02595
9.36,0.11019
9.364,0.29296
9.368,0.49887
9.372,0.71687
9.376,0.90293
9.38,0.99332
9.384,0.96702
9.388,0.86377
9.392,0.65259
9.396,0.45662
9.4,0.23088
9.404,0.03945
9.408,-0.08824
9.412,-0.151
9.416,-0.16951
9.42,-0.14956
9.424,-0.09492
9.428,-0.06288
9.432,-0.02563
9.436,-0.01684
9.44,-0.00473
9.444,0.02425
9.448,-0.00108
9.452,0.02056
9.456,0.00545
9.46,-0.00772
9.464,-0.01613
9.468,0.02423
9.472,-0.01866
9.476,0.04589
9.48,0.03452
9.484,-0.00037
9.488,0.04846
9.492,0.01189
9.496,0.00137
9.5,-0.01221
9.504,-0.03343
9.508,-7e-05
9.512,0.01337
9.516,0.01386
9.52,0.02583
9.524,0.01293
9.528,0.01154
9.532,-0.00745
9.536,-0.0001
9.54,-0.01098
9.544,-0.00432
9.548,0.02797
9.552,0.02115
9.556,0.02039
9.56,0.01326
9.564,0.01141
9.568,0.04312
9.572,0.04289
9.576,0.03066
9.58,0.04899
9.584,0.04746
9.588,0.04795
9.592,0.08264
9.596,0.07748
9.6,0.0636
9.604,0.11792
9.608,0.09131
9.612,0.10892
9.616,0.13802
9.62,0.14512
9.624,0.14838
9.628,0.18959
9.632,0.15483
9.636,0.19409
9.64,0.18443
9.644,0.18658
9.648,0.20891
9.652,0.22082
9.656,0.23812
9.66,0.21847
9.664,0.24729
9.668,0.19848
9.672,0.22205
9.676,0.24094
9.68,0.20429
9.684,0.18666
9.688,0.19091
9.692,0.17759
9.696,0.15672
9.7,0.15326
9.704,0.14648
9.708,0.11682
9.712,0.13361
9.716,0.1395
9.72,0.08177
9.724,0.10533
9.728,0.05521
9.732,0.06907
9.736,0.06772
9.74,0.0097
9.744,0.03739
9.748,0.01499
9.752,0.03875
9.756,0.02102
9.76,0.02049
9.764,-0.00096
9.768,0.04947
9.772,-0.00642
9.776,0.02281
9.78,0.00642
9.784,0.01179
9.788,-0.00296
9.792,0.00709
9.796,0.00471
9.8,-0.00158
9.804,-0.03251
9.808,-0.00129
9.812,0.00843
9.816,-0.01908
9.82,-0.0142
9.824,0.00454
9.828,-0.00576
9.832,-0.02335
9.836,-0.03155
9.84,-0.02267
9.844,0.02116
9.848,-0.01088
9.852,-0.00296
9.856,-0.05049
9.86,-0.00168
9.864,-0.02627
9.868,-0.03428
9.872,-0.02577
9.876,-0.01006
9.88,0.01344
9.884,-0.01228
9.888,-0.01336
9.892,-0.01465
9.896,0.00763
9.9,0.00225
9.904,-0.00875
9.908,-0.0401
9.912,-0.0322
9.916,0.00043
9.92,-0.00504
9.924,0.01693
9.928,-0.01346
9.932,-0.02671
9.936,-0.02107
9.94,-0.03177
9.944,-0.0103
9.948,-0.00019
9.952,-0.03577
9.956,-0.00583
9.96,-0.01829
9.964,-0.02283
9.968,-0.01571
9.972,-0.00767
9.976,-0.00796
9.98,-0.00964
9.984,0.00238
9.988,-0.00815
9.992,-0.00631
9.996,0.02809
