t_seg,ecg_mV
0.0,-0.02144
0.004,-0.01536
0.008,0.00425
0.012,-0.00486
0.016,-0.02359
0.02,-0.00421
0.024,-0.00953
0.028,-0.02084
0.032,-0.00853
0.036,0.00299
0.04,-0.00888
0.044,-0.00789
0.048,0.02304
0.052,-0.0044
0.056,-0.02542
0.06,-0.00911
0.064,-0.01934
0.068,-0.00579
0.072,0.00156
0.076,-0.02612
0.08,-0.00616
0.084,-0.02566
0.088,-0.01411
0.092,-0.0138
0.096,0.01092
0.1,-0.00013
0.104,-0.02443
0.108,0.00367
0.112,0.04553
0.116,-0.02552
0.12,-0.00931
0.124,-0.00315
0.128,-0.01353
0.132,-0.00114
0.136,-0.02741
0.14,-0.02931
0.144,0.0063
0.148,-0.00396
0.152,-0.02573
0.156,0.00287
0.16,-0.01235
0.164,-0.00664
0.168,-0.01519
0.172,-0.00541
0.176,-0.01595
0.18,-0.02218
0.184,-0.01956
0.188,-0.00692
0.192,-0.02342
0.196,-0.00649
0.2,-0.0085
0.204,0.0066
0.208,-0.02543
0.212,0.0205
0.216,0.0109
0.22,-0.04077
0.224,-0.01245
0.228,-0.01114
0.232,-0.00495
0.236,-0.00824
0.24,0.0064
0.244,-0.02472
0.248,-0.02422
0.252,-0.00091
0.256,-0.02914
0.26,-0.01271
0.264,-0.01183
0.268,-0.03099
0.272,0.00015
0.276,-0.01647
0.28,-0.01019
0.284,-0.0238
0.288,-0.00756
0.292,-0.00115
0.296,0.01883
0.3,-0.0079
0.304,-0.01035
0.308,-0.01308
0.312,-0.00082
0.316,-0.00086
0.32,0.00453
0.324,0.00844
0.328,-0.02721
0.332,-0.02233
0.336,0.00464
0.34,-0.02098
0.344,-0.02412
0.348,-0.00138
0.352,-0.01155
0.356,-0.00927
0.36,-0.01709
0.364,-0.01854
0.368,-0.01945
0.372,-0.02107
0.376,-0.02413
0.38,0.00217
0.384,-0.01179
0.388,-0.00034
0.392,-0.02304
0.396,-0.01931
0.4,-0.03518
0.404,-0.02
0.408,-0.03785
0.412,-0.02622
0.416,-0.03289
0.42,-0.00865
0.424,-0.03584
0.428,0.00587
0.432,-0.0118
0.436,0.03267
0.44,0.02089
0.444,0.03261
0.448,0.04124
0.452,0.08703
0.456,0.06413
0.46,0.06312
0.464,0.08405
0.468,0.06231
0.472,0.0814
0.476,0.07584
0.48,0.08655
0.484,0.05134
0.488,0.04652
0.492,0.04183
0.496,0.00778
0.5,0.01855
0.504,-0.00065
0.508,-0.00165
0.512,-0.02374
0.516,-0.00629
0.52,-0.01532
0.524,-0.02823
0.528,0.00675
0.532,-0.03655
0.536,-0.01717
0.54,-0.04475
0.544,-0.02865
0.548,-0.02682
0.552,-0.03064
0.556,-0.03169
0.56,-0.03633
0.564,-0.0355
0.568,0.0037
0.572,-0.03204
0.576,-0.01775
0.58,-0.03832
0.584,-0.03093
0.588,-0.06855
0.592,-0.10777
0.596,-0.13708
0.6,-0.1045
0.604,-0.03836
0.608,0.0915
0.612,0.31866
0.616,0.4881
0.62,0.73121
0.624,0.89466
0.628,0.97011
0.632,0.95947
0.636,0.83807
0.64,0.61215
0.644,0.40078
0.648,0.17412
0.652,0.00461
0.656,-0.13115
0.66,-0.19125
0.664,-0.18489
0.668,-0.15733
0.672,-0.12858
0.676,-0.05147
0.68,-0.04593
0.684,-0.0328
0.688,-0.03061
0.692,-0.02746
0.696,-0.0102
0.7,-0.02753
0.704,-0.0369
0.708,0.01015
0.712,-0.00769
0.716,-0.01653
0.72,-0.02082
0.724,-0.03731
0.728,0.00383
0.732,-0.03325
0.736,-0.01504
0.74,-0.0232
0.744,-0.0126
0.748,-0.03396
0.752,-0.02963
0.756,-0.03452
0.76,-0.01569
0.764,-0.02341
0.768,-0.00894
0.772,-0.01803
0.776,-0.03452
0.78,-0.01209
0.784,-0.01273
0.788,-0.00466
0.792,-0.00018
0.796,-0.02861
0.8,-0.02072
0.804,0.01249
0.808,0.00174
0.812,0.00321
0.816,-0.00154
0.82,0.00369
0.824,0.02177
0.828,0.00614
0.832,0.03932
0.836,0.04231
0.84,0.06636
0.844,0.04739
0.848,0.08672
0.852,0.07489
0.856,0.06816
0.86,0.10911
0.864,0.11466
0.868,0.12873
0.872,0.1299
0.876,0.15735
0.88,0.16442
0.884,0.17096
0.888,0.17254
0.892,0.18916
0.896,0.17034
0.9,0.19874
0.904,0.19339
0.908,0.17589
0.912,0.18815
0.916,0.18327
0.92,0.20351
0.924,0.18983
0.928,0.16773
0.932,0.15068
0.936,0.14362
0.94,0.14798
0.944,0.13386
0.948,0.1538
0.952,0.1139
0.956,0.08836
0.96,0.09157
0.964,0.07361
0.968,0.06932
0.972,0.02598
0.976,0.05931
0.98,0.02759
0.984,-0.0022
0.988,0.03962
0.992,0.01914
0.996,-0.00627
1.0,0.03012
1.004,-0.00966
1.008,-0.00045
1.012,-0.01221
1.016,-0.00012
1.02,-0.05268
1.024,-0.00174
1.028,0.01754
1.032,0.00572
1.036,-0.0244
1.04,-0.01097
1.044,0.00318
1.048,-0.01453
1.052,0.00861
1.056,-0.0391
1.06,-0.03198
1.064,-0.02594
1.068,-0.01589
1.072,-0.0379
1.076,-0.03402
1.08,-0.03381
1.084,-0.01765
1.088,-0.02687
1.092,-0.01562
1.096,-0.01889
1.1,0.00485
1.104,-0.05744
1.108,0.00309
1.112,-0.02255
1.116,-0.00167
1.12,-0.02392
1.124,-0.01588
1.128,-0.02096
1.132,-0.01557
1.136,-0.03115
1.14,-0.0026
1.144,-0.03248
1.148,-0.0175
1.152,-0.03954
1.156,-0.05157
1.16,-0.03083
1.164,-0.02283
1.168,-0.04086
1.172,-0.04036
1.176,-0.03747
1.18,-0.04293
1.184,-0.01117
1.188,-0.05592
1.192,-0.03617
1.196,-0.02255
1.2,-0.00189
1.204,-0.0076
1.208,-0.03434
1.212,-0.03607
1.216,-0.01013
1.22,-0.03434
1.224,-0.01672
1.228,-0.00733
1.232,-0.0259
1.236,-0.01628
1.24,-0.02194
1.244,-0.04679
1.248,-0.01776
1.252,-0.03955
1.256,-0.02471
1.26,-0.03401
1.264,-0.00075
1.268,-0.03316
1.272,-0.0293
1.276,-0.02976
1.28,-0.0438
1.284,-0.01591
1.288,-0.0255
1.292,-0.0159
1.296,-0.03675
1.3,-0.02912
1.304,-0.02003
1.308,-0.01805
1.312,-0.06114
1.316,-0.02149
1.32,-0.03397
1.324,-0.01618
1.328,-0.02501
1.332,-0.02329
1.336,-0.00934
1.34,0.00397
1.344,-0.031
1.348,0.0145
1.352,0.02022
1.356,0.02557
1.36,0.07589
1.364,0.05379
1.368,0.07758
1.372,0.05789
1.376,0.0563
1.38,0.06537
1.384,0.083
1.388,0.03421
1.392,0.04714
1.396,0.01764
1.4,0.0176
1.404,0.01242
1.408,0.00082
1.412,-0.01874
1.416,-0.00701
1.42,-0.01394
1.424,-0.01328
1.428,-0.04337
1.432,-0.02113
1.436,-0.04973
1.44,-0.00901
1.444,-0.02969
1.448,-0.01697
1.452,-0.03068
1.456,-0.01853
1.46,0.0036
1.464,-0.03395
1.468,-0.02701
1.472,-0.01558
1.476,-0.0261
1.48,-0.029
1.484,-0.02888
1.488,-0.04018
1.492,-0.0613
1.496,-0.1106
1.5,-0.13471
1.504,-0.14004
1.508,-0.10147
1.512,-0.01614
1.516,0.14702
1.52,0.38819
1.524,0.57592
1.528,0.76924
1.532,0.9258
1.536,0.93077
1.54,0.90551
1.544,0.71846
1.548,0.51816
1.552,0.28483
1.556,0.11677
1.56,-0.04979
1.564,-0.16869
1.568,-0.20448
1.572,-0.18547
1.576,-0.17526
1.58,-0.10574
1.584,-0.05414
1.588,-0.06168
1.592,-0.03082
1.596,-0.03497
1.6,-0.05413
1.604,-0.03846
1.608,-0.03232
1.612,-0.03472
1.616,-0.06034
1.62,-0.02437
1.624,-0.04325
1.628,-0.0271
1.632,-0.02835
1.636,-0.02821
1.64,-0.04338
1.644,-0.02486
1.648,-0.0545
1.652,-0.04702
1.656,-0.02548
1.66,-0.05027
1.664,-0.03856
1.668,-0.02714
1.672,-0.04882
1.676,-0.02317
1.68,-0.03335
1.684,-0.03679
1.688,-0.01403
1.692,-0.01771
1.696,-0.03534
1.7,-0.00906
1.704,-0.03022
1.708,-0.01658
1.712,-0.03144
1.716,-0.01976
1.72,-0.00468
1.724,-0.01421
1.728,0.00481
1.732,0.00624
1.736,0.04236
1.74,0.04971
1.744,0.04448
1.748,0.07964
1.752,0.08288
1.756,0.04228
1.76,0.0696
1.764,0.06138
1.768,0.09887
1.772,0.10949
1.776,0.10362
1.78,0.13426
1.784,0.14917
1.788,0.15283
1.792,0.13479
1.796,0.1989
1.8,0.16153
1.804,0.17111
1.808,0.17625
1.812,0.19412
1.816,0.16628
1.82,0.18351
1.824,0.16001
1.828,0.17438
1.832,0.18835
1.836,0.16711
1.84,0.18704
1.844,0.16529
1.848,0.151
1.852,0.13722
1.856,0.13958
1.86,0.0784
1.864,0.0859
1.868,0.07881
1.872,0.09226
1.876,0.06508
1.88,0.04775
1.884,0.02554
1.888,0.01582
1.892,-0.00291
1.896,0.01749
1.9,0.03728
1.904,0.00794
1.908,-0.01057
1.912,0.01733
1.916,-0.01575
1.92,-0.00671
1.924,-0.01734
1.928,-0.04859
1.932,-0.01951
1.936,-0.04628
1.94,-0.02182
1.944,0.00081
1.948,-0.02126
1.952,-0.01854
1.956,-0.01383
1.96,-0.02871
1.964,-0.03481
1.968,-0.02218
1.972,-0.01385
1.976,-0.0159
1.98,-0.04857
1.984,-0.0298
1.988,-0.02699
1.992,-0.01019
1.996,-0.03606
2.0,-0.04828
2.004,-0.03494
2.008,-0.03509
2.012,-0.02449
2.016,-0.00466
2.02,-0.0176
2.024,0.0028
2.028,0.01076
2.032,-0.01829
2.036,-0.03736
2.04,-0.03452
2.044,-0.01784
2.048,-0.01489
2.052,-0.03285
2.056,-0.03345
2.06,-0.02024
2.064,-0.02202
2.068,-0.00304
2.072,-0.02959
2.076,-0.03407
2.08,-0.03086
2.084,-0.0389
2.088,-0.04629
2.092,-0.06342
2.096,-0.03656
2.1,-0.0334
2.104,-0.00627
2.108,-0.04828
2.112,-0.04257
2.116,-0.03129
2.12,-0.01948
2.124,-0.01646
2.128,-0.00449
2.132,0.02655
2.136,-0.00476
2.14,0.01728
2.144,0.04451
2.148,0.03923
2.152,0.05065
2.156,0.06675
2.16,0.08903
2.164,0.08485
2.168,0.04821
2.172,0.07222
2.176,0.04468
2.18,0.05282
2.184,0.04336
2.188,0.02464
2.192,0.03694
2.196,-0.0048
2.2,-0.00304
2.204,0.00896
2.208,0.00295
2.212,-0.0302
2.216,-0.01249
2.22,-0.02508
2.224,-0.02338
2.228,-0.04639
2.232,-0.01055
2.236,-0.02375
2.24,-0.01985
2.244,-0.01995
2.248,-0.03507
2.252,-0.00259
2.256,-0.00262
2.26,0.00474
2.264,0.00635
2.268,-0.02342
2.272,-0.02839
2.276,-0.04158
2.28,-0.0458
2.284,-0.09425
2.288,-0.10942
2.292,-0.15749
2.296,-0.06618
2.3,0.04549
2.304,0.22703
2.308,0.38365
2.312,0.62101
2.316,0.83449
2.32,0.94825
2.324,0.94889
2.328,0.87667
2.332,0.71859
2.336,0.49977
2.34,0.25239
2.344,0.06589
2.348,-0.07114
2.352,-0.14778
2.356,-0.19729
2.36,-0.17201
2.364,-0.11632
2.368,-0.11897
2.372,-0.04658
2.376,-0.05079
2.38,0.01424
2.384,-0.0447
2.388,-0.00809
2.392,-0.01812
2.396,-0.02689
2.4,-0.0296
2.404,0.00131
2.408,-0.02427
2.412,-0.0069
2.416,-0.00557
2.42,-0.04037
2.424,-0.02064
2.428,-0.011
2.432,-0.02214
2.436,-0.04425
2.44,-0.00643
2.444,-0.0046
2.448,-0.01907
2.452,-0.03659
2.456,0.00321
2.46,-0.04312
2.464,-0.02142
2.468,-0.00081
2.472,-0.05709
2.476,-0.02668
2.48,0.00194
2.484,-0.01393
2.488,0.01684
2.492,-0.01834
2.496,-0.01456
2.5,-0.00144
2.504,0.00342
2.508,0.02879
2.512,0.00624
2.516,0.02784
2.52,0.04488
2.524,0.00229
2.528,0.02398
2.532,0.03627
2.536,0.02804
2.54,0.08409
2.544,0.07298
2.548,0.11781
2.552,0.10214
2.556,0.12257
2.56,0.13373
2.564,0.13798
2.568,0.1359
2.572,0.16783
2.576,0.14746
2.58,0.17755
2.584,0.20448
2.588,0.20494
2.592,0.17601
2.596,0.19887
2.6,0.1882
2.604,0.22438
2.608,0.23119
2.612,0.20519
2.616,0.21039
2.62,0.1985
2.624,0.20717
2.628,0.15962
2.632,0.19626
2.636,0.14556
2.64,0.13424
2.644,0.10189
2.648,0.11808
2.652,0.09275
2.656,0.08464
2.66,0.09241
2.664,0.06219
2.668,0.05009
2.672,0.04001
2.676,0.01998
2.68,0.0415
2.684,0.02562
2.688,0.03567
2.692,0.02641
2.696,0.00882
2.7,0.0047
2.704,0.03341
2.708,-0.01602
2.712,-0.03801
2.716,-0.00768
2.72,-0.01474
2.724,0.00956
2.728,-0.0045
2.732,-0.00033
2.736,-0.00732
2.74,-0.00284
2.744,-0.0317
2.748,-0.00346
2.752,0.02607
2.756,-0.01999
2.76,0.00829
2.764,-0.01834
2.768,-0.00597
2.772,-0.0252
2.776,0.01469
2.78,0.0035
2.784,-0.00172
2.788,0.01213
2.792,0.00552
2.796,-0.00306
2.8,-0.00795
2.804,0.00103
2.808,0.03063
2.812,-0.01084
2.816,-0.00491
2.82,-0.03605
2.824,0.01467
2.828,-0.00998
2.832,-0.0203
2.836,-0.01708
2.84,-0.00838
2.844,-0.01218
2.848,0.00666
2.852,-0.01036
2.856,-0.0079
2.86,-0.01132
2.864,0.0016
2.868,-0.0105
2.872,-0.01588
2.876,-0.02085
2.88,-0.01398
2.884,-0.01375
2.888,-0.0059
2.892,0.00652
2.896,-0.01793
2.9,-0.02601
2.904,-0.00243
2.908,-0.00536
2.912,0.01213
2.916,-0.00575
2.92,-0.00883
2.924,-0.01309
2.928,-0.01065
2.932,-0.02723
2.936,-0.02527
2.94,-0.01817
2.944,-0.03029
2.948,-0.00367
2.952,0.00395
2.956,6e-05
2.96,-0.00476
2.964,-0.00827
2.968,-0.00765
2.972,-0.00015
2.976,0.01363
2.98,-0.01249
2.984,0.01851
2.988,0.02785
2.992,-0.01508
2.996,-0.03253
3.0,-0.01243
3.004,0.00974
3.008,0.00677
3.012,-0.00248
3.016,0.00316
3.02,0.01283
3.024,-0.01697
3.028,0.0127
3.032,-0.00387
3.036,0.00013
3.04,0.01095
3.044,-0.00319
3.048,-0.01311
3.052,-0.02648
3.056,-0.00906
3.06,-0.00659
3.064,0.00588
3.068,0.00273
3.072,0.01875
3.076,0.04101
3.08,-0.00464
3.084,-0.00633
3.088,0.01434
3.092,0.04578
3.096,0.0372
3.1,0.07208
3.104,0.04942
3.108,0.05971
3.112,0.08537
3.116,0.10041
3.12,0.09384
3.124,0.11118
3.128,0.09763
3.132,0.09165
3.136,0.06741
3.14,0.04048
3.144,0.06821
3.148,0.0437
3.152,0.05121
3.156,0.0259
3.16,0.03855
3.164,0.02569
3.168,-0.0011
3.172,0.00833
3.176,0.00414
3.18,-0.01133
3.184,0.00772
3.188,0.00815
3.192,0.01864
3.196,-0.00094
3.2,-0.02542
3.204,-0.02158
3.208,0.0127
3.212,-0.01186
3.216,0.01144
3.22,-0.01124
3.224,-0.00984
3.228,0.01218
3.232,-0.01833
3.236,-0.04488
3.24,-0.04656
3.244,-0.09989
3.248,-0.09518
3.252,-0.09685
3.256,0.04964
3.26,0.16392
3.264,0.36943
3.268,0.58809
3.272,0.79785
3.276,0.9274
3.28,1.00666
3.284,0.933
3.288,0.80771
3.292,0.55847
3.296,0.33328
3.3,0.13285
3.304,-0.01064
3.308,-0.11
3.312,-0.1596
3.316,-0.15455
3.32,-0.11238
3.324,-0.04298
3.328,-0.00269
3.332,-0.01927
3.336,-0.01667
3.34,-0.0099
3.344,0.00484
3.348,0.02869
3.352,0.00133
3.356,-0.00836
3.36,-0.00331
3.364,0.02024
3.368,0.02105
3.372,-0.00447
3.376,0.01073
3.38,0.01201
3.384,0.00052
3.388,-0.0223
3.392,0.00879
3.396,0.02635
3.4,0.00905
3.404,7e-05
3.408,0.03874
3.412,0.01924
3.416,0.00287
3.42,-0.01851
3.424,0.02603
3.428,0.005
3.432,-0.00228
3.436,0.01854
3.44,0.00457
3.444,0.01087
3.448,0.01728
3.452,0.00897
3.456,0.02028
3.46,0.04552
3.464,0.02101
3.468,0.02267
3.472,0.04295
3.476,0.04798
3.48,0.061
3.484,0.03057
3.488,0.05229
3.492,0.07973
3.496,0.07744
3.5,0.09373
3.504,0.09874
3.508,0.11075
3.512,0.13434
3.516,0.15556
3.52,0.14732
3.524,0.12902
3.528,0.19508
3.532,0.18506
3.536,0.19428
3.54,0.21111
3.544,0.17985
3.548,0.23133
3.552,0.21437
3.556,0.23354
3.56,0.24189
3.564,0.20369
3.568,0.25056
3.572,0.23048
3.576,0.24075
3.58,0.2202
3.584,0.19142
3.588,0.17815
3.592,0.17692
3.596,0.16955
3.6,0.17282
3.604,0.17712
3.608,0.15484
3.612,0.10392
3.616,0.11282
3.62,0.1141
3.624,0.09479
3.628,0.09345
3.632,0.07778
3.636,0.04824
3.64,0.06198
3.644,0.03548
3.648,0.04165
3.652,0.03482
3.656,0.02132
3.66,0.02899
3.664,0.03422
3.668,0.04831
3.672,0.00034
3.676,0.00257
3.68,0.02856
3.684,0.02204
3.688,0.02554
3.692,0.00807
3.696,0.01815
3.7,0.01362
3.704,0.01439
3.708,0.0194
3.712,0.0099
3.716,0.01905
3.72,0.02271
3.724,0.04064
3.728,0.02005
3.732,-0.00464
3.736,0.01787
3.74,0.02164
3.744,0.01444
3.748,0.02085
3.752,-0.00807
3.756,0.05663
3.76,0.023
3.764,0.02256
3.768,0.00446
3.772,0.00337
3.776,0.01407
3.78,0.02403
3.784,0.04536
3.788,0.00868
3.792,0.02935
3.796,0.01358
3.8,0.00823
3.804,0.02735
3.808,0.0273
3.812,0.03298
3.816,0.04512
3.82,0.01943
3.824,0.05014
3.828,0.0844
3.832,0.07678
3.836,0.09113
3.84,0.10939
3.844,0.09102
3.848,0.12801
3.852,0.11843
3.856,0.12508
3.86,0.08924
3.864,0.11401
3.868,0.0984
3.872,0.06946
3.876,0.0642
3.88,0.08128
3.884,0.0513
3.888,0.03537
3.892,0.04444
3.896,0.03383
3.9,0.02943
3.904,0.00934
3.908,0.01338
3.912,0.00982
3.916,0.01413
3.92,0.0251
3.924,0.02459
3.928,0.03387
3.932,0.00984
3.936,-0.00549
3.94,0.03178
3.944,0.02462
3.948,0.0361
3.952,0.02438
3.956,0.055
3.96,0.03826
3.964,0.00435
3.968,-0.00194
3.972,-0.02426
3.976,-0.04908
3.98,-0.11303
3.984,-0.09909
3.988,-0.00701
3.992,0.1113
3.996,0.29401
4.0,0.55104
4.004,0.73242
4.008,0.92289
4.012,1.02376
4.016,0.98332
4.02,0.87111
4.024,0.70923
4.028,0.4534
4.032,0.26324
4.036,0.06771
4.04,-0.10052
4.044,-0.13652
4.048,-0.12329
4.052,-0.1013
4.056,-0.06195
4.06,-0.02374
4.064,-0.00977
4.068,0.00267
4.072,0.01742
4.076,0.04298
4.08,0.01074
4.084,-0.00269
4.088,0.0065
4.092,0.0068
4.096,0.0229
4.1,0.02076
4.104,0.03541
4.108,0.0404
4.112,0.01324
4.116,0.00575
4.12,0.01814
4.124,0.01599
4.128,0.03168
4.132,0.03181
4.136,0.01593
4.14,-0.00014
4.144,0.03041
4.148,0.01956
4.152,0.03685
4.156,0.05229
4.16,0.02357
4.164,0.02862
4.168,0.02867
4.172,0.01202
4.176,0.03981
4.18,0.02627
4.184,0.05685
4.188,0.02446
4.192,0.0441
4.196,0.05737
4.2,0.02924
4.204,0.08006
4.208,0.04906
4.212,0.06349
4.216,0.09936
4.22,0.08468
4.224,0.08468
4.228,0.10036
4.232,0.09109
4.236,0.11494
4.24,0.09473
4.244,0.15177
4.248,0.15065
4.252,0.1554
4.256,0.18218
4.26,0.22131
4.264,0.21527
4.268,0.21754
4.272,0.20051
4.276,0.22878
4.28,0.19994
4.284,0.23008
4.288,0.20948
4.292,0.23787
4.296,0.24929
4.3,0.23341
4.304,0.25889
4.308,0.22808
4.312,0.25672
4.316,0.1936
4.32,0.2133
4.324,0.21042
4.328,0.20296
4.332,0.16943
4.336,0.15326
4.34,0.16481
4.344,0.15705
4.348,0.13716
4.352,0.13258
4.356,0.13486
4.36,0.08775
4.364,0.07573
4.368,0.1061
4.372,0.06812
4.376,0.05779
4.38,0.05802
4.384,0.06448
4.388,0.02846
4.392,0.04637
4.396,0.05306
4.4,0.00681
4.404,0.01665
4.408,0.04812
4.412,0.02428
4.416,0.04185
4.42,0.01676
4.424,0.01078
4.428,0.018
4.432,0.03528
4.436,0.03527
4.44,0.02059
4.444,0.04821
4.448,0.04179
4.452,0.02462
4.456,0.05585
4.46,0.07162
4.464,0.07478
4.468,0.08793
4.472,0.08283
4.476,0.1354
4.48,0.10961
4.484,0.11504
4.488,0.12199
4.492,0.10775
4.496,0.10785
4.5,0.09693
4.504,0.1139
4.508,0.09488
4.512,0.08515
4.516,0.08171
4.52,0.07455
4.524,0.05133
4.528,0.03338
4.532,0.04107
4.536,0.04017
4.54,0.05604
4.544,0.05132
4.548,0.06555
4.552,0.04221
4.556,0.00351
4.56,0.03998
4.564,0.03852
4.568,0.0295
4.572,0.03838
4.576,0.03136
4.58,0.01526
4.584,0.02801
4.588,0.02343
4.592,0.02316
4.596,-0.01099
4.6,-0.00644
4.604,-0.02002
4.608,-0.03703
4.612,-0.08476
4.616,-0.07385
4.62,-0.01779
4.624,0.08976
4.628,0.24848
4.632,0.44287
4.636,0.69197
4.64,0.86322
4.644,1.00839
4.648,1.03413
4.652,0.94585
4.656,0.79469
4.66,0.57002
4.664,0.33786
4.668,0.12102
4.672,-0.01989
4.676,-0.11946
4.68,-0.14896
4.684,-0.14612
4.688,-0.10396
4.692,-0.02238
4.696,0.01668
4.7,0.01791
4.704,0.03673
4.708,0.03734
4.712,0.02173
4.716,0.04988
4.72,0.04917
4.724,0.03856
4.728,0.03417
4.732,0.0492
4.736,0.00025
4.74,0.03982
4.744,0.03454
4.748,0.02447
4.752,0.03304
4.756,0.05724
4.76,0.03197
4.764,0.02941
4.768,0.052
4.772,0.03057
4.776,0.03201
4.78,0.02876
4.784,0.01559
4.788,0.0658
4.792,0.03609
4.796,0.04125
4.8,0.01654
4.804,0.03551
4.808,0.02683
4.812,0.02904
4.816,0.05017
4.82,0.04392
4.824,0.04532
4.828,0.05629
4.832,0.05206
4.836,0.05977
4.84,0.07506
4.844,0.07304
4.848,0.07135
4.852,0.07865
4.856,0.10334
4.86,0.1094
4.864,0.10765
4.868,0.12893
4.872,0.13826
4.876,0.14195
4.88,0.14633
4.884,0.14888
4.888,0.18993
4.892,0.18245
4.896,0.21124
4.9,0.20485
4.904,0.2097
4.908,0.21733
4.912,0.24907
4.916,0.27385
4.92,0.21842
4.924,0.2605
4.928,0.26901
4.932,0.2367
4.936,0.24924
4.94,0.252
4.944,0.23893
4.948,0.22377
4.952,0.24288
4.956,0.22827
4.96,0.18854
4.964,0.19317
4.968,0.19815
4.972,0.18456
4.976,0.18539
4.98,0.11481
4.984,0.09699
4.988,0.09833
4.992,0.11886
4.996,0.12308
5.0,0.08463
5.004,0.07632
5.008,0.07943
5.012,0.08652
5.016,0.07514
5.02,0.08164
5.024,0.04937
5.028,0.04052
5.032,0.0312
5.036,0.04255
5.04,0.04104
5.044,0.02736
5.048,0.03034
5.052,0.0525
5.056,0.02667
5.06,0.06448
5.064,0.02381
5.068,0.06531
5.072,0.06466
5.076,0.06425
5.08,0.05788
5.084,0.08972
5.088,0.11155
5.092,0.09716
5.096,0.12223
5.1,0.11313
5.104,0.14211
5.108,0.10936
5.112,0.11918
5.116,0.13659
5.12,0.11912
5.124,0.10627
5.128,0.07639
5.132,0.07679
5.136,0.07372
5.14,0.04593
5.144,0.03977
5.148,0.06056
5.152,0.00317
5.156,0.044
5.16,0.04158
5.164,0.03187
5.168,-7e-05
5.172,0.01212
5.176,0.00417
5.18,0.02545
5.184,0.0393
5.188,0.06232
5.192,0.04018
5.196,0.03073
5.2,0.03812
5.204,0.02658
5.208,0.032
5.212,0.01761
5.216,0.01871
5.22,0.00019
5.224,-0.01969
5.228,-0.02637
5.232,-0.07461
5.236,-0.07133
5.24,-0.02555
5.244,0.1
5.248,0.28731
5.252,0.51115
5.256,0.69263
5.26,0.90575
5.264,1.00745
5.268,1.00344
5.272,0.91508
5.276,0.71918
5.28,0.50572
5.284,0.30995
5.288,0.07696
5.292,-0.07345
5.296,-0.09721
5.3,-0.13297
5.304,-0.1152
5.308,-0.08518
5.312,-0.03213
5.316,-0.00993
5.32,0.02845
5.324,0.0423
5.328,0.02889
5.332,0.01802
5.336,0.05729
5.34,0.01275
5.344,0.0257
5.348,0.0432
5.352,0.02627
5.356,0.03597
5.36,0.05273
5.364,0.03378
5.368,0.02189
5.372,0.02449
5.376,0.03061
5.38,0.01777
5.384,0.03739
5.388,0.04421
5.392,0.02187
5.396,0.00976
5.4,0.02452
5.404,0.04088
5.408,0.03385
5.412,0.01077
5.416,0.00599
5.42,0.03638
5.424,0.0445
5.428,-0.00981
5.432,0.04794
5.436,0.04778
5.44,0.04977
5.444,0.03708
5.448,0.05244
5.452,0.02938
5.456,0.05974
5.46,0.04902
5.464,0.06357
5.468,0.09052
5.472,0.08682
5.476,0.10124
5.48,0.08339
5.484,0.11955
5.488,0.12228
5.492,0.13817
5.496,0.17542
5.5,0.13467
5.504,0.17277
5.508,0.17501
5.512,0.18623
5.516,0.20665
5.52,0.21023
5.524,0.22276
5.528,0.24386
5.532,0.21242
5.536,0.25876
5.54,0.22474
5.544,0.22991
5.548,0.24923
5.552,0.23109
5.556,0.23485
5.56,0.2293
5.564,0.23833
5.568,0.2053
5.572,0.2025
5.576,0.20124
5.58,0.18235
5.584,0.17961
5.588,0.1845
5.592,0.15002
5.596,0.13339
5.6,0.10745
5.604,0.13648
5.608,0.08414
5.612,0.10836
5.616,0.09558
5.62,0.05204
5.624,0.0854
5.628,0.06883
5.632,0.07118
5.636,0.04505
5.64,0.05105
5.644,0.02154
5.648,0.05139
5.652,0.02977
5.656,0.04805
5.66,0.04629
5.664,0.01885
5.668,0.00623
5.672,0.00747
5.676,-0.00997
5.68,0.03746
5.684,0.02223
5.688,0.03084
5.692,0.03128
5.696,0.0069
5.7,0.0235
5.704,0.02899
5.708,0.01144
5.712,0.02943
5.716,0.02644
5.72,0.0296
5.724,0.05457
5.728,0.03364
5.732,0.06219
5.736,0.0748
5.74,0.09414
5.744,0.07953
5.748,0.10584
5.752,0.14073
5.756,0.08231
5.76,0.1315
5.764,0.08988
5.768,0.1145
5.772,0.08081
5.776,0.094
5.78,0.03129
5.784,0.04171
5.788,0.05403
5.792,0.02196
5.796,0.01299
5.8,0.03298
5.804,0.04823
5.808,0.02514
5.812,0.01207
5.816,0.01806
5.82,0.02102
5.824,-0.00034
5.828,0.0253
5.832,0.02846
5.836,0.0154
5.84,0.01982
5.844,-0.0026
5.848,0.01069
5.852,0.01445
5.856,0.0005
5.86,-0.00164
5.864,0.01513
5.868,0.0114
5.872,-0.00404
5.876,-0.07043
5.88,-0.07317
5.884,-0.10452
5.888,-0.03683
5.892,0.04404
5.896,0.19533
5.9,0.37847
5.904,0.61214
5.908,0.8167
5.912,0.96522
5.916,1.02052
5.92,0.96881
5.924,0.7869
5.928,0.56385
5.932,0.3494
5.936,0.12579
5.94,-0.01191
5.944,-0.09965
5.948,-0.15732
5.952,-0.17111
5.956,-0.1012
5.96,-0.06638
5.964,-0.023
5.968,-0.02365
5.972,0.01516
5.976,0.02003
5.98,0.02087
5.984,-0.00207
5.988,0.04313
5.992,0.02303
5.996,0.02349
6.0,0.02224
6.004,0.01506
6.008,0.0087
6.012,0.04759
6.016,0.02173
6.02,0.01689
6.024,-0.00039
6.028,-0.0008
6.032,0.00149
6.036,0.026
6.04,0.01342
6.044,0.00767
6.048,0.01186
6.052,0.02226
6.056,0.01767
6.06,0.01212
6.064,0.00709
6.068,0.03332
6.072,0.02951
6.076,-0.00266
6.08,0.02571
6.084,-0.01485
6.088,0.00832
6.092,0.00853
6.096,0.0245
6.1,0.03059
6.104,0.05109
6.108,0.06662
6.112,0.02846
6.116,0.06961
6.12,0.04957
6.124,0.08331
6.128,0.09902
6.132,0.07435
6.136,0.11346
6.14,0.10858
6.144,0.11387
6.148,0.15712
6.152,0.10661
6.156,0.12652
6.16,0.1658
6.164,0.17493
6.168,0.17751
6.172,0.18872
6.176,0.2115
6.18,0.24625
6.184,0.22302
6.188,0.22733
6.192,0.22088
6.196,0.2317
6.2,0.20049
6.204,0.20711
6.208,0.21154
6.212,0.20684
6.216,0.20122
6.22,0.20812
6.224,0.21485
6.228,0.182
6.232,0.13897
6.236,0.14384
6.24,0.17974
6.244,0.10718
6.248,0.11417
6.252,0.10879
6.256,0.08889
6.26,0.08596
6.264,0.06683
6.268,0.08253
6.272,0.05598
6.276,0.08202
6.28,0.03723
6.284,0.02882
6.288,0.0365
6.292,0.01582
6.296,0.02603
6.3,0.00953
6.304,0.02222
6.308,0.01104
6.312,0.02303
6.316,0.00269
6.32,-0.00635
6.324,0.02023
6.328,-0.00077
6.332,0.02167
6.336,0.01783
6.34,-0.01685
6.344,-0.00654
6.348,-0.00276
6.352,0.01909
6.356,0.00505
6.36,0.00981
6.364,-0.00087
6.368,-0.00327
6.372,0.00392
6.376,0.02576
6.38,-0.0186
6.384,0.02141
6.388,0.01774
6.392,0.00042
6.396,0.01333
6.4,0.01348
6.404,0.00826
6.408,0.01675
6.412,-0.00991
6.416,0.0001
6.42,0.00204
6.424,-0.00539
6.428,-0.00736
6.432,-0.01524
6.436,-0.011
6.44,0.03316
6.444,0.01002
6.448,-0.00486
6.452,-0.00188
6.456,-0.00139
6.46,0.00316
6.464,0.00323
6.468,0.00091
6.472,-0.00418
6.476,-0.0183
6.48,-0.0135
6.484,-0.00874
6.488,-0.01043
6.492,0.01175
6.496,-0.01062
6.5,0.00895
6.504,-0.01542
6.508,-0.0095
6.512,-0.01149
6.516,0.01733
6.52,-0.02669
6.524,0.00047
6.528,-0.00834
6.532,0.0353
6.536,0.01467
6.54,0.00081
6.544,0.04193
6.548,0.04252
6.552,0.0611
6.556,0.04201
6.56,0.07727
6.564,0.06471
6.568,0.09152
6.572,0.09532
6.576,0.10946
6.58,0.06059
6.584,0.08617
6.588,0.06973
6.592,0.08878
6.596,0.03656
6.6,0.03124
6.604,-0.008
6.608,0.00581
6.612,0.00674
6.616,0.03466
6.62,0.01693
6.624,-0.02253
6.628,-0.00543
6.632,0.019
6.636,0.02108
6.64,-0.00274
6.644,-0.01799
6.648,0.00571
6.652,-0.00317
6.656,0.00131
6.66,-0.01722
6.664,-0.01424
6.668,4e-05
6.672,0.03304
6.676,0.00975
6.68,-0.0016
6.684,-0.0335
6.688,-0.01998
6.692,-0.05217
6.696,-0.11401
6.7,-0.08964
6.704,-0.09213
6.708,-0.00664
6.712,0.15142
6.716,0.3143
6.72,0.56798
6.724,0.74467
6.728,0.8998
6.732,0.97603
6.736,0.96629
6.74,0.82895
6.744,0.64375
6.748,0.38459
6.752,0.15887
6.756,-0.03205
6.76,-0.13876
6.764,-0.18121
6.768,-0.14761
6.772,-0.14218
6.776,-0.08115
6.78,-0.04075
6.784,-0.02519
6.788,0.00261
6.792,0.02349
6.796,-0.01424
6.8,-0.01972
6.804,0.00059
6.808,-0.02041
6.812,-0.00454
6.816,-0.00721
6.82,0.00357
6.824,-0.00742
6.828,-0.02871
6.832,-0.01455
6.836,0.0087
6.84,-0.0121
6.844,-0.00426
6.848,-0.0133
6.852,-0.0083
6.856,-0.00626
6.86,-0.03398
6.864,0.00682
6.868,0.00586
6.872,-0.0159
6.876,-0.03987
6.88,-0.05566
6.884,-0.01929
6.888,-0.00749
6.892,0.01229
6.896,-0.01514
6.9,-0.01165
6.904,0.00056
6.908,0.01868
6.912,-0.00776
6.916,0.01943
6.92,-0.00242
6.924,0.01104
6.928,0.03078
6.932,0.02952
6.936,0.06677
6.94,0.04496
6.944,0.05134
6.948,0.08768
6.952,0.1056
6.956,0.10199
6.96,0.10641
6.964,0.11044
6.968,0.12207
6.972,0.11635
6.976,0.15974
6.98,0.17127
6.984,0.17422
6.988,0.16611
6.992,0.20457
6.996,0.1928
7.0,0.20968
7.004,0.21024
7.008,0.20747
7.012,0.22359
7.016,0.21154
7.02,0.21411
7.024,0.20737
7.028,0.17746
7.032,0.17508
7.036,0.17692
7.04,0.16678
7.044,0.13618
7.048,0.17987
7.052,0.13442
7.056,0.12958
7.06,0.11596
7.064,0.11206
7.068,0.10885
7.072,0.06936
7.076,0.0632
7.08,0.05783
7.084,0.04646
7.088,0.02406
7.092,0.05543
7.096,0.0056
7.1,0.02406
7.104,0.01692
7.108,-0.02076
7.112,-0.00048
7.116,-0.00441
7.12,-0.00931
7.124,-0.02415
7.128,-0.02121
7.132,-0.01445
7.136,-0.03876
7.14,0.03098
7.144,-0.02224
7.148,-0.0364
7.152,-0.0225
7.156,0.01741
7.16,-0.03494
7.164,-0.01819
7.168,-0.02337
7.172,-0.0258
7.176,-0.01128
7.18,-0.00768
7.184,-0.00284
7.188,-0.00652
7.192,0.02379
7.196,-0.02101
7.2,-0.01741
7.204,-0.01931
7.208,-0.01125
7.212,0.01732
7.216,0.01881
7.22,0.00687
7.224,0.00454
7.228,0.00911
7.232,0.03538
7.236,0.03917
7.24,0.06352
7.244,0.06305
7.248,0.08222
7.252,0.06475
7.256,0.08531
7.26,0.09077
7.264,0.0869
7.268,0.03652
7.272,0.01172
7.276,0.06142
7.28,0.0307
7.284,-0.00715
7.288,0.0033
7.292,-0.00275
7.296,0.01573
7.3,-0.02481
7.304,-0.00532
7.308,-0.03225
7.312,0.00043
7.316,-0.0215
7.32,-0.00472
7.324,0.00064
7.328,-0.02567
7.332,-0.02483
7.336,-0.00605
7.34,-0.0376
7.344,-0.0083
7.348,-0.03212
7.352,-0.02238
7.356,-0.0223
7.36,-0.00853
7.364,-0.02697
7.368,-0.02706
7.372,-0.07655
7.376,-0.08005
7.38,-0.137
7.384,-0.11808
7.388,-0.08236
7.392,0.00457
7.396,0.15023
7.4,0.38003
7.404,0.56152
7.408,0.79122
7.412,0.89606
7.416,0.98566
7.42,0.92597
7.424,0.76533
7.428,0.54299
7.432,0.30787
7.436,0.09645
7.44,-0.06201
7.444,-0.15664
7.448,-0.18516
7.452,-0.17728
7.456,-0.1604
7.46,-0.11564
7.464,-0.06523
7.468,-0.0168
7.472,-0.05132
7.476,-0.05524
7.48,-0.00286
7.484,-0.05212
7.488,-0.00747
7.492,-0.00186
7.496,-0.03034
7.5,-0.03255
7.504,-0.02713
7.508,-0.01877
7.512,0.00163
7.516,-0.04987
7.52,-0.02488
7.524,-0.02962
7.528,0.01458
7.532,-0.03727
7.536,-0.02293
7.54,-0.00526
7.544,-0.02281
7.548,0.00826
7.552,-0.03725
7.556,-0.0274
7.56,-0.02456
7.564,-0.02145
7.568,-0.00564
7.572,-0.02046
7.576,-0.04475
7.58,-0.01367
7.584,-0.0188
7.588,0.00528
7.592,-0.02159
7.596,-0.00584
7.6,0.01867
7.604,-0.02305
7.608,0.03589
7.612,0.02829
7.616,0.02199
7.62,0.01615
7.624,0.04753
7.628,0.06336
7.632,0.06501
7.636,0.08936
7.64,0.0675
7.644,0.10011
7.648,0.11063
7.652,0.12773
7.656,0.12495
7.66,0.13804
7.664,0.14623
7.668,0.16206
7.672,0.17261
7.676,0.18003
7.68,0.18403
7.684,0.17157
7.688,0.21093
7.692,0.19291
7.696,0.19436
7.7,0.1932
7.704,0.16682
7.708,0.20026
7.712,0.15787
7.716,0.18728
7.72,0.16605
7.724,0.15028
7.728,0.1417
7.732,0.1243
7.736,0.10723
7.74,0.1066
7.744,0.1052
7.748,0.09136
7.752,0.10175
7.756,0.02839
7.76,0.0609
7.764,0.03252
7.768,0.00248
7.772,0.03054
7.776,0.02265
7.78,0.0109
7.784,-0.00764
7.788,-0.01802
7.792,-0.00082
7.796,-0.01217
7.8,-0.02234
7.804,0.00182
7.808,-0.01736
7.812,-0.03769
7.816,-0.03941
7.82,-0.03529
7.824,-0.00861
7.828,-0.00054
7.832,-0.02867
7.836,-0.04472
7.84,-0.03293
7.844,-0.00982
7.848,-0.02109
7.852,-0.01888
7.856,-0.0641
7.86,-0.0048
7.864,-0.03581
7.868,-0.01468
7.872,-0.03081
7.876,-0.03244
7.88,-0.00616
7.884,-0.01475
7.888,-0.0253
7.892,-0.05513
7.896,-0.02418
7.9,-0.01483
7.904,-0.00584
7.908,0.00422
7.912,-0.02846
7.916,-0.03035
7.92,-0.03561
7.924,-0.0498
7.928,-0.01705
7.932,-0.02484
7.936,-0.01718
7.94,-0.01204
7.944,-0.07036
7.948,-0.04703
7.952,-0.0314
7.956,0.00082
7.96,-0.03491
7.964,-0.0289
7.968,-0.04818
7.972,-0.01578
7.976,-0.00225
7.98,-0.0405
7.984,-0.00427
7.988,-0.03727
7.992,-0.04666
7.996,-0.01741
8.0,-0.03461
8.004,-0.01508
8.008,0.02701
8.012,0.02007
8.016,0.06752
8.02,0.04896
8.024,0.05097
8.028,0.09823
8.032,0.06769
8.036,0.09371
8.04,0.05913
8.044,0.04696
8.048,0.06428
8.052,0.03701
8.056,0.05092
8.06,0.02417
8.064,0.0099
8.068,-0.02172
8.072,-0.0215
8.076,-0.02997
8.08,-0.03044
8.084,-0.02697
8.088,-0.01802
8.092,-0.04448
8.096,-0.03698
8.1,-0.01265
8.104,-0.04056
8.108,-0.0476
8.112,-0.00219
8.116,-0.03683
8.12,-0.05492
8.124,0.01999
8.128,-0.04827
8.132,-0.02295
8.136,-0.03782
8.14,-0.01802
8.144,-0.06841
8.148,-0.02724
8.152,-0.06058
8.156,-0.08874
8.16,-0.14814
8.164,-0.14905
8.168,-0.09398
8.172,0.01418
8.176,0.20359
8.18,0.44326
8.184,0.6425
8.188,0.82948
8.192,0.92629
8.196,0.96547
8.2,0.85057
8.204,0.69732
8.208,0.46183
8.212,0.23873
8.216,0.04572
8.22,-0.12059
8.224,-0.23408
8.228,-0.21319
8.232,-0.20168
8.236,-0.12501
8.24,-0.10961
8.244,-0.06526
8.248,-0.01786
8.252,-0.02422
8.256,-0.00845
8.26,0.01456
8.264,-0.02759
8.268,-0.01187
8.272,-0.039
8.276,-0.07299
8.28,-0.04069
8.284,-0.03682
8.288,0.0122
8.292,-0.05433
8.296,-0.02122
8.3,-0.01566
8.304,0.00518
8.308,-0.01748
8.312,-0.01875
8.316,-0.03055
8.32,-0.03076
8.324,-0.05053
8.328,-0.02762
8.332,-0.00896
8.336,-0.02583
8.34,-0.00453
8.344,-0.03916
8.348,-0.02155
8.352,-0.04398
8.356,-0.03126
8.36,-0.04074
8.364,-0.02139
8.368,-0.01942
8.372,-0.02506
8.376,-0.00318
8.38,0.01665
8.384,0.01443
8.388,-0.01444
8.392,0.02906
8.396,0.02754
8.4,0.01074
8.404,0.04384
8.408,0.04133
8.412,0.07717
8.416,0.06317
8.42,0.06024
8.424,0.11256
8.428,0.08674
8.432,0.13112
8.436,0.12658
8.44,0.1427
8.444,0.13777
8.448,0.18296
8.452,0.1491
8.456,0.15756
8.46,0.16722
8.464,0.22948
8.468,0.18516
8.472,0.19173
8.476,0.19834
8.48,0.19034
8.484,0.21072
8.488,0.1747
8.492,0.1643
8.496,0.19834
8.5,0.16752
8.504,0.13084
8.508,0.14751
8.512,0.12908
8.516,0.12167
8.52,0.07748
8.524,0.1128
8.528,0.07418
8.532,0.04629
8.536,0.06627
8.54,0.04125
8.544,0.03599
8.548,0.02304
8.552,0.01477
8.556,0.03301
8.56,0.02796
8.564,-0.00181
8.568,0.00292
8.572,-0.01038
8.576,-0.01627
8.58,-0.00099
8.584,-0.01112
8.588,-0.03935
8.592,-0.0253
8.596,-0.03847
8.6,-0.03821
8.604,-0.05219
8.608,-0.03409
8.612,-0.02975
8.616,-0.03846
8.62,-0.02531
8.624,-0.00381
8.628,-0.02021
8.632,-0.04082
8.636,-0.02095
8.64,-0.02318
8.644,-0.00675
8.648,-0.01019
8.652,-0.0406
8.656,-0.01342
8.66,-0.00533
8.664,-0.01965
8.668,0.00038
8.672,-0.0238
8.676,-0.01272
8.68,-0.0416
8.684,-0.01457
8.688,-0.04141
8.692,-0.0227
8.696,-0.02069
8.7,-0.03704
8.704,-0.03904
8.708,-0.01712
8.712,-0.02132
8.716,-0.02811
8.72,-0.01375
8.724,-0.04317
8.728,-0.00987
8.732,-0.01407
8.736,-0.02298
8.74,-0.03939
8.744,-0.03622
8.748,-0.03891
8.752,-0.01994
8.756,-0.02221
8.76,-0.01273
8.764,-0.01999
8.768,-0.0207
8.772,-0.02823
8.776,-0.03102
8.78,-0.03822
8.784,-0.05313
8.788,-0.02003
8.792,-0.03404
8.796,-0.03844
8.8,-0.0219
8.804,-0.0315
8.808,-0.03916
8.812,-0.02093
8.816,-0.01337
8.82,-0.0255
8.824,-0.04011
8.828,-0.02601
8.832,-0.05003
8.836,-0.03954
8.84,-0.0168
8.844,-0.01613
8.848,-0.01573
8.852,-0.04157
8.856,-0.0015
8.86,0.00764
8.864,-0.01217
8.868,-0.01959
8.872,-0.03731
8.876,-0.01712
8.88,0.00067
8.884,-0.02746
8.888,0.00249
8.892,-0.0104
8.896,-0.00758
8.9,-0.00508
8.904,0.01128
8.908,0.02228
8.912,0.06023
8.916,0.05122
8.92,0.0652
8.924,0.07394
8.928,0.0787
8.932,0.07351
8.936,0.05179
8.94,0.09085
8.944,0.09249
8.948,0.06203
8.952,0.07628
8.956,0.04474
8.96,0.04541
8.964,0.01545
8.968,-0.00057
8.972,0.01586
8.976,0.00212
8.98,-0.02649
8.984,0.00384
8.988,-0.01195
8.992,-0.02814
8.996,-0.006
9.0,-0.02472
9.004,-0.03242
9.008,-0.02577
9.012,-0.02826
9.016,-0.00658
9.02,-0.05633
9.024,-0.02763
9.028,-0.01575
9.032,-0.01306
9.036,-0.01
9.04,-0.02459
9.044,-0.03653
9.048,-0.04017
9.052,-0.07083
9.056,-0.09898
9.06,-0.13485
9.064,-0.13925
9.068,-0.0749
9.072,0.02072
9.076,0.1659
9.08,0.39647
9.084,0.6173
9.088,0.80057
9.092,0.94799
9.096,0.96209
9.1,0.86739
9.104,0.73725
9.108,0.501
9.112,0.28297
9.116,0.08766
9.12,-0.05509
9.124,-0.14582
9.128,-0.17417
9.132,-0.16668
9.136,-0.13156
9.14,-0.10329
9.144,-0.06309
9.148,-0.03212
9.152,-0.03043
9.156,-0.02125
9.16,-0.01038
9.164,-0.0061
9.168,-0.03301
9.172,-0.01347
9.176,-0.02945
9.18,-0.00379
9.184,0.00251
9.188,-0.02142
9.192,-0.01295
9.196,-0.03104
9.2,-0.043
9.204,-0.00163
9.208,-0.00621
9.212,-0.0217
9.216,-0.01647
9.22,-0.02935
9.224,-0.00857
9.228,-0.03111
9.232,-0.04454
9.236,-0.01884
9.24,0.02217
9.244,-0.04464
9.248,-0.00579
9.252,-0.01838
9.256,0.00285
9.26,0.0158
9.264,0.00511
9.268,0.02563
9.272,-0.00169
9.276,0.02165
9.28,0.0087
9.284,0.01521
9.288,-0.00351
9.292,0.03169
9.296,0.02354
9.3,0.02439
9.304,0.09958
9.308,0.05691
9.312,0.05355
9.316,0.07586
9.32,0.08583
9.324,0.10545
9.328,0.13646
9.332,0.14135
9.336,0.15295
9.34,0.17687
9.344,0.13404
9.348,0.1534
9.352,0.19803
9.356,0.17177
9.36,0.18571
9.364,0.19478
9.368,0.2019
9.372,0.22361
9.376,0.23063
9.38,0.21065
9.384,0.20819
9.388,0.22674
9.392,0.1899
9.396,0.19579
9.4,0.17695
9.404,0.1545
9.408,0.1465
9.412,0.13254
9.416,0.12486
9.42,0.10855
9.424,0.13567
9.428,0.09778
9.432,0.09166
9.436,0.05767
9.44,0.09596
9.444,0.08402
9.448,0.05107
9.452,0.03719
9.456,0.0297
9.46,0.02108
9.464,0.00521
9.468,0.02379
9.472,0.00833
9.476,0.00523
9.48,0.01833
9.484,-0.00615
9.488,0.00602
9.492,0.00814
9.496,0.00368
9.5,-0.00747
9.504,-0.01499
9.508,-0.00401
9.512,-0.0053
9.516,-0.01124
9.52,0.02285
9.524,0.02433
9.528,-0.01597
9.532,-0.00054
9.536,-0.00822
9.54,-0.02788
9.544,-0.0137
9.548,-0.00919
9.552,-0.0167
9.556,-0.02288
9.56,-0.00342
9.564,-0.02459
9.568,-0.02553
9.572,-0.02048
9.576,0.00084
9.58,-0.02906
9.584,0.01075
9.588,-0.01733
9.592,-0.0078
9.596,-0.02008
9.6,-0.00781
9.604,-0.01334
9.608,0.03006
9.612,-0.00353
9.616,6e-05
9.62,0.00696
9.624,-0.00965
9.628,-0.01263
9.632,0.00094
9.636,0.02285
9.64,-0.00493
9.644,-0.01969
9.648,-0.01421
9.652,-0.01149
9.656,-0.00329
9.66,-0.02729
9.664,-0.00964
9.668,-0.03252
9.672,-0.02719
9.676,-0.01512
9.68,-0.00307
9.684,0.02394
9.688,-0.02622
9.692,0.00507
9.696,-0.00625
9.7,-0.00681
9.704,0.00391
9.708,-0.00235
9.712,-0.00221
9.716,-0.0245
9.72,0.00822
9.724,0.00046
9.728,-0.01473
9.732,0.02441
9.736,0.00324
9.74,-0.01747
9.744,0.01159
9.748,0.04731
9.752,0.03497
9.756,0.01157
9.76,0.03243
9.764,0.03655
9.768,0.06518
9.772,0.10345
9.776,0.1122
9.78,0.09399
9.784,0.1078
9.788,0.09711
9.792,0.0948
9.796,0.09993
9.8,0.07313
9.804,0.06383
9.808,0.05382
9.812,0.02318
9.816,0.03622
9.82,0.04313
9.824,0.0056
9.828,-0.00578
9.832,0.03546
9.836,0.00766
9.84,-0.00492
9.844,0.0085
9.848,0.02938
9.852,0.00729
9.856,-0.00033
9.86,-0.00498
9.864,0.01143
9.868,0.01299
9.872,0.01136
9.876,-0.03049
9.88,0.00898
9.884,0.02417
9.888,-0.0058
9.892,-0.01786
9.896,-0.01907
9.9,-0.01527
9.904,-0.04308
9.908,-0.10138
9.912,-0.1145
9.916,-0.0888
9.92,-0.00443
9.924,0.09153
9.928,0.3129
9.932,0.50032
9.936,0.7175
9.94,0.8775
9.944,0.99988
9.948,0.98538
9.952,0.88872
9.956,0.67749
9.96,0.43963
9.964,0.22734
9.968,0.04727
9.972,-0.09239
9.976,-0.13195
9.98,-0.16608
9.984,-0.11682
9.988,-0.07162
9.992,-0.0376
9.996,-0.02603
