t_seg,ecg_mV
0.0,0.01566
0.004,-0.00046
0.008,0.01443
0.012,-0.01219
0.016,0.00541
0.02,-0.02816
0.024,-0.04596
0.028,-0.1106
0.032,-0.12048
0.036,-0.11325
0.04,0.0077
0.044,0.15433
0.048,0.36493
0.052,0.61793
0.056,0.80956
0.06,0.94843
0.064,0.99
0.068,0.93206
0.072,0.80111
0.076,0.56062
0.08,0.34649
0.084,0.12746
0.088,-0.03061
0.092,-0.13691
0.096,-0.17804
0.1,-0.15296
0.104,-0.13231
0.108,-0.09316
0.112,-0.04219
0.116,-0.00933
0.12,-0.01326
0.124,0.01252
0.128,0.00281
0.132,-0.03468
0.136,0.00266
0.14,0.02684
0.144,0.01096
0.148,-0.00576
0.152,-0.03811
0.156,-0.00689
0.16,0.01573
0.164,-0.00544
0.168,0.02102
0.172,-0.0158
0.176,-0.00805
0.18,0.00082
0.184,0.03424
0.188,0.03163
0.192,0.00459
0.196,0.01813
0.2,0.00124
0.204,0.02365
0.208,0.00017
0.212,0.00702
0.216,-0.00202
0.22,0.03888
0.224,-0.00275
0.228,-0.00477
0.232,0.02782
0.236,0.00755
0.24,0.01265
0.244,0.04722
0.248,0.01566
0.252,0.01956
0.256,0.04085
0.26,0.02671
0.264,0.05671
0.268,0.04667
0.272,0.07209
0.276,0.06075
0.28,0.07264
0.284,0.06609
0.288,0.09756
0.292,0.09022
0.296,0.12888
0.3,0.12634
0.304,0.17436
0.308,0.15981
0.312,0.15331
0.316,0.17739
0.32,0.19437
0.324,0.20411
0.328,0.22804
0.332,0.233
0.336,0.23719
0.34,0.22605
0.344,0.23184
0.348,0.22991
0.352,0.2111
0.356,0.23828
0.36,0.18065
0.364,0.20588
0.368,0.18811
0.372,0.19306
0.376,0.19398
0.38,0.18297
0.384,0.13418
0.388,0.12744
0.392,0.11821
0.396,0.10316
0.4,0.10302
0.404,0.10849
0.408,0.09562
0.412,0.09069
0.416,0.06715
0.42,0.07282
0.424,0.0866
0.428,0.04262
0.432,0.04904
0.436,0.02465
0.44,0.03616
0.444,0.03936
0.448,0.02245
0.452,-0.00056
0.456,0.03102
0.46,0.03762
0.464,0.0484
0.468,0.00077
0.472,0.01587
0.476,0.00979
0.48,-0.0205
0.484,0.0059
0.488,-0.01117
0.492,-0.00852
0.496,0.00382
0.5,0.01572
0.504,0.01956
0.508,0.012
0.512,0.01001
0.516,0.02065
0.52,0.01169
0.524,0.01698
0.528,0.03689
0.532,0.00486
0.536,-0.02444
0.54,-0.02732
0.544,0.01582
0.548,0.01033
0.552,0.00111
0.556,-0.00187
0.56,0.03239
0.564,-0.00152
0.568,-0.01148
0.572,0.04101
0.576,0.01752
0.58,-0.00654
0.584,0.02502
0.588,0.02667
0.592,0.00764
0.596,0.03548
0.6,0.00532
0.604,0.00944
0.608,0.00837
0.612,0.02817
0.616,-0.00555
0.62,0.02754
0.624,0.02454
0.628,-0.01141
0.632,0.0158
0.636,-0.00062
0.64,0.00855
0.644,0.00155
0.648,0.04332
0.652,0.04038
0.656,0.06146
0.66,0.05
0.664,0.07897
0.668,0.03618
0.672,0.08487
0.676,0.07287
0.68,0.09914
0.684,0.10846
0.688,0.10652
0.692,0.11734
0.696,0.09301
0.7,0.10569
0.704,0.09149
0.708,0.05387
0.712,0.04393
0.716,0.06304
0.72,0.02375
0.724,0.04067
0.728,0.01383
0.732,0.04228
0.736,0.03209
0.74,0.02355
0.744,0.02083
0.748,0.01675
0.752,0.05151
0.756,0.02902
0.76,0.02552
0.764,-0.00108
0.768,0.04001
0.772,0.00184
0.776,0.02203
0.78,0.01345
0.784,0.01833
0.788,0.01424
0.792,0.00115
0.796,0.01135
0.8,-0.00834
0.804,-0.01788
0.808,-0.06382
0.812,-0.09265
0.816,-0.10893
0.82,-0.02846
0.824,0.06037
0.828,0.24878
0.832,0.47459
0.836,0.65939
0.84,0.88994
0.844,0.98663
0.848,1.02297
0.852,0.95124
0.856,0.73526
0.86,0.49804
0.864,0.27874
0.868,0.09423
0.872,-0.06691
0.876,-0.14404
0.88,-0.12059
0.884,-0.09911
0.888,-0.07969
0.892,-0.05915
0.896,-0.00952
0.9,0.00775
0.904,0.00237
0.908,0.01204
0.912,0.00098
0.916,0.04092
0.92,0.00764
0.924,0.04193
0.928,-0.00469
0.932,0.03951
0.936,0.04422
0.94,0.01035
0.944,0.01873
0.948,0.01837
0.952,0.00615
0.956,0.04835
0.96,0.00152
0.964,0.01208
0.968,0.01918
0.972,-0.00549
0.976,0.01277
0.98,0.03424
0.984,0.02306
0.988,-0.00085
0.992,0.06089
0.996,0.01564
1.0,0.02117
1.004,0.0277
1.008,0.05726
1.012,0.03767
1.016,0.05129
1.02,0.03869
1.024,0.03528
1.028,0.04274
1.032,0.01004
1.036,0.05759
1.04,0.07473
1.044,0.03258
1.048,0.06968
1.052,0.08436
1.056,0.08638
1.06,0.10424
1.064,0.12039
1.068,0.13829
1.072,0.13223
1.076,0.12208
1.08,0.13361
1.084,0.14503
1.088,0.17982
1.092,0.1695
1.096,0.18024
1.1,0.22359
1.104,0.21577
1.108,0.23021
1.112,0.21098
1.116,0.231
1.12,0.23599
1.124,0.26354
1.128,0.25465
1.132,0.25345
1.136,0.20402
1.14,0.21719
1.144,0.24116
1.148,0.22737
1.152,0.23516
1.156,0.21745
1.16,0.17585
1.164,0.189
1.168,0.15919
1.172,0.15496
1.176,0.13892
1.18,0.13117
1.184,0.09967
1.188,0.12471
1.192,0.14619
1.196,0.09562
1.2,0.08208
1.204,0.05916
1.208,0.10134
1.212,0.06566
1.216,0.08159
1.22,0.05096
1.224,0.04094
1.228,0.05732
1.232,0.02982
1.236,0.00948
1.24,0.05169
1.244,0.03862
1.248,0.04719
1.252,0.03317
1.256,0.02186
1.26,0.02387
1.264,0.04443
1.268,0.01666
1.272,0.04195
1.276,0.03503
1.28,0.03271
1.284,0.01744
1.288,0.01221
1.292,0.03827
1.296,0.03057
1.3,0.00441
1.304,0.05243
1.308,0.0445
1.312,0.02976
1.316,0.02461
1.32,0.02918
1.324,0.04498
1.328,0.00504
1.332,0.02689
1.336,0.04147
1.34,0.04635
1.344,0.01183
1.348,0.03936
1.352,0.01984
1.356,0.03011
1.36,0.01091
1.364,0.03335
1.368,0.01898
1.372,0.0251
1.376,0.03409
1.38,0.05625
1.384,0.02566
1.388,0.01645
1.392,0.01938
1.396,0.05948
1.4,0.02955
1.404,0.00405
1.408,0.03152
1.412,0.01969
1.416,0.02463
1.42,0.01234
1.424,0.04401
1.428,0.03127
1.432,0.02558
1.436,0.03861
1.44,0.06618
1.444,0.04269
1.448,0.05768
1.452,0.07964
1.456,0.06275
1.46,0.09819
1.464,0.09492
1.468,0.11221
1.472,0.13182
1.476,0.10855
1.48,0.12822
1.484,0.1338
1.488,0.1333
1.492,0.10425
1.496,0.08626
1.5,0.07994
1.504,0.0922
1.508,0.05924
1.512,0.05133
1.516,0.06835
1.52,0.0432
1.524,0.04869
1.528,0.02909
1.532,0.03518
1.536,0.04746
1.54,0.02983
1.544,0.02622
1.548,0.04232
1.552,0.03449
1.556,0.01349
1.56,0.02226
1.564,0.0455
1.568,0.04279
1.572,0.04044
1.576,0.03867
1.58,0.04145
1.584,0.04799
1.588,0.03004
1.592,0.002
1.596,0.00861
1.6,-0.03651
1.604,-0.0704
1.608,-0.05044
1.612,-0.04759
1.616,0.0217
1.62,0.19861
1.624,0.41867
1.628,0.61233
1.632,0.78149
1.636,0.97474
1.64,1.00793
1.644,0.9942
1.648,0.83932
1.652,0.60219
1.656,0.38699
1.66,0.16674
1.664,-0.01068
1.668,-0.0984
1.672,-0.14949
1.676,-0.12229
1.68,-0.08811
1.684,-0.02516
1.688,-0.00299
1.692,0.00376
1.696,0.0342
1.7,0.03133
1.704,0.02603
1.708,0.02374
1.712,0.04522
1.716,0.04534
1.72,0.05648
1.724,0.04846
1.728,0.04577
1.732,0.0076
1.736,0.07426
1.74,0.02234
1.744,0.02118
1.748,0.02971
1.752,0.01669
1.756,0.02331
1.76,0.00748
1.764,0.03493
1.768,0.01099
1.772,0.02869
1.776,0.01878
1.78,0.01373
1.784,0.03213
1.788,0.03393
1.792,0.05061
1.796,0.03988
1.8,0.02691
1.804,0.0539
1.808,0.04266
1.812,0.04006
1.816,0.02891
1.82,0.0433
1.824,0.04899
1.828,0.06846
1.832,0.06131
1.836,0.06783
1.84,0.06982
1.844,0.09979
1.848,0.10768
1.852,0.10971
1.856,0.10201
1.86,0.10549
1.864,0.15293
1.868,0.15137
1.872,0.1435
1.876,0.18314
1.88,0.20267
1.884,0.17665
1.888,0.20453
1.892,0.23905
1.896,0.25032
1.9,0.23865
1.904,0.22848
1.908,0.23893
1.912,0.24849
1.916,0.25226
1.92,0.24544
1.924,0.26157
1.928,0.23832
1.932,0.2447
1.936,0.22651
1.94,0.23579
1.944,0.24763
1.948,0.21352
1.952,0.19979
1.956,0.18702
1.96,0.18483
1.964,0.17318
1.968,0.13522
1.972,0.16679
1.976,0.14328
1.98,0.1138
1.984,0.11421
1.988,0.11825
1.992,0.09986
1.996,0.08298
2.0,0.07781
2.004,0.04135
2.008,0.07295
2.012,0.06635
2.016,0.06745
2.02,0.05815
2.024,0.05388
2.028,0.04211
2.032,0.00546
2.036,0.02872
2.04,0.04969
2.044,0.00439
2.048,0.02822
2.052,0.03193
2.056,0.04033
2.06,0.04541
2.064,0.03634
2.068,0.01223
2.072,0.00382
2.076,0.02753
2.08,0.04084
2.084,0.01012
2.088,0.02164
2.092,0.04721
2.096,0.00246
2.1,0.03079
2.104,0.04017
2.108,0.03942
2.112,0.05573
2.116,0.03707
2.12,0.01602
2.124,0.06808
2.128,0.05201
2.132,0.05259
2.136,0.00481
2.14,0.03059
2.144,0.01035
2.148,0.01873
2.152,0.03088
2.156,0.02237
2.16,0.01705
2.164,0.0111
2.168,0.03371
2.172,0.0242
2.176,0.02038
2.18,0.02625
2.184,0.05497
2.188,0.01841
2.192,0.03351
2.196,0.0269
2.2,0.02455
2.204,0.008
2.208,0.03861
2.212,0.01979
2.216,0.0295
2.22,0.03595
2.224,0.03169
2.228,0.03466
2.232,0.05339
2.236,0.05968
2.24,0.04659
2.244,0.04893
2.248,0.08643
2.252,0.09858
2.256,0.09664
2.26,0.12532
2.264,0.11591
2.268,0.12973
2.272,0.14678
2.276,0.11312
2.28,0.10717
2.284,0.12159
2.288,0.11129
2.292,0.07619
2.296,0.09107
2.3,0.05729
2.304,0.06031
2.308,0.0471
2.312,0.02697
2.316,0.05102
2.32,0.04129
2.324,0.02863
2.328,0.00623
2.332,0.02093
2.336,-0.01513
2.34,0.02153
2.344,0.05317
2.348,0.00829
2.352,0.01103
2.356,0.02623
2.36,0.04784
2.364,0.01239
2.368,0.01668
2.372,0.02152
2.376,-0.00267
2.38,0.01594
2.384,0.00302
2.388,0.00429
2.392,-0.05199
2.396,-0.09056
2.4,-0.09158
2.404,-0.02339
2.408,0.11272
2.412,0.28236
2.416,0.46173
2.42,0.69172
2.424,0.87071
2.428,1.0179
2.432,1.01368
2.436,0.92611
2.44,0.77192
2.444,0.51483
2.448,0.30728
2.452,0.05937
2.456,-0.05969
2.46,-0.14336
2.464,-0.15507
2.468,-0.1102
2.472,-0.05347
2.476,-0.04336
2.48,-0.00508
2.484,0.00312
2.488,0.01936
2.492,0.03808
2.496,0.02723
2.5,0.029
2.504,0.01791
2.508,0.01531
2.512,0.01835
2.516,0.01429
2.52,0.02836
2.524,0.03152
2.528,0.02351
2.532,0.02532
2.536,0.01572
2.54,0.00382
2.544,0.03514
2.548,0.02044
2.552,0.03994
2.556,0.06257
2.56,-0.00132
2.564,0.01526
2.568,0.03036
2.572,0.00146
2.576,0.01419
2.58,0.02766
2.584,0.03431
2.588,0.02354
2.592,0.01408
2.596,0.00853
2.6,0.05981
2.604,0.02898
2.608,0.00523
2.612,0.05432
2.616,0.0106
2.62,0.03078
2.624,0.06347
2.628,0.07023
2.632,0.07193
2.636,0.07058
2.64,0.11541
2.644,0.07628
2.648,0.128
2.652,0.1075
2.656,0.10622
2.66,0.14388
2.664,0.13245
2.668,0.16376
2.672,0.158
2.676,0.19896
2.68,0.22675
2.684,0.20524
2.688,0.18144
2.692,0.21943
2.696,0.23398
2.7,0.21151
2.704,0.25469
2.708,0.25109
2.712,0.23993
2.716,0.22951
2.72,0.23473
2.724,0.22424
2.728,0.2139
2.732,0.22404
2.736,0.22118
2.74,0.20478
2.744,0.19196
2.748,0.15595
2.752,0.15469
2.756,0.14756
2.76,0.12676
2.764,0.14707
2.768,0.1205
2.772,0.0934
2.776,0.10414
2.78,0.07878
2.784,0.07596
2.788,0.05098
2.792,0.0725
2.796,0.05879
2.8,0.04351
2.804,0.04265
2.808,0.02926
2.812,0.02943
2.816,0.03997
2.82,0.03626
2.824,0.02203
2.828,0.03165
2.832,0.02228
2.836,0.0149
2.84,0.0211
2.844,0.00884
2.848,0.02182
2.852,0.03852
2.856,0.02516
2.86,0.00527
2.864,0.04857
2.868,0.03887
2.872,0.02286
2.876,0.02274
2.88,0.06382
2.884,0.01878
2.888,0.0365
2.892,0.07201
2.896,0.07419
2.9,0.0763
2.904,0.07915
2.908,0.07804
2.912,0.11485
2.916,0.0994
2.92,0.09645
2.924,0.09037
2.928,0.12954
2.932,0.11455
2.936,0.1004
2.94,0.05719
2.944,0.06753
2.948,0.06722
2.952,0.02061
2.956,0.04347
2.96,0.01495
2.964,0.00736
2.968,0.02421
2.972,0.01937
2.976,0.00776
2.98,0.02151
2.984,0.01315
2.988,0.00922
2.992,-0.00972
2.996,0.02665
3.0,0.01159
3.004,0.00769
3.008,0.01683
3.012,0.02693
3.016,0.03998
3.02,0.02054
3.024,0.02564
3.028,0.00601
3.032,0.00409
3.036,-0.04338
3.04,-0.06675
3.044,-0.14321
3.048,-0.11471
3.052,-0.01103
3.056,0.11265
3.06,0.29497
3.064,0.48939
3.068,0.72352
3.072,0.91864
3.076,0.98571
3.08,1.0069
3.084,0.8666
3.088,0.66983
3.092,0.43762
3.096,0.19653
3.1,0.04268
3.104,-0.10161
3.108,-0.16162
3.112,-0.14402
3.116,-0.11621
3.12,-0.09755
3.124,-0.035
3.128,-0.01834
3.132,-0.0136
3.136,-0.00297
3.14,-0.01594
3.144,0.02166
3.148,0.01415
3.152,0.01874
3.156,0.00995
3.16,-0.00237
3.164,0.03656
3.168,0.0095
3.172,-0.01062
3.176,-0.00275
3.18,0.01039
3.184,0.01913
3.188,-0.01311
3.192,0.02377
3.196,0.01871
3.2,-0.00298
3.204,0.03238
3.208,0.03844
3.212,0.03884
3.216,0.0036
3.22,-0.03562
3.224,-0.01817
3.228,0.00019
3.232,0.01551
3.236,0.02045
3.24,0.02513
3.244,0.00506
3.248,-0.00666
3.252,0.02642
3.256,0.04663
3.26,0.02974
3.264,0.05655
3.268,0.04837
3.272,0.02063
3.276,0.04635
3.28,0.08478
3.284,0.05245
3.288,0.08927
3.292,0.08697
3.296,0.09696
3.3,0.09613
3.304,0.10941
3.308,0.12666
3.312,0.16588
3.316,0.13541
3.32,0.13308
3.324,0.16782
3.328,0.18963
3.332,0.18805
3.336,0.18688
3.34,0.20218
3.344,0.21469
3.348,0.22139
3.352,0.21468
3.356,0.22978
3.36,0.22669
3.364,0.21785
3.368,0.2522
3.372,0.18663
3.376,0.21918
3.38,0.2234
3.384,0.16549
3.388,0.16693
3.392,0.17139
3.396,0.16071
3.4,0.15703
3.404,0.10993
3.408,0.11403
3.412,0.08989
3.416,0.09984
3.42,0.0949
3.424,0.0793
3.428,0.09599
3.432,0.05027
3.436,0.06055
3.44,0.05221
3.444,0.04633
3.448,0.04307
3.452,0.01791
3.456,0.01712
3.46,0.02839
3.464,0.01458
3.468,0.01679
3.472,-0.00309
3.476,0.03343
3.48,0.0393
3.484,0.0033
3.488,-0.0203
3.492,-0.01645
3.496,0.05162
3.5,-0.02161
3.504,-0.01067
3.508,-0.01574
3.512,-0.01406
3.516,0.004
3.52,0.01474
3.524,0.0038
3.528,-0.01353
3.532,0.02733
3.536,-0.01584
3.54,-0.02713
3.544,-0.00507
3.548,-0.01229
3.552,-0.00256
3.556,0.00271
3.56,-0.00505
3.564,0.00024
3.568,-0.01386
3.572,-0.00374
3.576,-0.00132
3.58,-0.01491
3.584,0.00588
3.588,-0.00755
3.592,0.00809
3.596,-0.01562
3.6,-0.02151
3.604,0.0076
3.608,-0.00475
3.612,-0.03343
3.616,-0.0231
3.62,0.00107
3.624,0.00426
3.628,0.01505
3.632,0.0046
3.636,-0.0152
3.64,0.02277
3.644,0.01234
3.648,0.02696
3.652,0.03869
3.656,0.03731
3.66,0.05376
3.664,0.06226
3.668,0.0813
3.672,0.06387
3.676,0.104
3.68,0.08116
3.684,0.09455
3.688,0.05025
3.692,0.07289
3.696,0.0725
3.7,0.08154
3.704,0.01678
3.708,0.0307
3.712,0.0093
3.716,-0.00812
3.72,-0.02028
3.724,0.00568
3.728,0.00675
3.732,-0.02036
3.736,0.01376
3.74,-0.02021
3.744,-0.02981
3.748,0.00617
3.752,-0.00699
3.756,0.00453
3.76,-0.01348
3.764,-0.01869
3.768,-0.02127
3.772,-0.03595
3.776,-0.01484
3.78,-0.01468
3.784,-0.00265
3.788,-0.01037
3.792,-0.03694
3.796,-0.04776
3.8,-0.11616
3.804,-0.09788
3.808,-0.08531
3.812,-0.02784
3.816,0.11827
3.82,0.28578
3.824,0.51762
3.828,0.73342
3.832,0.88551
3.836,0.98915
3.84,0.97342
3.844,0.82134
3.848,0.61789
3.852,0.38684
3.856,0.20576
3.86,-0.02064
3.864,-0.12154
3.868,-0.18065
3.872,-0.16987
3.876,-0.13602
3.88,-0.07644
3.884,-0.04613
3.888,-0.04782
3.892,-0.02402
3.896,-0.01272
3.9,0.00287
3.904,-0.01077
3.908,-0.00931
3.912,-0.01579
3.916,-0.00631
3.92,-0.01106
3.924,0.01118
3.928,-0.03176
3.932,-0.02498
3.936,-0.01241
3.94,-0.01177
3.944,-0.03911
3.948,-0.01295
3.952,-0.03789
3.956,-0.02154
3.96,-0.01739
3.964,-0.03632
3.968,-0.01361
3.972,-0.00968
3.976,-0.03811
3.98,-0.03819
3.984,-0.02195
3.988,-0.00346
3.992,-0.00154
3.996,0.00961
4.0,-0.01602
4.004,0.00289
4.008,0.01424
4.012,-0.0068
4.016,0.00431
4.02,0.01228
4.024,0.05074
4.028,0.01686
4.032,0.00424
4.036,0.06501
4.04,0.06045
4.044,0.04045
4.048,0.05009
4.052,0.06627
4.056,0.09332
4.06,0.09303
4.064,0.07597
4.068,0.1108
4.072,0.1012
4.076,0.10667
4.08,0.15416
4.084,0.17174
4.088,0.1625
4.092,0.18439
4.096,0.17038
4.1,0.18357
4.104,0.1732
4.108,0.22976
4.112,0.1735
4.116,0.19043
4.12,0.21134
4.124,0.19488
4.128,0.23174
4.132,0.20844
4.136,0.20199
4.14,0.16233
4.144,0.17542
4.148,0.14886
4.152,0.16559
4.156,0.13703
4.16,0.12969
4.164,0.11956
4.168,0.10478
4.172,0.09795
4.176,0.06777
4.18,0.06295
4.184,0.0625
4.188,0.04828
4.192,0.05126
4.196,0.01133
4.2,-0.01141
4.204,0.01818
4.208,-0.00889
4.212,-0.00581
4.216,0.01455
4.22,0.00623
4.224,-0.00655
4.228,-0.00298
4.232,0.03755
4.236,-0.00872
4.24,-0.03656
4.244,-0.00921
4.248,-0.00408
4.252,-0.00479
4.256,-0.00999
4.26,-0.03615
4.264,-0.00199
4.268,-0.01173
4.272,-0.03667
4.276,-0.04476
4.28,0.01631
4.284,0.0073
4.288,-0.02072
4.292,0.00303
4.296,-0.00107
4.3,-0.0188
4.304,-0.00859
4.308,0.00062
4.312,0.03079
4.316,0.01597
4.32,0.04566
4.324,0.04129
4.328,0.07147
4.332,0.05872
4.336,0.09058
4.34,0.08579
4.344,0.10418
4.348,0.05844
4.352,0.03487
4.356,0.05509
4.36,0.03244
4.364,0.02066
4.368,0.01556
4.372,-0.00486
4.376,-0.0042
4.38,-0.0315
4.384,-0.0167
4.388,-0.01469
4.392,-0.02889
4.396,-0.02799
4.4,-0.02935
4.404,-0.01354
4.408,-0.03458
4.412,-0.01916
4.416,-0.04146
4.42,-0.02547
4.424,0.00293
4.428,-0.03509
4.432,-0.02537
4.436,-0.00694
4.44,-0.02282
4.444,-0.00654
4.448,-0.03895
4.452,-0.04184
4.456,-0.07437
4.46,-0.10506
4.464,-0.1544
4.468,-0.12053
4.472,-0.05603
4.476,0.07996
4.48,0.26067
4.484,0.43655
4.488,0.6669
4.492,0.8599
4.496,0.97263
4.5,0.96416
4.504,0.84519
4.508,0.6395
4.512,0.43971
4.516,0.20329
4.52,0.01788
4.524,-0.11585
4.528,-0.14637
4.532,-0.18207
4.536,-0.17643
4.54,-0.12001
4.544,-0.08561
4.548,-0.05364
4.552,-0.04295
4.556,-0.01814
4.56,-0.0256
4.564,-0.02721
4.568,-0.01873
4.572,-0.01589
4.576,-0.04485
4.58,-0.05101
4.584,-0.02133
4.588,-0.04378
4.592,-0.01147
4.596,-0.03961
4.6,-0.04902
4.604,-0.02171
4.608,-0.03589
4.612,-0.03685
4.616,-0.03604
4.62,-0.02914
4.624,-0.02427
4.628,-0.05118
4.632,-0.0092
4.636,0.00187
4.64,-0.05475
4.644,-0.03364
4.648,-0.03949
4.652,-0.03232
4.656,-0.03834
4.66,-0.01642
4.664,-0.0186
4.668,-0.02786
4.672,-0.01752
4.676,-0.02413
4.68,0.00129
4.684,0.01117
4.688,-0.02018
4.692,0.00204
4.696,0.01204
4.7,0.03605
4.704,0.01738
4.708,0.0599
4.712,0.07687
4.716,0.06451
4.72,0.05305
4.724,0.08633
4.728,0.07896
4.732,0.11945
4.736,0.13269
4.74,0.12392
4.744,0.12432
4.748,0.14347
4.752,0.15346
4.756,0.17207
4.76,0.1803
4.764,0.17977
4.768,0.20507
4.772,0.17631
4.776,0.18702
4.78,0.1887
4.784,0.17003
4.788,0.21688
4.792,0.16204
4.796,0.16036
4.8,0.16227
4.804,0.16317
4.808,0.13601
4.812,0.16907
4.816,0.12061
4.82,0.11817
4.824,0.08406
4.828,0.07819
4.832,0.09555
4.836,0.05448
4.84,0.0788
4.844,0.05227
4.848,0.0326
4.852,-0.00211
4.856,0.00286
4.86,0.01297
4.864,0.0138
4.868,0.00546
4.872,-0.00579
4.876,-0.00819
4.88,0.01691
4.884,0.00233
4.888,-0.00512
4.892,-0.02061
4.896,-0.01687
4.9,-0.02932
4.904,-0.02862
4.908,-0.03706
4.912,-0.03621
4.916,-0.00968
4.92,-0.05711
4.924,-0.05319
4.928,-0.03196
4.932,-0.0244
4.936,-0.02837
4.94,-0.04343
4.944,-0.05804
4.948,-0.04015
4.952,-0.00214
4.956,-0.03757
4.96,-0.05179
4.964,-0.04699
4.968,-0.02331
4.972,-0.02851
4.976,-0.03419
4.98,-0.01266
4.984,0.02303
4.988,0.05028
4.992,0.05049
4.996,0.03457
5.0,0.03012
5.004,0.05618
5.008,0.05661
5.012,0.03032
5.016,0.07736
5.02,0.08591
5.024,0.05367
5.028,0.05667
5.032,0.01834
5.036,0.00933
5.04,0.02148
5.044,0.01927
5.048,-0.02118
5.052,0.01185
5.056,-0.02892
5.06,-0.02123
5.064,-0.03142
5.068,-0.01368
5.072,-0.0334
5.076,-0.03276
5.08,-0.04625
5.084,-0.0554
5.088,-0.01674
5.092,-0.02912
5.096,-0.03582
5.1,-0.01263
5.104,-0.01426
5.108,-0.03055
5.112,-0.03317
5.116,-0.04128
5.12,-0.04531
5.124,-0.05026
5.128,-0.0254
5.132,-0.07955
5.136,-0.12679
5.14,-0.13528
5.144,-0.13843
5.148,-0.09916
5.152,0.05048
5.156,0.23158
5.16,0.433
5.164,0.65277
5.168,0.84141
5.172,0.92862
5.176,0.95814
5.18,0.86096
5.184,0.65848
5.188,0.46688
5.192,0.22041
5.196,0.03789
5.2,-0.0926
5.204,-0.16358
5.208,-0.207
5.212,-0.1937
5.216,-0.10437
5.22,-0.06558
5.224,-0.06027
5.228,-0.02798
5.232,-0.02688
5.236,-0.01964
5.24,-0.02403
5.244,0.00596
5.248,0.00477
5.252,-0.02444
5.256,-0.01388
5.26,-0.02722
5.264,-0.04311
5.268,-0.05172
5.272,-0.01747
5.276,-0.01104
5.28,-0.04234
5.284,-0.05232
5.288,-0.03291
5.292,-0.01868
5.296,-0.0405
5.3,-0.05901
5.304,-0.03316
5.308,-0.02807
5.312,-0.01619
5.316,-0.05719
5.32,-0.03057
5.324,-0.00756
5.328,-0.02226
5.332,-0.05183
5.336,-0.01434
5.34,-0.03384
5.344,0.0019
5.348,-0.03214
5.352,-0.01412
5.356,-0.03167
5.36,-0.03652
5.364,-0.00467
5.368,0.00899
5.372,0.00111
5.376,0.00912
5.38,0.01449
5.384,0.03258
5.388,0.05258
5.392,0.05913
5.396,0.06308
5.4,0.08049
5.404,0.09943
5.408,0.0928
5.412,0.12286
5.416,0.1373
5.42,0.13936
5.424,0.12739
5.428,0.16731
5.432,0.17123
5.436,0.17453
5.44,0.18663
5.444,0.18388
5.448,0.18634
5.452,0.20005
5.456,0.18119
5.46,0.20125
5.464,0.20176
5.468,0.18631
5.472,0.17296
5.476,0.2135
5.48,0.15586
5.484,0.17253
5.488,0.16822
5.492,0.18436
5.496,0.12006
5.5,0.14326
5.504,0.1319
5.508,0.14425
5.512,0.1584
5.516,0.16036
5.52,0.12807
5.524,0.13935
5.528,0.13951
5.532,0.10894
5.536,0.11536
5.54,0.09416
5.544,0.08424
5.548,0.06414
5.552,0.02908
5.556,0.00734
5.56,0.01317
5.564,0.00637
5.568,0.00697
5.572,-0.0246
5.576,-0.04134
5.58,-0.0066
5.584,-0.03041
5.588,-0.03425
5.592,-0.04244
5.596,-0.02582
5.6,-0.03984
5.604,-0.02303
5.608,-0.0365
5.612,-0.04437
5.616,-0.04622
5.62,-0.01423
5.624,-0.0289
5.628,-0.01289
5.632,-0.02912
5.636,-0.02746
5.64,-0.02573
5.644,-0.04358
5.648,-0.13339
5.652,-0.1424
5.656,-0.14165
5.66,-0.0706
5.664,0.03817
5.668,0.22956
5.672,0.45732
5.676,0.64118
5.68,0.85118
5.684,0.94356
5.688,0.96744
5.692,0.86546
5.696,0.67787
5.7,0.44307
5.704,0.23208
5.708,0.03559
5.712,-0.10914
5.716,-0.18307
5.72,-0.22064
5.724,-0.1854
5.728,-0.13559
5.732,-0.06987
5.736,-0.0705
5.74,-0.03798
5.744,-0.05801
5.748,-0.00805
5.752,-0.0273
5.756,-0.04143
5.76,-0.01688
5.764,0.00105
5.768,-0.00182
5.772,-0.03789
5.776,-0.0308
5.78,-0.04312
5.784,-0.0187
5.788,-0.0247
5.792,-0.03381
5.796,0.0002
5.8,-0.01645
5.804,-0.05056
5.808,-0.01912
5.812,-0.00454
5.816,0.00511
5.82,-0.02079
5.824,-0.02417
5.828,-0.01061
5.832,-0.00999
5.836,-0.0183
5.84,-0.02107
5.844,-0.01283
5.848,-0.00016
5.852,-0.02141
5.856,0.00477
5.86,-0.02024
5.864,-0.02262
5.868,-0.00214
5.872,-0.01758
5.876,0.01881
5.88,-0.01102
5.884,0.02161
5.888,0.00349
5.892,0.03785
5.896,0.03267
5.9,0.03948
5.904,0.09272
5.908,0.0838
5.912,0.07832
5.916,0.10627
5.92,0.12759
5.924,0.11048
5.928,0.14044
5.932,0.15437
5.936,0.13657
5.94,0.14648
5.944,0.17027
5.948,0.17754
5.952,0.19143
5.956,0.1993
5.96,0.17818
5.964,0.19553
5.968,0.19339
5.972,0.21923
5.976,0.1773
5.98,0.17349
5.984,0.20334
5.988,0.17931
5.992,0.16963
5.996,0.17987
6.0,0.14005
6.004,0.11558
6.008,0.09053
6.012,0.11316
6.016,0.11013
6.02,0.09019
6.024,0.06826
6.028,0.06222
6.032,0.0797
6.036,0.05684
6.04,0.0305
6.044,0.05249
6.048,0.04226
6.052,0.03446
6.056,0.04409
6.06,0.02761
6.064,0.02797
6.068,0.03583
6.072,0.03656
6.076,0.04415
6.08,0.04712
6.084,0.07717
6.088,0.08146
6.092,0.0717
6.096,0.08386
6.1,0.07288
6.104,0.11458
6.108,0.08555
6.112,0.0541
6.116,0.03363
6.12,0.04859
6.124,0.03689
6.128,-0.00737
6.132,0.02859
6.136,0.00308
6.14,-0.01974
6.144,-0.00857
6.148,0.00573
6.152,-0.00846
6.156,-0.01705
6.16,-0.01472
6.164,-0.02698
6.168,0.00517
6.172,-0.01312
6.176,-0.01107
6.18,-0.02097
6.184,-0.00354
6.188,-0.00219
6.192,-0.01633
6.196,-0.00179
6.2,-0.02721
6.204,-0.00445
6.208,-0.01385
6.212,-0.02
6.216,-0.03381
6.22,-0.10595
6.224,-0.10241
6.228,-0.10815
6.232,-0.08242
6.236,0.04037
6.24,0.27761
6.244,0.4248
6.248,0.65305
6.252,0.84856
6.256,0.94478
6.26,0.97883
6.264,0.85634
6.268,0.68341
6.272,0.4521
6.276,0.2332
6.28,0.0521
6.284,-0.11374
6.288,-0.17581
6.292,-0.21931
6.296,-0.14458
6.3,-0.10884
6.304,-0.05886
6.308,-0.02798
6.312,-0.02759
6.316,-0.01454
6.32,-0.0199
6.324,-0.01378
6.328,-0.00958
6.332,-0.00118
6.336,-0.00944
6.34,-0.01203
6.344,0.01176
6.348,-0.03356
6.352,0.01428
6.356,-0.03339
6.36,-0.02393
6.364,-0.02862
6.368,-0.01326
6.372,-0.01082
6.376,-0.00358
6.38,-0.01868
6.384,-0.0051
6.388,0.01483
6.392,0.00272
6.396,-0.0385
6.4,-0.00215
6.404,-0.02347
6.408,-0.00941
6.412,0.00199
6.416,-0.01744
6.42,-0.00775
6.424,0.00205
6.428,0.00777
6.432,-0.03159
6.436,-0.00529
6.44,0.00754
6.444,0.03501
6.448,0.02156
6.452,0.00541
6.456,0.03609
6.46,0.00521
6.464,0.06512
6.468,0.03878
6.472,0.05083
6.476,0.06147
6.48,0.07601
6.484,0.06654
6.488,0.10121
6.492,0.12168
6.496,0.12389
6.5,0.15532
6.504,0.13406
6.508,0.15969
6.512,0.1815
6.516,0.17606
6.52,0.20079
6.524,0.22887
6.528,0.20926
6.532,0.21439
6.536,0.21256
6.54,0.2066
6.544,0.21477
6.548,0.19888
6.552,0.20583
6.556,0.20369
6.56,0.19037
6.564,0.20135
6.568,0.1471
6.572,0.15971
6.576,0.15463
6.58,0.12457
6.584,0.11327
6.588,0.112
6.592,0.08962
6.596,0.11492
6.6,0.10299
6.604,0.07144
6.608,0.04613
6.612,0.04938
6.616,0.02491
6.62,0.0224
6.624,0.02785
6.628,0.01461
6.632,0.00603
6.636,-0.00269
6.64,-0.01013
6.644,0.02746
6.648,0.01778
6.652,0.01161
6.656,0.01156
6.66,-0.01063
6.664,0.04332
6.668,-0.01106
6.672,0.00819
6.676,-0.03282
6.68,-0.02161
6.684,-0.01759
6.688,0.00928
6.692,-0.0192
6.696,-0.00597
6.7,-0.00382
6.704,0.01743
6.708,0.0154
6.712,0.00672
6.716,0.02185
6.72,0.0132
6.724,0.02097
6.728,0.02057
6.732,0.0073
6.736,0.00624
6.74,0.00676
6.744,0.0354
6.748,0.03495
6.752,0.00862
6.756,0.06126
6.76,0.0673
6.764,0.06215
6.768,0.10016
6.772,0.09621
6.776,0.11571
6.78,0.10821
6.784,0.0997
6.788,0.07521
6.792,0.11524
6.796,0.07625
6.8,0.06416
6.804,0.07086
6.808,0.06504
6.812,0.02717
6.816,0.04304
6.82,-0.0087
6.824,0.0055
6.828,0.00854
6.832,-0.00542
6.836,0.01323
6.84,0.02192
6.844,0.00243
6.848,-0.00199
6.852,-0.01475
6.856,0.00593
6.86,0.01333
6.864,0.00574
6.868,0.00632
6.872,-0.00182
6.876,0.01518
6.88,0.00958
6.884,-0.01535
6.888,-0.01741
6.892,-0.03161
6.896,-0.01405
6.9,-0.05209
6.904,-0.10485
6.908,-0.09928
6.912,-0.10355
6.916,-0.03091
6.92,0.11212
6.924,0.33566
6.928,0.5243
6.932,0.71522
6.936,0.9257
6.94,1.01256
6.944,0.98997
6.948,0.86074
6.952,0.6539
6.956,0.42279
6.96,0.19543
6.964,0.04808
6.968,-0.10354
6.972,-0.14258
6.976,-0.15159
6.98,-0.13324
6.984,-0.07901
6.988,-0.02672
6.992,0.03779
6.996,0.00085
7.0,0.00355
7.004,-0.00023
7.008,0.02465
7.012,0.00607
7.016,0.00881
7.02,-0.00987
7.024,0.00272
7.028,0.01513
7.032,-0.02339
7.036,0.00179
7.04,-0.03567
7.044,0.02553
7.048,0.0224
7.052,-0.00656
7.056,-0.00565
7.06,0.01169
7.064,0.00649
7.068,0.01322
7.072,-0.00707
7.076,0.02861
7.08,-0.00557
7.084,0.02601
7.088,-0.0005
7.092,0.01302
7.096,0.00822
7.1,0.05081
7.104,0.02618
7.108,0.01132
7.112,0.0393
7.116,0.01929
7.12,0.03384
7.124,0.01392
7.128,0.06266
7.132,0.05077
7.136,0.04571
7.14,0.06815
7.144,0.07223
7.148,0.06909
7.152,0.0718
7.156,0.08458
7.16,0.09381
7.164,0.11076
7.168,0.13421
7.172,0.12158
7.176,0.13304
7.18,0.15768
7.184,0.15128
7.188,0.1666
7.192,0.20784
7.196,0.20255
7.2,0.19891
7.204,0.20633
7.208,0.24208
7.212,0.24292
7.216,0.22493
7.22,0.2343
7.224,0.25089
7.228,0.22959
7.232,0.22319
7.236,0.21592
7.24,0.22727
7.244,0.20577
7.248,0.20663
7.252,0.1809
7.256,0.17463
7.26,0.1717
7.264,0.14451
7.268,0.10782
7.272,0.10734
7.276,0.11808
7.28,0.10613
7.284,0.09501
7.288,0.09124
7.292,0.09685
7.296,0.09554
7.3,0.04292
7.304,0.0253
7.308,0.06757
7.312,0.02391
7.316,0.04152
7.32,0.0406
7.324,0.04134
7.328,0.02332
7.332,-9e-05
7.336,0.00386
7.34,0.02292
7.344,0.02749
7.348,0.02419
7.352,0.01198
7.356,-0.00853
7.36,0.01366
7.364,0.01743
7.368,-0.01076
7.372,0.02288
7.376,0.01293
7.38,0.00966
7.384,-0.00405
7.388,0.00023
7.392,0.00352
7.396,0.03369
7.4,-0.01921
7.404,-0.00054
7.408,0.00538
7.412,0.01745
7.416,0.00882
7.42,0.02358
7.424,0.02386
7.428,0.00163
7.432,0.04045
7.436,0.03613
7.44,0.03047
7.444,0.03128
7.448,0.00631
7.452,-0.01267
7.456,0.04051
7.46,0.02422
7.464,0.02731
7.468,0.01514
7.472,0.0107
7.476,0.03427
7.48,0.02306
7.484,0.03222
7.488,0.02765
7.492,0.01726
7.496,0.04388
7.5,0.04719
7.504,0.08031
7.508,0.08545
7.512,0.09289
7.516,0.07473
7.52,0.11469
7.524,0.09046
7.528,0.12571
7.532,0.13815
7.536,0.12724
7.54,0.10499
7.544,0.07201
7.548,0.07719
7.552,0.08706
7.556,0.07757
7.56,0.03342
7.564,0.03296
7.568,0.03037
7.572,0.00893
7.576,0.05918
7.58,0.02347
7.584,0.02972
7.588,0.02801
7.592,0.04914
7.596,0.02267
7.6,0.02207
7.604,0.01872
7.608,0.01479
7.612,0.03012
7.616,0.02547
7.62,0.01533
7.624,0.04646
7.628,0.03906
7.632,0.01509
7.636,0.01323
7.64,0.01571
7.644,-0.01107
7.648,-0.01672
7.652,-0.02977
7.656,-0.10444
7.66,-0.05549
7.664,0.03387
7.668,0.21469
7.672,0.40714
7.676,0.63037
7.68,0.83622
7.684,0.96901
7.688,1.03485
7.692,0.97241
7.696,0.80041
7.7,0.55487
7.704,0.33388
7.708,0.14381
7.712,-0.02002
7.716,-0.11996
7.72,-0.13321
7.724,-0.12857
7.728,-0.11598
7.732,-0.0367
7.736,-0.03348
7.74,-0.01074
7.744,0.03031
7.748,0.0164
7.752,0.00986
7.756,0.02142
7.76,0.04128
7.764,0.02718
7.768,0.02071
7.772,0.02613
7.776,0.02186
7.78,0.01932
7.784,0.00467
7.788,0.02338
7.792,0.04235
7.796,0.02277
7.8,0.04641
7.804,0.03764
7.808,0.03202
7.812,0.00098
7.816,0.01923
7.82,0.00991
7.824,0.01481
7.828,0.03837
7.832,0.06219
7.836,0.02668
7.84,0.02057
7.844,0.05459
7.848,0.02001
7.852,0.04884
7.856,0.03014
7.86,0.03908
7.864,0.03408
7.868,0.07205
7.872,0.04685
7.876,0.0751
7.88,0.04269
7.884,0.04194
7.888,0.10144
7.892,0.07125
7.896,0.0824
7.9,0.07095
7.904,0.121
7.908,0.10404
7.912,0.13511
7.916,0.13984
7.92,0.14602
7.924,0.12896
7.928,0.18807
7.932,0.17992
7.936,0.19357
7.94,0.21856
7.944,0.20901
7.948,0.22657
7.952,0.23289
7.956,0.23712
7.96,0.26799
7.964,0.27302
7.968,0.2115
7.972,0.2578
7.976,0.23414
7.98,0.22251
7.984,0.22435
7.988,0.22753
7.992,0.20969
7.996,0.20847
8.0,0.18288
8.004,0.20634
8.008,0.18291
8.012,0.18547
8.016,0.18418
8.02,0.13482
8.024,0.11792
8.028,0.11936
8.032,0.1126
8.036,0.10607
8.04,0.10174
8.044,0.07215
8.048,0.04493
8.052,0.07645
8.056,0.04315
8.06,0.07412
8.064,0.04022
8.068,0.0694
8.072,0.01179
8.076,0.03632
8.08,0.05809
8.084,0.06215
8.088,0.00674
8.092,0.03096
8.096,0.06055
8.1,0.00635
8.104,0.04572
8.108,0.03099
8.112,0.01016
8.116,0.03611
8.12,0.02079
8.124,0.0492
8.128,0.02949
8.132,0.03305
8.136,0.02364
8.14,0.03597
8.144,0.03513
8.148,0.04856
8.152,0.01676
8.156,0.01443
8.16,-0.01514
8.164,0.03266
8.168,0.04279
8.172,0.03651
8.176,0.01583
8.18,0.00279
8.184,0.02634
8.188,0.01613
8.192,0.05096
8.196,-0.00077
8.2,0.0312
8.204,0.01903
8.208,0.04919
8.212,0.04264
8.216,0.02882
8.22,0.05436
8.224,0.01202
8.228,0.0263
8.232,-0.00305
8.236,0.03051
8.24,0.02342
8.244,0.07048
8.248,0.05247
8.252,0.05486
8.256,0.06547
8.26,0.09352
8.264,0.1129
8.268,0.13175
8.272,0.0846
8.276,0.12254
8.28,0.11672
8.284,0.17546
8.288,0.13313
8.292,0.14682
8.296,0.1068
8.3,0.09198
8.304,0.07107
8.308,0.08004
8.312,0.05011
8.316,0.06506
8.32,0.04506
8.324,0.04066
8.328,0.03724
8.332,0.02441
8.336,0.0338
8.34,0.02188
8.344,0.04528
8.348,0.01524
8.352,0.02856
8.356,0.05266
8.36,0.04882
8.364,0.04288
8.368,0.03421
8.372,0.0133
8.376,0.05828
8.38,0.05498
8.384,0.05093
8.388,0.01036
8.392,0.02619
8.396,0.02172
8.4,-0.01567
8.404,-0.08524
8.408,-0.10905
8.412,-0.06107
8.416,0.00203
8.42,0.15841
8.424,0.37176
8.428,0.53964
8.432,0.76422
8.436,0.93971
8.44,1.04159
8.444,1.03292
8.448,0.88166
8.452,0.65845
8.456,0.43745
8.46,0.25665
8.464,0.06234
8.468,-0.07332
8.472,-0.153
8.476,-0.12022
8.48,-0.104
8.484,-0.02683
8.488,-0.01108
8.492,0.00866
8.496,0.03729
8.5,0.02094
8.504,0.02587
8.508,0.02151
8.512,0.00321
8.516,0.01638
8.52,0.03815
8.524,0.01414
8.528,0.04016
8.532,0.02324
8.536,0.01376
8.54,0.03347
8.544,0.02895
8.548,0.04252
8.552,0.0297
8.556,0.04049
8.56,0.03362
8.564,0.01434
8.568,0.04244
8.572,0.06079
8.576,0.03544
8.58,0.03682
8.584,0.00485
8.588,0.03072
8.592,0.05787
8.596,0.03074
8.6,0.04318
8.604,0.01091
8.608,0.04565
8.612,0.05626
8.616,0.06892
8.62,0.03825
8.624,0.08462
8.628,0.09304
8.632,0.07302
8.636,0.05635
8.64,0.08087
8.644,0.0875
8.648,0.08363
8.652,0.08294
8.656,0.12281
8.66,0.09868
8.664,0.13024
8.668,0.12434
8.672,0.14236
8.676,0.17427
8.68,0.17412
8.684,0.18594
8.688,0.18672
8.692,0.2091
8.696,0.24233
8.7,0.23016
8.704,0.21834
8.708,0.23185
8.712,0.22928
8.716,0.23687
8.72,0.2276
8.724,0.24658
8.728,0.23641
8.732,0.21659
8.736,0.24116
8.74,0.22245
8.744,0.21431
8.748,0.21659
8.752,0.22075
8.756,0.18393
8.76,0.20043
8.764,0.17045
8.768,0.14847
8.772,0.13973
8.776,0.1515
8.78,0.13495
8.784,0.13373
8.788,0.11733
8.792,0.07219
8.796,0.05897
8.8,0.08797
8.804,0.06956
8.808,0.05181
8.812,0.04967
8.816,0.0531
8.82,0.0465
8.824,0.03991
8.828,0.05766
8.832,0.04434
8.836,0.02353
8.84,0.00929
8.844,0.00972
8.848,0.01911
8.852,0.01915
8.856,0.04225
8.86,0.04831
8.864,0.02502
8.868,-0.00475
8.872,0.01283
8.876,0.04684
8.88,0.04197
8.884,0.02864
8.888,0.03335
8.892,0.05428
8.896,0.03264
8.9,-0.00585
8.904,0.00162
8.908,0.02128
8.912,0.02228
8.916,0.01066
8.92,0.05406
8.924,-0.01052
8.928,0.00073
8.932,0.03612
8.936,0.0501
8.94,0.02037
8.944,0.01492
8.948,-0.0011
8.952,0.01723
8.956,0.0258
8.96,0.01711
8.964,0.04179
8.968,0.07953
8.972,0.05945
8.976,0.0354
8.98,0.01976
8.984,0.0282
8.988,0.01368
8.992,0.01224
8.996,0.02827
9.0,0.02939
9.004,0.02764
9.008,0.04448
9.012,0.03178
9.016,0.04292
9.02,0.0346
9.024,0.05096
9.028,0.06652
9.032,0.05205
9.036,0.09724
9.04,0.09947
9.044,0.09737
9.048,0.12272
9.052,0.13029
9.056,0.12039
9.06,0.1387
9.064,0.10611
9.068,0.11184
9.072,0.09103
9.076,0.10375
9.08,0.08329
9.084,0.04637
9.088,0.0724
9.092,0.04846
9.096,0.03217
9.1,0.04413
9.104,0.01856
9.108,0.0289
9.112,0.05554
9.116,0.01591
9.12,0.03639
9.124,0.02358
9.128,0.0287
9.132,0.0062
9.136,0.00043
9.14,0.04191
9.144,0.04199
9.148,0.0449
9.152,0.02508
9.156,0.01978
9.16,0.00207
9.164,0.02536
9.168,0.02629
9.172,0.0445
9.176,-0.03124
9.18,-0.0791
9.184,-0.10868
9.188,-0.06384
9.192,0.02774
9.196,0.20151
9.2,0.39608
9.204,0.59328
9.208,0.83636
9.212,0.96249
9.216,0.98371
9.22,0.94796
9.224,0.82343
9.228,0.58689
9.232,0.38006
9.236,0.12161
9.24,-0.02963
9.244,-0.07592
9.248,-0.15098
9.252,-0.1502
9.256,-0.10225
9.26,-0.04936
9.264,-0.03051
9.268,-0.01422
9.272,0.01805
9.276,0.01113
9.28,0.02341
9.284,0.01693
9.288,0.0098
9.292,-0.00368
9.296,0.02221
9.3,0.04078
9.304,0.01895
9.308,0.03997
9.312,0.01781
9.316,0.02017
9.32,-0.01985
9.324,0.01588
9.328,0.01154
9.332,0.00151
9.336,-0.00492
9.34,0.02328
9.344,-0.00194
9.348,0.02214
9.352,0.02729
9.356,0.00611
9.36,0.0375
9.364,0.01657
9.368,0.00776
9.372,0.02544
9.376,0.0451
9.38,0.02355
9.384,0.02742
9.388,0.00836
9.392,0.03345
9.396,0.03096
9.4,0.03853
9.404,0.04144
9.408,0.03012
9.412,0.05792
9.416,0.07599
9.42,0.06948
9.424,0.07635
9.428,0.0892
9.432,0.11188
9.436,0.11264
9.44,0.12729
9.444,0.11566
9.448,0.13728
9.452,0.1409
9.456,0.17987
9.46,0.18272
9.464,0.18193
9.468,0.19613
9.472,0.22467
9.476,0.21108
9.48,0.22105
9.484,0.23662
9.488,0.23359
9.492,0.26128
9.496,0.23989
9.5,0.23561
9.504,0.22022
9.508,0.23863
9.512,0.22701
9.516,0.19519
9.52,0.1835
9.524,0.21269
9.528,0.16656
9.532,0.18378
9.536,0.1582
9.54,0.13839
9.544,0.16099
9.548,0.13415
9.552,0.13472
9.556,0.08336
9.56,0.14012
9.564,0.0768
9.568,0.08248
9.572,0.08551
9.576,0.04857
9.58,0.05006
9.584,0.03953
9.588,0.05076
9.592,0.04507
9.596,0.02479
9.6,0.02097
9.604,0.03779
9.608,0.04534
9.612,-0.00168
9.616,0.04243
9.62,0.02676
9.624,0.02592
9.628,0.00673
9.632,-0.01161
9.636,0.00596
9.64,0.04486
9.644,0.00253
9.648,0.02219
9.652,0.00332
9.656,0.02946
9.66,0.03305
9.664,-0.02379
9.668,-0.01118
9.672,0.0113
9.676,-9e-05
9.68,0.02603
9.684,-0.00897
9.688,-0.04233
9.692,0.01496
9.696,0.03578
9.7,0.00888
9.704,-0.00156
9.708,0.04583
9.712,0.0047
9.716,0.02323
9.72,-0.00604
9.724,0.00864
9.728,0.03129
9.732,-0.00246
9.736,0.03704
9.74,0.02898
9.744,0.03233
9.748,0.04477
9.752,0.07324
9.756,0.07777
9.76,0.07757
9.764,0.07048
9.768,0.07875
9.772,0.11301
9.776,0.10636
9.78,0.11158
9.784,0.12074
9.788,0.11822
9.792,0.0829
9.796,0.04364
9.8,0.04445
9.804,0.04917
9.808,0.0133
9.812,0.03413
9.816,0.03081
9.82,0.0096
9.824,-0.00687
9.828,0.02205
9.832,-0.01491
9.836,0.02599
9.84,-0.00441
9.844,0.02597
9.848,0.00634
9.852,-0.00083
9.856,0.03462
9.86,0.0268
9.864,-0.0063
9.868,0.01474
9.872,0.00854
9.876,-0.00185
9.88,0.02008
9.884,0.00183
9.888,0.00019
9.892,-0.02565
9.896,-0.08411
9.9,-0.10412
9.904,-0.07929
9.908,-0.0571
9.912,0.06996
9.916,0.27978
9.92,0.48872
9.924,0.69835
9.928,0.86715
9.932,1.00652
9.936,0.98637
9.94,0.87799
9.944,0.73378
9.948,0.46058
9.952,0.25832
9.956,0.07866
9.96,-0.09444
9.964,-0.15673
9.968,-0.18545
9.972,-0.12222
9.976,-0.10397
9.98,-0.06034
9.984,-0.05307
9.988,0.012
9.992,0.01676
9.996,-0.01095
