t_seg,ecg_mV
0.0,0.03142
0.004,0.0245
0.008,0.0308
0.012,0.02653
0.016,0.0557
0.02,0.02481
0.024,0.03155
0.028,0.02507
0.032,0.05868
0.036,0.03733
0.04,0.0252
0.044,0.01403
0.048,0.02661
0.052,0.02646
0.056,0.02759
0.06,-0.00042
0.064,0.04604
0.068,0.01679
0.072,0.01685
0.076,0.01897
0.08,0.03151
0.084,0.03026
0.088,0.01374
0.092,0.02392
0.096,0.06592
0.1,0.00886
0.104,0.04999
0.108,0.02692
0.112,0.02916
0.116,0.03349
0.12,0.05965
0.124,0.00494
0.128,0.01295
0.132,0.022
0.136,0.04402
0.14,0.0077
0.144,0.04082
0.148,0.00682
0.152,0.01813
0.156,0.02472
0.16,0.01909
0.164,0.0504
0.168,0.04582
0.172,0.06392
0.176,0.07234
0.18,0.07761
0.184,0.09626
0.188,0.09811
0.192,0.12792
0.196,0.11215
0.2,0.14111
0.204,0.12888
0.208,0.10484
0.212,0.12313
0.216,0.09094
0.22,0.07312
0.224,0.0765
0.228,0.05225
0.232,0.06399
0.236,0.05043
0.24,0.05449
0.244,0.04296
0.248,0.02425
0.252,0.02904
0.256,0.0275
0.26,0.00707
0.264,0.021
0.268,-0.00321
0.272,0.02772
0.276,0.02483
0.28,0.01769
0.284,0.02889
0.288,0.03241
0.292,0.00922
0.296,0.02627
0.3,0.02015
0.304,0.01186
0.308,0.0135
0.312,0.01356
0.316,-0.00072
0.32,-0.03537
0.324,-0.11864
0.328,-0.11975
0.332,-0.02743
0.336,0.05328
0.34,0.19969
0.344,0.37126
0.348,0.61983
0.352,0.80546
0.356,0.97879
0.36,1.03143
0.364,0.99024
0.368,0.83221
0.372,0.63427
0.376,0.38163
0.38,0.17626
0.384,0.00814
0.388,-0.08531
0.392,-0.12721
0.396,-0.1318
0.4,-0.15386
0.404,-0.06347
0.408,-0.02275
0.412,0.01511
0.416,0.00586
0.42,0.02233
0.424,0.04712
0.428,0.03306
0.432,0.02083
0.436,0.00391
0.44,0.01118
0.444,0.03502
0.448,0.03634
0.452,0.0208
0.456,0.02004
0.46,0.01348
0.464,0.01388
0.468,0.04193
0.472,0.02215
0.476,0.01751
0.48,0.0502
0.484,0.01438
0.488,0.02336
0.492,0.03187
0.496,0.02574
0.5,0.02749
0.504,-0.00743
0.508,0.02953
0.512,0.04022
0.516,0.03651
0.52,0.04655
0.524,0.05061
0.528,0.01981
0.532,0.04183
0.536,0.06497
0.54,0.03466
0.544,0.05166
0.548,0.0255
0.552,0.07309
0.556,0.06748
0.56,0.07219
0.564,0.06997
0.568,0.10005
0.572,0.08936
0.576,0.08821
0.58,0.10914
0.584,0.13482
0.588,0.10556
0.592,0.17666
0.596,0.17051
0.6,0.19747
0.604,0.18205
0.608,0.20689
0.612,0.22599
0.616,0.20563
0.62,0.2313
0.624,0.23481
0.628,0.22395
0.632,0.23376
0.636,0.24054
0.64,0.24544
0.644,0.23317
0.648,0.26459
0.652,0.25895
0.656,0.22442
0.66,0.23381
0.664,0.22878
0.668,0.20752
0.672,0.17715
0.676,0.20207
0.68,0.16674
0.684,0.16516
0.688,0.14676
0.692,0.13793
0.696,0.12779
0.7,0.12477
0.704,0.08445
0.708,0.091
0.712,0.05741
0.716,0.07272
0.72,0.06015
0.724,0.0654
0.728,0.04766
0.732,0.0722
0.736,0.04018
0.74,0.04007
0.744,0.04785
0.748,0.02131
0.752,0.01795
0.756,0.02982
0.76,0.04363
0.764,0.00127
0.768,-0.00601
0.772,0.03291
0.776,0.00463
0.78,0.01469
0.784,0.04031
0.788,0.04868
0.792,0.00711
0.796,0.03888
0.8,0.01649
0.804,0.03264
0.808,0.0597
0.812,0.05952
0.816,0.06566
0.82,0.07084
0.824,0.09193
0.828,0.11941
0.832,0.11142
0.836,0.1049
0.84,0.10441
0.844,0.10833
0.848,0.09227
0.852,0.11359
0.856,0.07539
0.86,0.09589
0.864,0.07605
0.868,0.02515
0.872,0.03746
0.876,0.06617
0.88,0.03158
0.884,0.0212
0.888,0.02686
0.892,0.03753
0.896,0.02955
0.9,0.02059
0.904,0.02435
0.908,0.00429
0.912,0.01638
0.916,0.00951
0.92,0.05933
0.924,0.00156
0.928,0.00695
0.932,0.00817
0.936,-0.00224
0.94,0.01667
0.944,-0.00504
0.948,-0.01245
0.952,-0.00941
0.956,-0.0408
0.96,-0.06417
0.964,-0.09573
0.968,-0.10885
0.972,-0.03471
0.976,0.06304
0.98,0.22345
0.984,0.43587
0.988,0.66533
0.992,0.86332
0.996,0.98875
1.0,0.99107
1.004,0.91867
1.008,0.75056
1.012,0.50313
1.016,0.30128
1.02,0.09153
1.024,-0.03821
1.028,-0.1408
1.032,-0.13882
1.036,-0.13903
1.04,-0.09074
1.044,-0.04297
1.048,-0.01958
1.052,-0.00973
1.056,0.01865
1.06,0.01819
1.064,0.02872
1.068,0.0126
1.072,0.00984
1.076,-0.0118
1.08,0.00403
1.084,-0.01031
1.088,0.01796
1.092,0.00222
1.096,0.00828
1.1,0.0382
1.104,0.02603
1.108,0.01711
1.112,0.01029
1.116,0.01635
1.12,0.01014
1.124,0.02394
1.128,0.04058
1.132,0.01324
1.136,0.0247
1.14,0.02739
1.144,0.02853
1.148,0.01363
1.152,-0.00056
1.156,0.01895
1.16,0.03736
1.164,0.01835
1.168,0.02502
1.172,0.01587
1.176,0.02042
1.18,0.02932
1.184,0.0261
1.188,0.01392
1.192,0.0482
1.196,0.03794
1.2,0.06439
1.204,0.0688
1.208,0.0681
1.212,0.07046
1.216,0.09665
1.22,0.09699
1.224,0.11463
1.228,0.15919
1.232,0.16876
1.236,0.16993
1.24,0.15811
1.244,0.16331
1.248,0.17627
1.252,0.20929
1.256,0.20247
1.26,0.17745
1.264,0.1982
1.268,0.22347
1.272,0.22722
1.276,0.22347
1.28,0.23874
1.284,0.22334
1.288,0.24744
1.292,0.2094
1.296,0.21665
1.3,0.19133
1.304,0.20608
1.308,0.17971
1.312,0.18173
1.316,0.17675
1.32,0.175
1.324,0.14154
1.328,0.14027
1.332,0.12409
1.336,0.09781
1.34,0.0808
1.344,0.07996
1.348,0.07234
1.352,0.08066
1.356,0.04265
1.36,0.05214
1.364,0.02306
1.368,0.02152
1.372,0.01553
1.376,0.04353
1.38,0.01592
1.384,0.00477
1.388,0.00625
1.392,0.01204
1.396,-0.00568
1.4,0.00151
1.404,-0.0075
1.408,0.00331
1.412,0.0024
1.416,-0.0094
1.42,0.02088
1.424,-0.00924
1.428,0.0006
1.432,0.00129
1.436,0.01268
1.44,-0.00595
1.444,-0.01042
1.448,0.02378
1.452,-0.00147
1.456,0.00967
1.46,-0.02196
1.464,0.0395
1.468,-0.01298
1.472,0.00795
1.476,0.00923
1.48,0.0492
1.484,0.02422
1.488,-0.01028
1.492,-0.02411
1.496,0.03309
1.5,-0.01042
1.504,0.00481
1.508,-0.03263
1.512,0.00466
1.516,-0.00613
1.52,-0.00274
1.524,0.00073
1.528,-0.01443
1.532,0.00665
1.536,-0.0557
1.54,0.00465
1.544,-0.00389
1.548,-0.00751
1.552,-0.03303
1.556,0.01468
1.56,0.01491
1.564,0.01948
1.568,-0.00847
1.572,-0.01974
1.576,0.007
1.58,-0.01168
1.584,-0.00825
1.588,0.04592
1.592,0.01882
1.596,0.01188
1.6,-0.01389
1.604,0.0106
1.608,-0.02412
1.612,-0.03918
1.616,-0.00952
1.62,7e-05
1.624,0.01764
1.628,0.01992
1.632,-0.00755
1.636,-0.02047
1.64,0.01049
1.644,-0.00078
1.648,-0.03981
1.652,0.00153
1.656,-0.01939
1.66,-0.0216
1.664,-0.02364
1.668,-0.0005
1.672,0.01559
1.676,-0.00299
1.68,-0.02523
1.684,-0.0182
1.688,-0.00992
1.692,0.0165
1.696,-0.00416
1.7,-0.00591
1.704,-0.01435
1.708,-0.00683
1.712,-0.01333
1.716,-0.0541
1.72,0.00725
1.724,-0.01784
1.728,0.01862
1.732,-0.00699
1.736,-0.00756
1.74,-0.01712
1.744,-0.01054
1.748,0.00684
1.752,-0.01521
1.756,0.00057
1.76,0.00848
1.764,0.0007
1.768,-0.00275
1.772,0.04152
1.776,-0.00052
1.78,-0.00121
1.784,0.00786
1.788,0.02757
1.792,0.01189
1.796,0.05973
1.8,0.05539
1.804,0.07217
1.808,0.06275
1.812,0.10107
1.816,0.07893
1.82,0.11304
1.824,0.07306
1.828,0.08411
1.832,0.08666
1.836,0.03412
1.84,0.05418
1.844,0.0174
1.848,0.03413
1.852,0.01366
1.856,0.01779
1.86,0.01139
1.864,0.02244
1.868,-0.00332
1.872,0.00583
1.876,-0.01776
1.88,0.00888
1.884,-0.01224
1.888,-0.01593
1.892,-0.01826
1.896,0.00078
1.9,-0.02211
1.904,0.01353
1.908,0.00078
1.912,-0.0041
1.916,-0.03001
1.92,-0.00975
1.924,0.01094
1.928,-0.01389
1.932,-0.02655
1.936,-0.02131
1.94,-0.04799
1.944,-0.09449
1.948,-0.14341
1.952,-0.11245
1.956,-0.07269
1.96,0.10169
1.964,0.25089
1.968,0.48356
1.972,0.65754
1.976,0.87331
1.98,0.96713
1.984,0.97413
1.988,0.83327
1.992,0.64917
1.996,0.44358
2.0,0.21949
2.004,0.02163
2.008,-0.10356
2.012,-0.16484
2.016,-0.18463
2.02,-0.13258
2.024,-0.0945
2.028,-0.04476
2.032,-0.06694
2.036,-0.01476
2.04,-0.00206
2.044,0.00378
2.048,-0.00603
2.052,-0.03418
2.056,0.00609
2.06,-0.03678
2.064,-0.00136
2.068,-0.00688
2.072,-0.00922
2.076,0.00224
2.08,-0.03437
2.084,-0.03072
2.088,-0.01167
2.092,-0.01191
2.096,-0.0218
2.1,-0.03251
2.104,-0.03105
2.108,-0.00587
2.112,0.00375
2.116,-0.04765
2.12,-0.05903
2.124,-0.04511
2.128,-0.01883
2.132,-0.02832
2.136,-0.01927
2.14,-0.02267
2.144,-0.02734
2.148,-0.03522
2.152,-0.01206
2.156,-0.02703
2.16,-0.00228
2.164,0.02253
2.168,-0.0147
2.172,0.00988
2.176,0.01653
2.18,0.02999
2.184,0.04101
2.188,0.03261
2.192,0.02289
2.196,0.09687
2.2,0.04749
2.204,0.08983
2.208,0.06145
2.212,0.08414
2.216,0.12515
2.22,0.12986
2.224,0.14497
2.228,0.13646
2.232,0.16169
2.236,0.17812
2.24,0.19042
2.244,0.16821
2.248,0.17914
2.252,0.20565
2.256,0.19247
2.26,0.1903
2.264,0.18738
2.268,0.20805
2.272,0.18811
2.276,0.20557
2.28,0.19582
2.284,0.18204
2.288,0.13546
2.292,0.15358
2.296,0.13606
2.3,0.12172
2.304,0.12207
2.308,0.12285
2.312,0.12332
2.316,0.09714
2.32,0.05267
2.324,0.06121
2.328,0.03709
2.332,0.06901
2.336,0.05552
2.34,0.04734
2.344,0.04432
2.348,-0.01324
2.352,0.01156
2.356,0.02445
2.36,-0.02865
2.364,-0.01778
2.368,-0.02418
2.372,-0.00335
2.376,-0.00977
2.38,-0.01065
2.384,-0.02363
2.388,-0.02329
2.392,-0.03323
2.396,-0.00901
2.4,-0.00431
2.404,0.00619
2.408,-0.03487
2.412,-0.03167
2.416,0.01233
2.42,-0.05312
2.424,-0.01329
2.428,0.00289
2.432,-0.03559
2.436,-0.01231
2.44,-0.01072
2.444,-0.04554
2.448,-0.01832
2.452,-0.0171
2.456,-0.02307
2.46,-0.00354
2.464,-0.02138
2.468,-0.02042
2.472,-0.00916
2.476,-0.0266
2.48,-0.04221
2.484,-0.00487
2.488,-0.04207
2.492,-0.01218
2.496,-0.03044
2.5,-0.0155
2.504,-0.03716
2.508,-0.02148
2.512,-0.03453
2.516,-0.01859
2.52,-0.01972
2.524,-0.0342
2.528,-0.03814
2.532,-0.03238
2.536,-0.03443
2.54,-0.04079
2.544,-0.04447
2.548,-0.03306
2.552,-0.02304
2.556,-0.0114
2.56,-0.05799
2.564,-0.03346
2.568,-0.03496
2.572,-0.03109
2.576,-0.03855
2.58,-0.03543
2.584,-0.03299
2.588,-0.00742
2.592,-0.01107
2.596,-0.02048
2.6,-0.02435
2.604,-0.00073
2.608,-0.03221
2.612,-0.01173
2.616,-0.03279
2.62,-0.06372
2.624,-0.01861
2.628,-0.01445
2.632,-0.04983
2.636,-0.02048
2.64,-0.03848
2.644,-0.04044
2.648,-0.02006
2.652,-0.0304
2.656,-0.02399
2.66,0.0005
2.664,-0.00831
2.668,-0.03491
2.672,-0.04733
2.676,-0.03172
2.68,-0.03256
2.684,-0.0056
2.688,-0.07292
2.692,-0.03456
2.696,-0.02118
2.7,-0.04778
2.704,-0.0111
2.708,-0.00813
2.712,0.01233
2.716,-0.03778
2.72,-0.04251
2.724,-0.03996
2.728,-0.03984
2.732,-0.02079
2.736,-0.03682
2.74,0.00783
2.744,-0.03338
2.748,-0.05057
2.752,-0.02056
2.756,-0.04166
2.76,-0.02943
2.764,-0.02737
2.768,-0.01408
2.772,-0.05593
2.776,-0.01448
2.78,0.0027
2.784,-0.00858
2.788,-0.00607
2.792,0.01513
2.796,0.02748
2.8,0.00522
2.804,0.05411
2.808,0.07653
2.812,0.08495
2.816,0.04489
2.82,0.06618
2.824,0.06517
2.828,0.03832
2.832,0.05582
2.836,0.0411
2.84,0.04397
2.844,0.00398
2.848,0.01735
2.852,-0.01156
2.856,-0.02634
2.86,-0.00518
2.864,-0.03398
2.868,-0.04791
2.872,-0.01484
2.876,-0.01002
2.88,-0.03006
2.884,-0.00149
2.888,-0.00105
2.892,-0.04766
2.896,-0.05524
2.9,-0.02588
2.904,-0.02843
2.908,-0.05433
2.912,-0.01936
2.916,0.00431
2.92,-0.02392
2.924,-0.01693
2.928,-0.04161
2.932,-0.04511
2.936,-0.05439
2.94,-0.09587
2.944,-0.13943
2.948,-0.15952
2.952,-0.09522
2.956,-0.03579
2.96,0.1464
2.964,0.34991
2.968,0.55578
2.972,0.75754
2.976,0.93377
2.98,0.96639
2.984,0.91703
2.988,0.77162
2.992,0.56104
2.996,0.3034
3.0,0.09556
3.004,-0.06114
3.008,-0.17271
3.012,-0.19614
3.016,-0.20426
3.02,-0.17418
3.024,-0.09604
3.028,-0.09708
3.032,-0.06003
3.036,-0.00412
3.04,-0.01161
3.044,-0.03526
3.048,-0.04048
3.052,-0.02036
3.056,-0.03828
3.06,-0.05418
3.064,-0.04153
3.068,-0.02051
3.072,-0.02395
3.076,-0.02761
3.08,-0.01733
3.084,-0.01949
3.088,-0.04616
3.092,-0.01535
3.096,-0.0607
3.1,-0.02294
3.104,-0.0432
3.108,-0.04266
3.112,-0.03309
3.116,-0.02378
3.12,-0.03242
3.124,-0.04506
3.128,-0.03057
3.132,-0.02319
3.136,-0.02571
3.14,-0.01704
3.144,-0.01635
3.148,-0.01037
3.152,-0.01417
3.156,-0.04023
3.16,-0.00956
3.164,0.00447
3.168,0.0016
3.172,0.00591
3.176,-0.00624
3.18,0.0084
3.184,0.01858
3.188,0.03909
3.192,0.03004
3.196,0.05457
3.2,0.07708
3.204,0.04579
3.208,0.10484
3.212,0.08882
3.216,0.10053
3.22,0.13185
3.224,0.1375
3.228,0.13538
3.232,0.13899
3.236,0.13599
3.24,0.15281
3.244,0.16801
3.248,0.18089
3.252,0.1925
3.256,0.1885
3.26,0.19892
3.264,0.17507
3.268,0.18805
3.272,0.19924
3.276,0.18906
3.28,0.15028
3.284,0.16132
3.288,0.15319
3.292,0.16514
3.296,0.12103
3.3,0.10411
3.304,0.11041
3.308,0.10866
3.312,0.10556
3.316,0.05226
3.32,0.05858
3.324,0.0543
3.328,0.05963
3.332,0.04302
3.336,0.03876
3.34,0.03488
3.344,-0.00794
3.348,-0.00391
3.352,0.01203
3.356,-0.01226
3.36,0.00596
3.364,-0.01757
3.368,-0.00692
3.372,-0.04336
3.376,-0.03856
3.38,-0.03169
3.384,-0.03209
3.388,-0.02214
3.392,-0.05072
3.396,-0.01299
3.4,-0.04386
3.404,-0.01771
3.408,-0.03282
3.412,-0.02488
3.416,-0.01608
3.42,-0.00602
3.424,-0.05338
3.428,-0.02882
3.432,-0.03546
3.436,-0.03856
3.44,-0.02902
3.444,-0.04736
3.448,-0.04635
3.452,-0.04803
3.456,-0.04658
3.46,-0.03601
3.464,-0.02869
3.468,-0.06067
3.472,0.00621
3.476,-0.04309
3.48,-0.0331
3.484,-0.02414
3.488,-0.03111
3.492,-0.00632
3.496,-0.01207
3.5,0.0168
3.504,0.02669
3.508,0.0163
3.512,0.03598
3.516,0.0753
3.52,0.06871
3.524,0.06271
3.528,0.05606
3.532,0.08271
3.536,0.04704
3.54,0.07256
3.544,0.04649
3.548,0.02004
3.552,0.03978
3.556,0.00522
3.56,0.0219
3.564,-0.03264
3.568,-0.0154
3.572,-0.01445
3.576,-0.02304
3.58,-0.00362
3.584,-0.05296
3.588,-0.02094
3.592,-0.0385
3.596,-0.03709
3.6,-0.0299
3.604,-0.01087
3.608,-0.01597
3.612,-0.0247
3.616,-0.01523
3.62,-0.02531
3.624,-0.0379
3.628,-0.04972
3.632,-0.02919
3.636,-0.0356
3.64,-0.04703
3.644,-0.07614
3.648,-0.11959
3.652,-0.12586
3.656,-0.13578
3.66,-0.09393
3.664,0.06624
3.668,0.18557
3.672,0.41034
3.676,0.62965
3.68,0.78669
3.684,0.94917
3.688,1.00531
3.692,0.86288
3.696,0.68772
3.7,0.47507
3.704,0.23348
3.708,0.07646
3.712,-0.07982
3.716,-0.15777
3.72,-0.19592
3.724,-0.17094
3.728,-0.14737
3.732,-0.04244
3.736,-0.05467
3.74,-0.03808
3.744,-0.02368
3.748,-0.02462
3.752,-0.02383
3.756,-0.02171
3.76,0.00343
3.764,-0.04263
3.768,0.00048
3.772,-0.021
3.776,-0.01302
3.78,-0.00858
3.784,0.0005
3.788,-0.01549
3.792,-0.01028
3.796,-0.02803
3.8,-0.01205
3.804,-0.03256
3.808,-0.01033
3.812,-0.02809
3.816,0.00233
3.82,-0.00186
3.824,-0.01842
3.828,-0.002
3.832,-0.0172
3.836,-0.02326
3.84,-0.03685
3.844,-0.03264
3.848,-0.02963
3.852,-0.02072
3.856,0.01414
3.86,-0.02927
3.864,-0.03354
3.868,-0.02485
3.872,0.00604
3.876,-0.00175
3.88,-0.0164
3.884,0.01131
3.888,0.03048
3.892,0.01654
3.896,0.04707
3.9,0.05944
3.904,0.07963
3.908,0.07346
3.912,0.11144
3.916,0.08453
3.92,0.09666
3.924,0.1259
3.928,0.14363
3.932,0.16484
3.936,0.17628
3.94,0.15928
3.944,0.18275
3.948,0.19282
3.952,0.21533
3.956,0.20831
3.96,0.18696
3.964,0.19063
3.968,0.20908
3.972,0.21426
3.976,0.18632
3.98,0.20887
3.984,0.17751
3.988,0.17096
3.992,0.16203
3.996,0.1462
4.0,0.12403
4.004,0.1076
4.008,0.1242
4.012,0.09111
4.016,0.10573
4.02,0.08671
4.024,0.06621
4.028,0.08374
4.032,0.03028
4.036,0.0749
4.04,0.04078
4.044,0.03165
4.048,-0.0076
4.052,0.0411
4.056,-0.00338
4.06,0.01066
4.064,-0.0165
4.068,0.01223
4.072,-0.00056
4.076,-0.0092
4.08,-0.00884
4.084,-0.0201
4.088,0.00551
4.092,-0.03051
4.096,-0.04745
4.1,-0.01522
4.104,-0.01407
4.108,-0.03017
4.112,-0.0435
4.116,0.01428
4.12,-0.04551
4.124,-0.03261
4.128,-0.01222
4.132,-0.03169
4.136,-0.01233
4.14,0.00899
4.144,-0.02632
4.148,-0.02433
4.152,-0.00734
4.156,-0.03873
4.16,-0.02675
4.164,-0.02005
4.168,-0.03302
4.172,-0.00801
4.176,-0.04004
4.18,-0.01241
4.184,0.00194
4.188,-0.0045
4.192,-0.00452
4.196,-0.00786
4.2,-0.00857
4.204,-0.00047
4.208,-0.00144
4.212,-0.00797
4.216,-0.0287
4.22,-0.00776
4.224,-0.0143
4.228,-0.03348
4.232,-0.00642
4.236,-0.01202
4.24,-0.01577
4.244,-0.01143
4.248,0.00106
4.252,-0.01637
4.256,-0.0186
4.26,-0.01322
4.264,-0.00601
4.268,-0.01933
4.272,-0.01948
4.276,-0.0235
4.28,-0.01818
4.284,0.01276
4.288,0.01179
4.292,-0.02155
4.296,-0.01083
4.3,0.00089
4.304,-0.03121
4.308,-0.02595
4.312,-0.01195
4.316,0.00759
4.32,0.01764
4.324,0.0325
4.328,0.04053
4.332,0.0492
4.336,0.06774
4.34,0.05278
4.344,0.07701
4.348,0.1048
4.352,0.10772
4.356,0.06241
4.36,0.05057
4.364,0.07512
4.368,0.0713
4.372,0.03346
4.376,0.01733
4.38,0.05618
4.384,-0.00895
4.388,0.02138
4.392,0.01805
4.396,0.00173
4.4,-0.0221
4.404,-0.0364
4.408,-0.01808
4.412,0.027
4.416,-0.04025
4.42,-0.03234
4.424,0.00548
4.428,-0.02571
4.432,-0.01169
4.436,-0.01999
4.44,-0.03081
4.444,0.00021
4.448,-0.02285
4.452,-0.00462
4.456,-0.0001
4.46,0.01237
4.464,-0.03305
4.468,-0.03865
4.472,-0.09129
4.476,-0.12001
4.48,-0.11218
4.484,-0.08163
4.488,0.02783
4.492,0.16812
4.496,0.35535
4.5,0.60775
4.504,0.78899
4.508,0.94696
4.512,1.00561
4.516,0.91012
4.52,0.76622
4.524,0.56237
4.528,0.32919
4.532,0.09055
4.536,-0.06298
4.54,-0.1702
4.544,-0.1861
4.548,-0.15783
4.552,-0.13888
4.556,-0.06985
4.56,-0.06054
4.564,-0.03279
4.568,-0.02299
4.572,-0.01142
4.576,-0.00469
4.58,-0.0085
4.584,-0.00102
4.588,0.00135
4.592,-0.00218
4.596,0.00253
4.6,-0.00683
4.604,-0.00868
4.608,-0.01982
4.612,0.00249
4.616,0.03325
4.62,-0.01407
4.624,-0.01086
4.628,-0.02666
4.632,-0.02182
4.636,0.02357
4.64,-0.01125
4.644,0.01872
4.648,-0.00925
4.652,0.01238
4.656,0.01052
4.66,0.0087
4.664,-0.01328
4.668,0.00091
4.672,-0.00699
4.676,0.01011
4.68,0.01414
4.684,0.01138
4.688,0.00848
4.692,-0.00518
4.696,0.02305
4.7,0.00788
4.704,0.0124
4.708,0.04427
4.712,0.06111
4.716,0.05568
4.72,0.07343
4.724,0.04876
4.728,0.08114
4.732,0.08134
4.736,0.10836
4.74,0.10479
4.744,0.1197
4.748,0.11727
4.752,0.11675
4.756,0.13475
4.76,0.18524
4.764,0.19274
4.768,0.20519
4.772,0.1908
4.776,0.19132
4.78,0.21581
4.784,0.19176
4.788,0.20196
4.792,0.21917
4.796,0.22212
4.8,0.20112
4.804,0.21876
4.808,0.18297
4.812,0.18647
4.816,0.19984
4.82,0.19636
4.824,0.14882
4.828,0.16227
4.832,0.13535
4.836,0.12665
4.84,0.11596
4.844,0.11983
4.848,0.08672
4.852,0.09115
4.856,0.08095
4.86,0.04717
4.864,0.06839
4.868,0.06816
4.872,0.01622
4.876,0.02616
4.88,0.02654
4.884,0.02898
4.888,0.02646
4.892,0.04011
4.896,0.00068
4.9,0.0081
4.904,0.02565
4.908,0.01078
4.912,0.02108
4.916,0.01069
4.92,0.02035
4.924,0.01881
4.928,0.01143
4.932,-0.00803
4.936,0.01822
4.94,-0.01933
4.944,0.01215
4.948,-0.00029
4.952,-0.01172
4.956,-0.01061
4.96,8e-05
4.964,0.00791
4.968,-0.00482
4.972,-0.01672
4.976,-0.00182
4.98,0.0153
4.984,0.00671
4.988,0.0076
4.992,-0.00605
4.996,0.00627
5.0,0.01769
5.004,0.00637
5.008,0.01458
5.012,-0.00164
5.016,0.03589
5.02,-0.00803
5.024,0.02567
5.028,0.01389
5.032,0.00027
5.036,0.00393
5.04,0.02132
5.044,0.01516
5.048,0.0146
5.052,0.00757
5.056,-0.00845
5.06,0.0207
5.064,0.02767
5.068,0.02047
5.072,0.02491
5.076,-0.00333
5.08,0.00314
5.084,0.02423
5.088,0.01596
5.092,0.01094
5.096,-0.00991
5.1,-0.00388
5.104,-0.00757
5.108,0.01906
5.112,0.01085
5.116,0.0074
5.12,0.03228
5.124,-0.00806
5.128,-0.01333
5.132,-0.00465
5.136,0.01082
5.14,0.00657
5.144,0.00574
5.148,0.00114
5.152,0.00563
5.156,0.02226
5.16,0.02311
5.164,0.02352
5.168,0.01625
5.172,0.00748
5.176,0.03225
5.18,0.00064
5.184,-0.01572
5.188,-0.00929
5.192,0.00308
5.196,0.00853
5.2,-0.00333
5.204,0.01357
5.208,-0.005
5.212,-0.00662
5.216,0.01604
5.22,-0.00501
5.224,0.00744
5.228,0.01969
5.232,0.00234
5.236,0.04867
5.24,0.06339
5.244,0.05605
5.248,0.07119
5.252,0.07409
5.256,0.09366
5.26,0.10418
5.264,0.12021
5.268,0.09925
5.272,0.13583
5.276,0.10636
5.28,0.10258
5.284,0.07431
5.288,0.06209
5.292,0.05398
5.296,0.06591
5.3,0.02097
5.304,0.02722
5.308,0.03317
5.312,-0.00123
5.316,0.02091
5.32,0.02163
5.324,0.01549
5.328,0.02204
5.332,0.01719
5.336,0.02785
5.34,0.02861
5.344,0.03503
5.348,0.02635
5.352,0.02427
5.356,0.00952
5.36,-0.01654
5.364,-0.01288
5.368,-0.00064
5.372,0.00989
5.376,0.01105
5.38,-0.0082
5.384,-0.04463
5.388,0.00567
5.392,-0.04934
5.396,-0.10485
5.4,-0.08686
5.404,0.00625
5.408,0.1509
5.412,0.33913
5.416,0.57344
5.42,0.75432
5.424,0.92959
5.428,0.99191
5.432,0.98305
5.436,0.85097
5.44,0.65606
5.444,0.41612
5.448,0.16736
5.452,0.05513
5.456,-0.10395
5.46,-0.11966
5.464,-0.15021
5.468,-0.12165
5.472,-0.07633
5.476,-0.03653
5.48,-0.02174
5.484,0.01891
5.488,-0.00858
5.492,0.01941
5.496,-0.01215
5.5,0.01835
5.504,0.0359
5.508,0.02071
5.512,0.01836
5.516,-0.00327
5.52,0.00449
5.524,0.01561
5.528,0.02478
5.532,0.02433
5.536,0.02659
5.54,0.00511
5.544,0.00863
5.548,-0.00014
5.552,-0.00234
5.556,0.04061
5.56,-0.00663
5.564,-0.00815
5.568,0.03124
5.572,0.00646
5.576,0.00894
5.58,0.033
5.584,0.02208
5.588,0.017
5.592,-0.00658
5.596,0.02249
5.6,0.03186
5.604,0.05778
5.608,0.04373
5.612,0.0365
5.616,0.07832
5.62,0.05931
5.624,0.0477
5.628,0.05627
5.632,0.05701
5.636,0.07641
5.64,0.0772
5.644,0.11983
5.648,0.08472
5.652,0.1439
5.656,0.13622
5.66,0.14314
5.664,0.1436
5.668,0.15341
5.672,0.19658
5.676,0.16921
5.68,0.17598
5.684,0.20854
5.688,0.20903
5.692,0.2083
5.696,0.22346
5.7,0.23242
5.704,0.25605
5.708,0.25976
5.712,0.23234
5.716,0.24431
5.72,0.23864
5.724,0.25749
5.728,0.2257
5.732,0.22265
5.736,0.20985
5.74,0.21426
5.744,0.19094
5.748,0.19265
5.752,0.17785
5.756,0.14546
5.76,0.13141
5.764,0.116
5.768,0.10891
5.772,0.09765
5.776,0.08554
5.78,0.09838
5.784,0.08416
5.788,0.09314
5.792,0.08391
5.796,0.09141
5.8,0.04343
5.804,0.05919
5.808,0.05991
5.812,0.03527
5.816,0.03307
5.82,0.02203
5.824,0.02533
5.828,0.05117
5.832,0.01325
5.836,0.02646
5.84,0.04017
5.844,0.02844
5.848,0.04401
5.852,0.03495
5.856,0.0468
5.86,0.04685
5.864,0.00431
5.868,0.02975
5.872,0.02372
5.876,0.02379
5.88,0.03458
5.884,0.04074
5.888,0.02262
5.892,0.00146
5.896,0.0362
5.9,0.02421
5.904,0.03072
5.908,0.05248
5.912,0.03176
5.916,0.0052
5.92,0.03416
5.924,0.02469
5.928,0.02236
5.932,0.03153
5.936,0.0259
5.94,0.02667
5.944,0.04062
5.948,0.03737
5.952,0.03517
5.956,0.01665
5.96,0.00234
5.964,0.02354
5.968,0.03573
5.972,0.02028
5.976,0.01798
5.98,0.03213
5.984,0.03518
5.988,0.00343
5.992,0.03364
5.996,0.0244
6.0,0.03292
6.004,0.0179
6.008,0.01778
6.012,0.03198
6.016,0.0194
6.02,-0.00372
6.024,0.02834
6.028,0.03773
6.032,0.02375
6.036,0.00074
6.04,-0.00185
6.044,0.03405
6.048,0.02529
6.052,0.04779
6.056,0.0265
6.06,0.02119
6.064,0.04917
6.068,0.0568
6.072,0.0652
6.076,0.01851
6.08,0.02389
6.084,0.03605
6.088,0.05204
6.092,0.01674
6.096,0.02227
6.1,0.03396
6.104,-0.01238
6.108,0.02844
6.112,0.03267
6.116,0.0392
6.12,0.0288
6.124,-0.00111
6.128,0.00188
6.132,0.0041
6.136,0.05701
6.14,0.01331
6.144,0.02518
6.148,0.02986
6.152,0.00334
6.156,0.01664
6.16,0.04024
6.164,0.01251
6.168,0.05093
6.172,0.03433
6.176,0.01771
6.18,0.02788
6.184,0.02308
6.188,0.04763
6.192,0.0402
6.196,0.03847
6.2,0.02465
6.204,0.02191
6.208,0.04413
6.212,0.00711
6.216,0.0187
6.22,0.02647
6.224,0.04842
6.228,0.03672
6.232,0.00649
6.236,0.02726
6.24,0.04224
6.244,0.02516
6.248,0.00875
6.252,0.0283
6.256,0.02498
6.26,0.04027
6.264,0.02148
6.268,0.03614
6.272,0.07561
6.276,0.04765
6.28,0.05245
6.284,0.06831
6.288,0.07894
6.292,0.10964
6.296,0.08047
6.3,0.11447
6.304,0.14517
6.308,0.14159
6.312,0.11593
6.316,0.1058
6.32,0.15306
6.324,0.11189
6.328,0.10831
6.332,0.09603
6.336,0.07979
6.34,0.06834
6.344,0.05431
6.348,0.02408
6.352,0.02251
6.356,0.0448
6.36,0.03413
6.364,0.03325
6.368,0.00351
6.372,0.02504
6.376,0.04938
6.38,0.00417
6.384,0.01041
6.388,0.00941
6.392,0.0389
6.396,0.03166
6.4,0.06165
6.404,0.04469
6.408,0.00522
6.412,0.01776
6.416,-0.01242
6.42,0.04298
6.424,0.03526
6.428,0.01169
6.432,-0.01301
6.436,-0.0757
6.44,-0.07911
6.444,-0.05605
6.448,-0.03982
6.452,0.11829
6.456,0.26718
6.46,0.53306
6.464,0.72634
6.468,0.87552
6.472,1.01116
6.476,0.99289
6.48,0.91368
6.484,0.72104
6.488,0.50282
6.492,0.27673
6.496,0.08427
6.5,-0.03541
6.504,-0.09576
6.508,-0.12332
6.512,-0.10172
6.516,-0.07038
6.52,-0.04487
6.524,-0.00136
6.528,0.01351
6.532,0.03627
6.536,0.00449
6.54,0.03046
6.544,0.05303
6.548,0.03533
6.552,0.01598
6.556,0.02384
6.56,0.01118
6.564,0.03522
6.568,0.03351
6.572,0.00019
6.576,0.0148
6.58,0.02155
6.584,0.02742
6.588,0.04685
6.592,0.02264
6.596,0.03762
6.6,0.02932
6.604,0.02991
6.608,0.04124
6.612,0.04937
6.616,0.02758
6.62,0.01857
6.624,0.05503
6.628,0.0134
6.632,0.04148
6.636,0.02144
6.64,0.02598
6.644,0.033
6.648,0.05774
6.652,0.0583
6.656,0.03995
6.66,0.04316
6.664,0.05567
6.668,0.06915
6.672,0.10692
6.676,0.08919
6.68,0.06331
6.684,0.0739
6.688,0.11607
6.692,0.1036
6.696,0.14346
6.7,0.13321
6.704,0.12844
6.708,0.16041
6.712,0.17545
6.716,0.19052
6.72,0.22279
6.724,0.20629
6.728,0.18533
6.732,0.22063
6.736,0.2607
6.74,0.25269
6.744,0.2449
6.748,0.24193
6.752,0.2775
6.756,0.24163
6.76,0.23816
6.764,0.25177
6.768,0.24254
6.772,0.24907
6.776,0.21325
6.78,0.20675
6.784,0.21823
6.788,0.18018
6.792,0.18214
6.796,0.17429
6.8,0.17355
6.804,0.14371
6.808,0.11228
6.812,0.11856
6.816,0.08988
6.82,0.10893
6.824,0.05851
6.828,0.04916
6.832,0.05155
6.836,0.08607
6.84,0.09781
6.844,0.0593
6.848,0.06151
6.852,0.06996
6.856,0.04389
6.86,0.03775
6.864,0.0479
6.868,0.03404
6.872,0.02812
6.876,0.01348
6.88,0.04354
6.884,0.0089
6.888,0.03139
6.892,0.0371
6.896,0.0234
6.9,0.01887
6.904,0.03348
6.908,0.01582
6.912,-0.02259
6.916,0.0177
6.92,0.03424
6.924,0.00533
6.928,0.03044
6.932,0.00046
6.936,-0.00934
6.94,0.01003
6.944,0.02962
6.948,0.01687
6.952,-0.0003
6.956,0.03876
6.96,0.02021
6.964,0.02486
6.968,0.00373
6.972,0.0472
6.976,0.01683
6.98,0.00886
6.984,0.0492
6.988,0.02598
6.992,0.04517
6.996,0.01781
7.0,0.04009
7.004,0.03181
7.008,0.03174
7.012,0.0373
7.016,0.03635
7.02,0.0427
7.024,0.02616
7.028,0.04305
7.032,0.04434
7.036,0.00573
7.04,0.02589
7.044,0.03554
7.048,0.02954
7.052,0.03607
7.056,0.00977
7.06,0.02137
7.064,0.03589
7.068,0.04143
7.072,0.00733
7.076,0.01836
7.08,0.00744
7.084,0.02143
7.088,0.02927
7.092,0.03522
7.096,0.03753
7.1,0.05339
7.104,0.0095
7.108,0.05383
7.112,0.06318
7.116,0.05385
7.12,0.08373
7.124,0.07146
7.128,0.10925
7.132,0.11102
7.136,0.11995
7.14,0.13762
7.144,0.11864
7.148,0.11907
7.152,0.1027
7.156,0.11487
7.16,0.10309
7.164,0.05724
7.168,0.05846
7.172,0.04412
7.176,0.03032
7.18,0.03976
7.184,0.02496
7.188,-0.00408
7.192,0.02669
7.196,0.02941
7.2,0.03647
7.204,0.01922
7.208,0.02171
7.212,0.04203
7.216,0.01872
7.22,0.02848
7.224,0.02387
7.228,0.03667
7.232,0.03004
7.236,0.02109
7.24,0.03804
7.244,0.01734
7.248,0.00262
7.252,0.01301
7.256,-0.02367
7.26,0.01173
7.264,-0.06551
7.268,-0.10081
7.272,-0.11114
7.276,-0.03601
7.28,0.04872
7.284,0.24055
7.288,0.45416
7.292,0.64819
7.296,0.84733
7.3,0.97462
7.304,1.03199
7.308,0.93378
7.312,0.75528
7.316,0.54422
7.32,0.32732
7.324,0.09861
7.328,-0.04283
7.332,-0.11824
7.336,-0.14962
7.34,-0.1045
7.344,-0.0944
7.348,-0.02556
7.352,0.00715
7.356,0.00156
7.36,0.02798
7.364,0.02883
7.368,0.00201
7.372,0.0303
7.376,0.01102
7.38,0.04107
7.384,0.02917
7.388,0.04435
7.392,0.00824
7.396,0.02125
7.4,0.02827
7.404,0.02966
7.408,0.01632
7.412,0.03716
7.416,0.03047
7.42,0.00679
7.424,0.0041
7.428,0.01645
7.432,0.04702
7.436,0.04383
7.44,0.00286
7.444,0.03344
7.448,0.03231
7.452,0.007
7.456,0.03026
7.46,0.01724
7.464,0.03902
7.468,0.02972
7.472,-0.00273
7.476,0.02711
7.48,0.01678
7.484,0.04075
7.488,0.02848
7.492,0.04377
7.496,0.05142
7.5,0.06497
7.504,0.09998
7.508,0.08065
7.512,0.06764
7.516,0.08122
7.52,0.10653
7.524,0.10235
7.528,0.11649
7.532,0.14379
7.536,0.12658
7.54,0.13897
7.544,0.18276
7.548,0.1791
7.552,0.20753
7.556,0.16507
7.56,0.201
7.564,0.21555
7.568,0.21648
7.572,0.21662
7.576,0.22724
7.58,0.22049
7.584,0.20477
7.588,0.25647
7.592,0.23114
7.596,0.24826
7.6,0.21216
7.604,0.18728
7.608,0.1861
7.612,0.19908
7.616,0.15382
7.62,0.1469
7.624,0.14947
7.628,0.12677
7.632,0.14891
7.636,0.13477
7.64,0.1251
7.644,0.10779
7.648,0.08306
7.652,0.08562
7.656,0.09533
7.66,0.0692
7.664,0.06473
7.668,0.04768
7.672,0.03792
7.676,0.05239
7.68,0.04827
7.684,0.05372
7.688,0.01981
7.692,0.04765
7.696,0.01383
7.7,0.00463
7.704,0.02148
7.708,0.04494
7.712,0.02607
7.716,0.02797
7.72,0.02532
7.724,0.04808
7.728,0.01187
7.732,0.04007
7.736,-0.00691
7.74,0.00763
7.744,-0.01001
7.748,0.0075
7.752,0.00896
7.756,-0.00203
7.76,0.01062
7.764,-0.00601
7.768,0.01283
7.772,0.01431
7.776,0.01936
7.78,0.01662
7.784,0.00686
7.788,-0.01375
7.792,0.02845
7.796,0.02147
7.8,0.01124
7.804,0.00601
7.808,0.01467
7.812,-0.0007
7.816,0.05137
7.82,0.02053
7.824,-0.00511
7.828,0.01931
7.832,0.01244
7.836,0.01043
7.84,0.00577
7.844,0.01688
7.848,-0.0152
7.852,0.03896
7.856,0.01723
7.86,0.03466
7.864,0.02209
7.868,0.00099
7.872,0.00421
7.876,0.02353
7.88,0.02488
7.884,0.01219
7.888,0.02278
7.892,-0.00363
7.896,0.00818
7.9,0.03808
7.904,0.03873
7.908,0.03246
7.912,0.06559
7.916,0.06379
7.92,0.0582
7.924,0.05603
7.928,0.09488
7.932,0.09848
7.936,0.10576
7.94,0.10559
7.944,0.10536
7.948,0.10556
7.952,0.09897
7.956,0.09149
7.96,0.07672
7.964,0.08216
7.968,0.06372
7.972,0.03129
7.976,0.02954
7.98,0.00391
7.984,-0.00476
7.988,0.03
7.992,0.01394
7.996,0.02744
8.0,0.01526
8.004,0.01573
8.008,-0.00714
8.012,0.01467
8.016,0.01394
8.02,0.01143
8.024,0.00216
8.028,-0.00323
8.032,0.00324
8.036,-0.00532
8.04,-0.01523
8.044,0.01247
8.048,0.00273
8.052,-0.01001
8.056,0.00171
8.06,-0.01899
8.064,-0.07078
8.068,-0.11264
8.072,-0.10258
8.076,-0.06331
8.08,0.08447
8.084,0.25108
8.088,0.46211
8.092,0.6777
8.096,0.88097
8.1,0.98325
8.104,0.9983
8.108,0.87603
8.112,0.69903
8.116,0.46148
8.12,0.26249
8.124,0.0427
8.128,-0.07921
8.132,-0.15079
8.136,-0.15232
8.14,-0.14219
8.144,-0.08129
8.148,-0.05509
8.152,-0.01734
8.156,-0.0039
8.16,-0.01601
8.164,0.00352
8.168,0.00104
8.172,-0.00859
8.176,0.01945
8.18,-0.00419
8.184,0.01669
8.188,-0.00879
8.192,0.01891
8.196,-0.01816
8.2,-0.0087
8.204,0.00302
8.208,-0.02352
8.212,-0.01668
8.216,0.00904
8.22,-0.02704
8.224,-0.00837
8.228,0.02134
8.232,0.01733
8.236,-0.00699
8.24,-0.01925
8.244,-0.00029
8.248,0.00345
8.252,0.01541
8.256,-0.00346
8.26,-0.00105
8.264,0.00864
8.268,0.0113
8.272,-0.0028
8.276,0.02068
8.28,0.01012
8.284,0.03145
8.288,0.02124
8.292,0.00205
8.296,0.04313
8.3,0.0232
8.304,0.02146
8.308,0.05851
8.312,0.05959
8.316,0.04337
8.32,0.09476
8.324,0.10059
8.328,0.07886
8.332,0.12791
8.336,0.12173
8.34,0.13179
8.344,0.15841
8.348,0.1641
8.352,0.17316
8.356,0.16772
8.36,0.18271
8.364,0.19402
8.368,0.20604
8.372,0.24446
8.376,0.21907
8.38,0.22247
8.384,0.21344
8.388,0.21632
8.392,0.22493
8.396,0.20955
8.4,0.19419
8.404,0.20201
8.408,0.17008
8.412,0.1886
8.416,0.15315
8.42,0.13843
8.424,0.10339
8.428,0.12447
8.432,0.10193
8.436,0.08981
8.44,0.09797
8.444,0.06922
8.448,0.07277
8.452,0.05436
8.456,0.05534
8.46,0.03123
8.464,0.03153
8.468,-0.0094
8.472,0.01396
8.476,0.0164
8.48,0.00014
8.484,0.00993
8.488,0.01057
8.492,-0.01645
8.496,-0.0049
8.5,-0.01817
8.504,0.00113
8.508,0.00023
8.512,-0.0286
8.516,-0.00522
8.52,-0.00111
8.524,0.00379
8.528,-0.00925
8.532,0.00119
8.536,-0.01931
8.54,-0.02498
8.544,-0.02826
8.548,0.00569
8.552,-0.02236
8.556,-0.01837
8.56,-0.0217
8.564,-0.0147
8.568,-0.00331
8.572,-0.02511
8.576,-0.03286
8.58,-0.01233
8.584,0.00257
8.588,-0.0208
8.592,0.00288
8.596,-0.00835
8.6,-0.01091
8.604,0.00358
8.608,-0.02926
8.612,0.00082
8.616,-0.02073
8.62,-0.02464
8.624,-0.02791
8.628,-0.00467
8.632,-0.02082
8.636,-0.02861
8.64,-0.02398
8.644,-0.03894
8.648,-0.00098
8.652,0.00435
8.656,0.01041
8.66,-0.00542
8.664,0.01593
8.668,-0.01704
8.672,-0.01823
8.676,-0.02385
8.68,-0.01308
8.684,-0.03785
8.688,-0.00021
8.692,-0.01417
8.696,-0.01744
8.7,-0.01365
8.704,-0.00746
8.708,-0.00687
8.712,-0.03796
8.716,-0.02461
8.72,-0.01349
8.724,-0.01976
8.728,-0.01729
8.732,-0.00268
8.736,-0.00103
8.74,-0.03492
8.744,-0.01246
8.748,-0.02844
8.752,-0.02356
8.756,-0.02416
8.76,0.01669
8.764,0.00868
8.768,-0.00431
8.772,-0.04873
8.776,-0.01554
8.78,-0.01027
8.784,-0.03882
8.788,-0.0111
8.792,0.00069
8.796,0.00907
8.8,0.0015
8.804,-0.01928
8.808,-0.02788
8.812,0.0025
8.816,-0.02508
8.82,0.01036
8.824,0.01485
8.828,0.0253
8.832,0.02395
8.836,0.05649
8.84,0.02209
8.844,0.09423
8.848,0.07932
8.852,0.09919
8.856,0.10252
8.86,0.08088
8.864,0.075
8.868,0.05066
8.872,0.07117
8.876,0.01701
8.88,0.02798
8.884,-0.02063
8.888,0.02525
8.892,-0.005
8.896,0.00133
8.9,-0.02441
8.904,0.00329
8.908,-0.0165
8.912,-0.01372
8.916,-0.00145
8.92,-0.0182
8.924,-0.03389
8.928,-0.02678
8.932,-0.0408
8.936,-0.03332
8.94,-0.00746
8.944,-0.02874
8.948,-0.01316
8.952,-0.01677
8.956,-0.02826
8.96,-0.02075
8.964,-0.03521
8.968,-0.05173
8.972,-0.06777
8.976,-0.0859
8.98,-0.12296
8.984,-0.1312
8.988,-0.0763
8.992,0.03299
8.996,0.1957
9.0,0.4267
9.004,0.6343
9.008,0.81764
9.012,0.9529
9.016,0.95024
9.02,0.88086
9.024,0.69168
9.028,0.47633
9.032,0.24514
9.036,0.05531
9.04,-0.10233
9.044,-0.16202
9.048,-0.18615
9.052,-0.16201
9.056,-0.12787
9.06,-0.08522
9.064,-0.05219
9.068,-0.03837
9.072,-0.02254
9.076,-0.03753
9.08,-0.02722
9.084,-0.01342
9.088,0.00471
9.092,-0.01446
9.096,-0.02813
9.1,-0.00087
9.104,-0.02043
9.108,-0.04666
9.112,-0.03712
9.116,0.00174
9.12,-0.00216
9.124,-0.03307
9.128,-0.01004
9.132,-0.05406
9.136,-0.03668
9.14,-0.00667
9.144,-0.00394
9.148,-0.02036
9.152,-0.01789
9.156,-0.04585
9.16,-0.03211
9.164,-0.04257
9.168,0.00237
9.172,-0.05369
9.176,-0.00294
9.18,-0.0291
9.184,-0.0209
9.188,-0.01215
9.192,-0.00886
9.196,-0.02186
9.2,-0.00879
9.204,-0.00973
9.208,0.00311
9.212,0.03684
9.216,-0.01214
9.22,0.01384
9.224,0.03232
9.228,0.04619
9.232,0.0609
9.236,0.06913
9.24,0.06385
9.244,0.08947
9.248,0.0724
9.252,0.12332
9.256,0.13618
9.26,0.13287
9.264,0.13762
9.268,0.15565
9.272,0.20023
9.276,0.17298
9.28,0.18205
9.284,0.1634
9.288,0.1717
9.292,0.21143
9.296,0.20711
9.3,0.19603
9.304,0.17743
9.308,0.17169
9.312,0.19107
9.316,0.18467
9.32,0.18781
9.324,0.13957
9.328,0.13863
9.332,0.11559
9.336,0.09611
9.34,0.10099
9.344,0.08234
9.348,0.09265
9.352,0.07516
9.356,0.05967
9.36,0.05014
9.364,0.05154
9.368,0.03977
9.372,0.01172
9.376,0.01743
9.38,0.02294
9.384,0.00503
9.388,-0.00511
9.392,0.00788
9.396,-0.01351
9.4,-0.03239
9.404,0.01121
9.408,-0.01935
9.412,-0.02834
9.416,-0.0364
9.42,-0.00877
9.424,-0.02658
9.428,-0.03411
9.432,-0.05929
9.436,-0.0283
9.44,-0.02476
9.444,-0.04097
9.448,-0.05072
9.452,-0.03708
9.456,-0.03367
9.46,-0.03747
9.464,-0.05643
9.468,-0.01607
9.472,0.00329
9.476,-0.02725
9.48,-0.03931
9.484,-0.05045
9.488,-0.01835
9.492,-0.00823
9.496,-0.03835
9.5,-0.01676
9.504,-0.02244
9.508,-0.0027
9.512,-0.03196
9.516,-0.04692
9.52,-0.03611
9.524,-0.02144
9.528,-0.01575
9.532,0.00185
9.536,-0.02379
9.54,-0.03624
9.544,-0.05739
9.548,-0.04716
9.552,-0.02557
9.556,-0.02301
9.56,-0.02423
9.564,-0.01617
9.568,-0.05183
9.572,-0.03242
9.576,-0.01606
9.58,-0.03889
9.584,-0.05216
9.588,-0.00596
9.592,-0.01715
9.596,-0.02464
9.6,-0.0238
9.604,0.00251
9.608,-0.01505
9.612,-0.0553
9.616,-0.05152
9.62,-0.0255
9.624,-0.03011
9.628,-0.03433
9.632,-0.0314
9.636,-0.00814
9.64,-0.02001
9.644,-0.03464
9.648,-0.0404
9.652,-0.02766
9.656,-0.01741
9.66,-0.03454
9.664,-0.03842
9.668,-0.04108
9.672,-0.03424
9.676,-0.01537
9.68,-0.03295
9.684,0.01327
9.688,-0.02646
9.692,-0.03627
9.696,-0.03523
9.7,-0.03776
9.704,-0.02085
9.708,-0.03952
9.712,-0.02309
9.716,-0.04809
9.72,-0.05775
9.724,-0.03877
9.728,-0.03939
9.732,0.0018
9.736,-0.01358
9.74,-0.02865
9.744,-0.02273
9.748,-0.04553
9.752,-0.03896
9.756,-0.02287
9.76,-0.01078
9.764,8e-05
9.768,0.0006
9.772,0.0461
9.776,0.02776
9.78,0.06186
9.784,0.05752
9.788,0.08496
9.792,0.06948
9.796,0.07697
9.8,0.03473
9.804,0.05289
9.808,0.02306
9.812,0.00233
9.816,-0.00036
9.82,0.01353
9.824,-0.00205
9.828,0.01408
9.832,-0.01163
9.836,-0.03479
9.84,-0.01794
9.844,-0.04907
9.848,-0.03466
9.852,-0.00961
9.856,-0.01812
9.86,-0.02208
9.864,-0.04569
9.868,-0.03408
9.872,-0.00836
9.876,-0.02979
9.88,-0.03631
9.884,-0.03813
9.888,-0.04308
9.892,-0.02852
9.896,-0.03238
9.9,-0.02706
9.904,-0.0234
9.908,-0.05769
9.912,-0.06643
9.916,-0.11903
9.92,-0.13251
9.924,-0.13124
9.928,-0.07921
9.932,0.04884
9.936,0.27588
9.94,0.44346
9.944,0.68756
9.948,0.88739
9.952,0.96869
9.956,0.95478
9.96,0.8328
9.964,0.63944
9.968,0.42143
9.972,0.19195
9.976,-0.00083
9.98,-0.07875
9.984,-0.16947
9.988,-0.18526
9.992,-0.17197
9.996,-0.14189
