t_seg,ecg_mV
0.0,-0.02857
0.004,0.00079
0.008,-0.04054
0.012,-0.03048
0.016,-0.02276
0.02,-0.02813
0.024,-0.03237
0.028,-0.02422
0.032,-0.03518
0.036,-0.04538
0.04,-0.0248
0.044,-0.04674
0.048,-0.03901
0.052,-0.01676
0.056,-0.01904
0.06,-0.00603
0.064,-0.011
0.068,-0.0481
0.072,-0.04404
0.076,-0.02859
0.08,-0.02395
0.084,-0.00149
0.088,-0.0434
0.092,-0.02546
0.096,-0.03749
0.1,-0.0463
0.104,-0.03328
0.108,-0.04302
0.112,-0.03966
0.116,-0.03194
0.12,-0.02279
0.124,-0.03157
0.128,-0.01463
0.132,-0.02002
0.136,-0.02594
0.14,-0.04629
0.144,-0.03516
0.148,-0.04896
0.152,-0.01526
0.156,-0.0113
0.16,-0.04048
0.164,-0.03137
0.168,-0.03787
0.172,-0.0225
0.176,-0.01302
0.18,-0.034
0.184,-0.06476
0.188,-0.03727
0.192,-0.04253
0.196,-0.01116
0.2,-0.0414
0.204,-0.01657
0.208,-0.01821
0.212,-0.01769
0.216,-0.06146
0.22,-0.04169
0.224,-0.0068
0.228,-0.02303
0.232,-0.02666
0.236,-0.03795
0.24,-0.03625
0.244,-0.02501
0.248,-0.03055
0.252,-0.03921
0.256,-0.02109
0.26,-0.05255
0.264,-0.03664
0.268,-0.04049
0.272,0.00298
0.276,-0.01906
0.28,-0.02912
0.284,-0.04628
0.288,0.00065
0.292,-0.02832
0.296,-0.04307
0.3,-0.02438
0.304,-0.02628
0.308,-0.01307
0.312,-0.02636
0.316,-0.02288
0.32,-0.03312
0.324,-0.0558
0.328,-0.0544
0.332,-0.04435
0.336,-0.02436
0.34,-0.01608
0.344,-0.01257
0.348,-0.02355
0.352,-0.05389
0.356,-0.01226
0.36,-0.02261
0.364,-0.04069
0.368,-0.05855
0.372,-0.03211
0.376,-0.03797
0.38,0.00823
0.384,-0.02433
0.388,-0.04375
0.392,-0.0288
0.396,-0.01903
0.4,-0.02585
0.404,-0.0268
0.408,-0.02818
0.412,-0.03173
0.416,-0.03136
0.42,-0.01945
0.424,-0.00171
0.428,-0.03344
0.432,-0.04185
0.436,-0.02244
0.44,-0.01099
0.444,0.00827
0.448,-0.00525
0.452,-0.00512
0.456,0.00404
0.46,-0.02996
0.464,-0.03511
0.468,-0.01104
0.472,-0.01205
0.476,-0.04806
0.48,-0.02454
0.484,-0.02735
0.488,-0.0373
0.492,0.00446
0.496,-0.02345
0.5,-0.01561
0.504,-0.04753
0.508,0.00473
0.512,-0.01212
0.516,-0.05165
0.52,-0.02296
0.524,-0.02375
0.528,-0.00967
0.532,-0.00778
0.536,-0.00679
0.54,-0.02792
0.544,-0.01035
0.548,-0.03641
0.552,-0.01767
0.556,-0.01557
0.56,0.01687
0.564,0.02369
0.568,0.02512
0.572,0.03316
0.576,0.05989
0.58,0.08073
0.584,0.07188
0.588,0.07073
0.592,0.07811
0.596,0.0909
0.6,0.05167
0.604,0.07097
0.608,0.06229
0.612,0.03238
0.616,0.01765
0.62,0.04987
0.624,-0.00056
0.628,-0.00208
0.632,-0.00249
0.636,-0.00203
0.64,-0.03191
0.644,-0.00387
0.648,0.00018
0.652,-0.00723
0.656,-0.00502
0.66,-0.02856
0.664,-0.02387
0.668,-0.04414
0.672,0.01105
0.676,-0.02905
0.68,-0.01696
0.684,-0.0373
0.688,-0.02901
0.692,-0.0194
0.696,-0.01787
0.7,-0.00863
0.704,-0.02382
0.708,-0.02399
0.712,-0.10243
0.716,-0.11298
0.72,-0.1402
0.724,-0.12289
0.728,0.00087
0.732,0.17798
0.736,0.33539
0.74,0.57439
0.744,0.77815
0.748,0.89959
0.752,0.96257
0.756,0.9432
0.76,0.77067
0.764,0.59655
0.768,0.30604
0.772,0.1369
0.776,-0.04326
0.78,-0.14931
0.784,-0.16901
0.788,-0.2064
0.792,-0.14269
0.796,-0.08824
0.8,-0.04954
0.804,-0.03248
0.808,-0.02529
0.812,-0.01281
0.816,-0.01561
0.82,-0.01841
0.824,-0.01623
0.828,-0.03604
0.832,-0.00697
0.836,-0.02529
0.84,-0.03574
0.844,-0.01156
0.848,-0.02341
0.852,0.00985
0.856,-0.027
0.86,-0.02947
0.864,-0.03343
0.868,0.00958
0.872,0.0081
0.876,-0.03822
0.88,-0.01076
0.884,-0.03033
0.888,-0.03044
0.892,-0.02424
0.896,-0.00197
0.9,-0.01385
0.904,-0.01642
0.908,-0.00579
0.912,0.0086
0.916,-0.02024
0.92,-0.00146
0.924,-9e-05
0.928,-0.00698
0.932,0.0179
0.936,0.00417
0.94,0.0123
0.944,0.03977
0.948,0.02119
0.952,0.03932
0.956,0.01557
0.96,0.02789
0.964,0.0325
0.968,0.06389
0.972,0.09778
0.976,0.08612
0.98,0.09562
0.984,0.11867
0.988,0.13714
0.992,0.12642
0.996,0.14559
1.0,0.17098
1.004,0.1761
1.008,0.15577
1.012,0.20174
1.016,0.16998
1.02,0.22857
1.024,0.20796
1.028,0.22085
1.032,0.19695
1.036,0.21266
1.04,0.21987
1.044,0.19612
1.048,0.16469
1.052,0.19658
1.056,0.19104
1.06,0.17195
1.064,0.1389
1.068,0.16089
1.072,0.11684
1.076,0.12911
1.08,0.10729
1.084,0.10613
1.088,0.10954
1.092,0.07151
1.096,0.07113
1.1,0.0601
1.104,0.06036
1.108,0.04179
1.112,0.01151
1.116,0.01168
1.12,0.04456
1.124,0.01695
1.128,0.02198
1.132,-0.0027
1.136,0.04776
1.14,0.03596
1.144,0.02217
1.148,-0.00017
1.152,0.02036
1.156,0.0163
1.16,0.00075
1.164,-0.00616
1.168,0.00024
1.172,-0.02878
1.176,-0.01602
1.18,-0.00502
1.184,0.01719
1.188,-0.01582
1.192,-0.03143
1.196,-0.03421
1.2,0.02578
1.204,-0.02784
1.208,-0.00586
1.212,-0.00788
1.216,0.01427
1.22,-0.01991
1.224,0.01677
1.228,0.01495
1.232,0.01552
1.236,-0.02425
1.24,-0.01527
1.244,-0.00922
1.248,0.00338
1.252,-0.00529
1.256,0.00396
1.26,-0.01014
1.264,-0.00383
1.268,-0.00531
1.272,-0.00216
1.276,-0.00403
1.28,-0.0082
1.284,0.02701
1.288,0.01249
1.292,-0.01997
1.296,0.01223
1.3,-0.01347
1.304,0.00535
1.308,-0.01456
1.312,0.02944
1.316,0.01423
1.32,-0.02822
1.324,0.007
1.328,-0.02345
1.332,0.00444
1.336,0.01216
1.34,-0.00436
1.344,-0.01897
1.348,0.00504
1.352,-0.0154
1.356,-0.0227
1.36,-0.00715
1.364,0.01247
1.368,0.01701
1.372,0.0348
1.376,0.01662
1.38,0.02663
1.384,-0.01149
1.388,-0.00672
1.392,0.01144
1.396,-0.0017
1.4,-0.00668
1.404,-0.01146
1.408,-0.00653
1.412,0.0352
1.416,-0.00572
1.42,-0.02875
1.424,0.0241
1.428,-0.00029
1.432,-0.00646
1.436,-0.01823
1.44,-0.01223
1.444,0.04473
1.448,-0.01359
1.452,0.0028
1.456,0.0039
1.46,-0.00508
1.464,0.02116
1.468,-0.00326
1.472,-0.0124
1.476,-0.00643
1.48,-0.01596
1.484,0.01087
1.488,0.01127
1.492,0.01134
1.496,-0.01757
1.5,-0.03847
1.504,0.00333
1.508,-0.02613
1.512,-0.01606
1.516,0.01237
1.52,-0.00359
1.524,-0.0038
1.528,-0.00685
1.532,-0.02451
1.536,0.01498
1.54,0.00271
1.544,-0.01322
1.548,-0.04281
1.552,0.0177
1.556,-0.03185
1.56,0.00109
1.564,0.02845
1.568,0.01296
1.572,0.00513
1.576,0.02344
1.58,0.02165
1.584,0.06756
1.588,0.04109
1.592,0.07651
1.596,0.09204
1.6,0.08802
1.604,0.11105
1.608,0.11592
1.612,0.1059
1.616,0.11859
1.62,0.08824
1.624,0.09861
1.628,0.04928
1.632,0.09849
1.636,0.04004
1.64,0.02663
1.644,0.02749
1.648,0.03239
1.652,0.0188
1.656,-0.0152
1.66,0.01921
1.664,0.02124
1.668,-0.01557
1.672,-0.01579
1.676,0.00044
1.68,-0.01253
1.684,-0.01753
1.688,0.00038
1.692,-0.00155
1.696,0.01191
1.7,0.0193
1.704,0.01124
1.708,0.01396
1.712,0.00555
1.716,-0.00208
1.72,-0.02335
1.724,0.00585
1.728,-0.04167
1.732,-0.05905
1.736,-0.11032
1.74,-0.08386
1.744,-0.02594
1.748,0.12798
1.752,0.29542
1.756,0.49496
1.76,0.73019
1.764,0.87913
1.768,0.97368
1.772,0.97049
1.776,0.88546
1.78,0.71572
1.784,0.44837
1.788,0.21681
1.792,0.03137
1.796,-0.08293
1.8,-0.13802
1.804,-0.15647
1.808,-0.12054
1.812,-0.11112
1.816,-0.04754
1.82,0.0071
1.824,-0.01069
1.828,0.01942
1.832,-0.01492
1.836,-0.00743
1.84,0.0148
1.844,0.025
1.848,-0.0019
1.852,0.001
1.856,0.01893
1.86,0.02367
1.864,0.01453
1.868,0.01419
1.872,0.0103
1.876,0.01432
1.88,0.0178
1.884,0.00695
1.888,-0.0018
1.892,0.01864
1.896,-0.00788
1.9,0.01994
1.904,-0.00772
1.908,-0.00027
1.912,0.01904
1.916,0.03648
1.92,0.01237
1.924,0.0173
1.928,0.01285
1.932,0.0164
1.936,0.01163
1.94,0.01653
1.944,0.02204
1.948,0.0279
1.952,0.03767
1.956,0.0536
1.96,0.03378
1.964,0.03464
1.968,0.06067
1.972,0.04205
1.976,0.10104
1.98,0.05458
1.984,0.10055
1.988,0.09425
1.992,0.11501
1.996,0.10557
2.0,0.1271
2.004,0.12817
2.008,0.13841
2.012,0.16656
2.016,0.18395
2.02,0.18359
2.024,0.18147
2.028,0.21205
2.032,0.19829
2.036,0.20276
2.04,0.2234
2.044,0.24275
2.048,0.24409
2.052,0.25932
2.056,0.22524
2.06,0.22948
2.064,0.25777
2.068,0.20836
2.072,0.19511
2.076,0.19045
2.08,0.19926
2.084,0.17653
2.088,0.16551
2.092,0.13533
2.096,0.13573
2.1,0.13621
2.104,0.13033
2.108,0.09747
2.112,0.09832
2.116,0.08078
2.12,0.08541
2.124,0.07679
2.128,0.05336
2.132,0.04832
2.136,0.05129
2.14,0.05215
2.144,0.06238
2.148,0.06053
2.152,0.03661
2.156,0.03664
2.16,0.04707
2.164,0.02414
2.168,0.00611
2.172,0.00478
2.176,0.00548
2.18,0.02002
2.184,0.02885
2.188,0.01713
2.192,0.03194
2.196,0.02483
2.2,-0.0056
2.204,0.00147
2.208,0.01246
2.212,0.02797
2.216,-0.0114
2.22,0.02651
2.224,0.02754
2.228,0.02556
2.232,0.0115
2.236,0.02195
2.24,0.04449
2.244,-0.00163
2.248,0.03693
2.252,0.03236
2.256,0.01323
2.26,0.02082
2.264,0.0147
2.268,0.01018
2.272,0.03536
2.276,0.00671
2.28,0.0105
2.284,0.03129
2.288,0.01612
2.292,-0.02097
2.296,0.0197
2.3,0.01658
2.304,0.02639
2.308,0.03244
2.312,0.01524
2.316,0.01301
2.32,0.03366
2.324,0.06291
2.328,0.07338
2.332,0.03951
2.336,0.09064
2.34,0.08919
2.344,0.09996
2.348,0.08575
2.352,0.11094
2.356,0.11402
2.36,0.11045
2.364,0.14276
2.368,0.13559
2.372,0.13659
2.376,0.08007
2.38,0.10461
2.384,0.09587
2.388,0.05846
2.392,0.03186
2.396,0.072
2.4,0.04021
2.404,0.02441
2.408,0.03067
2.412,0.04016
2.416,0.01226
2.42,0.03633
2.424,0.01232
2.428,0.04479
2.432,0.02364
2.436,0.01812
2.44,0.02692
2.444,0.01043
2.448,0.03455
2.452,0.02723
2.456,0.04262
2.46,0.03591
2.464,-0.00233
2.468,0.02919
2.472,-0.00277
2.476,-0.0254
2.48,-0.05246
2.484,-0.09531
2.488,-0.10644
2.492,-0.07516
2.496,-0.00997
2.5,0.15342
2.504,0.36288
2.508,0.57455
2.512,0.77404
2.516,0.92516
2.52,1.00843
2.524,0.99155
2.528,0.84231
2.532,0.65705
2.536,0.45161
2.54,0.21757
2.544,0.05756
2.548,-0.08774
2.552,-0.14391
2.556,-0.14438
2.56,-0.10447
2.564,-0.06385
2.568,-0.03537
2.572,-0.01298
2.576,0.03308
2.58,0.03843
2.584,0.00205
2.588,0.01525
2.592,0.02794
2.596,0.03552
2.6,0.03123
2.604,0.0221
2.608,0.00713
2.612,-0.00949
2.616,0.03383
2.62,0.00868
2.624,0.01741
2.628,0.01491
2.632,0.03615
2.636,0.03268
2.64,0.04551
2.644,-0.00716
2.648,0.00612
2.652,0.00525
2.656,0.00189
2.66,0.01733
2.664,0.00839
2.668,0.0387
2.672,0.03516
2.676,0.01638
2.68,0.03095
2.684,0.00991
2.688,0.01888
2.692,0.056
2.696,0.03352
2.7,0.02889
2.704,0.06278
2.708,0.0801
2.712,0.0594
2.716,0.05378
2.72,0.07893
2.724,0.06584
2.728,0.10246
2.732,0.10599
2.736,0.08977
2.74,0.09709
2.744,0.11402
2.748,0.13185
2.752,0.13942
2.756,0.17362
2.76,0.16203
2.764,0.1746
2.768,0.18068
2.772,0.22233
2.776,0.21648
2.78,0.24923
2.784,0.22616
2.788,0.24508
2.792,0.26594
2.796,0.23089
2.8,0.28248
2.804,0.24821
2.808,0.26061
2.812,0.24933
2.816,0.26581
2.82,0.25108
2.824,0.25329
2.828,0.21727
2.832,0.18915
2.836,0.18929
2.84,0.21267
2.844,0.16076
2.848,0.13058
2.852,0.13937
2.856,0.13889
2.86,0.14226
2.864,0.09248
2.868,0.13485
2.872,0.09247
2.876,0.11249
2.88,0.08309
2.884,0.06785
2.888,0.06348
2.892,0.07146
2.896,0.05577
2.9,0.0631
2.904,0.03779
2.908,0.03142
2.912,0.02474
2.916,0.01429
2.92,0.0549
2.924,0.0217
2.928,0.03903
2.932,-0.00204
2.936,-0.01429
2.94,0.03989
2.944,0.04164
2.948,0.04583
2.952,0.0281
2.956,0.04808
2.96,0.03143
2.964,0.03625
2.968,-0.00229
2.972,0.02751
2.976,0.03584
2.98,0.02359
2.984,0.03997
2.988,0.03226
2.992,0.00963
2.996,0.03672
3.0,0.03345
3.004,0.06101
3.008,0.01994
3.012,0.04542
3.016,0.01131
3.02,0.02521
3.024,0.02497
3.028,0.01411
3.032,0.04892
3.036,0.0299
3.04,0.05902
3.044,0.0445
3.048,0.02254
3.052,0.01594
3.056,0.04253
3.06,0.02562
3.064,0.0185
3.068,0.03351
3.072,0.03838
3.076,0.04949
3.08,0.03028
3.084,0.05481
3.088,0.04406
3.092,0.06107
3.096,0.07627
3.1,0.11121
3.104,0.09367
3.108,0.11018
3.112,0.12717
3.116,0.09306
3.12,0.12985
3.124,0.09982
3.128,0.10943
3.132,0.10737
3.136,0.10569
3.14,0.08103
3.144,0.05109
3.148,0.04906
3.152,0.04472
3.156,0.03824
3.16,0.04549
3.164,0.01994
3.168,0.04778
3.172,0.02966
3.176,0.00985
3.18,0.02564
3.184,0.03382
3.188,0.05998
3.192,0.04607
3.196,0.04297
3.2,0.02671
3.204,0.03309
3.208,0.03435
3.212,0.03325
3.216,0.04787
3.22,0.03857
3.224,0.03035
3.228,0.00712
3.232,0.00538
3.236,-0.01368
3.24,-0.05356
3.244,-0.07504
3.248,-0.08131
3.252,-0.00021
3.256,0.15955
3.26,0.30181
3.264,0.55434
3.268,0.73922
3.272,0.91337
3.276,1.01671
3.28,1.02883
3.284,0.88864
3.288,0.68957
3.292,0.45454
3.296,0.24932
3.3,0.04955
3.304,-0.09167
3.308,-0.14524
3.312,-0.13907
3.316,-0.11352
3.32,-0.0603
3.324,-0.02164
3.328,0.03057
3.332,0.02213
3.336,0.04336
3.34,0.03615
3.344,0.02096
3.348,0.02392
3.352,0.0314
3.356,0.01034
3.36,0.00242
3.364,0.03302
3.368,0.02369
3.372,0.02162
3.376,0.02751
3.38,0.02086
3.384,0.01069
3.388,0.02547
3.392,0.0439
3.396,0.02715
3.4,0.04161
3.404,0.02535
3.408,0.02062
3.412,0.0389
3.416,0.04211
3.42,0.05877
3.424,0.01036
3.428,0.06121
3.432,0.04789
3.436,0.03196
3.44,0.03177
3.444,0.053
3.448,0.05794
3.452,0.0355
3.456,0.03408
3.46,0.0694
3.464,0.09975
3.468,0.04233
3.472,0.0796
3.476,0.07302
3.48,0.06107
3.484,0.08533
3.488,0.10444
3.492,0.10346
3.496,0.07125
3.5,0.11429
3.504,0.10473
3.508,0.14141
3.512,0.17913
3.516,0.16235
3.52,0.15741
3.524,0.18413
3.528,0.22069
3.532,0.22876
3.536,0.2542
3.54,0.24178
3.544,0.24936
3.548,0.2351
3.552,0.22956
3.556,0.27601
3.56,0.2559
3.564,0.26696
3.568,0.24578
3.572,0.23451
3.576,0.22634
3.58,0.23024
3.584,0.21036
3.588,0.19867
3.592,0.20211
3.596,0.16196
3.6,0.17408
3.604,0.15525
3.608,0.13444
3.612,0.12125
3.616,0.11494
3.62,0.12605
3.624,0.0884
3.628,0.1016
3.632,0.05933
3.636,0.08096
3.64,0.06432
3.644,0.04925
3.648,0.08393
3.652,0.04584
3.656,0.06909
3.66,0.0393
3.664,0.03847
3.668,0.0319
3.672,0.02276
3.676,0.04525
3.68,0.02298
3.684,0.02162
3.688,0.01809
3.692,0.06085
3.696,0.02997
3.7,0.02435
3.704,0.02713
3.708,0.00244
3.712,0.02543
3.716,3e-05
3.72,0.01837
3.724,0.03002
3.728,0.01742
3.732,0.00295
3.736,0.03307
3.74,0.03829
3.744,0.0417
3.748,0.03034
3.752,0.03091
3.756,0.03095
3.76,0.03881
3.764,0.04561
3.768,0.01508
3.772,0.03092
3.776,0.03768
3.78,0.01791
3.784,0.04595
3.788,0.04459
3.792,0.03851
3.796,-0.00055
3.8,0.01617
3.804,0.01242
3.808,0.01465
3.812,0.0504
3.816,0.04163
3.82,0.01538
3.824,0.04339
3.828,0.01713
3.832,0.05455
3.836,-0.0032
3.84,0.01411
3.844,0.00745
3.848,0.03488
3.852,0.02566
3.856,0.01736
3.86,0.02076
3.864,0.02149
3.868,-0.00496
3.872,0.04092
3.876,0.00522
3.88,0.00433
3.884,0.02595
3.888,0.02355
3.892,0.00999
3.896,0.01804
3.9,0.02269
3.904,-0.00147
3.908,0.03458
3.912,0.02094
3.916,0.01888
3.92,0.0189
3.924,0.00176
3.928,0.04443
3.932,0.01456
3.936,0.02442
3.94,0.03439
3.944,0.01755
3.948,-0.00838
3.952,0.04285
3.956,0.03709
3.96,0.03949
3.964,0.03278
3.968,-0.00124
3.972,0.05107
3.976,0.04607
3.98,0.05244
3.984,0.05301
3.988,0.05903
3.992,0.06769
3.996,0.09336
4.0,0.10805
4.004,0.10043
4.008,0.09672
4.012,0.13714
4.016,0.10796
4.02,0.12429
4.024,0.09577
4.028,0.09336
4.032,0.10703
4.036,0.08011
4.04,0.04762
4.044,0.02778
4.048,0.04303
4.052,0.04843
4.056,0.04017
4.06,0.02102
4.064,0.02528
4.068,0.04357
4.072,0.02418
4.076,0.02636
4.08,0.04921
4.084,0.00396
4.088,0.01443
4.092,0.00323
4.096,0.03739
4.1,0.01055
4.104,0.01763
4.108,0.01548
4.112,0.01513
4.116,0.02293
4.12,0.01665
4.124,0.0034
4.128,-0.01278
4.132,0.00539
4.136,-0.04026
4.14,-0.08897
4.144,-0.10066
4.148,-0.05914
4.152,0.08706
4.156,0.21198
4.16,0.44253
4.164,0.63053
4.168,0.815
4.172,0.97969
4.176,1.01511
4.18,0.94127
4.184,0.72751
4.188,0.52707
4.192,0.31706
4.196,0.10717
4.2,-0.06446
4.204,-0.1173
4.208,-0.15381
4.212,-0.1362
4.216,-0.08393
4.22,-0.05911
4.224,-0.02922
4.228,-0.01727
4.232,0.01884
4.236,0.00835
4.24,-0.0097
4.244,-0.03127
4.248,-0.00333
4.252,0.00164
4.256,-0.00394
4.26,0.00537
4.264,0.02931
4.268,0.02154
4.272,0.01724
4.276,0.04081
4.28,0.02915
4.284,0.02178
4.288,0.02592
4.292,0.00992
4.296,0.02022
4.3,-0.00563
4.304,0.01403
4.308,0.01624
4.312,-0.00842
4.316,0.011
4.32,0.03721
4.324,0.0039
4.328,0.03792
4.332,0.04134
4.336,0.02827
4.34,0.03917
4.344,0.00625
4.348,0.01562
4.352,0.02781
4.356,0.0559
4.36,0.02762
4.364,0.01689
4.368,0.04599
4.372,0.02755
4.376,0.08245
4.38,0.07113
4.384,0.0584
4.388,0.08178
4.392,0.07968
4.396,0.09977
4.4,0.09392
4.404,0.11377
4.408,0.13508
4.412,0.14019
4.416,0.15268
4.42,0.13951
4.424,0.21949
4.428,0.21397
4.432,0.21615
4.436,0.23176
4.44,0.22852
4.444,0.24967
4.448,0.24635
4.452,0.20471
4.456,0.21354
4.46,0.24007
4.464,0.22431
4.468,0.22395
4.472,0.24486
4.476,0.24229
4.48,0.18005
4.484,0.21606
4.488,0.16582
4.492,0.17573
4.496,0.15331
4.5,0.15278
4.504,0.14415
4.508,0.13235
4.512,0.10991
4.516,0.08977
4.52,0.08847
4.524,0.08213
4.528,0.06914
4.532,0.06062
4.536,0.0706
4.54,0.02347
4.544,0.04759
4.548,0.04723
4.552,0.03485
4.556,0.02312
4.56,0.02254
4.564,0.01358
4.568,0.03608
4.572,0.01488
4.576,0.01595
4.58,0.00604
4.584,-0.00465
4.588,0.03366
4.592,0.01904
4.596,0.00246
4.6,0.01776
4.604,0.01559
4.608,-0.00231
4.612,0.00783
4.616,0.00438
4.62,0.01822
4.624,0.02396
4.628,-0.00839
4.632,0.02116
4.636,0.00263
4.64,-0.00034
4.644,-0.01213
4.648,-0.01317
4.652,-0.00583
4.656,0.01509
4.66,-0.03764
4.664,0.00504
4.668,0.03637
4.672,-0.00752
4.676,0.00116
4.68,0.00741
4.684,0.00664
4.688,0.00786
4.692,0.00309
4.696,0.01747
4.7,-0.03816
4.704,-0.02434
4.708,0.01177
4.712,-0.01127
4.716,0.00593
4.72,0.01546
4.724,-0.01094
4.728,-0.00827
4.732,0.00454
4.736,-0.00469
4.74,0.02455
4.744,0.03073
4.748,0.00596
4.752,-0.0001
4.756,0.06647
4.76,0.02761
4.764,0.04514
4.768,0.03455
4.772,0.06781
4.776,0.09187
4.78,0.10644
4.784,0.09534
4.788,0.11685
4.792,0.09851
4.796,0.12479
4.8,0.07222
4.804,0.07128
4.808,0.06481
4.812,0.06064
4.816,0.03914
4.82,0.04829
4.824,-0.01519
4.828,0.01386
4.832,-0.00306
4.836,0.01616
4.84,0.00709
4.844,-0.0123
4.848,-0.0028
4.852,0.00698
4.856,0.02557
4.86,0.03197
4.864,0.01715
4.868,-0.01156
4.872,0.01261
4.876,-0.02316
4.88,-0.00953
4.884,-0.02652
4.888,-0.0096
4.892,-0.02212
4.896,-0.00545
4.9,0.00121
4.904,-0.02246
4.908,-0.02715
4.912,-0.097
4.916,-0.11761
4.92,-0.0611
4.924,-0.03164
4.928,0.09932
4.932,0.29562
4.936,0.51773
4.94,0.73676
4.944,0.90377
4.948,0.98798
4.952,0.96656
4.956,0.85746
4.96,0.64105
4.964,0.42188
4.968,0.21843
4.972,0.00501
4.976,-0.12676
4.98,-0.19273
4.984,-0.14514
4.988,-0.13711
4.992,-0.06739
4.996,-0.05902
5.0,-0.04157
5.004,-0.0116
5.008,0.00181
5.012,0.00523
5.016,0.00051
5.02,0.00862
5.024,-0.00356
5.028,-0.0004
5.032,0.00849
5.036,-0.00483
5.04,0.00871
5.044,-0.01177
5.048,0.00141
5.052,0.00445
5.056,-0.02536
5.06,0.02829
5.064,-0.0274
5.068,-0.01072
5.072,-0.01958
5.076,-0.01636
5.08,-0.03909
5.084,-0.0186
5.088,-0.00672
5.092,-0.00177
5.096,0.02111
5.1,-0.00889
5.104,0.00846
5.108,0.01417
5.112,0.00751
5.116,-0.00589
5.12,-0.00294
5.124,-0.00386
5.128,0.00141
5.132,0.00741
5.136,0.01283
5.14,0.02499
5.144,0.02002
5.148,0.05195
5.152,0.02793
5.156,0.05044
5.16,0.07578
5.164,0.06011
5.168,0.04397
5.172,0.08032
5.176,0.08922
5.18,0.1135
5.184,0.11709
5.188,0.13456
5.192,0.15019
5.196,0.15307
5.2,0.19193
5.204,0.18325
5.208,0.18808
5.212,0.17321
5.216,0.22229
5.22,0.2059
5.224,0.18968
5.228,0.18246
5.232,0.19148
5.236,0.20178
5.24,0.18194
5.244,0.21428
5.248,0.20015
5.252,0.16445
5.256,0.16491
5.26,0.12412
5.264,0.16765
5.268,0.14436
5.272,0.12341
5.276,0.09033
5.28,0.10324
5.284,0.09206
5.288,0.09165
5.292,0.07362
5.296,0.06084
5.3,0.06283
5.304,0.03546
5.308,0.04821
5.312,0.03595
5.316,0.02147
5.32,0.01433
5.324,-0.01633
5.328,-0.00402
5.332,-0.01951
5.336,-0.01171
5.34,0.01885
5.344,-0.00786
5.348,-0.00645
5.352,-0.00984
5.356,-0.0171
5.36,-0.01272
5.364,-0.01831
5.368,0.0071
5.372,-0.00595
5.376,-0.02153
5.38,0.00377
5.384,-0.00576
5.388,-0.02402
5.392,-0.03407
5.396,-0.03322
5.4,-0.02512
5.404,-0.00284
5.408,-0.00313
5.412,-0.01366
5.416,-0.00045
5.42,-0.00578
5.424,-0.03123
5.428,-0.02065
5.432,-0.0077
5.436,-0.01103
5.44,-0.00757
5.444,-0.01373
5.448,-0.02018
5.452,-0.02507
5.456,-0.01533
5.46,-0.04302
5.464,-0.02818
5.468,-0.02564
5.472,-0.02957
5.476,-0.01793
5.48,-0.00359
5.484,-0.02164
5.488,-0.0202
5.492,-0.01888
5.496,-0.04388
5.5,-0.00261
5.504,-0.00867
5.508,-0.00273
5.512,-0.01238
5.516,-0.01337
5.52,0.0109
5.524,0.00651
5.528,0.03101
5.532,0.02353
5.536,0.0607
5.54,0.04757
5.544,0.07064
5.548,0.08825
5.552,0.06568
5.556,0.08414
5.56,0.06103
5.564,0.06763
5.568,0.08189
5.572,0.04635
5.576,0.04412
5.58,0.0258
5.584,0.00387
5.588,0.01583
5.592,0.01667
5.596,-0.03018
5.6,-0.03626
5.604,-0.01961
5.608,-0.00507
5.612,-0.00813
5.616,-0.01083
5.62,-0.06052
5.624,-0.01337
5.628,-0.01769
5.632,-0.01211
5.636,-0.02679
5.64,-0.04382
5.644,-0.02582
5.648,-0.01556
5.652,-0.0244
5.656,-0.01446
5.66,-0.039
5.664,-0.0309
5.668,-0.06089
5.672,-0.09047
5.676,-0.10308
5.68,-0.15598
5.684,-0.13638
5.688,-0.01382
5.692,0.11909
5.696,0.30712
5.7,0.53244
5.704,0.73336
5.708,0.89331
5.712,0.96443
5.716,0.9364
5.72,0.8195
5.724,0.58725
5.728,0.33459
5.732,0.15162
5.736,-0.01684
5.74,-0.11592
5.744,-0.16294
5.748,-0.17229
5.752,-0.13181
5.756,-0.11065
5.76,-0.09273
5.764,-0.05746
5.768,-0.01117
5.772,-0.03166
5.776,-0.0013
5.78,-0.04017
5.784,0.00136
5.788,-0.02732
5.792,-0.01692
5.796,-0.00178
5.8,0.0019
5.804,0.00704
5.808,-0.01423
5.812,-0.04018
5.816,-0.02678
5.82,-0.0543
5.824,-0.03159
5.828,-0.02331
5.832,-0.02078
5.836,-0.04734
5.84,0.0027
5.844,-0.03577
5.848,-0.0351
5.852,-0.02026
5.856,-0.0193
5.86,-0.02859
5.864,-0.04683
5.868,0.00793
5.872,-0.02387
5.876,-0.02547
5.88,-0.02
5.884,-0.02375
5.888,0.01425
5.892,-0.00206
5.896,0.03514
5.9,-0.0012
5.904,0.02251
5.908,0.03212
5.912,-0.00559
5.916,0.01423
5.92,0.04623
5.924,0.05136
5.928,0.08823
5.932,0.07101
5.936,0.09127
5.94,0.0804
5.944,0.08961
5.948,0.12234
5.952,0.10992
5.956,0.13099
5.96,0.12724
5.964,0.1655
5.968,0.18166
5.972,0.15771
5.976,0.18523
5.98,0.16718
5.984,0.18273
5.988,0.20039
5.992,0.1915
5.996,0.20441
6.0,0.17882
6.004,0.19658
6.008,0.17305
6.012,0.15804
6.016,0.17531
6.02,0.15334
6.024,0.14262
6.028,0.13259
6.032,0.10632
6.036,0.11797
6.04,0.08628
6.044,0.08
6.048,0.0823
6.052,0.06962
6.056,0.06044
6.06,0.02437
6.064,0.04182
6.068,0.01269
6.072,0.02828
6.076,0.02946
6.08,0.0003
6.084,0.02021
6.088,0.00189
6.092,-0.02296
6.096,-0.00408
6.1,-0.03406
6.104,-0.0296
6.108,-0.02669
6.112,-0.02191
6.116,-0.01746
6.12,-0.02709
6.124,-0.03292
6.128,-0.06188
6.132,0.00594
6.136,-0.03543
6.14,-0.02215
6.144,-0.01116
6.148,-0.0443
6.152,-0.00564
6.156,-0.00834
6.16,-0.04821
6.164,-0.04485
6.168,-0.03838
6.172,-0.01652
6.176,0.00361
6.18,-0.06383
6.184,-0.02773
6.188,-0.05231
6.192,-0.06118
6.196,0.00156
6.2,-0.02013
6.204,-0.01639
6.208,7e-05
6.212,-0.00803
6.216,0.01911
6.22,0.02261
6.224,0.03426
6.228,0.03904
6.232,0.04803
6.236,0.06349
6.24,0.08797
6.244,0.06005
6.248,0.07272
6.252,0.07743
6.256,0.03449
6.26,0.04666
6.264,0.04096
6.268,0.03386
6.272,0.02846
6.276,-0.00643
6.28,0.00557
6.284,-0.00682
6.288,-0.01356
6.292,-0.01576
6.296,-0.03927
6.3,-0.02277
6.304,0.00882
6.308,-0.04178
6.312,-0.03749
6.316,-0.07737
6.32,-0.01688
6.324,-0.01346
6.328,-0.02738
6.332,-0.02695
6.336,-0.0429
6.34,-0.04123
6.344,-0.02107
6.348,-0.03181
6.352,0.00461
6.356,-0.03995
6.36,-0.08036
6.364,-0.1133
6.368,-0.12581
6.372,-0.1211
6.376,-0.13027
6.38,-0.05479
6.384,0.08514
6.388,0.26354
6.392,0.4782
6.396,0.69611
6.4,0.85097
6.404,1.00677
6.408,0.94331
6.412,0.82969
6.416,0.60912
6.42,0.40389
6.424,0.18751
6.428,-0.03859
6.432,-0.14158
6.436,-0.18442
6.44,-0.22636
6.444,-0.14681
6.448,-0.11517
6.452,-0.08613
6.456,-0.02197
6.46,-0.04759
6.464,-0.04915
6.468,-0.0392
6.472,-0.00977
6.476,-0.03498
6.48,-0.01361
6.484,-0.05458
6.488,-0.00565
6.492,-0.04147
6.496,-0.0511
6.5,-0.03548
6.504,-0.02298
6.508,-0.0537
6.512,-0.01948
6.516,-0.0391
6.52,-0.00809
6.524,-0.03855
6.528,-0.03356
6.532,-0.05772
6.536,-0.03328
6.54,0.00973
6.544,-0.02503
6.548,-0.0284
6.552,-0.02939
6.556,-0.0504
6.56,-0.02702
6.564,-0.01997
6.568,-0.0082
6.572,-0.05321
6.576,-0.0316
6.58,-0.00722
6.584,-0.01399
6.588,-0.00786
6.592,-0.01175
6.596,-0.02012
6.6,0.00871
6.604,-0.00852
6.608,0.0244
6.612,0.02808
6.616,0.03195
6.62,0.08721
6.624,0.04863
6.628,0.044
6.632,0.04744
6.636,0.08251
6.64,0.0825
6.644,0.11289
6.648,0.12503
6.652,0.14105
6.656,0.14493
6.66,0.16748
6.664,0.20363
6.668,0.18983
6.672,0.19652
6.676,0.16139
6.68,0.16559
6.684,0.17767
6.688,0.19438
6.692,0.19526
6.696,0.19325
6.7,0.17118
6.704,0.18551
6.708,0.17488
6.712,0.15177
6.716,0.14409
6.72,0.14908
6.724,0.13034
6.728,0.14419
6.732,0.11534
6.736,0.10016
6.74,0.07853
6.744,0.0927
6.748,0.07308
6.752,0.05176
6.756,0.05997
6.76,0.00795
6.764,-0.01
6.768,0.00993
6.772,-0.00331
6.776,-0.01408
6.78,0.01131
6.784,-0.00417
6.788,-0.02391
6.792,-0.04104
6.796,0.00515
6.8,-0.00636
6.804,0.00124
6.808,-0.02619
6.812,-0.02256
6.816,-0.02031
6.82,-0.01231
6.824,-0.02037
6.828,-0.0079
6.832,-0.02864
6.836,-0.01067
6.84,-0.02996
6.844,-0.03771
6.848,-0.0059
6.852,-0.04146
6.856,-0.04031
6.86,-0.04292
6.864,-0.03642
6.868,-0.0497
6.872,-0.02903
6.876,-0.04569
6.88,-0.04972
6.884,-0.01581
6.888,-0.0343
6.892,-0.05119
6.896,-0.04826
6.9,-0.01938
6.904,-0.02122
6.908,-0.04793
6.912,-0.03187
6.916,-0.01611
6.92,-0.03925
6.924,-0.0554
6.928,-0.04315
6.932,-0.0018
6.936,-0.02614
6.94,-0.0355
6.944,-0.04271
6.948,-0.03145
6.952,-0.03729
6.956,-0.05015
6.96,-0.03162
6.964,-0.05494
6.968,-0.03311
6.972,-0.04952
6.976,-0.0275
6.98,-0.00659
6.984,-0.02385
6.988,-0.03906
6.992,-0.03317
6.996,-0.03343
7.0,-0.00101
7.004,-0.03123
7.008,-0.01987
7.012,0.00357
7.016,-0.02203
7.02,-0.01364
7.024,-0.0155
7.028,0.00386
7.032,-0.00673
7.036,-0.02506
7.04,-0.03368
7.044,-0.02136
7.048,0.01685
7.052,0.02479
7.056,0.03291
7.06,0.07395
7.064,0.08147
7.068,0.05168
7.072,0.07564
7.076,0.0631
7.08,0.06573
7.084,0.08312
7.088,0.06859
7.092,0.06073
7.096,0.06972
7.1,0.0357
7.104,0.00883
7.108,-0.02238
7.112,0.00469
7.116,-0.00321
7.12,-0.0297
7.124,-0.0258
7.128,-0.02909
7.132,-0.02767
7.136,-0.03623
7.14,-0.03052
7.144,-0.03492
7.148,-0.03845
7.152,-0.0206
7.156,-0.02548
7.16,-0.00295
7.164,-0.01989
7.168,-0.0559
7.172,-0.00755
7.176,-0.00205
7.18,-0.0159
7.184,-0.01538
7.188,-0.07091
7.192,-0.03684
7.196,-0.10561
7.2,-0.12087
7.204,-0.11072
7.208,-0.11363
7.212,-0.05748
7.216,0.11719
7.22,0.27801
7.224,0.49957
7.228,0.6853
7.232,0.91198
7.236,0.96895
7.24,0.97032
7.244,0.83973
7.248,0.65363
7.252,0.4005
7.256,0.19724
7.26,-0.0022
7.264,-0.13628
7.268,-0.17371
7.272,-0.19564
7.276,-0.17102
7.28,-0.08971
7.284,-0.05092
7.288,-0.0365
7.292,-0.01621
7.296,-0.03623
7.3,-0.02681
7.304,-0.03455
7.308,-0.01456
7.312,-0.02164
7.316,-0.02549
7.32,-0.02732
7.324,-0.02992
7.328,-0.01169
7.332,-0.01395
7.336,-0.03259
7.34,-0.03727
7.344,-0.003
7.348,-0.03509
7.352,-0.01852
7.356,-0.04683
7.36,-0.01448
7.364,0.00389
7.368,-0.01917
7.372,-0.00949
7.376,-0.05046
7.38,-0.00927
7.384,-0.00737
7.388,-0.01902
7.392,-0.01803
7.396,-0.03183
7.4,-0.00206
7.404,-0.00826
7.408,-0.00265
7.412,-0.00633
7.416,-0.02663
7.42,-0.0048
7.424,-0.00134
7.428,0.01238
7.432,-0.00466
7.436,0.0112
7.44,0.02532
7.444,0.04936
7.448,0.04238
7.452,0.07015
7.456,0.07719
7.46,0.08803
7.464,0.09241
7.468,0.09957
7.472,0.13536
7.476,0.10946
7.48,0.12555
7.484,0.153
7.488,0.18045
7.492,0.18475
7.496,0.19842
7.5,0.16279
7.504,0.20765
7.508,0.19796
7.512,0.19834
7.516,0.18847
7.52,0.21246
7.524,0.20302
7.528,0.19869
7.532,0.17679
7.536,0.1946
7.54,0.18107
7.544,0.1637
7.548,0.15874
7.552,0.1296
7.556,0.13958
7.56,0.13172
7.564,0.10263
7.568,0.10719
7.572,0.09845
7.576,0.0936
7.58,0.04313
7.584,0.03912
7.588,0.05998
7.592,0.02828
7.596,0.02477
7.6,0.02986
7.604,0.0597
7.608,0.00921
7.612,0.017
7.616,0.00876
7.62,0.01907
7.624,-0.02813
7.628,-0.01008
7.632,-0.01012
7.636,0.00974
7.64,-0.00142
7.644,-0.01872
7.648,0.0018
7.652,-0.0002
7.656,-0.03117
7.66,-0.01481
7.664,0.05092
7.668,-0.02348
7.672,-0.0179
7.676,-0.02191
7.68,-0.01131
7.684,0.01282
7.688,-0.01238
7.692,-0.02204
7.696,-0.00709
7.7,-0.01276
7.704,-0.00221
7.708,-0.01089
7.712,0.00587
7.716,-0.03541
7.72,0.00094
7.724,-0.01388
7.728,-0.01591
7.732,-0.00028
7.736,0.00437
7.74,0.0011
7.744,-0.02843
7.748,-0.01662
7.752,-0.01787
7.756,-0.02602
7.76,-0.01869
7.764,0.01133
7.768,-0.00264
7.772,-0.03126
7.776,-0.00188
7.78,-0.02111
7.784,-0.02311
7.788,0.03546
7.792,-0.00166
7.796,-0.01051
7.8,-0.01054
7.804,0.0008
7.808,-0.00861
7.812,-0.01594
7.816,-0.01822
7.82,0.02797
7.824,-0.01572
7.828,-0.00776
7.832,-0.00678
7.836,-0.03459
7.84,-0.02071
7.844,-0.00337
7.848,0.02056
7.852,0.01425
7.856,-0.01264
7.86,-1e-05
7.864,0.00982
7.868,0.02112
7.872,-0.00451
7.876,0.01079
7.88,0.05768
7.884,0.0333
7.888,0.03949
7.892,0.08229
7.896,0.06664
7.9,0.08688
7.904,0.09562
7.908,0.08594
7.912,0.09215
7.916,0.09102
7.92,0.10242
7.924,0.06371
7.928,0.02613
7.932,0.031
7.936,0.01686
7.94,-0.01132
7.944,0.02078
7.948,-0.00583
7.952,0.00535
7.956,0.00758
7.96,0.00311
7.964,0.01268
7.968,-0.01679
7.972,0.00384
7.976,-0.00427
7.98,-0.02205
7.984,-0.00505
7.988,-0.01479
7.992,-0.00851
7.996,-0.01656
8.0,0.00888
8.004,-0.01235
8.008,0.0114
8.012,-0.01235
8.016,0.00086
8.02,-0.02924
8.024,-0.04557
8.028,-0.09284
8.032,-0.11696
8.036,-0.12493
8.04,-0.06857
8.044,0.04084
8.048,0.23879
8.052,0.41093
8.056,0.62642
8.06,0.82469
8.064,0.94916
8.068,0.99292
8.072,0.8941
8.076,0.74917
8.08,0.53137
8.084,0.30664
8.088,0.0901
8.092,-0.02725
8.096,-0.13517
8.1,-0.15821
8.104,-0.13249
8.108,-0.09544
8.112,-0.07851
8.116,-0.03678
8.12,-0.02402
8.124,-0.01562
8.128,-0.0371
8.132,-0.0024
8.136,0.02899
8.14,0.01586
8.144,-0.02026
8.148,-0.00082
8.152,0.00251
8.156,0.01418
8.16,-0.02138
8.164,-0.01895
8.168,0.01786
8.172,0.00694
8.176,-0.00648
8.18,-0.01179
8.184,0.01444
8.188,0.02394
8.192,0.007
8.196,0.00876
8.2,0.00406
8.204,0.00032
8.208,-0.00994
8.212,0.02422
8.216,0.0002
8.22,0.01657
8.224,0.02804
8.228,0.00338
8.232,0.02953
8.236,0.00309
8.24,-0.00122
8.244,-0.00728
8.248,0.02535
8.252,0.03933
8.256,0.02407
8.26,0.07221
8.264,0.05322
8.268,0.04078
8.272,0.05297
8.276,0.06048
8.28,0.0792
8.284,0.09421
8.288,0.08857
8.292,0.1142
8.296,0.12284
8.3,0.09717
8.304,0.12911
8.308,0.14737
8.312,0.17253
8.316,0.16698
8.32,0.18765
8.324,0.18991
8.328,0.19793
8.332,0.22355
8.336,0.24385
8.34,0.22526
8.344,0.2349
8.348,0.20616
8.352,0.22009
8.356,0.22102
8.36,0.23294
8.364,0.19808
8.368,0.21304
8.372,0.19022
8.376,0.17925
8.38,0.17189
8.384,0.16123
8.388,0.15059
8.392,0.13874
8.396,0.13141
8.4,0.08735
8.404,0.09562
8.408,0.06642
8.412,0.07585
8.416,0.10278
8.42,0.07571
8.424,0.06815
8.428,0.08331
8.432,0.0368
8.436,0.02095
8.44,0.01912
8.444,0.02429
8.448,0.01823
8.452,0.039
8.456,0.0268
8.46,0.03693
8.464,0.00093
8.468,0.00437
8.472,0.04371
8.476,-0.01558
8.48,-0.00515
8.484,0.00458
8.488,-0.01414
8.492,0.01637
8.496,0.02716
8.5,0.01423
8.504,0.00244
8.508,0.01292
8.512,0.00321
8.516,0.01972
8.52,0.02343
8.524,0.01165
8.528,0.03012
8.532,0.00677
8.536,0.03087
8.54,-0.01653
8.544,0.0108
8.548,0.01136
8.552,0.03666
8.556,0.01491
8.56,-0.0021
8.564,0.01093
8.568,0.03574
8.572,0.03063
8.576,0.01424
8.58,-0.00297
8.584,0.02032
8.588,0.00778
8.592,-0.00491
8.596,0.00046
8.6,0.0294
8.604,0.01033
8.608,0.01665
8.612,0.00769
8.616,0.02461
8.62,0.04182
8.624,0.02343
8.628,0.01416
8.632,0.03105
8.636,0.01001
8.64,0.02849
8.644,0.03156
8.648,0.01048
8.652,0.02224
8.656,0.01753
8.66,0.00764
8.664,-0.00134
8.668,0.02545
8.672,0.0368
8.676,0.04131
8.68,0.02201
8.684,0.016
8.688,-0.00815
8.692,0.01302
8.696,0.02068
8.7,0.01656
8.704,-0.01585
8.708,0.00647
8.712,0.04066
8.716,-0.01404
8.72,0.03534
8.724,0.00812
8.728,0.03374
8.732,0.02277
8.736,0.01895
8.74,0.05857
8.744,0.05178
8.748,0.04932
8.752,0.06062
8.756,0.06516
8.76,0.07416
8.764,0.0987
8.768,0.11045
8.772,0.11354
8.776,0.1136
8.78,0.09452
8.784,0.10607
8.788,0.10388
8.792,0.07741
8.796,0.09934
8.8,0.08509
8.804,0.05479
8.808,0.06574
8.812,0.06254
8.816,0.02053
8.82,0.02522
8.824,0.03394
8.828,0.01456
8.832,0.00927
8.836,0.02305
8.84,0.02848
8.844,0.00594
8.848,-0.00075
8.852,0.02594
8.856,0.03717
8.86,-0.00576
8.864,0.00075
8.868,0.02156
8.872,0.00044
8.876,-0.00617
8.88,0.01382
8.884,0.04634
8.888,-0.00651
8.892,-0.00453
8.896,-0.03136
8.9,-0.05943
8.904,-0.08247
8.908,-0.04502
8.912,0.02922
8.916,0.16007
8.92,0.37843
8.924,0.58876
8.928,0.78498
8.932,0.97278
8.936,1.01148
8.94,0.96861
8.944,0.83645
8.948,0.6331
8.952,0.4004
8.956,0.20047
8.96,0.00788
8.964,-0.08951
8.968,-0.15385
8.972,-0.15539
8.976,-0.12
8.98,-0.04858
8.984,0.00967
8.988,0.02777
8.992,0.03726
8.996,0.02559
9.0,0.04328
9.004,0.00375
9.008,0.01974
9.012,0.01366
9.016,0.03802
9.02,0.01428
9.024,0.05753
9.028,0.03731
9.032,0.02727
9.036,0.0107
9.04,0.03696
9.044,0.02725
9.048,-0.00199
9.052,0.02682
9.056,0.03425
9.06,0.04249
9.064,0.02945
9.068,0.02097
9.072,0.02052
9.076,0.0131
9.08,-0.00098
9.084,0.01896
9.088,0.01536
9.092,0.05598
9.096,0.0313
9.1,0.01703
9.104,0.02578
9.108,0.03457
9.112,0.03692
9.116,0.02803
9.12,0.01549
9.124,0.04394
9.128,0.06907
9.132,0.05786
9.136,0.06136
9.14,0.07315
9.144,0.08678
9.148,0.08472
9.152,0.12714
9.156,0.11255
9.16,0.14555
9.164,0.13785
9.168,0.13666
9.172,0.18537
9.176,0.16046
9.18,0.1951
9.184,0.1849
9.188,0.21151
9.192,0.23436
9.196,0.22365
9.2,0.24914
9.204,0.24558
9.208,0.22489
9.212,0.25321
9.216,0.23044
9.22,0.252
9.224,0.23387
9.228,0.24805
9.232,0.21044
9.236,0.22927
9.24,0.17206
9.244,0.21072
9.248,0.22179
9.252,0.20875
9.256,0.18179
9.26,0.16508
9.264,0.17329
9.268,0.14511
9.272,0.12546
9.276,0.11215
9.28,0.12429
9.284,0.08676
9.288,0.07667
9.292,0.0587
9.296,0.07642
9.3,0.06407
9.304,0.06736
9.308,0.02518
9.312,0.05102
9.316,0.00861
9.32,0.05694
9.324,0.02807
9.328,0.03994
9.332,0.03969
9.336,0.04689
9.34,0.05632
9.344,0.02463
9.348,0.04105
9.352,0.04272
9.356,0.01402
9.36,0.0624
9.364,0.02518
9.368,-0.00176
9.372,0.01155
9.376,0.0497
9.38,0.06885
9.384,0.04591
9.388,0.01958
9.392,0.02364
9.396,0.01778
9.4,0.03456
9.404,0.00718
9.408,0.04347
9.412,0.02134
9.416,0.03061
9.42,-0.00584
9.424,0.058
9.428,0.0429
9.432,0.0341
9.436,0.04128
9.44,0.03166
9.444,0.0104
9.448,0.03197
9.452,0.03762
9.456,0.0521
9.46,0.0209
9.464,0.0352
9.468,0.06138
9.472,0.03478
9.476,0.03566
9.48,0.04
9.484,0.03117
9.488,0.00341
9.492,0.04739
9.496,-0.00147
9.5,0.00705
9.504,0.02921
9.508,0.02984
9.512,0.03268
9.516,0.03364
9.52,0.05331
9.524,0.01052
9.528,0.01991
9.532,0.04308
9.536,0.02537
9.54,0.00892
9.544,0.03242
9.548,0.01865
9.552,0.02094
9.556,0.03439
9.56,0.00487
9.564,0.04898
9.568,0.04026
9.572,0.01173
9.576,0.05216
9.58,0.0412
9.584,0.01696
9.588,0.00858
9.592,0.03566
9.596,0.04125
9.6,0.03201
9.604,0.04152
9.608,0.03659
9.612,0.03762
9.616,0.03919
9.62,0.04182
9.624,0.02144
9.628,0.03979
9.632,0.02904
9.636,0.03336
9.64,0.03047
9.644,0.02549
9.648,0.04942
9.652,0.03877
9.656,0.06509
9.66,0.05108
9.664,0.07294
9.668,0.07241
9.672,0.10244
9.676,0.07979
9.68,0.1076
9.684,0.11594
9.688,0.11777
9.692,0.12386
9.696,0.1512
9.7,0.12116
9.704,0.09868
9.708,0.10246
9.712,0.09807
9.716,0.08357
9.72,0.06376
9.724,0.06596
9.728,0.06115
9.732,0.0617
9.736,0.03919
9.74,0.03733
9.744,0.03363
9.748,0.03208
9.752,0.01417
9.756,0.02017
9.76,0.03439
9.764,0.01523
9.768,0.02303
9.772,0.02971
9.776,0.02433
9.78,0.02941
9.784,0.03137
9.788,0.03232
9.792,0.03365
9.796,0.01624
9.8,0.02304
9.804,0.02406
9.808,0.01493
9.812,-0.01002
9.816,-0.04752
9.82,-0.0613
9.824,-0.04781
9.828,0.00171
9.832,0.13629
9.836,0.29145
9.84,0.54523
9.844,0.74081
9.848,0.91598
9.852,1.00801
9.856,0.98418
9.86,0.91355
9.864,0.6723
9.868,0.47917
9.872,0.24182
9.876,0.05216
9.88,-0.06846
9.884,-0.12439
9.888,-0.15471
9.892,-0.12069
9.896,-0.05678
9.9,-0.02551
9.904,0.02802
9.908,0.01999
9.912,0.02736
9.916,0.05453
9.92,0.03985
9.924,0.0487
9.928,0.04005
9.932,0.02359
9.936,0.02664
9.94,0.0211
9.944,0.00497
9.948,0.02606
9.952,0.02559
9.956,0.04927
9.96,0.01792
9.964,0.02521
9.968,0.02448
9.972,0.03543
9.976,0.02481
9.98,0.02685
9.984,0.02
9.988,0.02547
9.992,0.01788
9.996,0.07949
