t_seg,ecg_mV
0.0,0.00078
0.004,0.06387
0.008,0.03177
0.012,0.09247
0.016,0.02117
0.02,0.09671
0.024,0.10691
0.028,-0.02847
0.032,-0.00363
0.036,-0.01716
0.04,-0.02587
0.044,0.06327
0.048,-0.00154
0.052,0.05574
0.056,0.05204
0.06,-0.03653
0.064,0.07618
0.068,-0.0119
0.072,0.07783
0.076,0.02209
0.08,0.0985
0.084,-7e-05
0.088,0.11022
0.092,0.0872
0.096,-0.01995
0.1,0.07233
0.104,0.03733
0.108,0.0474
0.112,-0.00375
0.116,0.0113
0.12,0.00948
0.124,0.03518
0.128,0.02561
0.132,0.05128
0.136,0.00942
0.14,0.0731
0.144,-0.00039
0.148,0.08992
0.152,0.06075
0.156,0.08848
0.16,0.07973
0.164,0.08615
0.168,0.09754
0.172,0.12373
0.176,0.10735
0.18,0.05973
0.184,0.10786
0.188,0.1035
0.192,0.08203
0.196,0.05201
0.2,0.06654
0.204,0.10606
0.208,0.04645
0.212,-0.00599
0.216,0.01664
0.22,0.08662
0.224,0.00033
0.228,0.05735
0.232,0.06902
0.236,-0.03041
0.24,0.03512
0.244,0.00521
0.248,-0.02312
0.252,0.03558
0.256,0.03178
0.26,-0.01275
0.264,0.0344
0.268,0.06267
0.272,0.05732
0.276,0.03502
0.28,0.03155
0.284,0.092
0.288,0.01569
0.292,0.03375
0.296,-0.06038
0.3,-0.08816
0.304,-0.05787
0.308,-0.08727
0.312,-0.00188
0.316,0.32468
0.32,0.43583
0.324,0.70366
0.328,0.91568
0.332,0.9257
0.336,1.04413
0.34,0.89728
0.344,0.76812
0.348,0.51401
0.352,0.22576
0.356,0.12909
0.36,-0.05878
0.364,-0.09497
0.368,-0.11598
0.372,-0.11949
0.376,-0.02923
0.38,-0.04945
0.384,0.01894
0.388,-0.01471
0.392,-0.04053
0.396,0.03012
0.4,-0.02169
0.404,0.01189
0.408,-0.0422
0.412,0.06091
0.416,0.03347
0.42,0.0705
0.424,0.02207
0.428,-0.03418
0.432,-0.0009
0.436,-0.03749
0.44,-0.0082
0.444,0.01519
0.448,0.04281
0.452,0.03658
0.456,0.02387
0.46,0.05432
0.464,0.02543
0.468,0.01913
0.472,-0.06585
0.476,-0.02137
0.48,0.07299
0.484,0.04746
0.488,-0.04527
0.492,-0.03311
0.496,-0.01516
0.5,0.00234
0.504,-0.01878
0.508,0.09921
0.512,0.07003
0.516,0.06009
0.52,0.02918
0.524,0.12123
0.528,0.05523
0.532,0.04774
0.536,0.12354
0.54,0.08066
0.544,0.12193
0.548,0.08706
0.552,0.13627
0.556,0.12112
0.56,0.12814
0.564,0.08639
0.568,0.12933
0.572,0.19258
0.576,0.20086
0.58,0.19774
0.584,0.24034
0.588,0.2601
0.592,0.23055
0.596,0.28597
0.6,0.22599
0.604,0.19389
0.608,0.25162
0.612,0.25875
0.616,0.2402
0.62,0.27143
0.624,0.23968
0.628,0.24121
0.632,0.23066
0.636,0.19312
0.64,0.21693
0.644,0.1475
0.648,0.17136
0.652,0.2305
0.656,0.09912
0.66,0.12455
0.664,0.13835
0.668,0.19514
0.672,0.12059
0.676,0.10734
0.68,0.14079
0.684,0.05727
0.688,0.05964
0.692,0.05055
0.696,0.04724
0.7,0.09998
0.704,0.05238
0.708,0.06663
0.712,0.00292
0.716,0.01268
0.72,0.0911
0.724,0.03954
0.728,-0.00557
0.732,0.03631
0.736,0.01513
0.74,-0.01674
0.744,0.00445
0.748,0.00838
0.752,0.01611
0.756,-0.06688
0.76,0.01365
0.764,0.00961
0.768,0.06063
0.772,0.00087
0.776,0.05579
0.78,0.01112
0.784,-0.00299
0.788,0.03019
0.792,0.01229
0.796,0.03068
0.8,0.00454
0.804,-0.05024
0.808,0.00137
0.812,0.01382
0.816,0.00842
0.82,0.00979
0.824,0.03816
0.828,0.03071
0.832,-0.0092
0.836,0.06403
0.84,0.03864
0.844,-0.00238
0.848,0.05691
0.852,0.01953
0.856,0.04704
0.86,0.01617
0.864,-0.02079
0.868,0.059
0.872,0.01499
0.876,0.00274
0.88,-0.00685
0.884,0.01482
0.888,-0.00906
0.892,-0.04113
0.896,-0.00254
0.9,-0.02298
0.904,0.0518
0.908,0.03313
0.912,0.01996
0.916,-0.0464
0.92,0.01501
0.924,-0.02098
0.928,-0.01722
0.932,0.02407
0.936,-0.02998
0.94,-0.0264
0.944,0.06323
0.948,0.00587
0.952,-0.01426
0.956,-0.05162
0.96,0.03012
0.964,0.03563
0.968,-0.02852
0.972,-0.01379
0.976,0.02284
0.98,0.0509
0.984,-0.00076
0.988,0.0634
0.992,0.01372
0.996,-0.04416
1.0,-0.04327
1.004,0.0238
1.008,0.02598
1.012,0.01872
1.016,0.05378
1.02,0.02517
1.024,0.04905
1.028,0.05928
1.032,0.03853
1.036,0.08406
1.04,0.07091
1.044,0.02649
1.048,0.12045
1.052,0.11049
1.056,0.08021
1.06,0.08291
1.064,0.12946
1.068,0.10074
1.072,0.1073
1.076,0.1656
1.08,0.0756
1.084,0.13482
1.088,-0.03696
1.092,0.01833
1.096,0.05881
1.1,0.02665
1.104,0.02448
1.108,-0.0198
1.112,0.05872
1.116,0.06447
1.12,0.00384
1.124,-0.01615
1.128,0.02178
1.132,-0.01188
1.136,0.00175
1.14,-0.04772
1.144,0.05402
1.148,-0.03059
1.152,-0.01192
1.156,0.02848
1.16,0.02612
1.164,0.03941
1.168,-0.00049
1.172,0.0513
1.176,-0.04676
1.18,-0.0297
1.184,-0.0905
1.188,-0.11485
1.192,-0.13139
1.196,-0.0566
1.2,-0.01677
1.204,0.18562
1.208,0.42921
1.212,0.61474
1.216,0.81385
1.22,0.92551
1.224,1.02046
1.228,1.01896
1.232,0.83124
1.236,0.57551
1.24,0.38004
1.244,0.14897
1.248,-0.00311
1.252,-0.18318
1.256,-0.1639
1.26,-0.16133
1.264,-0.10139
1.268,-0.15364
1.272,-0.0263
1.276,0.04517
1.28,-0.02296
1.284,-0.01185
1.288,0.00682
1.292,0.02909
1.296,0.01465
1.3,-0.00761
1.304,0.0307
1.308,-0.07136
1.312,0.02321
1.316,-0.01811
1.32,-0.01045
1.324,-0.07902
1.328,0.05018
1.332,0.10333
1.336,0.05398
1.34,-0.02083
1.344,0.00574
1.348,-0.02272
1.352,0.00849
1.356,-0.03072
1.36,0.04068
1.364,0.02226
1.368,-0.02051
1.372,-0.02577
1.376,0.04951
1.38,-0.0287
1.384,0.03381
1.388,-0.04759
1.392,-0.01459
1.396,-0.02507
1.4,-0.00246
1.404,0.06802
1.408,0.03253
1.412,0.04763
1.416,0.02404
1.42,-0.00186
1.424,0.04194
1.428,0.02647
1.432,0.01464
1.436,0.01842
1.44,0.10059
1.444,0.11087
1.448,0.04401
1.452,0.08448
1.456,0.14755
1.46,0.08842
1.464,0.19654
1.468,0.11075
1.472,0.11497
1.476,0.16528
1.48,0.16916
1.484,0.14872
1.488,0.19772
1.492,0.18442
1.496,0.19808
1.5,0.25099
1.504,0.22898
1.508,0.11633
1.512,0.19968
1.516,0.17922
1.52,0.25709
1.524,0.21236
1.528,0.1556
1.532,0.13742
1.536,0.16275
1.54,0.13451
1.544,0.09634
1.548,0.10675
1.552,0.08095
1.556,0.00648
1.56,0.08464
1.564,0.09024
1.568,0.12754
1.572,0.05748
1.576,0.14657
1.58,0.05931
1.584,-0.01096
1.588,0.01735
1.592,0.05601
1.596,0.03135
1.6,-0.03459
1.604,0.00088
1.608,0.06401
1.612,-0.01229
1.616,0.00139
1.62,0.00565
1.624,0.03492
1.628,-0.02289
1.632,0.05143
1.636,-0.02366
1.64,0.02062
1.644,0.00166
1.648,0.02887
1.652,0.03601
1.656,-0.03234
1.66,0.0462
1.664,-0.07319
1.668,-0.03213
1.672,-0.03367
1.676,-0.01188
1.68,0.0547
1.684,0.03787
1.688,-0.06201
1.692,0.02148
1.696,-0.00123
1.7,-0.00568
1.704,-0.0227
1.708,-0.02038
1.712,-0.03031
1.716,0.03478
1.72,-0.05522
1.724,-0.04166
1.728,-0.01055
1.732,-0.00393
1.736,0.02537
1.74,-0.02635
1.744,0.00185
1.748,-0.01218
1.752,-0.02321
1.756,-0.01855
1.76,0.01187
1.764,0.01072
1.768,0.00547
1.772,-0.02033
1.776,-0.02416
1.78,-0.03499
1.784,-0.0602
1.788,0.0504
1.792,-0.08023
1.796,0.02588
1.8,0.04829
1.804,0.01188
1.808,0.0023
1.812,-0.03149
1.816,-0.00037
1.82,0.00569
1.824,0.00376
1.828,0.017
1.832,-0.0289
1.836,-0.03327
1.84,-0.02738
1.844,-0.01729
1.848,0.02127
1.852,-0.04568
1.856,-0.03179
1.86,-0.01982
1.864,-0.03087
1.868,0.02512
1.872,-0.03768
1.876,-0.04091
1.88,-0.03122
1.884,0.03003
1.888,0.01666
1.892,-0.00517
1.896,-0.02676
1.9,0.01247
1.904,0.04018
1.908,0.00249
1.912,-0.04997
1.916,0.07462
1.92,-0.01709
1.924,-0.01766
1.928,-0.00067
1.932,-0.03695
1.936,-0.0355
1.94,-0.00187
1.944,0.01147
1.948,-0.0798
1.952,-0.01614
1.956,-0.06445
1.96,-0.02077
1.964,-0.04475
1.968,-0.04226
1.972,-0.02273
1.976,0.03315
1.98,-0.0371
1.984,-0.07218
1.988,0.02633
1.992,-0.04164
1.996,-0.00239
2.0,-0.06284
2.004,-0.04369
2.008,-0.04899
2.012,-0.01471
2.016,-0.01526
2.02,-0.05171
2.024,0.01317
2.028,-0.03181
2.032,-0.07109
2.036,-0.04239
2.04,-0.04564
2.044,-0.01248
2.048,0.00079
2.052,-0.05856
2.056,0.01615
2.06,-0.05333
2.064,-0.10106
2.068,-0.00095
2.072,-0.02283
2.076,-0.03291
2.08,-0.05441
2.084,-0.09671
2.088,-0.00422
2.092,-0.03422
2.096,0.00804
2.1,-0.00095
2.104,0.02538
2.108,-0.00888
2.112,0.02472
2.116,-0.0638
2.12,-0.01297
2.124,0.00219
2.128,0.047
2.132,-0.07009
2.136,-0.08994
2.14,-0.03208
2.144,-0.04544
2.148,0.0066
2.152,0.00119
2.156,0.02632
2.16,0.01778
2.164,0.0061
2.168,-0.07737
2.172,0.00027
2.176,-0.0157
2.18,0.01642
2.184,-0.03095
2.188,-0.09967
2.192,-0.05472
2.196,-0.01803
2.2,-0.00109
2.204,-0.07183
2.208,-0.00046
2.212,-0.01588
2.216,0.03065
2.22,-0.0351
2.224,0.0147
2.228,-0.07742
2.232,-0.06877
2.236,0.01549
2.24,0.03413
2.244,0.06217
2.248,-0.03147
2.252,-0.00143
2.256,0.0001
2.26,0.01803
2.264,-0.00609
2.268,0.06037
2.272,0.00967
2.276,0.01518
2.28,0.10488
2.284,0.02511
2.288,0.07193
2.292,0.06851
2.296,0.09478
2.3,0.05971
2.304,0.08424
2.308,0.0833
2.312,0.0209
2.316,0.05461
2.32,0.11183
2.324,-0.00974
2.328,0.01077
2.332,0.02744
2.336,-4e-05
2.34,-0.04424
2.344,-0.02942
2.348,0.0452
2.352,-0.06832
2.356,-0.03785
2.36,-0.02776
2.364,-0.09129
2.368,0.02819
2.372,-0.03865
2.376,-0.04858
2.38,-0.04185
2.384,-0.05496
2.388,-0.05863
2.392,-0.05886
2.396,-0.00087
2.4,0.01319
2.404,-0.07198
2.408,-0.07987
2.412,-0.02033
2.416,-0.04655
2.42,-0.06895
2.424,-0.04964
2.428,-0.11041
2.432,-0.13452
2.436,-0.06661
2.44,0.11771
2.444,0.27067
2.448,0.56384
2.452,0.77636
2.456,0.90709
2.46,0.96447
2.464,0.94888
2.468,0.84867
2.472,0.58209
2.476,0.34339
2.48,0.1331
2.484,-0.00868
2.488,-0.14126
2.492,-0.18956
2.496,-0.12532
2.5,-0.15374
2.504,-0.0844
2.508,-0.03708
2.512,-0.04431
2.516,0.01349
2.52,-0.04885
2.524,0.01755
2.528,-0.03415
2.532,-0.02241
2.536,-0.02432
2.54,-0.07321
2.544,-0.03811
2.548,0.04369
2.552,-0.05879
2.556,-0.08261
2.56,-0.08427
2.564,-0.10972
2.568,-0.01292
2.572,-0.0307
2.576,-0.00402
2.58,-0.06549
2.584,0.0351
2.588,-0.0645
2.592,-0.08342
2.596,-0.01806
2.6,-0.03089
2.604,-0.0036
2.608,0.00431
2.612,-0.02136
2.616,0.02716
2.62,-0.00252
2.624,-0.05868
2.628,0.03408
2.632,0.029
2.636,0.08511
2.64,-0.05319
2.644,-0.05968
2.648,-0.08086
2.652,0.0277
2.656,-0.00194
2.66,-0.01771
2.664,0.03288
2.668,0.01869
2.672,0.06283
2.676,0.02662
2.68,0.00605
2.684,0.12591
2.688,0.09369
2.692,0.12122
2.696,0.09872
2.7,0.14509
2.704,0.13396
2.708,0.08804
2.712,0.14141
2.716,0.15515
2.72,0.1607
2.724,0.1954
2.728,0.21454
2.732,0.20352
2.736,0.22916
2.74,0.1023
2.744,0.18855
2.748,0.21901
2.752,0.21835
2.756,0.19492
2.76,0.176
2.764,0.18301
2.768,0.20797
2.772,0.19196
2.776,0.09739
2.78,0.13161
2.784,0.12767
2.788,0.11929
2.792,0.0249
2.796,0.04191
2.8,0.08902
2.804,0.07064
2.808,-0.00013
2.812,0.00866
2.816,0.00616
2.82,-0.00456
2.824,0.01595
2.828,-0.03198
2.832,0.06799
2.836,0.02351
2.84,-0.00085
2.844,0.06956
2.848,-0.03725
2.852,-0.02585
2.856,-0.03179
2.86,0.04622
2.864,-0.05225
2.868,0.02483
2.872,-0.02495
2.876,-0.02728
2.88,-0.06889
2.884,-0.10737
2.888,-0.00901
2.892,-0.09743
2.896,-0.00936
2.9,-0.06085
2.904,-0.09593
2.908,-0.04949
2.912,-0.01049
2.916,-0.02016
2.92,-0.0067
2.924,-0.02012
2.928,-0.05636
2.932,-0.03361
2.936,-0.02535
2.94,-0.06131
2.944,0.02397
2.948,-0.0872
2.952,-0.00812
2.956,0.00442
2.96,-0.09704
2.964,-0.05057
2.968,-0.02349
2.972,0.02573
2.976,0.04302
2.98,-0.02536
2.984,-0.05277
2.988,0.00538
2.992,-0.04277
2.996,-0.07412
3.0,-0.07802
3.004,-0.03562
3.008,-0.01247
3.012,-0.036
3.016,-0.00495
3.02,-0.06263
3.024,-0.05609
3.028,-0.02009
3.032,-0.02284
3.036,-0.01346
3.04,0.01116
3.044,-0.01738
3.048,-0.05335
3.052,-0.03765
3.056,-0.08684
3.06,-0.03202
3.064,-0.03764
3.068,-0.0314
3.072,0.00194
3.076,-0.05517
3.08,-0.02693
3.084,0.00055
3.088,-0.06593
3.092,0.01579
3.096,-0.07543
3.1,-0.02336
3.104,-0.02856
3.108,-0.0325
3.112,-0.02134
3.116,-0.06791
3.12,-0.03973
3.124,-0.08203
3.128,-0.01127
3.132,0.01127
3.136,-0.02029
3.14,-0.01048
3.144,-0.06644
3.148,-0.04293
3.152,-0.11097
3.156,-0.0568
3.16,-0.04213
3.164,-0.03425
3.168,-0.08286
3.172,-0.00017
3.176,-0.04581
3.18,-0.05258
3.184,-0.04195
3.188,-0.01035
3.192,-0.02198
3.196,-0.03053
3.2,-0.00156
3.204,-0.01948
3.208,-0.02401
3.212,-0.01325
3.216,-0.00913
3.22,-0.07887
3.224,0.02619
3.228,-0.05461
3.232,-0.01469
3.236,0.00166
3.24,0.02065
3.244,-0.02458
3.248,0.03639
3.252,0.02664
3.256,-0.08485
3.26,-0.0228
3.264,-0.02298
3.268,-0.03919
3.272,-0.04116
3.276,0.00971
3.28,-0.00076
3.284,-0.01495
3.288,-0.02466
3.292,-0.0039
3.296,-0.06861
3.3,-0.02218
3.304,-0.03694
3.308,0.00878
3.312,-0.02506
3.316,-0.14927
3.32,-0.01781
3.324,-0.0499
3.328,0.00902
3.332,-0.06522
3.336,-0.01134
3.34,-0.02671
3.344,-0.05545
3.348,-0.05201
3.352,0.00371
3.356,0.03234
3.36,-0.02899
3.364,-0.05383
3.368,-0.01742
3.372,-0.06272
3.376,-0.04568
3.38,-0.05234
3.384,-0.04731
3.388,-0.02895
3.392,-0.04953
3.396,-0.04346
3.4,-0.04245
3.404,-0.05562
3.408,-0.0359
3.412,0.00545
3.416,-0.00257
3.42,0.02917
3.424,0.00118
3.428,-0.02275
3.432,-0.00421
3.436,-0.03459
3.44,0.02635
3.444,-0.02399
3.448,0.04751
3.452,-0.0497
3.456,0.02212
3.46,0.01065
3.464,-0.00904
3.468,0.02189
3.472,0.05848
3.476,0.06975
3.48,0.08988
3.484,0.04893
3.488,0.04772
3.492,0.01481
3.496,0.12296
3.5,0.02549
3.504,0.04289
3.508,0.01791
3.512,0.07228
3.516,-0.00697
3.52,-0.00654
3.524,-0.0377
3.528,-0.01581
3.532,0.0359
3.536,-0.06593
3.54,-0.05163
3.544,-0.06803
3.548,-0.03229
3.552,-0.02282
3.556,-0.05577
3.56,-0.05834
3.564,-0.04437
3.568,-0.03213
3.572,-0.03363
3.576,0.02556
3.58,-0.01389
3.584,-0.07512
3.588,-0.03788
3.592,0.01967
3.596,-0.04796
3.6,-0.0713
3.604,-0.10122
3.608,-0.15333
3.612,-0.18557
3.616,-0.12171
3.62,0.00627
3.624,0.22035
3.628,0.42084
3.632,0.63951
3.636,0.77319
3.64,0.89565
3.644,0.93632
3.648,0.90722
3.652,0.69725
3.656,0.54325
3.66,0.24233
3.664,0.06535
3.668,-0.10379
3.672,-0.15252
3.676,-0.13517
3.68,-0.10703
3.684,-0.1703
3.688,-0.0724
3.692,0.01371
3.696,-0.018
3.7,-0.02071
3.704,-0.01448
3.708,-0.06854
3.712,0.02984
3.716,0.0188
3.72,-0.01917
3.724,0.0151
3.728,-0.03462
3.732,-0.00346
3.736,-0.06123
3.74,-0.01772
3.744,0.05913
3.748,-0.043
3.752,-0.01396
3.756,-0.05457
3.76,-0.04325
3.764,0.02578
3.768,0.00061
3.772,-0.00762
3.776,-0.09619
3.78,-0.00604
3.784,0.04198
3.788,-0.02413
3.792,-0.0073
3.796,0.00358
3.8,0.04098
3.804,-0.04111
3.808,-0.02398
3.812,-0.00911
3.816,-0.04579
3.82,0.02304
3.824,0.09196
3.828,0.0188
3.832,-0.00904
3.836,0.04207
3.84,0.06212
3.844,-0.00423
3.848,0.07629
3.852,0.04549
3.856,0.05709
3.86,0.02324
3.864,0.0042
3.868,0.07843
3.872,0.05061
3.876,0.1004
3.88,-0.00336
3.884,0.16251
3.888,0.16068
3.892,0.16759
3.896,0.17669
3.9,0.18565
3.904,0.22273
3.908,0.19605
3.912,0.11873
3.916,0.21451
3.92,0.13875
3.924,0.16038
3.928,0.21563
3.932,0.13525
3.936,0.27435
3.94,0.20334
3.944,0.19745
3.948,0.22682
3.952,0.16351
3.956,0.1671
3.96,0.11553
3.964,0.1368
3.968,0.10722
3.972,0.08528
3.976,0.08361
3.98,0.11496
3.984,0.06392
3.988,0.10554
3.992,0.02417
3.996,0.08914
4.0,0.0265
4.004,0.00975
4.008,0.03306
4.012,-0.00287
4.016,-0.0001
4.02,0.03628
4.024,0.03191
4.028,0.00822
4.032,-0.04722
4.036,-0.01308
4.04,0.02346
4.044,-0.03457
4.048,-0.05319
4.052,-0.01885
4.056,-0.04977
4.06,9e-05
4.064,0.00305
4.068,0.00073
4.072,0.0473
4.076,0.00629
4.08,-0.02359
4.084,-0.03191
4.088,-0.02631
4.092,0.00751
4.096,-0.06929
4.1,-0.00954
4.104,-0.02033
4.108,0.00043
4.112,-0.03369
4.116,0.00756
4.12,-0.01141
4.124,-0.05131
4.128,-0.0117
4.132,-0.03329
4.136,-0.06833
4.14,0.06399
4.144,-0.00806
4.148,-0.03289
4.152,0.01211
4.156,-0.02977
4.16,-0.08186
4.164,-0.03048
4.168,-0.00495
4.172,-0.02009
4.176,0.00082
4.18,-0.01719
4.184,0.00505
4.188,0.01488
4.192,-0.0227
4.196,-0.07301
4.2,-0.03232
4.204,0.01753
4.208,0.00191
4.212,-0.04614
4.216,-0.05786
4.22,-0.01815
4.224,0.04869
4.228,-0.01307
4.232,-0.01777
4.236,0.01536
4.24,0.01531
4.244,0.02499
4.248,-0.00659
4.252,-0.01077
4.256,0.00532
4.26,-0.0149
4.264,0.0118
4.268,-0.00642
4.272,-0.0095
4.276,-0.03769
4.28,-0.05117
4.284,-0.06823
4.288,0.00077
4.292,0.01808
4.296,-0.03432
4.3,0.00726
4.304,-0.02489
4.308,-0.008
4.312,-0.03134
4.316,-0.0116
4.32,-0.03182
4.324,-0.00838
4.328,-0.02038
4.332,-0.05025
4.336,0.03329
4.34,-0.0387
4.344,0.03484
4.348,-0.03158
4.352,0.02387
4.356,-0.04285
4.36,-0.01859
4.364,-0.09257
4.368,-0.03643
4.372,-0.0281
4.376,0.00869
4.38,-0.01984
4.384,0.03266
4.388,-0.04131
4.392,0.00701
4.396,0.07624
4.4,-0.02861
4.404,0.0503
4.408,0.05096
4.412,0.09864
4.416,0.12069
4.42,0.10881
4.424,0.06934
4.428,0.06873
4.432,0.0604
4.436,0.0082
4.44,0.02909
4.444,0.01184
4.448,0.07196
4.452,0.03889
4.456,-0.05583
4.46,0.01796
4.464,-0.01146
4.468,0.01881
4.472,-0.08625
4.476,-0.04516
4.48,0.02089
4.484,-0.00568
4.488,0.06698
4.492,0.04039
4.496,-0.02955
4.5,0.06772
4.504,0.0284
4.508,0.02084
4.512,0.03052
4.516,0.05035
4.52,0.0072
4.524,0.05764
4.528,-0.05861
4.532,-0.0201
4.536,-0.04141
4.54,-0.11897
4.544,-0.08129
4.548,-0.12801
4.552,-0.05651
4.556,-0.00441
4.56,0.15223
4.564,0.30163
4.568,0.33511
4.572,0.46926
4.576,0.6281
4.58,0.58827
4.584,0.48833
4.588,0.41495
4.592,0.3253
4.596,0.12384
4.6,-0.03267
4.604,-0.08131
4.608,-0.22436
4.612,-0.15042
4.616,-0.16307
4.62,-0.18261
4.624,-0.08126
4.628,-0.03856
4.632,0.00298
4.636,-0.04684
4.64,0.0224
4.644,0.01842
4.648,0.04909
4.652,0.01156
4.656,-0.01612
4.66,0.00487
4.664,-0.05224
4.668,-0.01262
4.672,-0.00782
4.676,-0.04568
4.68,-0.00689
4.684,0.06223
4.688,-0.02946
4.692,-0.02083
4.696,0.00728
4.7,0.04559
4.704,-0.03327
4.708,-0.01271
4.712,-0.00134
4.716,-0.00336
4.72,-0.007
4.724,-0.01047
4.728,0.04299
4.732,-0.00859
4.736,0.05034
4.74,-0.04213
4.744,0.01295
4.748,0.06523
4.752,0.04596
4.756,-0.03371
4.76,0.00839
4.764,0.01062
4.768,0.08389
4.772,-0.02027
4.776,0.05274
4.78,0.10216
4.784,0.03723
4.788,0.13064
4.792,0.08748
4.796,0.11635
4.8,0.12912
4.804,0.21114
4.808,0.2042
4.812,0.19051
4.816,0.31088
4.82,0.24927
4.824,0.22966
4.828,0.25749
4.832,0.31217
4.836,0.25473
4.84,0.30281
4.844,0.23806
4.848,0.27926
4.852,0.24558
4.856,0.277
4.86,0.26484
4.864,0.23969
4.868,0.24958
4.872,0.18554
4.876,0.23782
4.88,0.23177
4.884,0.31356
4.888,0.19391
4.892,0.13562
4.896,0.13151
4.9,0.2238
4.904,0.11278
4.908,0.11597
4.912,0.06448
4.916,0.0711
4.92,0.09929
4.924,0.16449
4.928,0.07371
4.932,0.05762
4.936,0.0121
4.94,-0.00594
4.944,-0.03758
4.948,-0.00955
4.952,-0.01832
4.956,-0.15376
4.96,-0.15125
4.964,-0.01401
4.968,0.05669
4.972,0.15085
4.976,0.30497
4.98,0.32699
4.984,0.47043
4.988,0.49205
4.992,0.47664
4.996,0.44939
5.0,0.26316
5.004,0.14247
5.008,0.08742
5.012,-0.09376
5.016,-0.13033
5.02,-0.13219
5.024,-0.2289
5.028,-0.16185
5.032,-0.08755
5.036,-0.05559
5.04,-0.00133
5.044,0.04112
5.048,0.03145
5.052,-0.03179
5.056,0.01651
5.06,0.03479
5.064,0.01306
5.068,0.00371
5.072,-0.00351
5.076,0.03799
5.08,0.0263
5.084,-0.01078
5.088,0.01656
5.092,0.00355
5.096,0.01491
5.1,0.03538
5.104,-0.03788
5.108,0.0493
5.112,0.04283
5.116,-0.02217
5.12,-0.04336
5.124,-0.03262
5.128,0.0227
5.132,0.08239
5.136,0.03243
5.14,0.09481
5.144,0.00912
5.148,0.09419
5.152,0.09313
5.156,0.10675
5.16,0.09604
5.164,0.15346
5.168,0.16718
5.172,0.15339
5.176,0.17278
5.18,0.06057
5.184,0.12238
5.188,0.17505
5.192,0.09097
5.196,0.17891
5.2,0.16313
5.204,0.10082
5.208,0.10446
5.212,0.14894
5.216,0.14058
5.22,0.12391
5.224,0.12496
5.228,0.20845
5.232,0.20505
5.236,0.20423
5.24,0.1867
5.244,0.24565
5.248,0.24691
5.252,0.23212
5.256,0.17318
5.26,0.15049
5.264,0.24584
5.268,0.19409
5.272,0.23845
5.276,0.25117
5.28,0.22876
5.284,0.24912
5.288,0.21959
5.292,0.16048
5.296,0.09428
5.3,0.06513
5.304,0.09943
5.308,0.26499
5.312,0.49844
5.316,0.55507
5.32,0.84215
5.324,1.03759
5.328,1.07923
5.332,1.11727
5.336,0.95489
5.34,0.79355
5.344,0.50703
5.348,0.32407
5.352,0.13756
5.356,-0.06429
5.36,-0.11899
5.364,-0.1618
5.368,-0.11346
5.372,-0.10098
5.376,0.03995
5.38,-0.02435
5.384,0.00485
5.388,-0.01363
5.392,0.00522
5.396,0.04126
5.4,-0.01174
5.404,-0.03883
5.408,0.00708
5.412,0.01249
5.416,0.04532
5.42,0.07169
5.424,0.06173
5.428,0.00802
5.432,0.02687
5.436,0.03977
5.44,0.07971
5.444,0.06838
5.448,0.05178
5.452,-0.00887
5.456,-0.02909
5.46,-0.01379
5.464,0.04893
5.468,-0.00511
5.472,0.02536
5.476,0.04911
5.48,-0.01484
5.484,0.01796
5.488,0.00664
5.492,0.01918
5.496,0.03902
5.5,0.02303
5.504,0.04214
5.508,0.07665
5.512,0.00878
5.516,0.05267
5.52,0.10631
5.524,0.05662
5.528,0.03826
5.532,0.05411
5.536,0.08033
5.54,0.11979
5.544,0.10272
5.548,0.11614
5.552,0.13195
5.556,0.10626
5.56,0.17036
5.564,0.11416
5.568,0.13586
5.572,0.1955
5.576,0.16172
5.58,0.16668
5.584,0.19231
5.588,0.21029
5.592,0.25881
5.596,0.21661
5.6,0.22612
5.604,0.27779
5.608,0.33932
5.612,0.20738
5.616,0.26298
5.62,0.23173
5.624,0.25609
5.628,0.28285
5.632,0.23901
5.636,0.2238
5.64,0.20612
5.644,0.1895
5.648,0.16538
5.652,0.16338
5.656,0.21278
5.66,0.14562
5.664,0.09649
5.668,0.19471
5.672,0.10316
5.676,0.0846
5.68,0.15447
5.684,0.07738
5.688,0.06202
5.692,0.02264
5.696,0.08275
5.7,0.05425
5.704,0.04932
5.708,0.07703
5.712,0.04278
5.716,-0.01092
5.72,0.01133
5.724,0.03296
5.728,0.13189
5.732,0.02086
5.736,0.05411
5.74,-0.04931
5.744,0.04018
5.748,0.07001
5.752,0.01318
5.756,0.00044
5.76,0.01805
5.764,-0.0032
5.768,0.03006
5.772,0.08932
5.776,0.04846
5.78,-0.00359
5.784,-0.00456
5.788,0.00506
5.792,0.09768
5.796,-0.00802
5.8,0.08331
5.804,0.03334
5.808,0.05639
5.812,0.08832
5.816,0.03688
5.82,0.05575
5.824,0.01645
5.828,-0.03141
5.832,0.00214
5.836,0.06197
5.84,0.0363
5.844,0.00714
5.848,0.01348
5.852,0.029
5.856,0.01523
5.86,0.03346
5.864,0.02826
5.868,0.02314
5.872,0.03819
5.876,0.001
5.88,0.09402
5.884,0.03366
5.888,0.00649
5.892,-0.00873
5.896,0.03021
5.9,0.02116
5.904,-0.00976
5.908,-0.02911
5.912,0.06328
5.916,0.03962
5.92,0.09601
5.924,0.07385
5.928,0.11758
5.932,0.08022
5.936,0.09388
5.94,0.09508
5.944,0.11983
5.948,0.18804
5.952,0.04911
5.956,0.11158
5.96,0.14515
5.964,0.16599
5.968,0.10191
5.972,0.08261
5.976,0.04342
5.98,0.05876
5.984,-0.00525
5.988,0.05526
5.992,0.05368
5.996,-0.00502
6.0,-0.00093
6.004,0.10407
6.008,0.01932
6.012,0.06684
6.016,0.00032
6.02,0.08597
6.024,-0.01228
6.028,0.01539
6.032,0.00465
6.036,0.05224
6.04,0.0585
6.044,0.035
6.048,0.06753
6.052,0.04665
6.056,-0.00781
6.06,-0.03456
6.064,-0.07148
6.068,-0.14139
6.072,-0.12927
6.076,0.03332
6.08,0.14716
6.084,0.25238
6.088,0.50063
6.092,0.70173
6.096,0.95389
6.1,1.01865
6.104,1.02423
6.108,0.92913
6.112,0.7647
6.116,0.53282
6.12,0.23771
6.124,0.06382
6.128,-0.11994
6.132,-0.13895
6.136,-0.10785
6.14,-0.12087
6.144,-0.03219
6.148,-0.05638
6.152,0.01774
6.156,-0.04484
6.16,0.02121
6.164,0.00882
6.168,0.07568
6.172,0.02962
6.176,-0.01274
6.18,0.02218
6.184,0.0648
6.188,-0.04291
6.192,0.04902
6.196,-0.01748
6.2,0.01987
6.204,0.04407
6.208,0.02579
6.212,0.00265
6.216,0.09775
6.22,0.06733
6.224,0.01
6.228,0.00227
6.232,0.06986
6.236,0.00023
6.24,0.02527
6.244,0.00818
6.248,0.00883
6.252,0.07341
6.256,0.10699
6.26,0.04261
6.264,0.00816
6.268,0.02345
6.272,0.04225
6.276,0.10064
6.28,0.03601
6.284,0.06952
6.288,0.04705
6.292,0.09318
6.296,0.06553
6.3,0.05792
6.304,0.0765
6.308,0.10927
6.312,0.13063
6.316,0.15206
6.32,0.13889
6.324,0.12947
6.328,0.21869
6.332,0.1024
6.336,0.15809
6.34,0.15184
6.344,0.1713
6.348,0.23705
6.352,0.20649
6.356,0.17932
6.36,0.20166
6.364,0.19634
6.368,0.25583
6.372,0.22081
6.376,0.28619
6.38,0.22807
6.384,0.25601
6.388,0.30057
6.392,0.25324
6.396,0.20392
6.4,0.20557
6.404,0.16398
6.408,0.18175
6.412,0.13783
6.416,0.15433
6.42,0.2187
6.424,0.15105
6.428,0.12328
6.432,0.14516
6.436,0.13268
6.44,0.14942
6.444,0.09897
6.448,0.15759
6.452,0.11083
6.456,0.10997
6.46,0.07415
6.464,0.04926
6.468,0.03337
6.472,0.02354
6.476,0.06576
6.48,0.08358
6.484,0.03133
6.488,0.01389
6.492,0.0882
6.496,0.08406
6.5,0.00555
6.504,0.00453
6.508,0.06428
6.512,0.02784
6.516,0.06461
6.52,0.12472
6.524,0.04208
6.528,0.01597
6.532,-0.03113
6.536,0.02363
6.54,-0.03546
6.544,0.04533
6.548,0.04788
6.552,0.01703
6.556,0.07057
6.56,0.03516
6.564,-0.00278
6.568,-0.00183
6.572,0.06556
6.576,0.0105
6.58,0.03909
6.584,0.06918
6.588,0.08054
6.592,0.04907
6.596,0.04234
6.6,-0.06055
6.604,0.01286
6.608,0.0113
6.612,0.01806
6.616,0.09327
6.62,0.00619
6.624,0.02423
6.628,-0.05044
6.632,0.06254
6.636,0.01116
6.64,0.04782
6.644,-0.01673
6.648,-0.00658
6.652,-0.03788
6.656,0.06513
6.66,-0.03239
6.664,0.07471
6.668,0.01749
6.672,0.03798
6.676,-0.01297
6.68,0.07587
6.684,0.0586
6.688,-0.02723
6.692,0.02757
6.696,0.02346
6.7,0.01482
6.704,-0.0411
6.708,0.04124
6.712,-0.01066
6.716,0.06229
6.72,-0.00629
6.724,0.05248
6.728,0.00734
6.732,0.04909
6.736,0.00958
6.74,0.06827
6.744,0.06254
6.748,0.01642
6.752,-0.00634
6.756,0.03447
6.76,-0.04357
6.764,0.05819
6.768,0.02282
6.772,0.07929
6.776,-0.00077
6.78,0.0232
6.784,0.05978
6.788,0.08596
6.792,0.04359
6.796,0.00245
6.8,-0.02305
6.804,-0.03911
6.808,0.08406
6.812,0.04633
6.816,0.02915
6.82,0.00013
6.824,0.03127
6.828,0.03396
6.832,0.01031
6.836,0.0023
6.84,0.07321
6.844,0.09153
6.848,0.03369
6.852,0.08034
6.856,0.03169
6.86,-0.00697
6.864,0.0044
6.868,0.03588
6.872,0.01834
6.876,0.00682
6.88,0.02454
6.884,0.00657
6.888,0.07287
6.892,0.07019
6.896,-0.00626
6.9,0.06921
6.904,0.04819
6.908,-0.00141
6.912,0.05096
6.916,-0.00584
6.92,0.02434
6.924,-0.03172
6.928,-0.01285
6.932,0.00046
6.936,0.05722
6.94,0.06755
6.944,0.0128
6.948,0.02619
6.952,0.00313
6.956,0.02487
6.96,-0.03574
6.964,0.0013
6.968,0.04662
6.972,0.02898
6.976,0.02555
6.98,-0.02979
6.984,0.06847
6.988,0.01091
6.992,0.01945
6.996,0.02038
7.0,0.03845
7.004,0.03927
7.008,0.04543
7.012,-0.0416
7.016,0.01779
7.02,-0.00091
7.024,-0.0397
7.028,0.04722
7.032,0.04825
7.036,0.07071
7.04,0.05127
7.044,0.0154
7.048,0.04133
7.052,0.01548
7.056,0.03956
7.06,0.03678
7.064,0.02135
7.068,0.04493
7.072,-0.01296
7.076,0.01238
7.08,0.08036
7.084,-0.01301
7.088,0.03534
7.092,0.01255
7.096,0.05513
7.1,0.06823
7.104,0.07781
7.108,0.04017
7.112,0.03026
7.116,0.01647
7.12,0.07594
7.124,0.06379
7.128,0.09363
7.132,-0.00247
7.136,0.08978
7.14,0.09351
7.144,0.16207
7.148,0.16945
7.152,0.1418
7.156,0.07165
7.16,0.09467
7.164,0.03863
7.168,0.00553
7.172,0.03072
7.176,0.07044
7.18,0.04615
7.184,-0.00149
7.188,0.04028
7.192,0.02823
7.196,0.07657
7.2,0.03348
7.204,-0.00609
7.208,-0.00039
7.212,0.06825
7.216,0.03377
7.22,-0.00915
7.224,0.02288
7.228,0.03343
7.232,0.03026
7.236,-0.00373
7.24,0.06965
7.244,0.03134
7.248,0.06123
7.252,0.0544
7.256,0.00668
7.26,0.03759
7.264,-0.04678
7.268,-0.02569
7.272,-0.0566
7.276,-0.07401
7.28,-0.12862
7.284,-0.07791
7.288,0.08101
7.292,0.21792
7.296,0.42337
7.3,0.58261
7.304,0.8306
7.308,1.04191
7.312,1.00673
7.316,0.99716
7.32,0.80638
7.324,0.53603
7.328,0.37224
7.332,0.08526
7.336,-0.02049
7.34,-0.10485
7.344,-0.13028
7.348,-0.05079
7.352,-0.09563
7.356,-0.11793
7.36,0.0085
7.364,-0.00104
7.368,0.06403
7.372,0.02058
7.376,-0.00906
7.38,0.02913
7.384,-0.00867
7.388,-0.01426
7.392,-0.00056
7.396,0.02629
7.4,0.01077
7.404,-0.05017
7.408,0.00104
7.412,0.05402
7.416,0.0061
7.42,0.05981
7.424,-0.00392
7.428,-0.02161
7.432,-0.03767
7.436,-0.02044
7.44,0.03055
7.444,0.02371
7.448,0.02184
7.452,-0.03685
7.456,0.01022
7.46,0.07606
7.464,-0.01894
7.468,0.02613
7.472,0.06298
7.476,0.0249
7.48,0.11507
7.484,0.03112
7.488,0.05633
7.492,0.03582
7.496,0.0403
7.5,0.01817
7.504,0.0695
7.508,0.11685
7.512,0.13779
7.516,0.056
7.52,0.09998
7.524,0.08141
7.528,0.07712
7.532,0.10406
7.536,0.10289
7.54,0.16935
7.544,0.14774
7.548,0.16465
7.552,0.17065
7.556,0.1824
7.56,0.17063
7.564,0.16186
7.568,0.23768
7.572,0.25665
7.576,0.25335
7.58,0.2423
7.584,0.23637
7.588,0.26347
7.592,0.24484
7.596,0.2788
7.6,0.28128
7.604,0.2275
7.608,0.16163
7.612,0.22136
7.616,0.1687
7.62,0.19347
7.624,0.21137
7.628,0.16594
7.632,0.1328
7.636,0.11667
7.64,0.10562
7.644,0.09946
7.648,0.09185
7.652,0.09924
7.656,0.11861
7.66,0.04568
7.664,0.04691
7.668,0.02316
7.672,0.04936
7.676,0.06626
7.68,0.02338
7.684,-0.04263
7.688,0.04972
7.692,-0.01129
7.696,0.01203
7.7,-0.0111
7.704,0.02651
7.708,-0.05968
7.712,0.0086
7.716,0.00539
7.72,0.02084
7.724,0.0525
7.728,-0.04037
7.732,0.09121
7.736,0.08847
7.74,0.07419
7.744,0.004
7.748,0.01416
7.752,-0.01148
7.756,0.03453
7.76,0.00273
7.764,-0.04927
7.768,-0.02154
7.772,0.06132
7.776,0.05082
7.78,0.01572
7.784,0.01213
7.788,0.03376
7.792,-0.0486
7.796,-0.01046
7.8,0.00937
7.804,0.05875
7.808,-0.03029
7.812,0.03732
7.816,-0.03816
7.82,-0.01407
7.824,0.03236
7.828,-0.01031
7.832,-0.0435
7.836,0.0186
7.84,0.03402
7.844,0.01355
7.848,-0.0007
7.852,0.05208
7.856,0.048
7.86,0.03951
7.864,0.06738
7.868,-0.00221
7.872,0.16738
7.876,0.05344
7.88,0.11231
7.884,0.06068
7.888,0.0718
7.892,0.1001
7.896,0.14206
7.9,0.08594
7.904,0.07837
7.908,0.06467
7.912,-0.01269
7.916,0.03434
7.92,0.02424
7.924,0.05744
7.928,-0.00082
7.932,-0.01758
7.936,-0.00776
7.94,0.02508
7.944,0.01191
7.948,0.03465
7.952,0.05282
7.956,-0.08228
7.96,0.01825
7.964,0.02268
7.968,0.04135
7.972,0.00217
7.976,-0.0152
7.98,0.06541
7.984,-0.05568
7.988,0.01851
7.992,0.02408
7.996,0.01403
8.0,-0.00556
8.004,-0.01704
8.008,-0.05979
8.012,-0.10398
8.016,-0.07102
8.02,-0.05857
8.024,-0.03488
8.028,0.08892
8.032,0.25267
8.036,0.46164
8.04,0.64764
8.044,0.87588
8.048,0.93928
8.052,0.96434
8.056,0.91797
8.06,0.67638
8.064,0.50235
8.068,0.22806
8.072,0.051
8.076,-0.01932
8.08,-0.13062
8.084,-0.1807
8.088,-0.17594
8.092,-0.07149
8.096,-0.07782
8.1,0.00013
8.104,-0.03993
8.108,0.02878
8.112,0.01751
8.116,0.01368
8.12,0.04542
8.124,0.01434
8.128,0.02944
8.132,-0.01111
8.136,-0.03869
8.14,0.04723
8.144,-0.04622
8.148,0.01452
8.152,0.00668
8.156,0.0327
8.16,-0.01474
8.164,-0.0481
8.168,0.01654
8.172,-0.06163
8.176,-0.02697
8.18,0.03143
8.184,-0.03012
8.188,-0.01362
8.192,0.00725
8.196,-0.00713
8.2,0.01216
8.204,0.02703
8.208,-0.02546
8.212,-0.0401
8.216,-0.02053
8.22,0.03094
8.224,-0.01712
8.228,0.03677
8.232,0.01799
8.236,-0.00773
8.24,0.03484
8.244,-0.0446
8.248,0.06348
8.252,0.00232
8.256,0.1093
8.26,0.11523
8.264,0.05884
8.268,0.06746
8.272,0.11369
8.276,0.15411
8.28,0.11339
8.284,0.15612
8.288,0.15798
8.292,0.16598
8.296,0.2048
8.3,0.14199
8.304,0.20427
8.308,0.19723
8.312,0.19639
8.316,0.19015
8.32,0.26293
8.324,0.24896
8.328,0.23488
8.332,0.22811
8.336,0.19179
8.34,0.19255
8.344,0.19919
8.348,0.21242
8.352,0.22885
8.356,0.17222
8.36,0.09844
8.364,0.08996
8.368,0.11782
8.372,0.10211
8.376,0.05941
8.38,0.10398
8.384,0.11123
8.388,0.07941
8.392,0.09589
8.396,0.08352
8.4,0.01251
8.404,0.04988
8.408,0.09412
8.412,0.05407
8.416,0.03467
8.42,-0.03318
8.424,0.02507
8.428,-0.02397
8.432,-0.01428
8.436,0.05901
8.44,0.02074
8.444,0.00389
8.448,-0.00716
8.452,-0.03894
8.456,0.04062
8.46,-0.03915
8.464,0.00544
8.468,-0.07148
8.472,0.01628
8.476,-0.02146
8.48,-0.02495
8.484,-0.04134
8.488,-0.03754
8.492,-0.01251
8.496,-0.04147
8.5,-0.01312
8.504,-0.04416
8.508,-0.01075
8.512,-0.02282
8.516,0.01584
8.52,-0.00798
8.524,-0.01247
8.528,0.00895
8.532,-0.01826
8.536,-0.0843
8.54,-0.06095
8.544,0.03212
8.548,-0.05063
8.552,-0.01589
8.556,-0.04944
8.56,0.04453
8.564,-0.08864
8.568,-0.07343
8.572,-0.01904
8.576,-0.02827
8.58,-0.01018
8.584,-0.02261
8.588,-0.06232
8.592,-0.00055
8.596,0.01344
8.6,-0.01377
8.604,-0.04268
8.608,-0.08248
8.612,1e-05
8.616,-0.01285
8.62,-0.03174
8.624,-0.04001
8.628,-0.00995
8.632,-0.05732
8.636,-0.00562
8.64,0.02265
8.644,0.02573
8.648,0.00152
8.652,-0.02394
8.656,-0.07356
8.66,-0.00074
8.664,-0.01172
8.668,-0.00991
8.672,-0.00956
8.676,-0.09301
8.68,-0.03361
8.684,0.01197
8.688,-0.04615
8.692,-0.00573
8.696,0.00073
8.7,-0.03178
8.704,0.01113
8.708,0.00138
8.712,0.05479
8.716,0.01492
8.72,0.02805
8.724,0.10367
8.728,0.09307
8.732,0.03775
8.736,0.11936
8.74,0.05492
8.744,0.11925
8.748,0.04232
8.752,0.09409
8.756,0.03552
8.76,0.11844
8.764,-0.01843
8.768,0.02223
8.772,0.0622
8.776,-0.08332
8.78,0.01901
8.784,-0.01139
8.788,-0.03721
8.792,0.01877
8.796,-0.03226
8.8,-0.01992
8.804,-0.09692
8.808,-0.06158
8.812,-0.06525
8.816,-0.05038
8.82,-0.01149
8.824,-0.00524
8.828,-0.02524
8.832,-0.00774
8.836,0.0247
8.84,-0.02082
8.844,-0.06925
8.848,-0.06773
8.852,-0.07536
8.856,-0.00946
8.86,-0.0965
8.864,-0.16464
8.868,-0.11352
8.872,-0.12444
8.876,-0.05641
8.88,0.00516
8.884,0.28949
8.888,0.41692
8.892,0.65514
8.896,0.84938
8.9,0.91555
8.904,0.95536
8.908,0.85777
8.912,0.69261
8.916,0.50089
8.92,0.2945
8.924,0.0551
8.928,-0.10997
8.932,-0.19564
8.936,-0.19917
8.94,-0.18263
8.944,-0.17128
8.948,-0.10474
8.952,-0.06933
8.956,-0.07149
8.96,-0.05995
8.964,0.01786
8.968,-0.07294
8.972,-0.08093
8.976,-0.06686
8.98,-0.01962
8.984,-0.04013
8.988,-0.09056
8.992,-0.05812
8.996,-0.02982
9.0,-0.03837
9.004,-0.04292
9.008,-0.01819
9.012,-0.06104
9.016,0.03497
9.02,3e-05
9.024,-0.07032
9.028,-0.03297
9.032,-0.03575
9.036,-0.09794
9.04,-0.06263
9.044,-0.05121
9.048,0.024
9.052,-0.02035
9.056,-0.02574
9.06,-0.04644
9.064,-0.0618
9.068,-0.02143
9.072,-0.03592
9.076,-0.02736
9.08,0.00194
9.084,-0.03425
9.088,0.05181
9.092,0.01209
9.096,0.00446
9.1,-0.03715
9.104,0.00212
9.108,0.04953
9.112,0.02615
9.116,0.12398
9.12,0.05022
9.124,0.07532
9.128,0.09285
9.132,0.07014
9.136,0.00863
9.14,0.08663
9.144,0.14382
9.148,0.1191
9.152,0.1328
9.156,0.20381
9.16,0.23709
9.164,0.15892
9.168,0.18909
9.172,0.16434
9.176,0.14051
9.18,0.22176
9.184,0.26275
9.188,0.24926
9.192,0.2204
9.196,0.2035
9.2,0.17775
9.204,0.20676
9.208,0.16186
9.212,0.13443
9.216,0.14559
9.22,0.10848
9.224,0.07911
9.228,0.1077
9.232,0.0761
9.236,0.08752
9.24,0.08738
9.244,0.05657
9.248,0.04906
9.252,0.01558
9.256,0.02506
9.26,0.03674
9.264,0.00254
9.268,0.01043
9.272,-0.04186
9.276,0.02166
9.28,0.06315
9.284,0.0466
9.288,-0.08208
9.292,-0.01983
9.296,0.02621
9.3,-0.06186
9.304,0.05214
9.308,0.06049
9.312,0.0503
9.316,0.0741
9.32,0.05089
9.324,0.06929
9.328,0.04445
9.332,0.10132
9.336,0.07832
9.34,0.12739
9.344,0.10298
9.348,0.00084
9.352,-0.01738
9.356,-0.02759
9.36,0.0136
9.364,-0.02049
9.368,0.03157
9.372,-0.04717
9.376,0.0644
9.38,-0.02704
9.384,-0.03617
9.388,-0.02427
9.392,-0.02546
9.396,-0.08469
9.4,0.00293
9.404,-0.09658
9.408,-0.0579
9.412,0.00669
9.416,-0.02064
9.42,-0.00081
9.424,0.01955
9.428,-0.04408
9.432,0.00114
9.436,-0.04488
9.44,-0.03323
9.444,-0.02992
9.448,-0.06681
9.452,-0.09489
9.456,-0.12356
9.46,-0.1832
9.464,-0.12237
9.468,-0.04842
9.472,0.08165
9.476,0.17888
9.48,0.21385
9.484,0.35776
9.488,0.39754
9.492,0.37757
9.496,0.37737
9.5,0.24889
9.504,0.09342
9.508,-9e-05
9.512,-0.18649
9.516,-0.15119
9.52,-0.16734
9.524,-0.24971
9.528,-0.13531
9.532,-0.10494
9.536,-0.10893
9.54,-0.10768
9.544,-0.02713
9.548,0.00056
9.552,-0.04032
9.556,-0.02029
9.56,-0.01986
9.564,0.02355
9.568,-0.05597
9.572,0.01459
9.576,0.00805
9.58,0.02212
9.584,-0.0382
9.588,-0.00934
9.592,0.02657
9.596,-0.02463
9.6,-0.02447
9.604,-0.04438
9.608,-0.04783
9.612,-0.06629
9.616,-0.05482
9.62,-0.01807
9.624,-0.07735
9.628,-0.06928
9.632,-0.02665
9.636,-0.05919
9.64,-0.0441
9.644,-0.06587
9.648,0.03501
9.652,-0.00901
9.656,-0.02825
9.66,-0.03962
9.664,-5e-05
9.668,0.02753
9.672,0.07175
9.676,-0.02963
9.68,-0.0339
9.684,-0.0027
9.688,-0.01111
9.692,0.08239
9.696,0.05406
9.7,0.05277
9.704,0.07808
9.708,0.07235
9.712,0.06885
9.716,0.05007
9.72,0.08957
9.724,0.02738
9.728,0.14577
9.732,0.1556
9.736,0.15424
9.74,0.16149
9.744,0.13895
9.748,0.13679
9.752,0.14768
9.756,0.21334
9.76,0.12515
9.764,0.13105
9.768,0.20295
9.772,0.23487
9.776,0.2107
9.78,0.18199
9.784,0.11749
9.788,0.19759
9.792,0.15115
9.796,0.14195
9.8,0.14096
9.804,0.07588
9.808,0.15667
9.812,0.15095
9.816,0.16868
9.82,0.09182
9.824,0.09992
9.828,-0.02079
9.832,0.07038
9.836,0.08205
9.84,0.05482
9.844,0.03476
9.848,0.00247
9.852,0.02513
9.856,-0.00779
9.86,0.0395
9.864,-0.03865
9.868,-0.02427
9.872,0.06222
9.876,-0.00179
9.88,-0.04167
9.884,0.01877
9.888,-0.02517
9.892,-0.05788
9.896,-0.05849
9.9,-0.01996
9.904,-0.02399
9.908,-0.07403
9.912,-0.00441
9.916,-0.0504
9.92,-0.05529
9.924,-0.02775
9.928,-0.04756
9.932,-0.02519
9.936,-0.04687
9.94,0.0217
9.944,-0.00024
9.948,-0.0243
9.952,-0.02364
9.956,-0.04022
9.96,-0.03029
9.964,-0.04976
9.968,-0.04718
9.972,-0.03958
9.976,-0.03305
9.98,-0.05441
9.984,-0.06927
9.988,-0.07401
9.992,-0.01375
9.996,-0.02016
