t_seg,ecg_mV
0.0,-0.00978
0.004,-0.01006
0.008,0.01022
0.012,-0.01885
0.016,-0.00742
0.02,-0.01567
0.024,-0.01569
0.028,-0.02563
0.032,0.00496
0.036,-0.00533
0.04,0.01951
0.044,-0.02668
0.048,0.0027
0.052,-0.01126
0.056,-0.00147
0.06,-0.00511
0.064,0.00929
0.068,-0.00012
0.072,0.01772
0.076,0.04274
0.08,0.02761
0.084,0.05319
0.088,0.08446
0.092,0.05508
0.096,0.0837
0.1,0.09394
0.104,0.09312
0.108,0.07795
0.112,0.08025
0.116,0.07805
0.12,0.10724
0.124,0.07289
0.128,0.04744
0.132,0.01751
0.136,0.02772
0.14,0.01967
0.144,0.0139
0.148,-0.00451
0.152,0.00531
0.156,-0.00846
0.16,-0.0018
0.164,0.00585
0.168,-0.0212
0.172,-0.00331
0.176,-0.02408
0.18,0.00081
0.184,-0.03423
0.188,0.00011
0.192,-0.00119
0.196,-0.01678
0.2,-0.01229
0.204,0.00214
0.208,-0.00851
0.212,0.01646
0.216,-0.02209
0.22,-0.01646
0.224,-0.01702
0.228,-0.04115
0.232,-0.07451
0.236,-0.12686
0.24,-0.10878
0.244,-0.05141
0.248,0.14423
0.252,0.29637
0.256,0.49972
0.26,0.72754
0.264,0.90415
0.268,0.98453
0.272,0.97638
0.276,0.84841
0.28,0.62151
0.284,0.4221
0.288,0.17849
0.292,0.02008
0.296,-0.08307
0.3,-0.15995
0.304,-0.14577
0.308,-0.15462
0.312,-0.09243
0.316,-0.06023
0.32,-0.01862
0.324,-0.01776
0.328,0.00207
0.332,-0.01573
0.336,0.01128
0.34,-0.00846
0.344,-0.01416
0.348,-0.00622
0.352,-0.0241
0.356,-0.00979
0.36,0.01139
0.364,0.03324
0.368,-0.00532
0.372,0.02015
0.376,-0.00156
0.38,-0.0228
0.384,0.00467
0.388,0.01871
0.392,0.03765
0.396,0.00835
0.4,-0.00415
0.404,0.018
0.408,0.0121
0.412,-0.00532
0.416,0.00701
0.42,0.00326
0.424,-0.00469
0.428,0.02356
0.432,-0.00788
0.436,-0.00468
0.44,0.02265
0.444,0.02115
0.448,0.03308
0.452,0.05153
0.456,0.01539
0.46,0.05712
0.464,0.0285
0.468,0.06796
0.472,0.05683
0.476,0.07488
0.48,0.06494
0.484,0.10795
0.488,0.08306
0.492,0.12838
0.496,0.09206
0.5,0.11187
0.504,0.11814
0.508,0.1589
0.512,0.16483
0.516,0.15705
0.52,0.17438
0.524,0.19709
0.528,0.20881
0.532,0.19759
0.536,0.21905
0.54,0.20536
0.544,0.21686
0.548,0.26368
0.552,0.24328
0.556,0.21715
0.56,0.23835
0.564,0.21523
0.568,0.19916
0.572,0.18482
0.576,0.19337
0.58,0.20454
0.584,0.1972
0.588,0.16153
0.592,0.1494
0.596,0.13187
0.6,0.11704
0.604,0.09407
0.608,0.1054
0.612,0.09268
0.616,0.07101
0.62,0.09352
0.624,0.0641
0.628,0.05336
0.632,0.05618
0.636,0.02733
0.64,-0.00068
0.644,0.02774
0.648,-0.00257
0.652,0.03808
0.656,0.004
0.66,0.00527
0.664,0.00373
0.668,0.02896
0.672,0.02655
0.676,0.00793
0.68,0.00321
0.684,0.01112
0.688,0.02101
0.692,0.00492
0.696,0.04395
0.7,0.02993
0.704,0.02492
0.708,-0.00936
0.712,0.01204
0.716,0.00904
0.72,0.00286
0.724,-0.01074
0.728,-0.00025
0.732,-0.01583
0.736,0.00625
0.74,0.00701
0.744,0.01786
0.748,0.00955
0.752,0.00531
0.756,0.01518
0.76,-0.00045
0.764,-0.00588
0.768,0.01638
0.772,0.00653
0.776,0.01314
0.78,0.02406
0.784,0.03135
0.788,0.01637
0.792,0.00337
0.796,-0.00427
0.8,0.02004
0.804,0.02989
0.808,0.01713
0.812,-0.00868
0.816,0.0107
0.82,0.00562
0.824,0.01011
0.828,0.01415
0.832,0.02712
0.836,-0.00932
0.84,0.00701
0.844,0.02134
0.848,0.03436
0.852,0.02586
0.856,-0.00273
0.86,0.03226
0.864,0.0408
0.868,0.04164
0.872,0.02106
0.876,0.01448
0.88,0.0227
0.884,0.01688
0.888,0.01034
0.892,0.0351
0.896,0.01225
0.9,0.01954
0.904,0.05129
0.908,0.00635
0.912,0.05122
0.916,0.0168
0.92,0.01127
0.924,0.01094
0.928,0.00977
0.932,-0.01256
0.936,-0.00965
0.94,0.0206
0.944,0.01616
0.948,0.01732
0.952,0.03726
0.956,0.00683
0.96,0.01241
0.964,0.03296
0.968,0.02833
0.972,0.03428
0.976,0.01594
0.98,0.00292
0.984,0.04243
0.988,0.04032
0.992,0.01877
0.996,0.04208
1.0,-0.00408
1.004,0.02859
1.008,0.01394
1.012,0.01662
1.016,-0.00839
1.02,0.03667
1.024,0.02854
1.028,0.00012
1.032,0.01592
1.036,0.00577
1.04,0.04866
1.044,0.01139
1.048,0.01603
1.052,0.02981
1.056,0.03124
1.06,0.02862
1.064,-0.001
1.068,0.0253
1.072,0.0032
1.076,0.00326
1.08,0.00672
1.084,0.02642
1.088,0.01045
1.092,0.0275
1.096,0.02588
1.1,0.01834
1.104,0.01169
1.108,0.00466
1.112,0.02377
1.116,0.02909
1.12,0.03142
1.124,0.00554
1.128,0.0229
1.132,0.02663
1.136,0.01166
1.14,0.04151
1.144,0.03709
1.148,0.00968
1.152,0.02454
1.156,0.02981
1.16,0.04458
1.164,0.00894
1.168,0.01644
1.172,0.01701
1.176,0.03202
1.18,0.02859
1.184,0.03828
1.188,0.01349
1.192,0.02226
1.196,0.01255
1.2,0.03375
1.204,0.02783
1.208,0.02028
1.212,0.02156
1.216,0.05536
1.22,0.01261
1.224,0.05332
1.228,0.01601
1.232,-0.0027
1.236,0.0343
1.24,0.03288
1.244,0.00356
1.248,0.01618
1.252,0.01476
1.256,0.00382
1.26,0.02665
1.264,0.01938
1.268,0.00143
1.272,0.02221
1.276,0.02828
1.28,0.02835
1.284,-0.0027
1.288,0.01482
1.292,-0.01038
1.296,0.02606
1.3,0.03329
1.304,0.03772
1.308,0.01115
1.312,0.00986
1.316,-0.00745
1.32,0.01445
1.324,0.00592
1.328,0.03422
1.332,0.01041
1.336,0.03988
1.34,0.03467
1.344,0.00722
1.348,0.02649
1.352,0.0359
1.356,0.02416
1.36,0.02272
1.364,0.01186
1.368,0.03318
1.372,0.03104
1.376,0.03441
1.38,0.03628
1.384,0.03966
1.388,0.01492
1.392,0.03321
1.396,-0.00357
1.4,-0.00116
1.404,0.00687
1.408,-0.00205
1.412,0.01686
1.416,0.04227
1.42,0.01457
1.424,0.01104
1.428,0.0166
1.432,0.04321
1.436,0.05483
1.44,0.0004
1.444,0.0406
1.448,0.03065
1.452,0.02275
1.456,0.02435
1.46,0.02855
1.464,0.06861
1.468,-0.00179
1.472,0.02419
1.476,0.01376
1.48,0.04706
1.484,0.03736
1.488,0.0211
1.492,0.02181
1.496,0.02611
1.5,0.05069
1.504,0.02328
1.508,0.07741
1.512,0.04954
1.516,0.07896
1.52,0.06663
1.524,0.09851
1.528,0.09823
1.532,0.1202
1.536,0.11899
1.54,0.1217
1.544,0.14892
1.548,0.12128
1.552,0.10331
1.556,0.1115
1.56,0.10287
1.564,0.08669
1.568,0.07033
1.572,0.06923
1.576,0.0399
1.58,0.02958
1.584,0.02869
1.588,0.01861
1.592,0.03464
1.596,0.03237
1.6,0.0197
1.604,0.02992
1.608,0.00297
1.612,0.02247
1.616,0.02813
1.62,0.05939
1.624,0.01551
1.628,0.01079
1.632,0.02218
1.636,0.06468
1.64,0.03079
1.644,0.00017
1.648,0.03772
1.652,0.00044
1.656,0.02361
1.66,0.01278
1.664,-0.04448
1.668,-0.07158
1.672,-0.11417
1.676,-0.06584
1.68,0.03517
1.684,0.21218
1.688,0.37817
1.692,0.63574
1.696,0.81274
1.7,0.97631
1.704,1.03208
1.708,0.98606
1.712,0.80627
1.716,0.58439
1.72,0.39936
1.724,0.16154
1.728,0.00989
1.732,-0.08136
1.736,-0.15454
1.74,-0.11538
1.744,-0.08635
1.748,-0.05653
1.752,-0.03438
1.756,0.02155
1.76,0.01594
1.764,0.04119
1.768,0.05843
1.772,0.02627
1.776,0.01398
1.78,0.04343
1.784,0.00607
1.788,0.01479
1.792,0.05062
1.796,0.04189
1.8,0.035
1.804,0.05317
1.808,0.03182
1.812,0.04219
1.816,0.03938
1.82,0.03686
1.824,0.01967
1.828,0.02833
1.832,0.02593
1.836,0.02461
1.84,0.01971
1.844,0.05102
1.848,0.05023
1.852,0.01808
1.856,0.04519
1.86,0.02742
1.864,0.03403
1.868,0.04371
1.872,0.05691
1.876,0.03042
1.88,0.06115
1.884,0.04553
1.888,0.08118
1.892,0.04363
1.896,0.06408
1.9,0.07679
1.904,0.06526
1.908,0.07796
1.912,0.08998
1.916,0.10623
1.92,0.09012
1.924,0.14192
1.928,0.1454
1.932,0.12601
1.936,0.16083
1.94,0.1568
1.944,0.16586
1.948,0.18
1.952,0.20372
1.956,0.23557
1.96,0.2147
1.964,0.21444
1.968,0.23344
1.972,0.26278
1.976,0.24747
1.98,0.24905
1.984,0.25392
1.988,0.23445
1.992,0.25905
1.996,0.24162
2.0,0.23071
2.004,0.24473
2.008,0.22098
2.012,0.23824
2.016,0.18111
2.02,0.18282
2.024,0.1947
2.028,0.1802
2.032,0.1618
2.036,0.13968
2.04,0.15902
2.044,0.16001
2.048,0.13206
2.052,0.09085
2.056,0.08477
2.06,0.08506
2.064,0.0839
2.068,0.02276
2.072,0.03848
2.076,0.03627
2.08,0.0476
2.084,0.04577
2.088,0.04297
2.092,0.03936
2.096,0.05034
2.1,0.07365
2.104,0.04518
2.108,0.07624
2.112,0.04813
2.116,0.05698
2.12,0.03358
2.124,0.00926
2.128,0.03991
2.132,0.01116
2.136,0.00815
2.14,0.0461
2.144,-0.00761
2.148,0.03504
2.152,0.0333
2.156,0.02467
2.16,0.03074
2.164,0.03397
2.168,0.01914
2.172,0.02654
2.176,0.0345
2.18,0.01891
2.184,0.02743
2.188,0.03075
2.192,0.01652
2.196,0.04679
2.2,0.02266
2.204,0.02148
2.208,0.03655
2.212,0.02011
2.216,0.03402
2.22,0.02859
2.224,0.01197
2.228,0.0222
2.232,0.03721
2.236,0.01382
2.24,0.03068
2.244,0.02653
2.248,0.02977
2.252,0.02337
2.256,0.05149
2.26,0.03466
2.264,0.03723
2.268,0.00795
2.272,0.03671
2.276,0.03592
2.28,0.02907
2.284,0.03509
2.288,0.04543
2.292,0.02438
2.296,0.03057
2.3,0.0333
2.304,0.03405
2.308,0.02259
2.312,0.05129
2.316,0.04815
2.32,0.00946
2.324,0.02043
2.328,0.03475
2.332,0.03383
2.336,0.04756
2.34,0.00294
2.344,0.0393
2.348,0.0351
2.352,0.02921
2.356,0.03822
2.36,0.03286
2.364,0.02115
2.368,0.00364
2.372,0.06028
2.376,0.04835
2.38,0.04902
2.384,0.03827
2.388,0.02663
2.392,0.05501
2.396,0.04501
2.4,0.03429
2.404,0.00494
2.408,0.02571
2.412,0.05122
2.416,0.03398
2.42,0.01245
2.424,0.01544
2.428,0.03518
2.432,0.03278
2.436,0.03873
2.44,0.01644
2.444,0.01036
2.448,0.01953
2.452,0.02793
2.456,0.04661
2.46,0.00264
2.464,0.05235
2.468,0.01558
2.472,0.02721
2.476,0.00714
2.48,0.01086
2.484,0.01936
2.488,0.04438
2.492,0.03695
2.496,0.02272
2.5,0.02445
2.504,0.02509
2.508,0.04036
2.512,0.03195
2.516,0.04954
2.52,0.04238
2.524,0.03646
2.528,-0.00655
2.532,0.05418
2.536,0.0221
2.54,0.02959
2.544,0.03394
2.548,0.04991
2.552,0.0192
2.556,0.04264
2.56,0.01575
2.564,0.0379
2.568,0.04242
2.572,0.0064
2.576,0.02721
2.58,0.01965
2.584,0.03693
2.588,0.03951
2.592,0.03516
2.596,0.0097
2.6,0.0508
2.604,0.03882
2.608,0.00659
2.612,0.00731
2.616,0.03143
2.62,0.01562
2.624,0.01632
2.628,0.02841
2.632,0.02084
2.636,0.02048
2.64,0.00874
2.644,0.0286
2.648,0.03671
2.652,0.0236
2.656,0.03133
2.66,0.04608
2.664,0.04529
2.668,-0.00576
2.672,0.02748
2.676,0.0091
2.68,0.02582
2.684,0.02135
2.688,0.02495
2.692,0.03537
2.696,0.02903
2.7,0.02681
2.704,0.04827
2.708,0.03125
2.712,0.02295
2.716,0.03944
2.72,0.02943
2.724,0.03101
2.728,0.01248
2.732,0.01821
2.736,0.00484
2.74,0.02716
2.744,-0.00306
2.748,0.05516
2.752,0.01745
2.756,0.01306
2.76,0.01802
2.764,0.01477
2.768,0.00504
2.772,0.00685
2.776,0.00331
2.78,0.02118
2.784,0.02069
2.788,0.04309
2.792,0.00982
2.796,0.03002
2.8,0.02684
2.804,0.01106
2.808,0.04698
2.812,0.02089
2.816,0.02372
2.82,0.02983
2.824,0.01791
2.828,-0.00217
2.832,0.03397
2.836,0.01482
2.84,0.02359
2.844,0.03139
2.848,0.02703
2.852,0.02644
2.856,0.04931
2.86,0.03175
2.864,0.02836
2.868,0.03268
2.872,0.00264
2.876,-0.0263
2.88,0.04396
2.884,0.04905
2.888,0.01142
2.892,0.04269
2.896,0.04623
2.9,0.04485
2.904,0.04647
2.908,0.06726
2.912,0.08302
2.916,0.08244
2.92,0.11455
2.924,0.11007
2.928,0.11367
2.932,0.14894
2.936,0.11863
2.94,0.10791
2.944,0.10476
2.948,0.06667
2.952,0.08036
2.956,0.09166
2.96,0.08545
2.964,0.03236
2.968,0.07377
2.972,0.02969
2.976,0.02435
2.98,0.02573
2.984,0.00109
2.988,0.04983
2.992,-0.01558
2.996,0.0077
3.0,0.01614
3.004,0.02937
3.008,0.01348
3.012,0.02562
3.016,0.01356
3.02,0.00338
3.024,-0.00272
3.028,0.00502
3.032,0.0045
3.036,-0.01221
3.04,0.03197
3.044,0.04028
3.048,0.00326
3.052,-0.0508
3.056,-0.06081
3.06,-0.0993
3.064,-0.10549
3.068,-0.02106
3.072,0.1178
3.076,0.31033
3.08,0.5228
3.084,0.71813
3.088,0.91658
3.092,1.01341
3.096,0.97991
3.1,0.84785
3.104,0.65697
3.108,0.44258
3.112,0.19558
3.116,0.0303
3.12,-0.10099
3.124,-0.12947
3.128,-0.173
3.132,-0.14564
3.136,-0.08081
3.14,-0.02701
3.144,-0.00903
3.148,0.00317
3.152,-0.00147
3.156,0.01779
3.16,0.02413
3.164,0.0155
3.168,0.02959
3.172,0.00762
3.176,0.0302
3.18,0.01506
3.184,0.00345
3.188,-0.0124
3.192,0.01447
3.196,0.01994
3.2,0.01632
3.204,0.02148
3.208,0.01609
3.212,-0.00281
3.216,0.02642
3.22,-0.00542
3.224,-0.00817
3.228,0.0114
3.232,-5e-05
3.236,0.00796
3.24,0.00515
3.244,0.01553
3.248,0.01705
3.252,0.03008
3.256,0.03304
3.26,0.01459
3.264,0.03804
3.268,0.04208
3.272,0.02843
3.276,0.04938
3.28,0.05214
3.284,0.05327
3.288,0.02951
3.292,0.06718
3.296,0.08763
3.3,0.06282
3.304,0.07852
3.308,0.10755
3.312,0.09945
3.316,0.09897
3.32,0.113
3.324,0.1053
3.328,0.15132
3.332,0.16505
3.336,0.1772
3.34,0.17065
3.344,0.20591
3.348,0.202
3.352,0.22171
3.356,0.20485
3.36,0.2204
3.364,0.23472
3.368,0.25863
3.372,0.22544
3.376,0.20701
3.38,0.22097
3.384,0.20073
3.388,0.20569
3.392,0.20128
3.396,0.20983
3.4,0.15894
3.404,0.18439
3.408,0.16998
3.412,0.19532
3.416,0.1672
3.42,0.12876
3.424,0.14568
3.428,0.09581
3.432,0.11835
3.436,0.0951
3.44,0.09017
3.444,0.03102
3.448,0.06393
3.452,0.08908
3.456,0.07183
3.46,0.06169
3.464,0.04603
3.468,0.02678
3.472,0.01822
3.476,0.02903
3.48,0.0188
3.484,0.01867
3.488,0.01446
3.492,-0.02248
3.496,0.00936
3.5,-0.02971
3.504,0.02245
3.508,0.01095
3.512,0.0096
3.516,-0.00264
3.52,0.0029
3.524,-0.00753
3.528,0.01246
3.532,0.00232
3.536,0.00279
3.54,0.01046
3.544,0.00388
3.548,0.02607
3.552,0.00282
3.556,0.01024
3.56,0.01561
3.564,-0.02482
3.568,-0.01299
3.572,0.00029
3.576,0.01746
3.58,0.01214
3.584,-0.00534
3.588,0.00487
3.592,-0.01178
3.596,-0.00075
3.6,0.0249
3.604,-0.00268
3.608,-0.00454
3.612,0.0086
3.616,0.00493
3.62,-0.02109
3.624,0.02574
3.628,-0.00658
3.632,-0.00749
3.636,-0.01458
3.64,0.00621
3.644,-0.0065
3.648,-0.00272
3.652,0.00036
3.656,0.00389
3.66,-0.00522
3.664,-0.02371
3.668,0.00826
3.672,-0.00037
3.676,0.00708
3.68,0.0266
3.684,-0.01049
3.688,0.01541
3.692,-0.00512
3.696,0.00385
3.7,0.01102
3.704,0.01308
3.708,-0.00809
3.712,0.00024
3.716,-0.01412
3.72,0.00525
3.724,-0.00065
3.728,0.00554
3.732,0.02188
3.736,-0.00577
3.74,-0.01294
3.744,-0.00871
3.748,-0.00808
3.752,0.0083
3.756,-0.00805
3.76,-0.01143
3.764,-0.04285
3.768,-0.02326
3.772,-0.02296
3.776,0.01884
3.78,0.01274
3.784,-0.00834
3.788,-0.0016
3.792,0.00058
3.796,-0.01422
3.8,-0.01547
3.804,0.00498
3.808,-0.03302
3.812,-0.00192
3.816,0.00627
3.82,-0.00293
3.824,0.0086
3.828,-0.01758
3.832,-0.00614
3.836,0.00938
3.84,0.00766
3.844,0.01807
3.848,0.00523
3.852,0.00685
3.856,-0.00201
3.86,-0.01661
3.864,-0.05063
3.868,0.00118
3.872,-0.01766
3.876,-0.00437
3.88,-0.00838
3.884,-0.01362
3.888,-0.03483
3.892,-0.00062
3.896,-0.00117
3.9,-0.00229
3.904,0.003
3.908,0.00196
3.912,-0.00983
3.916,-0.00056
3.92,-0.01334
3.924,0.02009
3.928,-0.0025
3.932,-0.02492
3.936,-0.01121
3.94,0.01357
3.944,-0.01283
3.948,0.00943
3.952,-0.01581
3.956,-0.00764
3.96,-0.00045
3.964,0.00262
3.968,-0.00914
3.972,-0.00571
3.976,0.00867
3.98,-0.0085
3.984,-0.02498
3.988,-0.01034
3.992,-0.00802
3.996,-0.03138
4.0,-0.01276
4.004,-0.00462
4.008,-0.00928
4.012,-0.01513
4.016,-0.02514
4.02,-0.02584
4.024,-0.024
4.028,-0.02008
4.032,-0.01266
4.036,-0.00152
4.04,-0.01252
4.044,-0.02219
4.048,-0.00543
4.052,-0.01057
4.056,-0.01161
4.06,-0.01128
4.064,-0.01675
4.068,0.0088
4.072,0.00567
4.076,-0.00013
4.08,0.00055
4.084,-0.00995
4.088,-0.02286
4.092,0.00055
4.096,-0.00441
4.1,-0.00967
4.104,-0.0012
4.108,-0.01655
4.112,-0.01556
4.116,-0.01528
4.12,-0.00282
4.124,0.00147
4.128,-0.01777
4.132,-0.02714
4.136,0.0052
4.14,0.0132
4.144,-0.02052
4.148,-0.0182
4.152,8e-05
4.156,-0.02167
4.16,-0.00478
4.164,-0.01683
4.168,-0.00511
4.172,-0.00037
4.176,-0.00122
4.18,0.00776
4.184,-0.00508
4.188,-0.00769
4.192,-0.01343
4.196,-0.0042
4.2,0.01977
4.204,0.04161
4.208,0.01805
4.212,0.03952
4.216,0.05059
4.22,0.04944
4.224,0.04456
4.228,0.0711
4.232,0.08742
4.236,0.07382
4.24,0.07625
4.244,0.08052
4.248,0.07353
4.252,0.06714
4.256,0.03737
4.26,0.0254
4.264,0.02013
4.268,0.01771
4.272,0.01387
4.276,0.0055
4.28,-0.01266
4.284,-0.02548
4.288,0.00208
4.292,-0.01719
4.296,-0.01486
4.3,-0.03509
4.304,-0.00578
4.308,-0.00866
4.312,-0.01339
4.316,-0.04052
4.32,-0.00653
4.324,-0.00415
4.328,-0.02558
4.332,-0.04698
4.336,-0.00494
4.34,-0.02666
4.344,-0.03672
4.348,-0.02335
4.352,-0.08043
4.356,-0.09433
4.36,-0.11764
4.364,-0.10436
4.368,-0.08821
4.372,0.06163
4.376,0.23625
4.38,0.43918
4.384,0.64927
4.388,0.84253
4.392,0.9766
4.396,0.9904
4.4,0.87646
4.404,0.66835
4.408,0.45025
4.412,0.21866
4.416,0.03766
4.42,-0.10446
4.424,-0.16911
4.428,-0.19332
4.432,-0.15919
4.436,-0.12566
4.44,-0.08438
4.444,-0.06138
4.448,-0.03135
4.452,-0.02442
4.456,0.00238
4.46,-0.03108
4.464,-0.029
4.468,-0.03808
4.472,-0.03001
4.476,-0.00439
4.48,-0.00237
4.484,-0.03585
4.488,0.00071
4.492,-0.01616
4.496,-0.02156
4.5,-0.03502
4.504,-0.04213
4.508,-0.01546
4.512,-0.02514
4.516,-0.01301
4.52,-0.00349
4.524,-0.04687
4.528,-0.02758
4.532,-0.0316
4.536,-0.02461
4.54,-0.01749
4.544,-0.03008
4.548,-0.03695
4.552,-0.01681
4.556,-0.00997
4.56,-0.03079
4.564,-0.02141
4.568,-0.02665
4.572,-0.0232
4.576,-0.00881
4.58,0.00534
4.584,0.00514
4.588,-0.00859
4.592,0.00025
4.596,0.01977
4.6,0.03754
4.604,0.03688
4.608,0.0511
4.612,0.05752
4.616,0.07724
4.62,0.09257
4.624,0.13133
4.628,0.11166
4.632,0.11939
4.636,0.14076
4.64,0.13204
4.644,0.12822
4.648,0.1819
4.652,0.16019
4.656,0.18869
4.66,0.1857
4.664,0.16803
4.668,0.20215
4.672,0.21572
4.676,0.21572
4.68,0.19221
4.684,0.19216
4.688,0.16236
4.692,0.16628
4.696,0.17603
4.7,0.15671
4.704,0.14148
4.708,0.14113
4.712,0.10905
4.716,0.10364
4.72,0.10368
4.724,0.09706
4.728,0.08248
4.732,0.09818
4.736,0.05521
4.74,0.03847
4.744,-0.00403
4.748,0.04002
4.752,0.04404
4.756,0.02795
4.76,0.00532
4.764,0.0211
4.768,-0.00363
4.772,-0.02562
4.776,-0.01222
4.78,-0.00177
4.784,0.00437
4.788,-0.02122
4.792,-0.02409
4.796,-0.01766
4.8,0.00179
4.804,-0.01554
4.808,0.00112
4.812,-0.01097
4.816,-0.02057
4.82,-0.03654
4.824,-0.04572
4.828,-0.01376
4.832,-0.02835
4.836,-0.03702
4.84,-0.03041
4.844,-0.02084
4.848,-0.01657
4.852,-0.03652
4.856,-0.01986
4.86,-0.03625
4.864,-0.03076
4.868,-0.01515
4.872,-0.0376
4.876,-0.02095
4.88,-0.00178
4.884,-0.01802
4.888,-0.03079
4.892,-0.02458
4.896,-0.04084
4.9,-0.03758
4.904,-0.01571
4.908,-0.0351
4.912,-0.02131
4.916,-0.02217
4.92,-0.04195
4.924,-0.05924
4.928,-0.03657
4.932,-0.02043
4.936,-0.05747
4.94,-0.03343
4.944,-0.02125
4.948,-0.02081
4.952,-0.04049
4.956,-0.02274
4.96,-0.04108
4.964,-0.04208
4.968,0.02622
4.972,-0.02111
4.976,-0.01995
4.98,-0.03755
4.984,-0.00019
4.988,-0.04482
4.992,0.00035
4.996,-0.06367
5.0,-0.02042
5.004,-0.00939
5.008,-0.03446
5.012,-0.00962
5.016,-0.03516
5.02,-0.01936
5.024,-0.00683
5.028,-0.00154
5.032,-0.00602
5.036,-0.01356
5.04,-0.04107
5.044,-0.02336
5.048,0.00321
5.052,-0.02149
5.056,-0.05208
5.06,-0.02467
5.064,0.00314
5.068,-0.03319
5.072,-0.01143
5.076,-0.05303
5.08,-0.03158
5.084,-0.039
5.088,-0.04558
5.092,-0.02241
5.096,-0.03982
5.1,-0.03564
5.104,-0.03846
5.108,-0.01902
5.112,-0.02412
5.116,-0.0091
5.12,-0.0426
5.124,-0.00153
5.128,-0.06351
5.132,-0.00212
5.136,-0.0109
5.14,-0.02765
5.144,-0.03822
5.148,-0.03813
5.152,-0.03637
5.156,-0.03619
5.16,-0.02779
5.164,-0.00734
5.168,-0.03786
5.172,-0.04018
5.176,-0.04655
5.18,-0.04174
5.184,-0.0196
5.188,-0.03128
5.192,-0.01537
5.196,-0.03574
5.2,-0.02666
5.204,-0.03497
5.208,-0.03527
5.212,-0.04665
5.216,-0.01807
5.22,-0.02944
5.224,-0.02079
5.228,-0.00516
5.232,-0.04744
5.236,-0.0098
5.24,-0.04733
5.244,-0.03979
5.248,-0.03131
5.252,-0.02866
5.256,-0.0372
5.26,-0.02478
5.264,-0.02708
5.268,-0.03749
5.272,-0.0205
5.276,-0.04881
5.28,-0.00667
5.284,-0.0114
5.288,-0.04458
5.292,-0.04841
5.296,-0.0473
5.3,-0.04403
5.304,-0.03866
5.308,-0.02687
5.312,-0.02057
5.316,-0.03406
5.32,-0.02703
5.324,-0.03027
5.328,-0.03784
5.332,-0.03753
5.336,-0.01736
5.34,-0.035
5.344,-0.01697
5.348,-0.04875
5.352,-0.0349
5.356,0.00549
5.36,-0.01785
5.364,-0.03083
5.368,-0.03431
5.372,0.03283
5.376,0.00478
5.38,0.00978
5.384,0.03927
5.388,0.07026
5.392,0.04351
5.396,0.10149
5.4,0.07871
5.404,0.0655
5.408,0.07854
5.412,0.0534
5.416,0.0221
5.42,0.02577
5.424,0.04637
5.428,0.0322
5.432,0.01688
5.436,-0.00354
5.44,-0.02774
5.444,-0.02284
5.448,-0.00021
5.452,-0.02016
5.456,-0.03078
5.46,-0.02065
5.464,-0.01255
5.468,-0.02261
5.472,-0.03017
5.476,-0.00257
5.48,-0.03346
5.484,-0.03804
5.488,-0.004
5.492,-0.05164
5.496,-0.03866
5.5,-0.00606
5.504,-0.0267
5.508,-0.02709
5.512,-0.04548
5.516,-0.06794
5.52,-0.08114
5.524,-0.12115
5.528,-0.16056
5.532,-0.15032
5.536,-0.09435
5.54,0.06749
5.544,0.18288
5.548,0.40116
5.552,0.62758
5.556,0.79155
5.56,0.9328
5.564,0.9668
5.568,0.88192
5.572,0.70279
5.576,0.475
5.58,0.23469
5.584,0.05147
5.588,-0.10749
5.592,-0.18819
5.596,-0.18176
5.6,-0.19074
5.604,-0.12762
5.608,-0.09636
5.612,-0.07807
5.616,-0.02354
5.62,-0.04698
5.624,-0.03505
5.628,-0.03808
5.632,-0.06347
5.636,-0.0269
5.64,-0.04776
5.644,-0.01912
5.648,-0.02712
5.652,-0.00716
5.656,-0.01827
5.66,-0.01471
5.664,0.00107
5.668,-0.06249
5.672,0.00739
5.676,-0.0044
5.68,-0.03957
5.684,-0.02702
5.688,-0.02145
5.692,-0.01735
5.696,-0.04544
5.7,-0.01357
5.704,-0.02266
5.708,-0.06009
5.712,-0.01599
5.716,-0.0222
5.72,-0.01879
5.724,-0.01465
5.728,-0.02715
5.732,-0.01347
5.736,-0.01278
5.74,-0.0169
5.744,-0.01951
5.748,-0.0056
5.752,-0.00542
5.756,0.01542
5.76,0.03208
5.764,-0.01078
5.768,0.01716
5.772,0.01548
5.776,0.02384
5.78,0.07023
5.784,0.05012
5.788,0.08536
5.792,0.09505
5.796,0.10012
5.8,0.12167
5.804,0.12627
5.808,0.14616
5.812,0.13998
5.816,0.16236
5.82,0.1475
5.824,0.17922
5.828,0.1711
5.832,0.18883
5.836,0.2003
5.84,0.1805
5.844,0.18461
5.848,0.1775
5.852,0.18252
5.856,0.14934
5.86,0.20238
5.864,0.15589
5.868,0.14685
5.872,0.15443
5.876,0.16917
5.88,0.10511
5.884,0.09236
5.888,0.10985
5.892,0.10616
5.896,0.1164
5.9,0.06358
5.904,0.07428
5.908,0.067
5.912,0.02547
5.916,0.03403
5.92,0.03441
5.924,0.00486
5.928,0.00365
5.932,-0.0096
5.936,0.01394
5.94,-0.01149
5.944,-0.01878
5.948,-0.03563
5.952,-0.00568
5.956,0.0046
5.96,-0.03138
5.964,-0.02115
5.968,-0.035
5.972,-0.01051
5.976,-0.01937
5.98,-0.04028
5.984,-0.04423
5.988,-0.05168
5.992,-0.0307
5.996,-0.02897
6.0,-0.01452
6.004,-0.04943
6.008,-0.00443
6.012,-0.04557
6.016,-0.02655
6.02,-0.01865
6.024,-0.00936
6.028,-0.03123
6.032,-0.0101
6.036,-0.03035
6.04,-0.02427
6.044,-0.04582
6.048,-0.02153
6.052,-0.02701
6.056,-0.05502
6.06,-0.0221
6.064,0.00226
6.068,-0.05493
6.072,-0.04359
6.076,-0.01561
6.08,-0.04519
6.084,-0.00139
6.088,0.00574
6.092,-0.02791
6.096,0.0052
6.1,-0.03112
6.104,-0.03462
6.108,-0.01642
6.112,-0.00967
6.116,-0.01585
6.12,-0.03859
6.124,-0.01641
6.128,-0.04003
6.132,-0.02106
6.136,-0.0155
6.14,0.01638
6.144,-0.01257
6.148,-0.02433
6.152,-0.03348
6.156,-0.01233
6.16,-0.03995
6.164,-0.02238
6.168,0.00853
6.172,-0.02803
6.176,-0.0199
6.18,-0.00386
6.184,-0.00614
6.188,-0.02212
6.192,-0.00686
6.196,-0.03947
6.2,-0.00898
6.204,0.01234
6.208,-0.01666
6.212,-0.01473
6.216,0.00412
6.22,-0.02187
6.224,-0.01946
6.228,-0.0262
6.232,0.01068
6.236,-0.01137
6.24,-0.01632
6.244,-0.0302
6.248,-0.03206
6.252,0.00894
6.256,-0.02987
6.26,-0.01612
6.264,-0.02365
6.268,-0.01569
6.272,-0.03624
6.276,-0.00756
6.28,-0.05427
6.284,0.00448
6.288,-0.02145
6.292,-0.02467
6.296,0.00118
6.3,-0.03186
6.304,-0.00788
6.308,-0.00398
6.312,-0.01503
6.316,-0.01228
6.32,-0.02488
6.324,-0.00906
6.328,-0.02315
6.332,0.01374
6.336,-0.0611
6.34,-0.02845
6.344,-0.02918
6.348,-0.03074
6.352,-0.01923
6.356,-0.03495
6.36,-0.01906
6.364,-0.03285
6.368,-0.02373
6.372,-0.01609
6.376,-0.04538
6.38,-0.02872
6.384,0.00301
6.388,-0.0149
6.392,-0.02031
6.396,-0.00331
6.4,-0.04286
6.404,0.00557
6.408,-0.01422
6.412,0.00507
6.416,-0.00034
6.42,-0.01523
6.424,-0.04568
6.428,-0.01322
6.432,-0.03451
6.436,-0.00964
6.44,-0.04487
6.444,-0.03139
6.448,-0.02465
6.452,-0.00027
6.456,-0.00712
6.46,-0.02176
6.464,-0.02912
6.468,-0.01554
6.472,-0.00933
6.476,0.00202
6.48,-0.02094
6.484,-0.02575
6.488,-0.01606
6.492,-0.01345
6.496,-0.00118
6.5,-0.00204
6.504,-0.00378
6.508,-0.02855
6.512,-0.03339
6.516,-0.03872
6.52,-0.00621
6.524,-0.01686
6.528,-0.0307
6.532,-0.00221
6.536,-0.01995
6.54,-0.00924
6.544,-0.02924
6.548,0.02041
6.552,-0.01418
6.556,0.02489
6.56,0.0332
6.564,0.03935
6.568,0.03744
6.572,0.09052
6.576,0.06332
6.58,0.07071
6.584,0.09918
6.588,0.07404
6.592,0.07476
6.596,0.05645
6.6,0.05657
6.604,0.06772
6.608,0.03707
6.612,0.0434
6.616,0.01247
6.62,0.05906
6.624,0.00811
6.628,0.00448
6.632,-0.00238
6.636,-0.00595
6.64,0.01066
6.644,0.00093
6.648,-0.00187
6.652,-0.01306
6.656,-0.00045
6.66,-0.03189
6.664,-0.03027
6.668,0.00163
6.672,-0.00058
6.676,0.00575
6.68,-0.00888
6.684,-0.02438
6.688,-0.01261
6.692,0.00539
6.696,-0.01306
6.7,-0.03576
6.704,-0.02921
6.708,-0.06072
6.712,-0.0922
6.716,-0.14
6.72,-0.12753
6.724,-0.01615
6.728,0.17423
6.732,0.35426
6.736,0.56424
6.74,0.74622
6.744,0.9477
6.748,1.00142
6.752,0.9495
6.756,0.8106
6.76,0.61945
6.764,0.36973
6.768,0.14314
6.772,-0.04564
6.776,-0.1407
6.78,-0.18329
6.784,-0.18768
6.788,-0.11704
6.792,-0.08642
6.796,-0.05421
6.8,-0.0176
6.804,-0.02626
6.808,0.0227
6.812,-0.01506
6.816,-0.00443
6.82,0.00475
6.824,-0.00455
6.828,-0.01514
6.832,-0.00582
6.836,0.00739
6.84,-0.00186
6.844,-0.022
6.848,-0.008
6.852,-0.02941
6.856,-0.02148
6.86,0.00885
6.864,-0.01488
6.868,0.00094
6.872,-0.01176
6.876,-0.00016
6.88,0.01089
6.884,0.00903
6.888,-0.00517
6.892,-0.00389
6.896,0.00381
6.9,0.00544
6.904,-0.00567
6.908,-0.00389
6.912,0.00248
6.916,0.02816
6.92,0.02656
6.924,0.00261
6.928,0.02059
6.932,0.0142
6.936,0.0108
6.94,0.01533
6.944,0.00886
6.948,0.05146
6.952,0.0492
6.956,0.05232
6.96,0.07079
6.964,0.06357
6.968,0.08699
6.972,0.11224
6.976,0.08772
6.98,0.11902
6.984,0.14818
6.988,0.1485
6.992,0.14017
6.996,0.18357
7.0,0.1705
7.004,0.17549
7.008,0.2096
7.012,0.2056
7.016,0.22529
7.02,0.20851
7.024,0.21595
7.028,0.22765
7.032,0.20116
7.036,0.21162
7.04,0.24495
7.044,0.21198
7.048,0.20366
7.052,0.18014
7.056,0.17115
7.06,0.16054
7.064,0.14552
7.068,0.14146
7.072,0.12976
7.076,0.14745
7.08,0.12657
7.084,0.1294
7.088,0.10258
7.092,0.06659
7.096,0.07396
7.1,0.07634
7.104,0.0332
7.108,0.07492
7.112,0.03443
7.116,0.02621
7.12,0.03257
7.124,0.04962
7.128,0.02122
7.132,0.03748
7.136,0.02574
7.14,-0.01027
7.144,-0.00098
7.148,0.01459
7.152,0.0041
7.156,0.02743
7.16,0.00288
7.164,0.01938
7.168,0.00395
7.172,0.03375
7.176,0.0269
7.18,0.017
7.184,-0.00695
7.188,0.00214
7.192,-0.01676
7.196,-0.01324
7.2,0.00888
7.204,-0.00375
7.208,-0.00321
7.212,-0.01169
7.216,0.03129
7.22,-0.0015
7.224,-0.00368
7.228,0.01353
7.232,-0.00596
7.236,0.02787
7.24,0.00584
7.244,0.02634
7.248,-0.00187
7.252,0.00654
7.256,-0.0093
7.26,0.03311
7.264,-0.0031
7.268,-0.00356
7.272,0.00877
7.276,0.02112
7.28,-0.00777
7.284,-0.01601
7.288,-0.01233
7.292,0.04084
7.296,0.02967
7.3,0.01738
7.304,0.02633
7.308,0.0152
7.312,-0.00094
7.316,-0.01684
7.32,-0.0071
7.324,0.03929
7.328,0.02632
7.332,0.01902
7.336,0.00639
7.34,0.0125
7.344,0.0083
7.348,0.02214
7.352,0.02079
7.356,0.05039
7.36,-0.00895
7.364,0.01561
7.368,0.00459
7.372,0.02808
7.376,0.02003
7.38,-0.00242
7.384,0.00747
7.388,0.03013
7.392,0.01031
7.396,0.00124
7.4,0.01946
7.404,0.00339
7.408,0.00687
7.412,0.03002
7.416,0.01662
7.42,0.02849
7.424,-0.02485
7.428,0.01102
7.432,0.02996
7.436,0.02046
7.44,-0.02086
7.444,0.00659
7.448,-0.01591
7.452,-0.00226
7.456,0.02754
7.46,0.00108
7.464,0.00636
7.468,0.0289
7.472,0.03509
7.476,0.00917
7.48,0.0089
7.484,0.00413
7.488,0.00209
7.492,0.00819
7.496,0.01144
7.5,-0.00141
7.504,-0.011
7.508,0.01955
7.512,0.02146
7.516,0.02914
7.52,-0.01102
7.524,0.01317
7.528,-0.01233
7.532,0.01243
7.536,0.01544
7.54,0.01082
7.544,-0.00085
7.548,0.01121
7.552,0.00873
7.556,0.03512
7.56,-0.02621
7.564,0.01083
7.568,-0.00258
7.572,0.02018
7.576,0.04438
7.58,0.02331
7.584,0.02954
7.588,0.0248
7.592,0.02333
7.596,0.04279
7.6,0.02588
7.604,0.02028
7.608,0.03359
7.612,-0.00895
7.616,-0.00069
7.62,0.01967
7.624,0.02214
7.628,0.02622
7.632,0.00573
7.636,0.03848
7.64,0.00445
7.644,0.0295
7.648,0.03319
7.652,0.00873
7.656,0.03573
7.66,0.01813
7.664,-0.00325
7.668,0.00612
7.672,0.03503
7.676,0.00656
7.68,0.00463
7.684,0.02754
7.688,0.01884
7.692,0.02479
7.696,0.02954
7.7,0.03459
7.704,0.0032
7.708,-0.00381
7.712,0.02715
7.716,0.0027
7.72,0.0147
7.724,0.0173
7.728,0.00857
7.732,0.00981
7.736,0.01731
7.74,0.03487
7.744,0.01803
7.748,-0.00059
7.752,0.03559
7.756,0.00273
7.76,0.00148
7.764,0.04808
7.768,0.01815
7.772,0.00319
7.776,0.00584
7.78,0.02852
7.784,0.02542
7.788,0.01224
7.792,0.0231
7.796,0.04005
7.8,0.02698
7.804,0.04097
7.808,0.00907
7.812,0.00501
7.816,0.03255
7.82,-0.00534
7.824,0.03166
7.828,0.00869
7.832,0.01933
7.836,0.01417
7.84,0.00831
7.844,0.04458
7.848,0.01752
7.852,0.01032
7.856,0.04767
7.86,-0.0009
7.864,0.0182
7.868,0.00388
7.872,-0.00394
7.876,0.02636
7.88,0.044
7.884,0.01586
7.888,0.02266
7.892,0.01222
7.896,0.01795
7.9,0.01412
7.904,0.01929
7.908,0.01324
7.912,0.00196
7.916,0.01813
7.92,0.02939
7.924,0.03915
7.928,0.05417
7.932,0.03204
7.936,0.05759
7.94,0.04143
7.944,0.09252
7.948,0.11001
7.952,0.10104
7.956,0.11418
7.96,0.10472
7.964,0.10287
7.968,0.14634
7.972,0.13822
7.976,0.12179
7.98,0.11114
7.984,0.08063
7.988,0.07699
7.992,0.06752
7.996,0.04217
8.0,0.02122
8.004,0.07281
8.008,0.0209
8.012,0.03578
8.016,0.04907
8.02,0.05435
8.024,0.04818
8.028,0.03731
8.032,0.01473
8.036,0.03012
8.04,-0.00547
8.044,0.02608
8.048,0.02609
8.052,0.00912
8.056,0.00101
8.06,0.0333
8.064,0.02349
8.068,0.01337
8.072,0.01606
8.076,0.01223
8.08,0.00195
8.084,-0.00558
8.088,-0.07822
8.092,-0.06824
8.096,-0.0922
8.1,-0.02418
8.104,0.11017
8.108,0.3168
8.112,0.5392
8.116,0.72487
8.12,0.91341
8.124,0.99418
8.128,1.0259
8.132,0.90498
8.136,0.69077
8.14,0.5001
8.144,0.24251
8.148,0.06531
8.152,-0.06656
8.156,-0.12315
8.16,-0.14352
8.164,-0.12584
8.168,-0.05416
8.172,-0.03782
8.176,-0.00855
8.18,0.00148
8.184,0.03861
8.188,0.03066
8.192,0.03226
8.196,0.03664
8.2,0.0174
8.204,0.01079
8.208,0.02864
8.212,0.00266
8.216,0.0397
8.22,0.05423
8.224,0.02067
8.228,0.01781
8.232,0.03581
8.236,0.03568
8.24,0.03128
8.244,0.0348
8.248,0.05325
8.252,0.03492
8.256,0.03219
8.26,0.01513
8.264,0.02229
8.268,0.04354
8.272,-0.00064
8.276,0.03887
8.28,0.02071
8.284,0.01952
8.288,0.04619
8.292,0.02498
8.296,0.06121
8.3,0.05645
8.304,0.07259
8.308,0.05554
8.312,0.06171
8.316,0.0308
8.32,0.03914
8.324,0.07147
8.328,0.07172
8.332,0.0993
8.336,0.07583
8.34,0.11616
8.344,0.10302
8.348,0.12232
8.352,0.15078
8.356,0.14857
8.36,0.14093
8.364,0.17339
8.368,0.17971
8.372,0.23239
8.376,0.22663
8.38,0.1904
8.384,0.23002
8.388,0.2254
8.392,0.23786
8.396,0.26265
8.4,0.22652
8.404,0.2345
8.408,0.22402
8.412,0.26155
8.416,0.24793
8.42,0.24542
8.424,0.24279
8.428,0.20128
8.432,0.22063
8.436,0.22169
8.44,0.22005
8.444,0.19412
8.448,0.1547
8.452,0.15588
8.456,0.1291
8.46,0.15065
8.464,0.11671
8.468,0.12598
8.472,0.10529
8.476,0.07608
8.48,0.08958
8.484,0.06568
8.488,0.07783
8.492,0.05639
8.496,0.05167
8.5,0.03748
8.504,0.0659
8.508,0.061
8.512,0.04113
8.516,0.04042
8.52,0.04138
8.524,0.02112
8.528,0.04779
8.532,0.03658
8.536,0.0345
8.54,0.02428
8.544,0.035
8.548,0.03137
8.552,0.02205
8.556,0.01911
8.56,0.05037
8.564,0.01337
8.568,0.02206
8.572,0.05768
8.576,0.00367
8.58,0.05323
8.584,0.04784
8.588,0.02424
8.592,0.04983
8.596,0.03419
8.6,0.03498
8.604,0.01345
8.608,0.02683
8.612,0.06273
8.616,0.01583
8.62,0.01694
8.624,0.06671
8.628,-0.00176
8.632,0.03932
8.636,0.01713
8.64,0.00823
8.644,0.03763
8.648,0.03418
8.652,0.04823
8.656,0.05523
8.66,0.05074
8.664,0.02445
8.668,0.0096
8.672,0.01764
8.676,0.03712
8.68,0.01794
8.684,0.02093
8.688,0.013
8.692,0.00397
8.696,0.04533
8.7,0.01697
8.704,0.02255
8.708,0.02097
8.712,0.01939
8.716,0.05467
8.72,0.02643
8.724,0.01857
8.728,0.01933
8.732,0.02504
8.736,0.03297
8.74,0.0201
8.744,0.03647
8.748,0.03267
8.752,0.03075
8.756,0.04631
8.76,0.02579
8.764,0.04181
8.768,0.02069
8.772,0.00028
8.776,0.0235
8.78,0.05168
8.784,0.05061
8.788,0.01526
8.792,0.04616
8.796,0.03334
8.8,0.0692
8.804,0.04898
8.808,0.01413
8.812,0.01949
8.816,0.03499
8.82,-0.0019
8.824,0.03242
8.828,-0.01376
8.832,0.02886
8.836,0.03603
8.84,0.03079
8.844,0.04752
8.848,0.02424
8.852,0.03658
8.856,0.04473
8.86,0.07282
8.864,0.03504
8.868,0.06323
8.872,0.03844
8.876,0.075
8.88,0.0338
8.884,0.10898
8.888,0.07901
8.892,0.11116
8.896,0.11428
8.9,0.12274
8.904,0.1419
8.908,0.12295
8.912,0.12574
8.916,0.1189
8.92,0.10739
8.924,0.103
8.928,0.06983
8.932,0.09886
8.936,0.07071
8.94,0.05553
8.944,0.03631
8.948,0.0425
8.952,0.04751
8.956,0.04093
8.96,0.02816
8.964,0.03017
8.968,0.03874
8.972,0.04894
8.976,0.05026
8.98,0.01828
8.984,0.04852
8.988,0.03829
8.992,0.05188
8.996,0.03607
9.0,0.00476
9.004,0.03619
9.008,0.01683
9.012,0.02434
9.016,0.01838
9.02,-0.00894
9.024,-0.02233
9.028,-0.06207
9.032,-0.12308
9.036,-0.08409
9.04,0.00514
9.044,0.16015
9.048,0.34429
9.052,0.55717
9.056,0.75748
9.06,0.93892
9.064,1.01503
9.068,1.00064
9.072,0.86286
9.076,0.67798
9.08,0.46017
9.084,0.2374
9.088,0.0444
9.092,-0.07716
9.096,-0.14001
9.1,-0.1186
9.104,-0.08501
9.108,-0.07426
9.112,-0.00707
9.116,0.00659
9.12,0.03804
9.124,0.01795
9.128,0.03131
9.132,0.04117
9.136,0.02728
9.14,0.04013
9.144,0.02608
9.148,0.0263
9.152,-0.00226
9.156,0.04129
9.16,0.01122
9.164,0.01825
9.168,0.02739
9.172,0.06393
9.176,0.02733
9.18,0.03826
9.184,0.0407
9.188,0.0666
9.192,0.00225
9.196,0.02395
9.2,0.04361
9.204,0.02126
9.208,0.0248
9.212,0.01982
9.216,0.05079
9.22,0.02415
9.224,0.04202
9.228,0.03016
9.232,0.06263
9.236,0.00995
9.24,0.03791
9.244,0.00259
9.248,0.04769
9.252,0.04201
9.256,0.051
9.26,0.06931
9.264,0.04951
9.268,0.09612
9.272,0.11755
9.276,0.10455
9.28,0.11039
9.284,0.11957
9.288,0.13812
9.292,0.0989
9.296,0.15264
9.3,0.16787
9.304,0.14214
9.308,0.14002
9.312,0.19391
9.316,0.20293
9.32,0.24547
9.324,0.25448
9.328,0.24712
9.332,0.23559
9.336,0.24451
9.34,0.23147
9.344,0.23191
9.348,0.22378
9.352,0.2172
9.356,0.23897
9.36,0.21414
9.364,0.24069
9.368,0.22335
9.372,0.20259
9.376,0.17986
9.38,0.18741
9.384,0.16853
9.388,0.1311
9.392,0.13927
9.396,0.12771
9.4,0.11154
9.404,0.09841
9.408,0.08381
9.412,0.10726
9.416,0.08712
9.42,0.07496
9.424,0.05988
9.428,0.07449
9.432,0.02137
9.436,0.05971
9.44,0.06427
9.444,0.0498
9.448,0.04215
9.452,0.03566
9.456,0.04978
9.46,0.03943
9.464,0.03087
9.468,0.00997
9.472,0.02451
9.476,0.03412
9.48,0.02327
9.484,0.02154
9.488,0.03714
9.492,0.03829
9.496,0.05096
9.5,0.03313
9.504,0.01753
9.508,0.0019
9.512,0.02906
9.516,0.00912
9.52,0.04593
9.524,0.02114
9.528,-0.00408
9.532,0.01075
9.536,-0.01384
9.54,0.0222
9.544,0.04848
9.548,0.02808
9.552,0.00775
9.556,0.00366
9.56,0.01473
9.564,0.03996
9.568,0.02868
9.572,0.02971
9.576,-0.00048
9.58,0.01653
9.584,0.02778
9.588,0.01974
9.592,0.01251
9.596,0.02825
9.6,0.0119
9.604,0.01767
9.608,0.0387
9.612,0.00865
9.616,0.03158
9.62,0.02071
9.624,0.03879
9.628,0.01639
9.632,0.00298
9.636,0.00173
9.64,-0.0018
9.644,-0.00781
9.648,0.01361
9.652,0.04106
9.656,0.02806
9.66,0.0
9.664,0.00833
9.668,0.03244
9.672,0.02835
9.676,0.00851
9.68,0.00039
9.684,0.03115
9.688,0.01753
9.692,0.02813
9.696,0.00478
9.7,0.03022
9.704,4e-05
9.708,0.00937
9.712,0.02255
9.716,0.00864
9.72,-0.0077
9.724,0.02782
9.728,0.01241
9.732,0.02765
9.736,0.04023
9.74,-0.00064
9.744,0.02687
9.748,0.03224
9.752,0.03083
9.756,0.0308
9.76,0.02792
9.764,0.00325
9.768,0.00862
9.772,0.01814
9.776,0.00586
9.78,0.01637
9.784,0.02612
9.788,0.00613
9.792,0.00914
9.796,0.01321
9.8,0.01965
9.804,0.0137
9.808,-0.00254
9.812,0.00973
9.816,0.02249
9.82,0.03449
9.824,0.0298
9.828,0.01299
9.832,0.0449
9.836,0.01592
9.84,0.02633
9.844,0.02534
9.848,-0.003
9.852,0.02192
9.856,0.01968
9.86,0.0387
9.864,0.02043
9.868,0.01427
9.872,-0.01054
9.876,-0.00355
9.88,0.0194
9.884,0.0116
9.888,0.01406
9.892,0.02852
9.896,0.0067
9.9,0.04014
9.904,0.03345
9.908,0.01212
9.912,0.01737
9.916,-0.00416
9.92,0.01433
9.924,0.00931
9.928,0.00798
9.932,0.02479
9.936,0.01568
9.94,0.01045
9.944,0.00492
9.948,0.00353
9.952,0.00011
9.956,-0.00704
9.96,0.00928
9.964,0.0091
9.968,0.00956
9.972,0.0215
9.976,0.01057
9.98,0.00062
9.984,0.01043
9.988,0.01582
9.992,0.02803
9.996,0.00101
