t_seg,ecg_mV
0.0,-0.05077
0.004,0.00117
0.008,-0.03269
0.012,-0.09157
0.016,-0.04361
0.02,0.02081
0.024,0.21119
0.028,0.42056
0.032,0.66603
0.036,0.85728
0.04,0.99398
0.044,1.01438
0.048,0.89649
0.052,0.73763
0.056,0.49776
0.06,0.32635
0.064,0.14386
0.068,-0.09297
0.072,-0.13242
0.076,-0.1376
0.08,-0.15305
0.084,-0.08241
0.088,-0.0516
0.092,-0.00819
0.096,0.00269
0.1,0.04046
0.104,-0.01119
0.108,0.02653
0.112,-0.06855
0.116,-0.00308
0.12,0.01047
0.124,0.05702
0.128,0.02591
0.132,0.05834
0.136,0.01474
0.14,0.04013
0.144,0.02929
0.148,0.11595
0.152,0.03503
0.156,0.04872
0.16,0.04403
0.164,0.0798
0.168,0.0209
0.172,-0.01532
0.176,0.05083
0.18,0.06623
0.184,-0.01053
0.188,0.07198
0.192,0.03735
0.196,0.00825
0.2,0.08085
0.204,-0.00869
0.208,0.106
0.212,0.07306
0.216,0.01518
0.22,0.01175
0.224,0.0911
0.228,-0.01185
0.232,0.0768
0.236,0.00274
0.24,0.0682
0.244,0.0588
0.248,0.13511
0.252,0.11334
0.256,0.08587
0.26,0.09423
0.264,0.07578
0.268,0.12325
0.272,0.19864
0.276,0.13981
0.28,0.19382
0.284,0.18577
0.288,0.18751
0.292,0.23506
0.296,0.2297
0.3,0.21899
0.304,0.19123
0.308,0.18763
0.312,0.26708
0.316,0.23611
0.32,0.27341
0.324,0.22192
0.328,0.24444
0.332,0.26205
0.336,0.22308
0.34,0.20352
0.344,0.25273
0.348,0.16868
0.352,0.18411
0.356,0.20477
0.36,0.22579
0.364,0.1374
0.368,0.1785
0.372,0.07372
0.376,0.05864
0.38,0.0802
0.384,0.11716
0.388,0.1186
0.392,0.09963
0.396,0.05618
0.4,0.01944
0.404,0.0547
0.408,0.05437
0.412,0.07613
0.416,0.04558
0.42,0.09826
0.424,0.11497
0.428,0.13638
0.432,0.07844
0.436,0.09906
0.44,0.08705
0.444,0.14257
0.448,0.13651
0.452,0.1386
0.456,0.15321
0.46,0.07129
0.464,0.1136
0.468,0.10566
0.472,0.05265
0.476,0.02178
0.48,0.10091
0.484,0.0392
0.488,0.04522
0.492,0.02754
0.496,0.03608
0.5,-0.00487
0.504,0.02262
0.508,0.06816
0.512,0.06753
0.516,-0.01704
0.52,0.03204
0.524,0.0445
0.528,0.02098
0.532,0.03188
0.536,0.00963
0.54,0.02861
0.544,0.06427
0.548,0.00422
0.552,0.04107
0.556,0.01823
0.56,0.02533
0.564,-0.0831
0.568,0.05326
0.572,-0.04337
0.576,-0.07116
0.58,-0.05263
0.584,-0.02346
0.588,0.00307
0.592,0.20955
0.596,0.34879
0.6,0.62174
0.604,0.7455
0.608,0.9697
0.612,1.07608
0.616,0.98302
0.62,0.8506
0.624,0.61284
0.628,0.36225
0.632,0.23611
0.636,0.02219
0.64,-0.10755
0.644,-0.14038
0.648,-0.1465
0.652,-0.05547
0.656,-0.0816
0.66,0.04245
0.664,0.0118
0.668,0.10985
0.672,0.03774
0.676,0.09758
0.68,0.12759
0.684,0.04741
0.688,0.09485
0.692,0.12378
0.696,0.09445
0.7,0.15151
0.704,0.09092
0.708,0.14771
0.712,0.11022
0.716,0.08196
0.72,0.11408
0.724,0.11446
0.728,0.10415
0.732,0.0393
0.736,0.02809
0.74,0.05149
0.744,-0.04482
0.748,0.04165
0.752,0.01458
0.756,0.09457
0.76,0.02756
0.764,0.03782
0.768,0.09058
0.772,0.05274
0.776,0.05576
0.78,0.03789
0.784,-0.01388
0.788,0.04761
0.792,0.03288
0.796,0.08831
0.8,0.01871
0.804,0.04563
0.808,0.10085
0.812,0.00196
0.816,0.01829
0.82,0.02734
0.824,0.03285
0.828,-0.02585
0.832,0.01087
0.836,0.05497
0.84,0.23954
0.844,0.39503
0.848,0.6393
0.852,0.8689
0.856,1.09605
0.86,1.25435
0.864,1.18819
0.868,1.12844
0.872,0.96579
0.876,0.69175
0.88,0.50692
0.884,0.34334
0.888,0.12336
0.892,0.14629
0.896,0.05125
0.9,0.0911
0.904,0.1611
0.908,0.18445
0.912,0.10874
0.916,0.14216
0.92,0.19209
0.924,0.22674
0.928,0.17148
0.932,0.12523
0.936,0.18321
0.94,0.08655
0.944,0.17227
0.948,0.1099
0.952,0.09874
0.956,0.12297
0.96,0.10114
0.964,0.06497
0.968,0.04357
0.972,0.10209
0.976,0.03804
0.98,0.08958
0.984,0.07449
0.988,0.01898
0.992,0.06377
0.996,-0.02401
1.0,0.05946
1.004,0.06816
1.008,0.06028
1.012,0.05007
1.016,0.01956
1.02,0.07668
1.024,0.07196
1.028,0.07809
1.032,0.05705
1.036,0.02146
1.04,0.05694
1.044,0.06188
1.048,0.05751
1.052,0.08939
1.056,0.07593
1.06,0.07007
1.064,0.09533
1.068,0.08545
1.072,0.13683
1.076,0.15226
1.08,0.13465
1.084,0.1699
1.088,0.11762
1.092,0.1258
1.096,0.09534
1.1,0.09611
1.104,0.18494
1.108,0.27447
1.112,0.25093
1.116,0.20163
1.12,0.14794
1.124,0.19223
1.128,0.27379
1.132,0.23794
1.136,0.29811
1.14,0.2403
1.144,0.25072
1.148,0.26713
1.152,0.31152
1.156,0.18611
1.16,0.24205
1.164,0.15022
1.168,0.23101
1.172,0.23771
1.176,0.19517
1.18,0.18719
1.184,0.18451
1.188,0.17068
1.192,0.13404
1.196,0.11287
1.2,0.16232
1.204,0.16793
1.208,0.16266
1.212,0.14458
1.216,0.12935
1.22,0.15133
1.224,0.13694
1.228,0.19491
1.232,0.19533
1.236,0.1526
1.24,0.11754
1.244,0.16562
1.248,0.13265
1.252,0.12876
1.256,0.12299
1.26,0.0549
1.264,0.03128
1.268,0.05327
1.272,0.1049
1.276,0.07185
1.28,-0.00948
1.284,0.01973
1.288,0.0445
1.292,0.07508
1.296,0.05486
1.3,0.00024
1.304,0.02464
1.308,0.01709
1.312,0.0902
1.316,-0.00527
1.32,0.01918
1.324,0.00461
1.328,0.02839
1.332,0.05712
1.336,0.07548
1.34,0.07462
1.344,0.01462
1.348,0.05555
1.352,-0.00465
1.356,-0.0095
1.36,-0.0089
1.364,-0.05324
1.368,-0.06372
1.372,-0.09797
1.376,0.0517
1.38,0.1244
1.384,0.23466
1.388,0.40087
1.392,0.5119
1.396,0.56105
1.4,0.56053
1.404,0.60515
1.408,0.52751
1.412,0.31272
1.416,0.1756
1.42,-0.00944
1.424,-0.10807
1.428,-0.10244
1.432,-0.15727
1.436,-0.07369
1.44,-0.10864
1.444,0.00885
1.448,0.03253
1.452,0.02937
1.456,0.06984
1.46,-0.03681
1.464,0.03978
1.468,0.06737
1.472,0.02816
1.476,0.02103
1.48,0.02611
1.484,0.0336
1.488,0.00018
1.492,0.03134
1.496,0.05428
1.5,0.06837
1.504,-0.00657
1.508,0.00201
1.512,-0.01282
1.516,0.03275
1.52,0.09663
1.524,0.00422
1.528,0.00083
1.532,0.01339
1.536,0.00743
1.54,0.00868
1.544,0.01507
1.548,-0.02926
1.552,0.02427
1.556,0.04712
1.56,0.0242
1.564,0.07881
1.568,0.0508
1.572,-0.02866
1.576,0.04707
1.58,0.0473
1.584,0.04094
1.588,0.08943
1.592,0.06532
1.596,0.05819
1.6,0.09463
1.604,0.04328
1.608,0.08777
1.612,0.12397
1.616,0.07425
1.62,0.06737
1.624,0.08312
1.628,0.13609
1.632,0.20939
1.636,0.15535
1.64,0.25589
1.644,0.21874
1.648,0.20056
1.652,0.15775
1.656,0.23078
1.66,0.24497
1.664,0.17022
1.668,0.27932
1.672,0.21247
1.676,0.22551
1.68,0.27669
1.684,0.26601
1.688,0.27469
1.692,0.21883
1.696,0.24404
1.7,0.19924
1.704,0.21204
1.708,0.18752
1.712,0.15254
1.716,0.20816
1.72,0.13391
1.724,0.13864
1.728,0.13701
1.732,0.11015
1.736,0.08429
1.74,0.12433
1.744,0.11258
1.748,0.12651
1.752,0.08177
1.756,0.09895
1.76,0.13626
1.764,0.04147
1.768,0.09553
1.772,0.02992
1.776,0.03656
1.78,0.05911
1.784,0.00037
1.788,0.026
1.792,-0.00614
1.796,0.0356
1.8,0.01481
1.804,0.05189
1.808,-0.01391
1.812,0.01286
1.816,0.03725
1.82,0.03313
1.824,0.0534
1.828,0.02214
1.832,0.03319
1.836,0.05945
1.84,0.0121
1.844,0.09464
1.848,0.07197
1.852,0.06091
1.856,0.2212
1.86,0.18198
1.864,0.15821
1.868,0.15173
1.872,0.17324
1.876,0.07907
1.88,0.06259
1.884,0.04353
1.888,0.06794
1.892,0.03587
1.896,0.06049
1.9,0.02882
1.904,0.01121
1.908,-0.03314
1.912,0.06709
1.916,0.01399
1.92,0.04589
1.924,0.00355
1.928,0.06106
1.932,-0.00753
1.936,0.00903
1.94,0.0224
1.944,0.08034
1.948,0.07958
1.952,-0.00085
1.956,0.04026
1.96,0.00593
1.964,0.03053
1.968,-0.01783
1.972,0.02734
1.976,-0.0064
1.98,-0.02309
1.984,-0.04537
1.988,-0.06679
1.992,-0.11261
1.996,-0.07933
2.0,0.0305
2.004,0.19422
2.008,0.41751
2.012,0.65035
2.016,0.81861
2.02,0.93202
2.024,1.01651
2.028,0.97843
2.032,0.84458
2.036,0.65243
2.04,0.37932
2.044,0.18627
2.048,-0.07049
2.052,-0.17851
2.056,-0.14802
2.06,-0.15415
2.064,-0.1459
2.068,-0.03627
2.072,-0.06733
2.076,-0.01104
2.08,0.03115
2.084,-0.0026
2.088,0.06344
2.092,0.06277
2.096,0.07237
2.1,0.01933
2.104,-0.01437
2.108,0.04174
2.112,0.01542
2.116,-0.00057
2.12,-0.01856
2.124,-0.04883
2.128,0.07819
2.132,-0.07373
2.136,-0.0091
2.14,0.05049
2.144,0.03754
2.148,-0.01672
2.152,-0.03251
2.156,-0.05897
2.16,0.01367
2.164,-0.00921
2.168,0.00042
2.172,-0.04501
2.176,0.08353
2.18,-0.01337
2.184,0.0513
2.188,-0.01453
2.192,-0.02764
2.196,0.00724
2.2,-0.00555
2.204,0.04271
2.208,0.02927
2.212,0.1156
2.216,0.0137
2.22,0.03542
2.224,0.07855
2.228,-0.01525
2.232,0.08042
2.236,0.04805
2.24,0.06563
2.244,0.0185
2.248,0.08025
2.252,0.14148
2.256,0.13401
2.26,0.12575
2.264,0.1455
2.268,0.14908
2.272,0.26762
2.276,0.19866
2.28,0.16513
2.284,0.22549
2.288,0.28476
2.292,0.28823
2.296,0.25185
2.3,0.27483
2.304,0.2374
2.308,0.21551
2.312,0.20112
2.316,0.27021
2.32,0.21511
2.324,0.19754
2.328,0.18221
2.332,0.1892
2.336,0.14446
2.34,0.19531
2.344,0.20604
2.348,0.11355
2.352,0.21897
2.356,0.16892
2.36,0.14059
2.364,0.16967
2.368,0.22472
2.372,0.1964
2.376,0.08828
2.38,0.13009
2.384,0.15221
2.388,0.11635
2.392,0.11606
2.396,0.14475
2.4,0.14348
2.404,0.16353
2.408,0.08024
2.412,0.0677
2.416,0.00766
2.42,0.09378
2.424,0.06526
2.428,0.01906
2.432,0.01743
2.436,0.01502
2.44,0.07726
2.444,0.03167
2.448,0.07846
2.452,0.01285
2.456,0.02608
2.46,-0.03554
2.464,-0.00867
2.468,0.02123
2.472,0.04609
2.476,0.03292
2.48,0.03453
2.484,-0.00203
2.488,0.02583
2.492,0.01117
2.496,-0.02541
2.5,-0.06576
2.504,-0.00554
2.508,-0.08732
2.512,-0.16173
2.516,-0.03494
2.52,0.02653
2.524,0.23449
2.528,0.35935
2.532,0.58012
2.536,0.79698
2.54,0.90545
2.544,1.05854
2.548,0.94442
2.552,0.8433
2.556,0.54087
2.56,0.35349
2.564,0.10519
2.568,-0.03644
2.572,-0.17453
2.576,-0.19911
2.58,-0.11591
2.584,-0.11795
2.588,-0.09371
2.592,-0.06361
2.596,-0.02769
2.6,0.00838
2.604,0.01053
2.608,-0.0021
2.612,0.01459
2.616,0.02828
2.62,0.00419
2.624,-0.00567
2.628,-0.00089
2.632,0.02339
2.636,-0.01993
2.64,0.02423
2.644,-0.0553
2.648,0.05697
2.652,-0.00078
2.656,-0.01022
2.66,-0.00618
2.664,0.02895
2.668,0.02948
2.672,0.04341
2.676,0.00317
2.68,0.01168
2.684,-0.06348
2.688,0.00646
2.692,-0.00584
2.696,0.0401
2.7,-0.02055
2.704,0.04058
2.708,0.01227
2.712,-0.02497
2.716,0.00044
2.72,0.07581
2.724,0.05844
2.728,0.06992
2.732,0.05578
2.736,-0.01052
2.74,-0.02298
2.744,0.00938
2.748,0.04637
2.752,0.02789
2.756,0.10288
2.76,0.10656
2.764,0.07844
2.768,0.1056
2.772,0.11055
2.776,0.07041
2.78,0.11709
2.784,0.15961
2.788,0.21684
2.792,0.1352
2.796,0.18469
2.8,0.1829
2.804,0.20941
2.808,0.18566
2.812,0.19272
2.816,0.15039
2.82,0.16536
2.824,0.19923
2.828,0.14487
2.832,0.23935
2.836,0.18632
2.84,0.24498
2.844,0.19145
2.848,0.19847
2.852,0.14979
2.856,0.12782
2.86,0.13406
2.864,0.13755
2.868,0.08716
2.872,0.09686
2.876,0.14474
2.88,0.15014
2.884,0.10211
2.888,0.124
2.892,0.07263
2.896,0.08055
2.9,0.02462
2.904,0.04533
2.908,0.00445
2.912,0.14084
2.916,0.00467
2.92,0.00266
2.924,-0.00632
2.928,-0.04529
2.932,0.01536
2.936,0.0057
2.94,0.01524
2.944,-0.03597
2.948,-0.01889
2.952,-0.01602
2.956,0.0193
2.96,-0.00836
2.964,-0.04449
2.968,0.00658
2.972,-0.03145
2.976,-0.00377
2.98,-0.00798
2.984,-0.03582
2.988,0.07052
2.992,-0.03562
2.996,-0.07145
3.0,0.06084
3.004,0.01884
3.008,0.08878
3.012,0.0236
3.016,0.0209
3.02,0.04746
3.024,0.0914
3.028,0.15621
3.032,0.07779
3.036,0.05677
3.04,0.05046
3.044,0.04078
3.048,0.04144
3.052,0.00995
3.056,0.00513
3.06,0.03168
3.064,0.0282
3.068,0.00076
3.072,-0.01101
3.076,0.01417
3.08,-0.01811
3.084,0.03418
3.088,-0.01407
3.092,-0.02301
3.096,-0.00059
3.1,-0.08127
3.104,-0.12033
3.108,0.01025
3.112,-0.05241
3.116,0.02163
3.12,-0.01169
3.124,0.02571
3.128,0.0353
3.132,0.06478
3.136,-0.00915
3.14,0.0058
3.144,-0.01618
3.148,-0.02822
3.152,-0.05127
3.156,-0.15202
3.16,-0.09421
3.164,-0.00916
3.168,0.13746
3.172,0.3533
3.176,0.55315
3.18,0.72359
3.184,0.92568
3.188,0.97948
3.192,0.94836
3.196,0.80798
3.2,0.56793
3.204,0.3473
3.208,0.04908
3.212,-0.07503
3.216,-0.21984
3.22,-0.17304
3.224,-0.15831
3.228,-0.13623
3.232,-0.06193
3.236,-0.07079
3.24,-0.05421
3.244,-0.00026
3.248,-0.00879
3.252,0.02623
3.256,-0.05103
3.26,-0.03007
3.264,0.01027
3.268,-0.00667
3.272,-0.02633
3.276,-0.04259
3.28,-0.04223
3.284,-0.01319
3.288,-0.01649
3.292,0.01243
3.296,0.02248
3.3,-0.01318
3.304,-0.03269
3.308,0.02407
3.312,-0.04515
3.316,-0.00745
3.32,-0.05151
3.324,-0.05234
3.328,-0.02183
3.332,0.03195
3.336,0.03259
3.34,-0.04385
3.344,0.00683
3.348,0.00327
3.352,-0.01367
3.356,-0.01
3.36,-0.03926
3.364,0.09036
3.368,-0.02464
3.372,-0.03222
3.376,0.00749
3.38,-0.0146
3.384,0.07526
3.388,-0.01369
3.392,0.03674
3.396,0.02181
3.4,0.0221
3.404,0.0795
3.408,0.09426
3.412,0.1034
3.416,0.11255
3.42,0.09332
3.424,0.16003
3.428,0.19149
3.432,0.25406
3.436,0.26993
3.44,0.28974
3.444,0.30285
3.448,0.25237
3.452,0.31018
3.456,0.27439
3.46,0.36449
3.464,0.27527
3.468,0.25338
3.472,0.22106
3.476,0.2573
3.48,0.21464
3.484,0.23409
3.488,0.21622
3.492,0.19765
3.496,0.21562
3.5,0.08688
3.504,0.15256
3.508,0.13398
3.512,0.06345
3.516,0.08222
3.52,0.0495
3.524,0.02717
3.528,0.04097
3.532,0.04778
3.536,0.09572
3.54,0.03464
3.544,0.05347
3.548,0.13108
3.552,0.02468
3.556,-0.00964
3.56,-0.04302
3.564,-0.02705
3.568,-0.09744
3.572,-0.12714
3.576,-0.12602
3.58,-0.0819
3.584,-0.00931
3.588,0.13354
3.592,0.31318
3.596,0.49265
3.6,0.74104
3.604,0.89097
3.608,1.01702
3.612,0.9738
3.616,0.78247
3.62,0.5826
3.624,0.311
3.628,0.10217
3.632,0.03133
3.636,-0.12464
3.64,-0.1801
3.644,-0.13635
3.648,-0.18367
3.652,-0.09534
3.656,-0.10094
3.66,-0.04255
3.664,0.00098
3.668,0.01889
3.672,-0.03461
3.676,0.01783
3.68,-0.01524
3.684,-0.04641
3.688,-0.02703
3.692,-0.00532
3.696,-0.00266
3.7,-0.01088
3.704,-0.00831
3.708,-0.05802
3.712,-0.07771
3.716,-0.0686
3.72,0.00387
3.724,-0.0202
3.728,0.00089
3.732,-0.00931
3.736,-0.03262
3.74,0.01673
3.744,-0.01176
3.748,-0.05409
3.752,0.03385
3.756,-0.01222
3.76,-0.00753
3.764,-0.04056
3.768,0.01531
3.772,-0.02951
3.776,-0.04805
3.78,-0.01345
3.784,-0.02018
3.788,0.01526
3.792,0.02556
3.796,-0.01244
3.8,-0.04212
3.804,0.04859
3.808,0.05991
3.812,0.04052
3.816,-0.00921
3.82,0.02721
3.824,0.00916
3.828,0.11466
3.832,0.07871
3.836,0.11247
3.84,0.10361
3.844,0.126
3.848,0.13231
3.852,0.16709
3.856,0.09422
3.86,0.15295
3.864,0.14261
3.868,0.19844
3.872,0.14294
3.876,0.17789
3.88,0.1795
3.884,0.17903
3.888,0.16188
3.892,0.16783
3.896,0.19047
3.9,0.1434
3.904,0.13461
3.908,0.17894
3.912,0.18109
3.916,0.16674
3.92,0.07163
3.924,0.22437
3.928,0.09961
3.932,0.03477
3.936,0.0394
3.94,0.10419
3.944,0.0162
3.948,0.07784
3.952,0.03344
3.956,0.04523
3.96,0.07368
3.964,0.0465
3.968,0.05391
3.972,-0.02328
3.976,0.00765
3.98,-0.02853
3.984,0.01531
3.988,-0.07639
3.992,-0.00981
3.996,-0.00149
4.0,0.0
4.004,0.04137
4.008,-0.05454
4.012,0.01973
4.016,-0.02995
4.02,-0.0385
4.024,0.00662
4.028,-0.0092
4.032,-0.05159
4.036,-0.02918
4.04,-0.0358
4.044,-0.09325
4.048,0.00211
4.052,0.10949
4.056,-0.02054
4.06,0.02402
4.064,-0.04057
4.068,-0.02964
4.072,-0.03359
4.076,0.02115
4.08,0.05382
4.084,0.12773
4.088,-0.00962
4.092,0.04318
4.096,0.10262
4.1,0.09349
4.104,-0.01015
4.108,0.05351
4.112,0.02623
4.116,0.01515
4.12,0.0301
4.124,-0.00704
4.128,-0.01884
4.132,-0.03095
4.136,-0.04354
4.14,-0.00104
4.144,0.02649
4.148,0.00324
4.152,0.01039
4.156,-0.03668
4.16,0.02775
4.164,3e-05
4.168,-0.02701
4.172,-0.04043
4.176,-0.0073
4.18,-0.00432
4.184,-0.02188
4.188,-0.11415
4.192,0.02906
4.196,-0.01194
4.2,-0.07886
4.204,-0.00809
4.208,-0.08416
4.212,-0.08824
4.216,-0.14986
4.22,-0.13739
4.224,-0.06352
4.228,0.12211
4.232,0.23753
4.236,0.47595
4.24,0.64468
4.244,0.8054
4.248,0.90084
4.252,0.94526
4.256,0.86721
4.26,0.6463
4.264,0.47749
4.268,0.25562
4.272,-0.01065
4.276,-0.06012
4.28,-0.17733
4.284,-0.20878
4.288,-0.19988
4.292,-0.1594
4.296,-0.00621
4.3,-0.08664
4.304,-0.02198
4.308,-0.07497
4.312,-0.0122
4.316,-0.03195
4.32,-0.06723
4.324,-0.10321
4.328,-0.04104
4.332,-0.00121
4.336,-0.07221
4.34,-0.02546
4.344,0.03127
4.348,-0.00759
4.352,-0.0052
4.356,-0.02585
4.36,-0.04391
4.364,-0.04512
4.368,0.02305
4.372,-0.00213
4.376,-0.04275
4.38,0.03105
4.384,0.01448
4.388,0.00418
4.392,-0.01476
4.396,-0.00185
4.4,-0.11365
4.404,-0.03919
4.408,-0.05144
4.412,0.02901
4.416,0.00397
4.42,-0.01788
4.424,-0.03727
4.428,0.03331
4.432,-0.05768
4.436,-0.02601
4.44,0.01151
4.444,-0.05174
4.448,0.02815
4.452,-0.00256
4.456,0.12989
4.46,0.03839
4.464,0.05735
4.468,0.09301
4.472,0.01762
4.476,0.11805
4.48,0.08353
4.484,0.08081
4.488,0.1155
4.492,0.16826
4.496,0.16705
4.5,0.13094
4.504,0.12274
4.508,0.08752
4.512,0.19367
4.516,0.19946
4.52,0.21723
4.524,0.09078
4.528,0.15026
4.532,0.25643
4.536,0.21595
4.54,0.26392
4.544,0.18868
4.548,0.09325
4.552,0.1927
4.556,0.17042
4.56,0.19422
4.564,0.20007
4.568,0.12399
4.572,0.06984
4.576,0.06559
4.58,0.1119
4.584,0.09706
4.588,0.05245
4.592,0.02269
4.596,-0.01367
4.6,0.02946
4.604,0.06371
4.608,-0.00733
4.612,0.02391
4.616,0.03215
4.62,-0.02567
4.624,-0.00205
4.628,0.0606
4.632,0.01114
4.636,-0.02712
4.64,-0.08656
4.644,-0.04937
4.648,0.01202
4.652,-0.04524
4.656,0.03781
4.66,-0.04656
4.664,-0.02203
4.668,-0.04612
4.672,0.01018
4.676,-0.0855
4.68,-0.0855
4.684,0.03182
4.688,-0.048
4.692,-0.04432
4.696,0.00264
4.7,-0.03177
4.704,-0.06611
4.708,0.01039
4.712,-0.10503
4.716,-0.01317
4.72,-0.06576
4.724,-0.03847
4.728,0.03061
4.732,-0.04184
4.736,-0.05507
4.74,-0.08502
4.744,-0.09199
4.748,-0.01336
4.752,-0.04135
4.756,0.0337
4.76,-0.101
4.764,-0.03234
4.768,-0.07897
4.772,-0.04955
4.776,-0.03708
4.78,-0.07913
4.784,-0.00128
4.788,-0.0284
4.792,-0.00598
4.796,0.00229
4.8,-0.04586
4.804,-0.04571
4.808,-0.07807
4.812,0.0206
4.816,-0.04285
4.82,-0.02658
4.824,0.01433
4.828,-0.02351
4.832,-0.05104
4.836,-0.03273
4.84,0.00025
4.844,-0.0548
4.848,-0.01339
4.852,0.02251
4.856,0.03588
4.86,-0.02367
4.864,0.06346
4.868,0.04415
4.872,0.07193
4.876,0.07479
4.88,0.04632
4.884,0.08434
4.888,0.0559
4.892,0.10748
4.896,0.0231
4.9,0.06381
4.904,0.0517
4.908,0.069
4.912,0.00272
4.916,0.0559
4.92,0.02826
4.924,-0.01679
4.928,0.00587
4.932,-0.02341
4.936,-0.04279
4.94,-0.07432
4.944,0.05572
4.948,-0.01343
4.952,0.03515
4.956,0.01819
4.96,0.016
4.964,0.02053
4.968,-0.0054
4.972,-0.01769
4.976,-0.00557
4.98,-0.07111
4.984,-0.06051
4.988,-0.06417
4.992,0.04567
4.996,-0.07504
5.0,-0.0632
5.004,-0.05979
5.008,-0.17889
5.012,-0.12195
5.016,-0.01169
5.02,-0.00097
5.024,0.25876
5.028,0.44134
5.032,0.69004
5.036,0.88426
5.04,0.96155
5.044,0.96622
5.048,0.90588
5.052,0.64333
5.056,0.45538
5.06,0.178
5.064,0.03288
5.068,-0.12719
5.072,-0.26244
5.076,-0.24099
5.08,-0.19584
5.084,-0.15863
5.088,-0.21006
5.092,-0.09699
5.096,0.00025
5.1,-0.04577
5.104,-0.0685
5.108,-0.0601
5.112,-0.0425
5.116,-0.00919
5.12,-0.04705
5.124,-0.03668
5.128,-0.04488
5.132,0.00293
5.136,0.01095
5.14,0.01102
5.144,-0.00406
5.148,0.00576
5.152,-0.03014
5.156,0.03921
5.16,0.01754
5.164,-0.04389
5.168,-0.06109
5.172,-0.05678
5.176,0.06738
5.18,0.01035
5.184,0.03055
5.188,-0.0685
5.192,-0.03664
5.196,-0.01526
5.2,-0.02947
5.204,-0.04996
5.208,-0.09072
5.212,0.05676
5.216,-0.03425
5.22,0.03248
5.224,0.01977
5.228,-0.02719
5.232,0.0214
5.236,0.04108
5.24,0.08372
5.244,0.04007
5.248,0.05215
5.252,0.04214
5.256,0.08969
5.26,0.10662
5.264,0.02597
5.268,0.05313
5.272,0.03857
5.276,0.09206
5.28,0.09205
5.284,0.10627
5.288,0.09291
5.292,0.16306
5.296,0.19613
5.3,0.20464
5.304,0.17887
5.308,0.19246
5.312,0.24387
5.316,0.16437
5.32,0.22338
5.324,0.26522
5.328,0.29407
5.332,0.25772
5.336,0.28087
5.34,0.28618
5.344,0.2633
5.348,0.27866
5.352,0.23835
5.356,0.24704
5.36,0.23542
5.364,0.21978
5.368,0.15303
5.372,0.22154
5.376,0.19235
5.38,0.12067
5.384,0.03763
5.388,0.06248
5.392,0.06284
5.396,0.08075
5.4,0.0825
5.404,-0.02573
5.408,0.00631
5.412,0.0452
5.416,0.01564
5.42,-0.02368
5.424,0.00547
5.428,-0.05013
5.432,-0.01185
5.436,0.04673
5.44,0.01012
5.444,-0.00252
5.448,0.04642
5.452,-0.05782
5.456,-0.05067
5.46,-0.03814
5.464,-0.03661
5.468,0.00885
5.472,-0.10326
5.476,-0.12648
5.48,-0.10668
5.484,-0.11778
5.488,-0.02101
5.492,0.10731
5.496,0.33313
5.5,0.55704
5.504,0.72425
5.508,0.92186
5.512,0.95618
5.516,0.96369
5.52,0.81287
5.524,0.55711
5.528,0.45576
5.532,0.17319
5.536,0.02655
5.54,-0.05491
5.544,-0.26492
5.548,-0.2347
5.552,-0.14295
5.556,-0.09635
5.56,-0.0714
5.564,-0.02522
5.568,0.01981
5.572,0.01855
5.576,-0.03201
5.58,-0.04233
5.584,0.0396
5.588,-0.10909
5.592,-0.01195
5.596,-0.00777
5.6,-0.01477
5.604,-0.01965
5.608,-0.0444
5.612,-0.07239
5.616,0.00661
5.62,0.00629
5.624,-0.01125
5.628,-0.01095
5.632,-0.03004
5.636,-0.02784
5.64,-0.05159
5.644,0.02194
5.648,-0.01325
5.652,-0.02354
5.656,0.01021
5.66,-0.04722
5.664,0.00927
5.668,0.04027
5.672,-0.05028
5.676,-0.04028
5.68,0.00821
5.684,-0.0005
5.688,0.02318
5.692,-0.02828
5.696,0.03357
5.7,-0.02202
5.704,0.0549
5.708,0.06084
5.712,0.02643
5.716,0.07801
5.72,0.06543
5.724,0.08679
5.728,0.01012
5.732,0.07085
5.736,0.1435
5.74,0.12119
5.744,0.11132
5.748,0.18118
5.752,0.13498
5.756,0.18738
5.76,0.18118
5.764,0.19841
5.768,0.12462
5.772,0.18349
5.776,0.24929
5.78,0.19375
5.784,0.2053
5.788,0.24873
5.792,0.25435
5.796,0.2289
5.8,0.26362
5.804,0.2977
5.808,0.21881
5.812,0.32661
5.816,0.23347
5.82,0.27921
5.824,0.34925
5.828,0.22347
5.832,0.26416
5.836,0.26348
5.84,0.22729
5.844,0.14408
5.848,0.1883
5.852,0.1587
5.856,0.14285
5.86,0.07004
5.864,0.0877
5.868,0.11923
5.872,0.05639
5.876,0.06537
5.88,0.04283
5.884,0.05661
5.888,0.04821
5.892,0.04471
5.896,0.03408
5.9,-0.0106
5.904,-0.00548
5.908,0.02899
5.912,0.00779
5.916,0.029
5.92,0.01624
5.924,0.03466
5.928,-0.01321
5.932,0.02859
5.936,-0.005
5.94,0.07268
5.944,-0.0327
5.948,-0.05908
5.952,-0.01577
5.956,-0.1034
5.96,-0.13606
5.964,-0.08649
5.968,0.00094
5.972,0.07219
5.976,0.36307
5.98,0.52622
5.984,0.71498
5.988,0.89757
5.992,0.97753
5.996,0.95419
6.0,0.78235
6.004,0.58564
6.008,0.37867
6.012,0.19917
6.016,0.05477
6.02,-0.11792
6.024,-0.18523
6.028,-0.15665
6.032,-0.15295
6.036,-0.07328
6.04,-0.07337
6.044,-0.05472
6.048,-0.0261
6.052,-0.01875
6.056,0.01922
6.06,0.03891
6.064,0.00794
6.068,-0.0177
6.072,-0.04578
6.076,0.03802
6.08,-0.00332
6.084,-0.02706
6.088,0.03306
6.092,0.01244
6.096,0.02153
6.1,0.0602
6.104,-0.03255
6.108,0.02979
6.112,-0.02277
6.116,0.00272
6.12,0.05378
6.124,0.03555
6.128,0.04242
6.132,0.03581
6.136,0.05033
6.14,-0.05377
6.144,0.07698
6.148,0.03002
6.152,-0.00862
6.156,0.03144
6.16,0.02007
6.164,0.00089
6.168,0.00763
6.172,-0.03951
6.176,0.07544
6.18,0.00249
6.184,0.05341
6.188,0.05489
6.192,0.02356
6.196,0.00966
6.2,0.07748
6.204,0.01066
6.208,0.12086
6.212,0.17486
6.216,0.08793
6.22,0.13837
6.224,0.16583
6.228,0.19151
6.232,0.17679
6.236,0.17052
6.24,0.17769
6.244,0.19829
6.248,0.18448
6.252,0.16561
6.256,0.23888
6.26,0.24049
6.264,0.22026
6.268,0.25871
6.272,0.21302
6.276,0.29139
6.28,0.20924
6.284,0.27414
6.288,0.25221
6.292,0.17554
6.296,0.1832
6.3,0.15474
6.304,0.16291
6.308,0.19625
6.312,0.24015
6.316,0.11528
6.32,0.13423
6.324,0.19237
6.328,0.15584
6.332,0.17429
6.336,0.112
6.34,0.17203
6.344,0.14332
6.348,0.15715
6.352,0.16256
6.356,0.17267
6.36,0.11071
6.364,0.10866
6.368,0.12566
6.372,0.14781
6.376,0.02086
6.38,0.04916
6.384,0.02921
6.388,0.00342
6.392,-0.01117
6.396,0.07547
6.4,0.02321
6.404,0.01599
6.408,0.00409
6.412,-0.03837
6.416,0.01595
6.42,0.01112
6.424,-0.03256
6.428,0.00294
6.432,0.04905
6.436,0.01482
6.44,0.00648
6.444,0.01025
6.448,-0.0379
6.452,0.05623
6.456,0.02781
6.46,0.0297
6.464,-0.02658
6.468,-0.02259
6.472,-0.00831
6.476,-0.07414
6.48,-0.13735
6.484,-0.0497
6.488,0.02947
6.492,0.20825
6.496,0.39904
6.5,0.61221
6.504,0.8562
6.508,0.98178
6.512,1.01511
6.516,0.93688
6.52,0.78603
6.524,0.45174
6.528,0.33235
6.532,0.08683
6.536,-0.01683
6.54,-0.15274
6.544,-0.18103
6.548,-0.10518
6.552,-0.08528
6.556,-0.0499
6.56,-0.00906
6.564,-0.00011
6.568,-0.0269
6.572,-0.00602
6.576,-0.0142
6.58,0.09651
6.584,0.02912
6.588,-0.08022
6.592,0.04353
6.596,0.09752
6.6,0.00215
6.604,0.0591
6.608,0.03091
6.612,0.07218
6.616,0.03422
6.62,-0.03785
6.624,0.04202
6.628,0.06365
6.632,-0.03682
6.636,0.01192
6.64,0.03148
6.644,0.0289
6.648,0.01518
6.652,0.03085
6.656,-0.0071
6.66,0.01156
6.664,0.0066
6.668,-0.00819
6.672,0.03126
6.676,0.01638
6.68,0.02069
6.684,0.09108
6.688,0.01918
6.692,0.09639
6.696,0.06633
6.7,-0.00147
6.704,0.01767
6.708,0.06819
6.712,0.00599
6.716,0.04698
6.72,0.10339
6.724,0.13168
6.728,0.08568
6.732,0.14836
6.736,0.14701
6.74,0.17331
6.744,0.11705
6.748,0.14733
6.752,0.17244
6.756,0.19699
6.76,0.19195
6.764,0.15112
6.768,0.15745
6.772,0.16278
6.776,0.2001
6.78,0.22345
6.784,0.21576
6.788,0.28233
6.792,0.25548
6.796,0.28176
6.8,0.18822
6.804,0.24172
6.808,0.21488
6.812,0.25105
6.816,0.20441
6.82,0.30685
6.824,0.34369
6.828,0.22938
6.832,0.34098
6.836,0.30492
6.84,0.22433
6.844,0.24113
6.848,0.20472
6.852,0.17723
6.856,0.18841
6.86,0.1362
6.864,0.09847
6.868,0.09762
6.872,0.09045
6.876,0.04529
6.88,0.03819
6.884,0.05993
6.888,0.06006
6.892,0.04095
6.896,0.01455
6.9,0.04584
6.904,0.02712
6.908,0.04473
6.912,-0.01365
6.916,0.0448
6.92,0.01291
6.924,-0.00692
6.928,0.04365
6.932,0.04321
6.936,0.02507
6.94,0.02003
6.944,0.00244
6.948,-0.00184
6.952,0.01759
6.956,-0.02729
6.96,-0.01715
6.964,-0.08212
6.968,-0.09983
6.972,-0.0309
6.976,0.02283
6.98,0.16883
6.984,0.36469
6.988,0.51595
6.992,0.80762
6.996,0.91876
7.0,1.00942
7.004,1.03718
7.008,0.80813
7.012,0.59984
7.016,0.39724
7.02,0.2365
7.024,0.0012
7.028,-0.0428
7.032,-0.17714
7.036,-0.18012
7.04,-0.10404
7.044,-0.03631
7.048,-0.10308
7.052,0.02571
7.056,0.01484
7.06,0.06129
7.064,-0.00962
7.068,0.08166
7.072,0.04868
7.076,0.04621
7.08,0.02441
7.084,0.03247
7.088,0.02071
7.092,0.03393
7.096,0.05049
7.1,0.05104
7.104,0.06124
7.108,0.05747
7.112,0.06116
7.116,0.13451
7.12,0.12046
7.124,0.03997
7.128,0.17314
7.132,0.153
7.136,0.10602
7.14,0.12896
7.144,0.10522
7.148,0.11551
7.152,0.10456
7.156,0.04815
7.16,0.11953
7.164,0.05612
7.168,0.08178
7.172,0.07699
7.176,0.10109
7.18,0.06424
7.184,0.08106
7.188,0.05133
7.192,0.00946
7.196,0.13691
7.2,0.06179
7.204,0.09337
7.208,0.05192
7.212,0.17091
7.216,0.15132
7.22,0.16465
7.224,0.099
7.228,0.08894
7.232,0.08226
7.236,0.10936
7.24,0.13675
7.244,0.19387
7.248,0.10115
7.252,0.24291
7.256,0.24213
7.26,0.22057
7.264,0.15299
7.268,0.12641
7.272,0.19271
7.276,0.31166
7.28,0.52983
7.284,0.66047
7.288,0.93558
7.292,1.06106
7.296,1.19259
7.3,1.26078
7.304,1.11461
7.308,0.94695
7.312,0.7657
7.316,0.48524
7.32,0.28602
7.324,0.12676
7.328,-0.04012
7.332,-0.05275
7.336,-0.01619
7.34,-0.00872
7.344,0.03758
7.348,0.02592
7.352,0.06032
7.356,0.05378
7.36,0.06314
7.364,0.02817
7.368,0.09001
7.372,0.11288
7.376,0.06502
7.38,0.05128
7.384,0.06255
7.388,0.01136
7.392,0.04752
7.396,0.02296
7.4,-0.02048
7.404,0.02652
7.408,0.04542
7.412,0.04894
7.416,-0.01846
7.42,0.04856
7.424,0.03118
7.428,0.02359
7.432,0.0778
7.436,0.05176
7.44,0.01252
7.444,0.02864
7.448,0.06556
7.452,-0.05252
7.456,0.05935
7.46,0.02473
7.464,0.05041
7.468,0.09304
7.472,0.01181
7.476,0.04209
7.48,0.04452
7.484,0.04122
7.488,0.09414
7.492,0.04889
7.496,0.00349
7.5,0.01643
7.504,0.09843
7.508,0.14318
7.512,0.12646
7.516,0.16702
7.52,0.156
7.524,0.1242
7.528,0.19168
7.532,0.12007
7.536,0.24524
7.54,0.23488
7.544,0.24152
7.548,0.29564
7.552,0.3108
7.556,0.41188
7.56,0.25034
7.564,0.33143
7.568,0.28424
7.572,0.35509
7.576,0.28953
7.58,0.28642
7.584,0.27337
7.588,0.24357
7.592,0.26927
7.596,0.2564
7.6,0.13641
7.604,0.30357
7.608,0.28971
7.612,0.17439
7.616,0.14783
7.62,0.17482
7.624,0.08803
7.628,0.13827
7.632,0.1435
7.636,0.06722
7.64,0.13891
7.644,0.05958
7.648,0.1347
7.652,0.10917
7.656,0.06842
7.66,0.02935
7.664,0.01671
7.668,-0.01062
7.672,0.06292
7.676,-0.07566
7.68,-0.08247
7.684,-0.08019
7.688,-0.01976
7.692,0.13556
7.696,0.2912
7.7,0.4845
7.704,0.69307
7.708,0.90669
7.712,1.03302
7.716,1.04976
7.72,0.90278
7.724,0.77588
7.728,0.5722
7.732,0.41294
7.736,0.19945
7.74,-0.03918
7.744,-0.09151
7.748,-0.14811
7.752,-0.04641
7.756,-0.06767
7.76,-0.10281
7.764,0.05253
7.768,0.02605
7.772,0.09702
7.776,0.01377
7.78,-0.03232
7.784,0.0339
7.788,0.02622
7.792,-0.01936
7.796,0.05378
7.8,0.08841
7.804,0.02212
7.808,0.05485
7.812,0.04535
7.816,0.04647
7.82,0.0061
7.824,0.02307
7.828,0.00313
7.832,0.06741
7.836,-0.0046
7.84,0.04405
7.844,0.04187
7.848,0.03382
7.852,0.05982
7.856,0.00461
7.86,0.03675
7.864,0.04349
7.868,-0.0135
7.872,0.03789
7.876,0.05747
7.88,0.05882
7.884,0.06269
7.888,-0.0034
7.892,0.03298
7.896,0.00365
7.9,0.06969
7.904,0.06064
7.908,-0.02598
7.912,0.09009
7.916,0.10044
7.92,0.15055
7.924,0.13217
7.928,0.18407
7.932,0.11918
7.936,0.08139
7.94,0.10568
7.944,0.11667
7.948,0.09677
7.952,0.18223
7.956,0.17567
7.96,0.23474
7.964,0.27417
7.968,0.28609
7.972,0.23651
7.976,0.36047
7.98,0.2828
7.984,0.28388
7.988,0.35319
7.992,0.3791
7.996,0.29843
8.0,0.36292
8.004,0.32858
8.008,0.28082
8.012,0.3742
8.016,0.30777
8.02,0.26131
8.024,0.231
8.028,0.21138
8.032,0.16108
8.036,0.1707
8.04,0.21717
8.044,0.19802
8.048,0.18109
8.052,0.12091
8.056,0.16746
8.06,0.077
8.064,0.10216
8.068,0.09299
8.072,0.10963
8.076,0.03575
8.08,0.07657
8.084,0.03627
8.088,0.04484
8.092,0.06479
8.096,0.03761
8.1,0.0415
8.104,-0.01664
8.108,-0.01605
8.112,0.00446
8.116,-0.14872
8.12,-0.09519
8.124,-0.0339
8.128,0.04454
8.132,0.20469
8.136,0.42532
8.14,0.63801
8.144,0.84089
8.148,0.97054
8.152,1.02857
8.156,0.92272
8.16,0.78648
8.164,0.61543
8.168,0.44002
8.172,0.17335
8.176,0.0178
8.18,-0.12978
8.184,-0.07721
8.188,-0.14189
8.192,-0.10504
8.196,-0.03906
8.2,-0.03189
8.204,0.01801
8.208,0.00591
8.212,0.00623
8.216,0.03315
8.22,0.04849
8.224,0.06315
8.228,0.01338
8.232,-0.02802
8.236,0.0348
8.24,0.067
8.244,0.00345
8.248,0.01209
8.252,0.01585
8.256,-0.02126
8.26,0.06264
8.264,0.02157
8.268,0.01965
8.272,0.02552
8.276,-0.00935
8.28,0.0628
8.284,-0.00614
8.288,0.02726
8.292,0.03107
8.296,0.00274
8.3,0.00693
8.304,-0.04301
8.308,0.0289
8.312,0.08935
8.316,0.00528
8.32,0.07733
8.324,0.01763
8.328,0.0554
8.332,0.07384
8.336,0.01831
8.34,0.03607
8.344,0.04401
8.348,0.05145
8.352,0.06248
8.356,0.08219
8.36,0.08087
8.364,0.11308
8.368,0.01997
8.372,0.09557
8.376,0.11366
8.38,0.08404
8.384,0.18764
8.388,0.10162
8.392,0.1648
8.396,0.19394
8.4,0.16602
8.404,0.15796
8.408,0.13685
8.412,0.22933
8.416,0.1798
8.42,0.25066
8.424,0.26596
8.428,0.24151
8.432,0.2412
8.436,0.26643
8.44,0.30071
8.444,0.26349
8.448,0.10938
8.452,0.20593
8.456,0.18645
8.46,0.19056
8.464,0.15709
8.468,0.13931
8.472,0.1545
8.476,0.12564
8.48,0.16832
8.484,0.15386
8.488,0.17952
8.492,0.05132
8.496,0.09827
8.5,0.08565
8.504,0.12174
8.508,0.07604
8.512,0.09456
8.516,0.0601
8.52,0.00136
8.524,0.01187
8.528,0.03339
8.532,0.02059
8.536,3e-05
8.54,0.03812
8.544,0.08798
8.548,0.0598
8.552,0.01805
8.556,0.04109
8.56,0.03226
8.564,0.00203
8.568,-0.03441
8.572,0.04505
8.576,0.06666
8.58,0.02091
8.584,0.0379
8.588,0.06824
8.592,-0.00058
8.596,0.10808
8.6,0.05353
8.604,0.03866
8.608,0.09444
8.612,0.12927
8.616,0.12402
8.62,0.16753
8.624,0.0708
8.628,0.1131
8.632,0.09813
8.636,0.0608
8.64,0.07076
8.644,0.06401
8.648,0.05013
8.652,0.05876
8.656,-0.00949
8.66,0.04141
8.664,0.08878
8.668,0.04552
8.672,-0.0107
8.676,0.08913
8.68,0.04441
8.684,-0.02492
8.688,0.00012
8.692,0.03562
8.696,0.04241
8.7,0.02331
8.704,0.04328
8.708,-0.01928
8.712,-0.00288
8.716,0.00214
8.72,0.01516
8.724,0.05442
8.728,0.01943
8.732,-0.03419
8.736,-0.16274
8.74,-0.06402
8.744,-0.05284
8.748,-0.12248
8.752,0.06257
8.756,0.26087
8.76,0.36721
8.764,0.60613
8.768,0.79503
8.772,0.88467
8.776,1.07162
8.78,0.9235
8.784,0.82262
8.788,0.62061
8.792,0.32812
8.796,0.12788
8.8,-0.05116
8.804,-0.0743
8.808,-0.18811
8.812,-0.11108
8.816,-0.09341
8.82,-0.06173
8.824,-0.02487
8.828,-0.03591
8.832,-0.01075
8.836,0.03114
8.84,-0.02256
8.844,0.00858
8.848,-0.01328
8.852,0.0565
8.856,0.03607
8.86,0.05802
8.864,0.07507
8.868,-0.01809
8.872,-0.03486
8.876,0.03578
8.88,-0.0023
8.884,0.02043
8.888,0.05317
8.892,0.02891
8.896,-0.02705
8.9,-0.02666
8.904,0.03355
8.908,0.02268
8.912,0.02492
8.916,0.00662
8.92,0.03366
8.924,0.02391
8.928,0.06547
8.932,0.03422
8.936,-0.00443
8.94,-0.0024
8.944,0.01041
8.948,-0.03914
8.952,0.01079
8.956,0.07147
8.96,0.08278
8.964,0.08156
8.968,-0.00712
8.972,0.03182
8.976,0.08639
8.98,0.13051
8.984,0.06361
8.988,0.11387
8.992,0.11905
8.996,0.083
9.0,0.12159
9.004,0.18683
9.008,0.1883
9.012,0.15243
9.016,0.19143
9.02,0.21454
9.024,0.13704
9.028,0.15421
9.032,0.17128
9.036,0.21632
9.04,0.24574
9.044,0.19342
9.048,0.17426
9.052,0.24644
9.056,0.31039
9.06,0.14989
9.064,0.2115
9.068,0.21069
9.072,0.23485
9.076,0.19809
9.08,0.10864
9.084,0.18374
9.088,0.25215
9.092,0.14994
9.096,0.0806
9.1,0.17617
9.104,0.13551
9.108,0.16477
9.112,0.17847
9.116,0.1101
9.12,0.10174
9.124,0.12727
9.128,0.15336
9.132,0.17407
9.136,0.15201
9.14,0.09921
9.144,0.11564
9.148,0.08973
9.152,0.13352
9.156,0.12198
9.16,0.04537
9.164,0.08233
9.168,0.01521
9.172,0.00771
9.176,0.03211
9.18,0.01876
9.184,-0.0079
9.188,-0.02087
9.192,0.03848
9.196,0.03844
9.2,-0.03699
9.204,0.01417
9.208,0.01345
9.212,0.06766
9.216,0.03978
9.22,-0.01645
9.224,0.04649
9.228,-0.04658
9.232,0.03473
9.236,0.05758
9.24,0.02588
9.244,-0.0292
9.248,0.03322
9.252,-0.01091
9.256,-0.0451
9.26,-0.04443
9.264,-0.11358
9.268,-0.10227
9.272,-0.09012
9.276,-0.03167
9.28,0.0572
9.284,0.29158
9.288,0.45442
9.292,0.727
9.296,0.86595
9.3,0.94304
9.304,0.96341
9.308,0.82011
9.312,0.6821
9.316,0.45361
9.32,0.21936
9.324,0.03869
9.328,-0.11036
9.332,-0.20947
9.336,-0.15928
9.34,-0.10684
9.344,-0.15828
9.348,0.05398
9.352,0.02044
9.356,-0.04158
9.36,0.05935
9.364,0.06432
9.368,0.00092
9.372,-0.0592
9.376,-0.02668
9.38,0.03393
9.384,0.01522
9.388,0.03181
9.392,-0.02831
9.396,0.03888
9.4,0.03617
9.404,0.00052
9.408,-0.00565
9.412,-0.08329
9.416,-0.03149
9.42,0.04362
9.424,-0.01445
9.428,-0.0483
9.432,-0.03744
9.436,-0.00477
9.44,-0.03498
9.444,0.02347
9.448,-0.03887
9.452,-0.0206
9.456,0.01791
9.46,0.03282
9.464,-0.05659
9.468,0.05864
9.472,0.01128
9.476,0.05291
9.48,-0.03726
9.484,0.02035
9.488,-0.03453
9.492,0.04348
9.496,0.00829
9.5,-0.02449
9.504,0.00963
9.508,0.10385
9.512,0.05425
9.516,0.03101
9.52,0.03441
9.524,0.09803
9.528,0.07625
9.532,0.15401
9.536,0.17069
9.54,0.12314
9.544,0.17702
9.548,0.13508
9.552,0.15407
9.556,0.24983
9.56,0.19225
9.564,0.2081
9.568,0.1965
9.572,0.24763
9.576,0.15207
9.58,0.2284
9.584,0.21931
9.588,0.23281
9.592,0.19723
9.596,0.24017
9.6,0.20283
9.604,0.20179
9.608,0.19304
9.612,0.16777
9.616,0.10202
9.62,0.1671
9.624,0.1026
9.628,0.06826
9.632,0.08862
9.636,0.11737
9.64,0.10969
9.644,0.08258
9.648,0.05107
9.652,0.12053
9.656,0.03262
9.66,0.07266
9.664,-0.03908
9.668,0.01149
9.672,0.05441
9.676,0.08373
9.68,0.01438
9.684,0.00084
9.688,0.10398
9.692,0.0124
9.696,0.10262
9.7,0.10347
9.704,0.08345
9.708,0.03402
9.712,0.13797
9.716,0.1275
9.72,0.09907
9.724,0.04492
9.728,0.03495
9.732,0.04743
9.736,0.05043
9.74,-0.01355
9.744,0.04548
9.748,0.03706
9.752,-0.03133
9.756,0.0059
9.76,-0.00196
9.764,-0.02383
9.768,0.028
9.772,-0.00788
9.776,-0.02997
9.78,0.00445
9.784,-0.01823
9.788,0.01343
9.792,0.02103
9.796,0.03936
9.8,-0.04434
9.804,-0.07993
9.808,-0.04251
9.812,-0.02127
9.816,-0.08014
9.82,-0.09647
9.824,-0.0072
9.828,-0.10527
9.832,-0.13327
9.836,-0.13089
9.84,-0.11735
9.844,-0.03878
9.848,0.15346
9.852,0.33445
9.856,0.50393
9.86,0.71746
9.864,0.86989
9.868,0.93905
9.872,0.96493
9.876,0.88312
9.88,0.614
9.884,0.33646
9.888,0.12044
9.892,0.04315
9.896,-0.09455
9.9,-0.17324
9.904,-0.15304
9.908,-0.0886
9.912,-0.06773
9.916,-0.07176
9.92,-0.01338
9.924,-0.04515
9.928,-0.09716
9.932,-0.00942
9.936,-0.02322
9.94,0.03702
9.944,-0.02948
9.948,-0.049
9.952,-0.01571
9.956,-0.01083
9.96,-0.04166
9.964,-0.06065
9.968,-0.06882
9.972,-0.02553
9.976,-0.03088
9.98,-0.05673
9.984,0.01158
9.988,-0.05046
9.992,-0.02538
9.996,-0.03557
