t_seg,ecg_mV
0.0,0.00671
0.004,-0.00326
0.008,0.02408
0.012,0.02771
0.016,0.01284
0.02,0.04454
0.024,0.0266
0.028,0.02061
0.032,0.02485
0.036,0.04198
0.04,0.06228
0.044,0.05239
0.048,0.04009
0.052,0.02157
0.056,0.02121
0.06,0.03356
0.064,0.03113
0.068,0.04419
0.072,0.03097
0.076,0.00799
0.08,0.02374
0.084,0.02347
0.088,0.03471
0.092,0.00752
0.096,0.02551
0.1,0.04118
0.104,0.05392
0.108,0.00124
0.112,0.02924
0.116,-0.0038
0.12,0.0234
0.124,0.04053
0.128,0.03718
0.132,0.01194
0.136,0.01657
0.14,0.04635
0.144,0.021
0.148,0.01862
0.152,0.02806
0.156,0.00977
0.16,0.03497
0.164,0.01778
0.168,0.03556
0.172,0.03556
0.176,0.00665
0.18,0.0245
0.184,0.02477
0.188,0.03462
0.192,0.04752
0.196,0.04445
0.2,0.03656
0.204,0.02292
0.208,0.0247
0.212,0.03495
0.216,0.02375
0.22,0.0308
0.224,0.014
0.228,0.02975
0.232,0.0373
0.236,0.01676
0.24,0.03273
0.244,0.01681
0.248,0.04922
0.252,0.03367
0.256,0.00192
0.26,-0.01083
0.264,-0.00273
0.268,0.03811
0.272,0.03457
0.276,-0.00323
0.28,0.03216
0.284,0.01608
0.288,0.01496
0.292,0.03079
0.296,0.04077
0.3,0.04166
0.304,-0.00036
0.308,0.02672
0.312,0.00951
0.316,0.05444
0.32,0.00707
0.324,-0.01238
0.328,0.04103
0.332,0.02947
0.336,0.01012
0.34,0.02942
0.344,0.02206
0.348,0.04181
0.352,0.02691
0.356,0.02764
0.36,0.0579
0.364,0.02552
0.368,0.00077
0.372,0.00889
0.376,0.02788
0.38,0.00716
0.384,0.04936
0.388,0.02124
0.392,0.01142
0.396,0.04852
0.4,0.01548
0.404,0.05459
0.408,0.04998
0.412,0.01567
0.416,0.02776
0.42,0.01336
0.424,0.02492
0.428,0.02951
0.432,0.04303
0.436,0.0474
0.44,0.00939
0.444,0.0191
0.448,-0.00118
0.452,0.02652
0.456,0.01864
0.46,0.0385
0.464,0.01775
0.468,0.03309
0.472,0.01588
0.476,0.02528
0.48,0.03774
0.484,0.01167
0.488,0.03394
0.492,0.03982
0.496,0.05713
0.5,0.03017
0.504,0.02173
0.508,0.0245
0.512,-0.00809
0.516,0.01124
0.52,0.02568
0.524,0.04323
0.528,0.04319
0.532,0.0238
0.536,0.01981
0.54,0.04163
0.544,0.04256
0.548,0.00309
0.552,0.02589
0.556,0.01222
0.56,0.03424
0.564,-0.00052
0.568,-0.00555
0.572,0.02863
0.576,0.03037
0.58,0.0403
0.584,0.0114
0.588,0.00284
0.592,0.01627
0.596,0.02378
0.6,0.01723
0.604,0.00127
0.608,0.01374
0.612,0.03309
0.616,0.01374
0.62,0.03272
0.624,0.0438
0.628,0.0404
0.632,0.04577
0.636,0.07296
0.64,0.05642
0.644,0.09111
0.648,0.07423
0.652,0.10128
0.656,0.10097
0.66,0.1144
0.664,0.11091
0.668,0.13458
0.672,0.12175
0.676,0.10869
0.68,0.11482
0.684,0.0665
0.688,0.06915
0.692,0.04632
0.696,0.03087
0.7,0.04135
0.704,0.00822
0.708,0.01501
0.712,0.03185
0.716,0.00739
0.72,0.01408
0.724,0.04321
0.728,0.02661
0.732,0.00115
0.736,0.04519
0.74,0.01648
0.744,-0.02463
0.748,-0.00055
0.752,-0.0006
0.756,0.03178
0.76,0.01792
0.764,-0.0006
0.768,0.01829
0.772,-0.00488
0.776,-0.01122
0.78,-0.0253
0.784,-0.06308
0.788,-0.08948
0.792,-0.09708
0.796,0.00391
0.8,0.10081
0.804,0.28848
0.808,0.49417
0.812,0.70925
0.816,0.8935
0.82,1.01168
0.824,1.02404
0.828,0.89548
0.832,0.66335
0.836,0.48202
0.84,0.23486
0.844,0.06537
0.848,-0.06506
0.852,-0.14817
0.856,-0.13275
0.86,-0.14064
0.864,-0.08299
0.868,-0.0265
0.872,0.00016
0.876,0.01584
0.88,0.00699
0.884,0.03719
0.888,-0.00474
0.892,0.04777
0.896,0.03127
0.9,0.01049
0.904,0.04047
0.908,0.02168
0.912,0.04314
0.916,0.01902
0.92,0.01903
0.924,0.03271
0.928,0.03071
0.932,0.01341
0.936,-0.01627
0.94,0.03016
0.944,0.03978
0.948,0.00866
0.952,0.01243
0.956,0.0049
0.96,0.01782
0.964,0.00514
0.968,0.02437
0.972,0.0175
0.976,0.04674
0.98,-0.00728
0.984,0.00828
0.988,0.00538
0.992,0.0177
0.996,0.02663
1.0,0.03157
1.004,0.03176
1.008,0.03858
1.012,0.05516
1.016,0.02772
1.02,0.08611
1.024,0.09264
1.028,0.08492
1.032,0.04958
1.036,0.08106
1.04,0.11629
1.044,0.12331
1.048,0.1255
1.052,0.14404
1.056,0.1387
1.06,0.13388
1.064,0.16576
1.068,0.16927
1.072,0.18125
1.076,0.21087
1.08,0.21326
1.084,0.21394
1.088,0.23435
1.092,0.2144
1.096,0.23374
1.1,0.18702
1.104,0.2598
1.108,0.22947
1.112,0.20587
1.116,0.22364
1.12,0.21089
1.124,0.19603
1.128,0.19826
1.132,0.17201
1.136,0.17227
1.14,0.16835
1.144,0.14793
1.148,0.10655
1.152,0.12979
1.156,0.10646
1.16,0.09258
1.164,0.0975
1.168,0.07884
1.172,0.07285
1.176,0.05623
1.18,0.03139
1.184,0.02214
1.188,0.05892
1.192,0.04292
1.196,0.03961
1.2,0.03696
1.204,0.03141
1.208,0.04113
1.212,0.02607
1.216,0.01572
1.22,0.02802
1.224,0.01184
1.228,0.01947
1.232,0.01888
1.236,-0.0001
1.24,0.02067
1.244,0.01887
1.248,-0.00768
1.252,0.02208
1.256,-0.01216
1.26,-0.0112
1.264,0.01987
1.268,-0.00387
1.272,0.01596
1.276,-0.01788
1.28,0.00435
1.284,0.02032
1.288,-0.00609
1.292,0.00235
1.296,0.00765
1.3,0.01991
1.304,-0.02545
1.308,-0.00243
1.312,0.02672
1.316,0.00154
1.32,0.02322
1.324,0.0216
1.328,-0.0003
1.332,-0.00021
1.336,0.01447
1.34,-0.01605
1.344,-0.00366
1.348,-0.00775
1.352,-0.00881
1.356,0.00442
1.36,-0.00988
1.364,0.00273
1.368,-0.00416
1.372,-0.02285
1.376,-0.00816
1.38,0.02213
1.384,0.00202
1.388,-0.00607
1.392,0.00125
1.396,0.03503
1.4,-0.00873
1.404,-0.00379
1.408,-0.01042
1.412,-0.02117
1.416,0.00732
1.42,-0.01287
1.424,0.00933
1.428,-0.00542
1.432,-0.01878
1.436,0.02168
1.44,-0.05124
1.444,0.01665
1.448,0.01634
1.452,0.01487
1.456,-0.02446
1.46,0.00389
1.464,-0.01314
1.468,-0.02028
1.472,-0.00398
1.476,-0.0067
1.48,-0.02716
1.484,-0.01713
1.488,-0.00405
1.492,0.01488
1.496,-0.01262
1.5,0.01361
1.504,-0.01617
1.508,-0.01216
1.512,0.0003
1.516,0.00143
1.52,-0.00724
1.524,-0.00954
1.528,0.00627
1.532,0.00748
1.536,0.01304
1.54,0.02655
1.544,0.00315
1.548,0.02113
1.552,0.03451
1.556,0.02788
1.56,0.0643
1.564,0.07236
1.568,0.06357
1.572,0.0983
1.576,0.09425
1.58,0.09338
1.584,0.10424
1.588,0.11927
1.592,0.08218
1.596,0.08084
1.6,0.05087
1.604,0.0485
1.608,0.03242
1.612,0.01733
1.616,0.00343
1.62,0.03318
1.624,0.00406
1.628,0.00516
1.632,-0.00167
1.636,-0.03942
1.64,-0.00879
1.644,0.00259
1.648,-0.01025
1.652,0.00643
1.656,-0.0179
1.66,0.0119
1.664,0.00494
1.668,-0.02234
1.672,-0.01922
1.676,0.00454
1.68,-0.00487
1.684,-0.00334
1.688,-0.02583
1.692,-0.00204
1.696,-0.05548
1.7,-0.08375
1.704,-0.07594
1.708,-0.13452
1.712,-0.06675
1.716,-0.02846
1.72,0.12446
1.724,0.31448
1.728,0.52271
1.732,0.72009
1.736,0.87479
1.74,0.99961
1.744,0.99347
1.748,0.80161
1.752,0.63933
1.756,0.37946
1.76,0.1771
1.764,0.0032
1.768,-0.09367
1.772,-0.17898
1.776,-0.17516
1.78,-0.14281
1.784,-0.08269
1.788,-0.06871
1.792,-0.0414
1.796,-0.00741
1.8,0.00951
1.804,-0.01431
1.808,-0.00992
1.812,-0.01817
1.816,-0.00784
1.82,-0.01418
1.824,-0.05726
1.828,-0.00525
1.832,-0.00462
1.836,-0.00121
1.84,-0.01391
1.844,-0.00908
1.848,-0.01306
1.852,-0.01034
1.856,-0.01236
1.86,0.00322
1.864,0.00336
1.868,-0.00592
1.872,0.00155
1.876,-0.02832
1.88,-0.00341
1.884,-0.01222
1.888,-0.02087
1.892,0.006
1.896,-0.00383
1.9,-0.01552
1.904,-0.02386
1.908,0.03286
1.912,0.02
1.916,-0.02994
1.92,-0.00262
1.924,0.02402
1.928,0.01549
1.932,0.00763
1.936,0.02529
1.94,0.046
1.944,0.02123
1.948,0.04027
1.952,0.08323
1.956,0.04805
1.96,0.09388
1.964,0.07332
1.968,0.08877
1.972,0.09291
1.976,0.12096
1.98,0.12511
1.984,0.13837
1.988,0.16699
1.992,0.16776
1.996,0.17454
2.0,0.16744
2.004,0.1904
2.008,0.23635
2.012,0.1917
2.016,0.20379
2.02,0.195
2.024,0.2113
2.028,0.20615
2.032,0.20834
2.036,0.19765
2.04,0.20376
2.044,0.17492
2.048,0.15439
2.052,0.13941
2.056,0.14852
2.06,0.13788
2.064,0.11381
2.068,0.12018
2.072,0.11299
2.076,0.08132
2.08,0.07324
2.084,0.04663
2.088,0.06149
2.092,0.03523
2.096,0.02556
2.1,0.00457
2.104,0.02576
2.108,-0.00592
2.112,-0.00608
2.116,-0.00037
2.12,-0.01689
2.124,-0.00184
2.128,0.01038
2.132,0.01065
2.136,-0.00583
2.14,-0.02154
2.144,-0.0173
2.148,-0.01415
2.152,-0.01434
2.156,-0.02163
2.16,-0.04708
2.164,-0.01368
2.168,-0.01791
2.172,-0.02436
2.176,-0.02593
2.18,0.00618
2.184,-0.01308
2.188,-0.00784
2.192,-0.02874
2.196,-0.00547
2.2,-0.00154
2.204,-0.02185
2.208,-0.01151
2.212,-0.01952
2.216,-0.02316
2.22,-0.02808
2.224,-0.03875
2.228,-0.00636
2.232,-0.01212
2.236,-0.04916
2.24,-0.00538
2.244,-0.00924
2.248,-0.01392
2.252,-0.0171
2.256,-0.0358
2.26,-0.03562
2.264,-0.017
2.268,-0.01293
2.272,-0.06349
2.276,-0.03177
2.28,-0.03561
2.284,-0.0038
2.288,-0.03062
2.292,-0.01655
2.296,-0.02102
2.3,-0.02158
2.304,-0.02071
2.308,-0.01013
2.312,0.00168
2.316,-0.02518
2.32,-0.01385
2.324,-0.04653
2.328,-0.01375
2.332,-0.04282
2.336,-0.01468
2.34,-0.00051
2.344,-0.04388
2.348,-0.029
2.352,-0.02983
2.356,-0.02209
2.36,-0.03602
2.364,-0.03
2.368,-0.04311
2.372,-0.02923
2.376,-0.02433
2.38,-0.02233
2.384,-0.013
2.388,-0.04437
2.392,-0.03937
2.396,-0.04141
2.4,-0.02979
2.404,-0.02994
2.408,-0.03867
2.412,-0.01077
2.416,-0.00997
2.42,-0.00684
2.424,-0.00903
2.428,-0.03409
2.432,-0.00216
2.436,-0.02274
2.44,-0.03845
2.444,-0.03187
2.448,-0.03037
2.452,-0.03473
2.456,-0.0216
2.46,-0.03752
2.464,-0.0233
2.468,-0.00582
2.472,-0.05184
2.476,-0.02161
2.48,-0.0177
2.484,-0.01691
2.488,-0.00563
2.492,-0.01741
2.496,-0.00221
2.5,0.00475
2.504,0.07899
2.508,0.044
2.512,0.07613
2.516,0.05501
2.52,0.06469
2.524,0.0744
2.528,0.07494
2.532,0.06467
2.536,0.08296
2.54,0.03209
2.544,0.02592
2.548,-0.01128
2.552,0.00865
2.556,-0.03001
2.56,-0.01153
2.564,-0.00532
2.568,-0.00865
2.572,-0.03918
2.576,-0.02526
2.58,-0.02735
2.584,-0.05759
2.588,-0.02686
2.592,-0.02707
2.596,-0.02694
2.6,-0.02694
2.604,-0.03894
2.608,-0.01504
2.612,-0.05759
2.616,-0.03232
2.62,-0.00905
2.624,-0.02329
2.628,-0.01543
2.632,-0.03228
2.636,-0.04048
2.64,-0.06197
2.644,-0.09407
2.648,-0.13388
2.652,-0.13456
2.656,-0.08333
2.66,0.05848
2.664,0.20165
2.668,0.463
2.672,0.6865
2.676,0.83407
2.68,0.94714
2.684,0.95774
2.688,0.86726
2.692,0.67312
2.696,0.44144
2.7,0.22278
2.704,0.04161
2.708,-0.10171
2.712,-0.18896
2.716,-0.21925
2.72,-0.14583
2.724,-0.11042
2.728,-0.08272
2.732,-0.07366
2.736,-0.05222
2.74,-0.05041
2.744,-0.03363
2.748,-0.00231
2.752,-0.01039
2.756,-0.03234
2.76,-0.00717
2.764,-0.0259
2.768,-0.02474
2.772,-0.03908
2.776,-0.01663
2.78,-0.03218
2.784,-0.03703
2.788,-0.04153
2.792,-0.03311
2.796,-0.01521
2.8,-0.02988
2.804,-0.02875
2.808,-0.01534
2.812,-0.03095
2.816,-0.01828
2.82,-0.01762
2.824,-0.04021
2.828,-0.01303
2.832,-0.01126
2.836,-0.01548
2.84,-0.0405
2.844,-0.02478
2.848,-0.00363
2.852,-0.02658
2.856,-0.02037
2.86,-0.01309
2.864,-0.0218
2.868,-0.00269
2.872,-0.00634
2.876,7e-05
2.88,0.01898
2.884,0.01937
2.888,0.01048
2.892,0.02507
2.896,0.04864
2.9,0.03722
2.904,0.08741
2.908,0.089
2.912,0.08343
2.916,0.12054
2.92,0.11872
2.924,0.0994
2.928,0.11666
2.932,0.14612
2.936,0.14242
2.94,0.12675
2.944,0.17426
2.948,0.1691
2.952,0.19805
2.956,0.1913
2.96,0.19725
2.964,0.2104
2.968,0.1938
2.972,0.18025
2.976,0.16881
2.98,0.18043
2.984,0.19828
2.988,0.14494
2.992,0.15627
2.996,0.12774
3.0,0.12777
3.004,0.13571
3.008,0.11667
3.012,0.11704
3.016,0.08955
3.02,0.09621
3.024,0.04365
3.028,0.04163
3.032,0.04051
3.036,0.02431
3.04,0.04156
3.044,-0.01569
3.048,-0.02425
3.052,0.00575
3.056,0.00532
3.06,-0.02083
3.064,-0.01268
3.068,-0.01556
3.072,-0.03126
3.076,-0.01573
3.08,-0.03749
3.084,-0.0336
3.088,-0.02339
3.092,-0.05142
3.096,-0.02875
3.1,-0.0116
3.104,-0.01213
3.108,-0.04202
3.112,-0.02882
3.116,-0.01421
3.12,0.00455
3.124,-0.05122
3.128,-0.01755
3.132,-0.04556
3.136,-0.04511
3.14,-0.01775
3.144,-0.04818
3.148,-0.06536
3.152,-0.03699
3.156,-0.01153
3.16,-0.04005
3.164,-0.05986
3.168,-0.05168
3.172,-0.02705
3.176,-0.03526
3.18,-0.02393
3.184,-0.01027
3.188,-0.03884
3.192,-0.01203
3.196,-0.01307
3.2,-0.02849
3.204,-0.04281
3.208,-0.02807
3.212,-0.0179
3.216,-0.03351
3.22,-0.02761
3.224,-0.02233
3.228,-0.02377
3.232,-0.01592
3.236,-0.0055
3.24,-0.03904
3.244,-0.03309
3.248,-0.03227
3.252,-0.0069
3.256,-0.02365
3.26,-0.01003
3.264,-0.01227
3.268,-0.02929
3.272,-0.03148
3.276,-0.03177
3.28,-0.0139
3.284,-0.03063
3.288,-0.06234
3.292,-0.04183
3.296,0.01269
3.3,-0.00613
3.304,-0.04024
3.308,-0.01777
3.312,-0.01804
3.316,-0.04553
3.32,-0.04159
3.324,-0.03066
3.328,-0.02278
3.332,-0.04983
3.336,-0.01826
3.34,-0.03464
3.344,-0.00361
3.348,-0.01914
3.352,-0.07939
3.356,-0.02639
3.36,-0.02503
3.364,-0.04913
3.368,-0.03189
3.372,-0.02297
3.376,-0.01314
3.38,-0.00707
3.384,-0.03052
3.388,-0.00838
3.392,-0.04416
3.396,-0.03554
3.4,-0.02228
3.404,-0.04808
3.408,-0.04255
3.412,-0.02846
3.416,-0.01276
3.42,-0.01964
3.424,-0.02591
3.428,-0.02523
3.432,-0.04001
3.436,-0.0094
3.44,-0.04324
3.444,-0.04804
3.448,-0.02031
3.452,-0.00225
3.456,-0.02853
3.46,-0.05306
3.464,-0.04894
3.468,-0.04871
3.472,-0.02143
3.476,-0.0348
3.48,-0.02645
3.484,-0.03474
3.488,-0.03228
3.492,-0.03849
3.496,-0.00597
3.5,-0.01771
3.504,-0.04876
3.508,-0.01272
3.512,-0.04442
3.516,-0.03215
3.52,-0.02349
3.524,-0.03312
3.528,-0.03364
3.532,-0.00751
3.536,0.00165
3.54,-0.06025
3.544,-0.01883
3.548,-0.0111
3.552,0.00133
3.556,-0.04531
3.56,-0.06957
3.564,-0.02758
3.568,-0.02924
3.572,-0.01808
3.576,-0.00289
3.58,-0.01297
3.584,-0.01615
3.588,-0.03459
3.592,-0.05299
3.596,0.00294
3.6,-0.03114
3.604,0.00153
3.608,-0.00971
3.612,-0.04227
3.616,-0.04745
3.62,-0.01289
3.624,-0.02894
3.628,-0.00623
3.632,-0.04253
3.636,-0.01926
3.64,-0.01049
3.644,-0.01265
3.648,0.0099
3.652,0.01454
3.656,0.00567
3.66,-0.03335
3.664,-0.0106
3.668,0.01312
3.672,0.01383
3.676,0.04112
3.68,0.04284
3.684,0.04519
3.688,0.08116
3.692,0.10608
3.696,0.07892
3.7,0.05809
3.704,0.08714
3.708,0.08731
3.712,0.03991
3.716,0.03569
3.72,0.04173
3.724,0.00535
3.728,0.0116
3.732,0.00542
3.736,0.00197
3.74,-0.00784
3.744,-0.03229
3.748,-0.00072
3.752,-0.00305
3.756,-0.02108
3.76,-0.01414
3.764,-0.02255
3.768,-0.01738
3.772,0.00301
3.776,-0.02846
3.78,0.01463
3.784,-0.04755
3.788,-0.0431
3.792,-0.03937
3.796,-0.00226
3.8,-0.02007
3.804,-0.0288
3.808,0.00032
3.812,-0.02866
3.816,-0.06983
3.82,-0.10497
3.824,-0.14336
3.828,-0.13292
3.832,-0.08053
3.836,0.01139
3.84,0.20082
3.844,0.41703
3.848,0.62274
3.852,0.76497
3.856,0.92283
3.86,1.01884
3.864,0.88506
3.868,0.75305
3.872,0.50024
3.876,0.27733
3.88,0.07984
3.884,-0.06777
3.888,-0.15056
3.892,-0.19621
3.896,-0.14911
3.9,-0.15037
3.904,-0.0623
3.908,-0.0612
3.912,-0.06466
3.916,-0.00763
3.92,-0.03112
3.924,0.00151
3.928,0.00591
3.932,-0.02342
3.936,-0.00626
3.94,-0.03003
3.944,-0.03529
3.948,-0.03157
3.952,-0.01991
3.956,0.00274
3.96,-0.02282
3.964,-0.01056
3.968,-0.02385
3.972,-0.01044
3.976,-0.00928
3.98,-0.01973
3.984,-0.02752
3.988,-0.02296
3.992,0.00837
3.996,-0.00788
4.0,-0.04196
4.004,-0.02457
4.008,-0.00867
4.012,-0.01495
4.016,-0.01977
4.02,-0.01495
4.024,0.00187
4.028,-0.00347
4.032,-0.00543
4.036,-0.02781
4.04,0.02845
4.044,0.01371
4.048,-0.00449
4.052,0.00743
4.056,0.02785
4.06,0.04414
4.064,0.06158
4.068,0.0459
4.072,0.04644
4.076,0.08615
4.08,0.07686
4.084,0.07809
4.088,0.0863
4.092,0.14047
4.096,0.11637
4.1,0.12923
4.104,0.12628
4.108,0.15419
4.112,0.18861
4.116,0.17113
4.12,0.18131
4.124,0.19285
4.128,0.18813
4.132,0.22265
4.136,0.20056
4.14,0.20999
4.144,0.20134
4.148,0.19294
4.152,0.21855
4.156,0.20335
4.16,0.15999
4.164,0.1616
4.168,0.13371
4.172,0.17208
4.176,0.16322
4.18,0.1089
4.184,0.09599
4.188,0.1095
4.192,0.09066
4.196,0.07234
4.2,0.07654
4.204,0.05126
4.208,0.03702
4.212,0.04564
4.216,0.04413
4.22,0.06691
4.224,-0.00119
4.228,0.04026
4.232,0.0094
4.236,0.02458
4.24,0.00286
4.244,0.00627
4.248,-0.01614
4.252,0.00476
4.256,-0.03015
4.26,-0.00357
4.264,-0.0154
4.268,0.0075
4.272,-0.01662
4.276,-0.00624
4.28,-0.0068
4.284,-0.00396
4.288,-0.00032
4.292,-0.00631
4.296,-0.00964
4.3,-0.00375
4.304,0.00554
4.308,0.00159
4.312,-0.00182
4.316,-0.00802
4.32,-0.02742
4.324,-0.01456
4.328,0.00582
4.332,-0.02086
4.336,-0.04785
4.34,0.01518
4.344,-0.05719
4.348,-0.03486
4.352,-0.01042
4.356,-0.01539
4.36,-0.03868
4.364,-0.01938
4.368,-0.01863
4.372,0.00596
4.376,0.0017
4.38,0.00349
4.384,-0.00902
4.388,-0.0288
4.392,-0.00469
4.396,-0.04836
4.4,-0.05122
4.404,0.00482
4.408,-0.01378
4.412,-0.01598
4.416,-0.02261
4.42,-0.00393
4.424,-0.0011
4.428,0.00911
4.432,0.00259
4.436,0.01246
4.44,-0.00202
4.444,0.0127
4.448,-0.02437
4.452,0.02687
4.456,-0.00698
4.46,-0.00949
4.464,-0.02193
4.468,-0.00572
4.472,-0.01352
4.476,0.01315
4.48,-0.02341
4.484,-0.0008
4.488,0.00524
4.492,0.00312
4.496,-0.02365
4.5,0.00018
4.504,0.04784
4.508,0.01847
4.512,0.06593
4.516,0.07367
4.52,0.06265
4.524,0.06505
4.528,0.0841
4.532,0.10752
4.536,0.08121
4.54,0.08694
4.544,0.09173
4.548,0.08193
4.552,0.09032
4.556,0.05708
4.56,0.04797
4.564,0.02079
4.568,0.03529
4.572,0.03473
4.576,-0.00236
4.58,-0.00351
4.584,0.02699
4.588,-0.00603
4.592,0.00713
4.596,0.0082
4.6,-0.04119
4.604,-0.00632
4.608,-0.01341
4.612,0.0048
4.616,-0.01751
4.62,-0.00265
4.624,0.01335
4.628,-0.01687
4.632,0.00136
4.636,2e-05
4.64,-0.00665
4.644,-0.01091
4.648,-0.01141
4.652,-0.04202
4.656,-0.07484
4.66,-0.10472
4.664,-0.12179
4.668,-0.08842
4.672,0.00252
4.676,0.12417
4.68,0.34334
4.684,0.53156
4.688,0.74504
4.692,0.90066
4.696,0.99602
4.7,0.97757
4.704,0.83298
4.708,0.62821
4.712,0.40337
4.716,0.1926
4.72,0.02305
4.724,-0.1094
4.728,-0.17816
4.732,-0.15088
4.736,-0.14435
4.74,-0.11307
4.744,-0.05361
4.748,-0.03804
4.752,0.00697
4.756,0.02085
4.76,-0.00712
4.764,-0.01264
4.768,-0.02628
4.772,0.00955
4.776,0.02184
4.78,-0.00768
4.784,0.01298
4.788,-0.03149
4.792,-0.00463
4.796,0.01878
4.8,-0.00405
4.804,-0.01433
4.808,-0.02204
4.812,0.0168
4.816,-0.00638
4.82,0.01213
4.824,0.00148
4.828,0.0053
4.832,-0.00674
4.836,0.04192
4.84,0.02072
4.844,-0.00561
4.848,-0.00286
4.852,0.02126
4.856,-0.00662
4.86,0.00808
4.864,-0.00508
4.868,0.00626
4.872,0.01338
4.876,0.02868
4.88,0.01713
4.884,0.04048
4.888,0.01157
4.892,0.02869
4.896,0.05032
4.9,0.0559
4.904,0.06051
4.908,0.0574
4.912,0.08267
4.916,0.11306
4.92,0.07357
4.924,0.10138
4.928,0.1326
4.932,0.1077
4.936,0.13674
4.94,0.17056
4.944,0.19454
4.948,0.18636
4.952,0.19276
4.956,0.18589
4.96,0.21785
4.964,0.21386
4.968,0.2111
4.972,0.22231
4.976,0.21081
4.98,0.22033
4.984,0.18061
4.988,0.21025
4.992,0.19632
4.996,0.20392
5.0,0.19146
5.004,0.17417
5.008,0.20993
5.012,0.16762
5.016,0.17728
5.02,0.16496
5.024,0.11624
5.028,0.10988
5.032,0.11523
5.036,0.05795
5.04,0.08955
5.044,0.08447
5.048,0.06343
5.052,0.07559
5.056,0.05641
5.06,0.07758
5.064,0.05676
5.068,0.03015
5.072,0.03513
5.076,0.0299
5.08,0.05832
5.084,0.04675
5.088,0.03459
5.092,0.0106
5.096,-0.00323
5.1,0.0167
5.104,0.02567
5.108,-0.01973
5.112,0.01205
5.116,0.01892
5.12,0.02126
5.124,-0.01114
5.128,0.00206
5.132,-0.00857
5.136,0.01429
5.14,0.02564
5.144,0.00896
5.148,0.03102
5.152,0.0467
5.156,-0.01205
5.16,0.01677
5.164,0.02409
5.168,-0.00229
5.172,-0.00553
5.176,0.00717
5.18,0.01892
5.184,0.02124
5.188,0.01758
5.192,0.01037
5.196,0.01379
5.2,0.01303
5.204,0.03925
5.208,0.00648
5.212,-0.02563
5.216,-0.01695
5.22,-0.00857
5.224,0.01964
5.228,0.03057
5.232,0.03142
5.236,0.01305
5.24,0.00633
5.244,0.04001
5.248,0.01795
5.252,0.01531
5.256,0.01164
5.26,0.05275
5.264,0.03684
5.268,0.01444
5.272,0.05514
5.276,0.03242
5.28,0.03003
5.284,0.01536
5.288,-0.0048
5.292,-0.01872
5.296,0.01891
5.3,-0.00093
5.304,0.03696
5.308,0.03627
5.312,0.02869
5.316,0.04386
5.32,0.02135
5.324,0.0204
5.328,0.01986
5.332,0.00841
5.336,0.03289
5.34,0.01774
5.344,0.01233
5.348,0.01724
5.352,0.02349
5.356,0.00764
5.36,0.01798
5.364,0.02141
5.368,0.02069
5.372,0.00195
5.376,0.01744
5.38,0.00248
5.384,0.00446
5.388,0.0337
5.392,0.01634
5.396,0.01433
5.4,-0.00693
5.404,0.00694
5.408,0.01746
5.412,0.00451
5.416,0.02102
5.42,0.0391
5.424,0.01154
5.428,0.01457
5.432,0.02662
5.436,0.00476
5.44,0.03311
5.444,0.03928
5.448,0.01852
5.452,0.01894
5.456,0.02503
5.46,0.0559
5.464,0.04897
5.468,0.07293
5.472,0.0888
5.476,0.10254
5.48,0.10364
5.484,0.12474
5.488,0.1161
5.492,0.11779
5.496,0.10995
5.5,0.13526
5.504,0.07944
5.508,0.09684
5.512,0.06069
5.516,0.06786
5.52,0.06052
5.524,0.05199
5.528,0.05283
5.532,0.01308
5.536,0.00862
5.54,0.02965
5.544,0.04366
5.548,0.02723
5.552,0.01305
5.556,0.01676
5.56,0.02923
5.564,0.02678
5.568,0.01897
5.572,0.02187
5.576,0.00778
5.58,0.00453
5.584,0.00496
5.588,0.02182
5.592,0.05645
5.596,0.01542
5.6,0.01768
5.604,0.00092
5.608,-0.02522
5.612,-0.04929
5.616,-0.08289
5.62,-0.08736
5.624,-0.05503
5.628,0.09306
5.632,0.24108
5.636,0.46553
5.64,0.65475
5.644,0.86168
5.648,0.98897
5.652,1.02328
5.656,0.93421
5.66,0.76165
5.664,0.53654
5.668,0.29506
5.672,0.08134
5.676,-0.02877
5.68,-0.1489
5.684,-0.15328
5.688,-0.13395
5.692,-0.08264
5.696,-0.0574
5.7,-0.03259
5.704,0.03097
5.708,0.01212
5.712,0.03168
5.716,0.05008
5.72,0.02557
5.724,0.04643
5.728,0.02699
5.732,0.04531
5.736,0.02798
5.74,0.03026
5.744,0.03162
5.748,0.02315
5.752,0.02969
5.756,0.02774
5.76,0.00215
5.764,0.05033
5.768,0.01671
5.772,0.04063
5.776,0.0196
5.78,0.03809
5.784,0.01955
5.788,0.04035
5.792,0.04126
5.796,0.01026
5.8,0.03338
5.804,0.03306
5.808,0.02058
5.812,0.02058
5.816,0.03654
5.82,0.01714
5.824,0.04391
5.828,0.07216
5.832,0.04225
5.836,0.0586
5.84,0.05727
5.844,0.07692
5.848,0.06008
5.852,0.0628
5.856,0.06266
5.86,0.07537
5.864,0.07687
5.868,0.09277
5.872,0.12255
5.876,0.11146
5.88,0.11495
5.884,0.14573
5.888,0.16436
5.892,0.16189
5.896,0.20614
5.9,0.20001
5.904,0.2319
5.908,0.24069
5.912,0.22401
5.916,0.25125
5.92,0.24659
5.924,0.20977
5.928,0.24872
5.932,0.2432
5.936,0.23038
5.94,0.23621
5.944,0.24308
5.948,0.24385
5.952,0.22189
5.956,0.26886
5.96,0.21981
5.964,0.20831
5.968,0.18747
5.972,0.15864
5.976,0.1742
5.98,0.14581
5.984,0.16316
5.988,0.11417
5.992,0.13981
5.996,0.12786
6.0,0.10771
6.004,0.10856
6.008,0.07393
6.012,0.0741
6.016,0.08075
6.02,0.04811
6.024,0.03
6.028,0.06149
6.032,0.04777
6.036,0.04618
6.04,0.05937
6.044,0.02258
6.048,0.0162
6.052,0.02386
6.056,0.03107
6.06,-0.00025
6.064,0.04038
6.068,0.02937
6.072,0.03542
6.076,0.0313
6.08,0.02222
6.084,0.04121
6.088,0.03592
6.092,0.04386
6.096,0.01597
6.1,0.02253
6.104,0.03402
6.108,0.03729
6.112,0.0106
6.116,0.01905
6.12,0.06585
6.124,0.02927
6.128,0.04718
6.132,0.0536
6.136,0.02405
6.14,0.03364
6.144,0.03142
6.148,0.01946
6.152,0.02152
6.156,0.01993
6.16,0.01241
6.164,0.04352
6.168,0.04876
6.172,0.03101
6.176,0.01673
6.18,0.02394
6.184,0.03208
6.188,0.04085
6.192,0.02488
6.196,0.01409
6.2,0.03478
6.204,0.02961
6.208,0.02525
6.212,0.04384
6.216,0.04157
6.22,0.02052
6.224,0.04373
6.228,0.05132
6.232,0.03432
6.236,0.03527
6.24,0.00207
6.244,0.0328
6.248,0.03978
6.252,0.04923
6.256,0.02465
6.26,0.02069
6.264,0.00286
6.268,-0.00048
6.272,0.03112
6.276,0.03982
6.28,0.00292
6.284,0.02966
6.288,0.00851
6.292,0.02379
6.296,0.0309
6.3,0.01245
6.304,0.03098
6.308,0.03959
6.312,0.04015
6.316,0.03164
6.32,0.05339
6.324,0.04796
6.328,0.00547
6.332,0.03477
6.336,0.08206
6.34,0.05823
6.344,0.08837
6.348,0.08773
6.352,0.11964
6.356,0.12765
6.36,0.11922
6.364,0.13463
6.368,0.12518
6.372,0.13643
6.376,0.11975
6.38,0.09335
6.384,0.11252
6.388,0.09894
6.392,0.08137
6.396,0.07948
6.4,0.05375
6.404,0.05194
6.408,0.06872
6.412,0.07284
6.416,0.06012
6.42,0.04657
6.424,0.02241
6.428,0.04386
6.432,0.03888
6.436,0.03883
6.44,0.02846
6.444,0.00875
6.448,0.02418
6.452,0.00127
6.456,0.03946
6.46,0.02628
6.464,0.04303
6.468,0.05781
6.472,0.03731
6.476,0.02614
6.48,0.02617
6.484,0.01319
6.488,-0.00175
6.492,-0.06197
6.496,-0.0846
6.5,-0.08184
6.504,0.00434
6.508,0.12027
6.512,0.30439
6.516,0.51907
6.52,0.72406
6.524,0.92748
6.528,0.99547
6.532,1.00465
6.536,0.91387
6.54,0.72418
6.544,0.47097
6.548,0.26705
6.552,0.06992
6.556,-0.04086
6.56,-0.10506
6.564,-0.12745
6.568,-0.09355
6.572,-0.06555
6.576,-0.02279
6.58,0.00725
6.584,0.01922
6.588,0.01014
6.592,0.02536
6.596,0.04555
6.6,0.06069
6.604,0.02307
6.608,0.00582
6.612,0.01511
6.616,0.03172
6.62,0.03184
6.624,0.05887
6.628,0.03684
6.632,0.0615
6.636,0.01461
6.64,0.03616
6.644,0.0349
6.648,0.03297
6.652,0.04567
6.656,0.04963
6.66,0.03705
6.664,0.04134
6.668,0.01294
6.672,0.04988
6.676,0.03797
6.68,0.00746
6.684,0.03168
6.688,0.02235
6.692,0.0566
6.696,0.04722
6.7,0.05628
6.704,0.0548
6.708,0.02459
6.712,0.04494
6.716,0.04652
6.72,0.05374
6.724,0.05999
6.728,0.07357
6.732,0.11288
6.736,0.09783
6.74,0.07396
6.744,0.08699
6.748,0.10173
6.752,0.14258
6.756,0.11547
6.76,0.15228
6.764,0.14499
6.768,0.16732
6.772,0.19086
6.776,0.20336
6.78,0.181
6.784,0.2243
6.788,0.20766
6.792,0.20768
6.796,0.24604
6.8,0.22653
6.804,0.24607
6.808,0.23936
6.812,0.25814
6.816,0.2476
6.82,0.24117
6.824,0.24315
6.828,0.24251
6.832,0.22338
6.836,0.21779
6.84,0.19533
6.844,0.20191
6.848,0.16884
6.852,0.1751
6.856,0.17472
6.86,0.13137
6.864,0.1114
6.868,0.1081
6.872,0.13697
6.876,0.1108
6.88,0.07458
6.884,0.06728
6.888,0.06414
6.892,0.06067
6.896,0.07452
6.9,0.05531
6.904,0.04056
6.908,0.03782
6.912,0.04189
6.916,0.01016
6.92,0.03557
6.924,-0.00779
6.928,0.01241
6.932,0.0551
6.936,0.02236
6.94,0.06108
6.944,0.05102
6.948,0.0186
6.952,0.00125
6.956,0.03166
6.96,0.02723
6.964,0.03178
6.968,0.02287
6.972,0.03789
6.976,0.02191
6.98,0.02178
6.984,0.03278
6.988,0.04987
6.992,-0.00376
6.996,0.03496
7.0,0.02282
7.004,0.02789
7.008,0.0016
7.012,0.02044
7.016,0.02873
7.02,0.03765
7.024,0.00505
7.028,0.03285
7.032,0.0122
7.036,0.01493
7.04,0.01627
7.044,0.02308
7.048,0.04281
7.052,0.01705
7.056,0.03472
7.06,0.02114
7.064,0.02154
7.068,0.02895
7.072,0.0136
7.076,0.04094
7.08,0.01519
7.084,0.02577
7.088,0.01028
7.092,0.02849
7.096,0.03046
7.1,0.04571
7.104,0.01046
7.108,0.02192
7.112,-0.0183
7.116,0.02942
7.12,0.02909
7.124,0.04825
7.128,0.02296
7.132,0.0151
7.136,0.01159
7.14,0.03035
7.144,0.0332
7.148,0.0119
7.152,0.03906
7.156,0.00506
7.16,-0.0011
7.164,0.00379
7.168,0.05263
7.172,0.02003
7.176,0.02463
7.18,0.0277
7.184,0.05336
7.188,0.08506
7.192,0.06704
7.196,0.06274
7.2,0.12218
7.204,0.11949
7.208,0.11047
7.212,0.14792
7.216,0.12948
7.22,0.1165
7.224,0.12174
7.228,0.06997
7.232,0.08048
7.236,0.07953
7.24,0.04895
7.244,0.06422
7.248,0.05779
7.252,0.04471
7.256,0.03159
7.26,0.03859
7.264,0.03696
7.268,-0.00502
7.272,0.04057
7.276,0.01316
7.28,0.01027
7.284,0.02201
7.288,0.00369
7.292,0.03852
7.296,-0.00038
7.3,0.02374
7.304,-0.00153
7.308,0.01752
7.312,0.03318
7.316,0.02711
7.32,0.02863
7.324,0.01429
7.328,-0.00022
7.332,-0.04977
7.336,-0.0769
7.34,-0.11655
7.344,-0.0668
7.348,-0.00231
7.352,0.12659
7.356,0.33558
7.36,0.55752
7.364,0.77229
7.368,0.92197
7.372,1.03723
7.376,0.96404
7.38,0.85098
7.384,0.65585
7.388,0.43683
7.392,0.2041
7.396,0.00759
7.4,-0.07793
7.404,-0.16182
7.408,-0.13554
7.412,-0.10792
7.416,-0.07001
7.42,-0.05094
7.424,-0.03436
7.428,0.0208
7.432,0.00137
7.436,0.01587
7.44,0.0283
7.444,0.00526
7.448,-0.01184
7.452,-0.01457
7.456,0.0264
7.46,0.0141
7.464,0.03889
7.468,0.01444
7.472,0.01275
7.476,0.00949
7.48,0.02229
7.484,0.01274
7.488,0.03641
7.492,0.02582
7.496,0.01865
7.5,0.0061
7.504,0.00602
7.508,0.04412
7.512,0.01496
7.516,0.0232
7.52,-0.00303
7.524,0.01967
7.528,0.0139
7.532,0.02529
7.536,0.01419
7.54,0.02797
7.544,0.03503
7.548,0.02953
7.552,0.02296
7.556,0.05956
7.56,0.01561
7.564,0.03656
7.568,0.06654
7.572,0.05979
7.576,0.07717
7.58,0.06106
7.584,0.07424
7.588,0.09545
7.592,0.09572
7.596,0.08929
7.6,0.11833
7.604,0.11057
7.608,0.14926
7.612,0.14919
7.616,0.15108
7.62,0.18498
7.624,0.18428
7.628,0.1941
7.632,0.21359
7.636,0.21754
7.64,0.2261
7.644,0.25275
7.648,0.21316
7.652,0.23004
7.656,0.22546
7.66,0.23673
7.664,0.24207
7.668,0.22719
7.672,0.2036
7.676,0.17732
7.68,0.21342
7.684,0.21368
7.688,0.15041
7.692,0.19942
7.696,0.14707
7.7,0.15352
7.704,0.15529
7.708,0.1307
7.712,0.11413
7.716,0.11479
7.72,0.10053
7.724,0.10325
7.728,0.06222
7.732,0.07182
7.736,0.05901
7.74,0.042
7.744,0.03685
7.748,0.00397
7.752,0.03057
7.756,0.04221
7.76,-0.00203
7.764,0.01025
7.768,0.02226
7.772,0.0066
7.776,0.02419
7.78,0.006
7.784,0.00341
7.788,-0.00618
7.792,0.02877
7.796,0.028
7.8,-0.00205
7.804,0.01036
7.808,-0.00885
7.812,-0.00848
7.816,0.00716
7.82,0.01792
7.824,0.02335
7.828,0.02385
7.832,2e-05
7.836,0.01776
7.84,0.01469
7.844,0.01194
7.848,-0.00293
7.852,0.03203
7.856,0.03666
7.86,0.00042
7.864,-0.01952
7.868,-0.0002
7.872,0.00632
7.876,0.01807
7.88,-0.01506
7.884,0.00614
7.888,0.01751
7.892,-0.01923
7.896,-0.01484
7.9,0.0192
7.904,0.00558
7.908,-0.02986
7.912,0.00503
7.916,0.0308
7.92,-0.00356
7.924,0.04823
7.928,-0.00077
7.932,0.02482
7.936,-0.0131
7.94,-0.03301
7.944,0.01305
7.948,0.05787
7.952,0.01737
7.956,0.00994
7.96,0.01981
7.964,-0.01012
7.968,-0.01679
7.972,0.01125
7.976,-0.00364
7.98,-0.00364
7.984,-0.01796
7.988,0.01092
7.992,0.01822
7.996,0.00414
8.0,0.01957
8.004,0.00355
8.008,0.00455
8.012,0.01266
8.016,0.00263
8.02,-0.02692
8.024,-0.00734
8.028,0.00128
8.032,0.01481
8.036,-0.0108
8.04,0.01379
8.044,-0.00668
8.048,0.01641
8.052,0.01345
8.056,0.0119
8.06,-0.0072
8.064,-0.00789
8.068,0.005
8.072,-0.03477
8.076,-0.01229
8.08,-0.01229
8.084,0.02255
8.088,0.01037
8.092,-0.01508
8.096,-0.02036
8.1,0.02017
8.104,0.00666
8.108,-0.00073
8.112,-0.01274
8.116,-0.00516
8.12,-0.02543
8.124,-0.00677
8.128,0.00939
8.132,0.0009
8.136,0.00079
8.14,0.00578
8.144,-0.02553
8.148,-0.02691
8.152,0.01376
8.156,0.01913
8.16,0.00852
8.164,0.00347
8.168,-0.01235
8.172,-0.00098
8.176,-0.02306
8.18,-0.00773
8.184,0.01845
8.188,0.00067
8.192,-0.02886
8.196,0.02415
8.2,0.00713
8.204,0.03457
8.208,0.03347
8.212,0.03726
8.216,0.09284
8.22,0.05387
8.224,0.08788
8.228,0.07133
8.232,0.11093
8.236,0.09009
8.24,0.12141
8.244,0.09311
8.248,0.09862
8.252,0.06335
8.256,0.07475
8.26,0.04251
8.264,0.0514
8.268,0.03118
8.272,0.02306
8.276,0.0078
8.28,-0.0147
8.284,0.00655
8.288,0.03122
8.292,0.00136
8.296,-0.00355
8.3,-0.02418
8.304,-0.01185
8.308,-0.02245
8.312,-0.00107
8.316,-0.00817
8.32,0.00761
8.324,-0.00466
8.328,-0.02149
8.332,-0.02706
8.336,0.01361
8.34,-0.01154
8.344,-0.02411
8.348,-0.00576
8.352,-0.04391
8.356,-0.07302
8.36,-0.09727
8.364,-0.12937
8.368,-0.09539
8.372,-0.05456
8.376,0.13645
8.38,0.30561
8.384,0.54068
8.388,0.69581
8.392,0.87778
8.396,0.94797
8.4,0.96859
8.404,0.83048
8.408,0.67093
8.412,0.39409
8.416,0.18596
8.42,0.01938
8.424,-0.09059
8.428,-0.16293
8.432,-0.14881
8.436,-0.17356
8.44,-0.07249
8.444,-0.07847
8.448,-0.02239
8.452,-0.01078
8.456,-0.02323
8.46,-0.02293
8.464,-0.0379
8.468,-0.01565
8.472,-0.00507
8.476,-0.00455
8.48,-0.01581
8.484,-0.01483
8.488,0.01773
8.492,-0.00885
8.496,-0.0115
8.5,0.00834
8.504,-0.02073
8.508,-0.02146
8.512,0.01327
8.516,-0.01535
8.52,0.00448
8.524,-0.03946
8.528,-0.00468
8.532,-0.01945
8.536,-0.00603
8.54,-0.03978
8.544,0.00865
8.548,-0.01568
8.552,-0.00805
8.556,-0.02583
8.56,0.00727
8.564,-0.00382
8.568,-0.01688
8.572,-0.03586
8.576,0.00164
8.58,0.02457
8.584,-0.00404
8.588,0.00028
8.592,0.02519
8.596,0.02262
8.6,0.03561
8.604,0.03097
8.608,0.06377
8.612,0.06954
8.616,0.08646
8.62,0.0895
8.624,0.07604
8.628,0.10403
8.632,0.13896
8.636,0.12218
8.64,0.12834
8.644,0.14187
8.648,0.15541
8.652,0.16227
8.656,0.18098
8.66,0.21577
8.664,0.22132
8.668,0.20424
8.672,0.22407
8.676,0.22569
8.68,0.19354
8.684,0.17702
8.688,0.1972
8.692,0.22008
8.696,0.21251
8.7,0.20559
8.704,0.18118
8.708,0.16149
8.712,0.15279
8.716,0.14753
8.72,0.10356
8.724,0.09099
8.728,0.10196
8.732,0.08902
8.736,0.0624
8.74,0.07256
8.744,0.03071
8.748,0.04315
8.752,0.05638
8.756,0.02618
8.76,0.00357
8.764,0.01942
8.768,-0.00594
8.772,0.01435
8.776,0.01936
8.78,-0.0105
8.784,0.00648
8.788,0.03021
8.792,0.00877
8.796,0.00272
8.8,-0.00637
8.804,-0.04136
8.808,-0.00614
8.812,-0.03737
8.816,-0.03149
8.82,-0.00054
8.824,-0.01116
8.828,-0.01945
8.832,-0.00965
8.836,0.0025
8.84,-0.03015
8.844,-0.02508
8.848,0.00069
8.852,-0.00672
8.856,-0.01939
8.86,0.00309
8.864,-0.03779
8.868,0.00339
8.872,-0.00233
8.876,-0.03671
8.88,-0.024
8.884,-0.01709
8.888,-0.03756
8.892,-0.00467
8.896,-0.02107
8.9,-0.02977
8.904,-0.04195
8.908,-0.0289
8.912,-0.00546
8.916,-0.02639
8.92,-0.0313
8.924,0.00669
8.928,-0.00733
8.932,-0.0402
8.936,-0.03649
8.94,0.00647
8.944,-0.01727
8.948,-0.03866
8.952,-0.03196
8.956,-0.00308
8.96,-0.02313
8.964,-0.01492
8.968,-0.0365
8.972,-0.03769
8.976,-0.02227
8.98,-0.01371
8.984,-0.01955
8.988,-0.01123
8.992,-0.02535
8.996,-0.01986
9.0,-0.02901
9.004,-0.02696
9.008,-0.01008
9.012,-0.02795
9.016,-0.01313
9.02,-0.00576
9.024,-0.01189
9.028,-0.01456
9.032,-0.01122
9.036,0.0139
9.04,-0.0164
9.044,-0.03455
9.048,-0.04449
9.052,-0.03022
9.056,-0.01134
9.06,-0.02352
9.064,0.01895
9.068,0.00198
9.072,0.0058
9.076,0.02798
9.08,0.06105
9.084,0.06148
9.088,0.11531
9.092,0.07002
9.096,0.08865
9.1,0.06324
9.104,0.06208
9.108,0.05304
9.112,0.0593
9.116,0.02232
9.12,0.03486
9.124,0.01184
9.128,0.00805
9.132,0.00434
9.136,-0.01138
9.14,-0.0205
9.144,-0.00961
9.148,0.01207
9.152,-0.0163
9.156,-0.00384
9.16,-0.02959
9.164,-0.01977
9.168,-0.02549
9.172,-0.03102
9.176,-0.01708
9.18,-0.03442
9.184,-0.03422
9.188,-0.01864
9.192,-0.03317
9.196,-0.05024
9.2,-0.02734
9.204,-0.06437
9.208,-0.04941
9.212,-0.03664
9.216,-0.11647
9.22,-0.13204
9.224,-0.15447
9.228,-0.10145
9.232,0.0461
9.236,0.19783
9.24,0.40358
9.244,0.60776
9.248,0.84821
9.252,0.96513
9.256,0.97646
9.26,0.88784
9.264,0.70525
9.268,0.46852
9.272,0.24564
9.276,0.05504
9.28,-0.08614
9.284,-0.17054
9.288,-0.18553
9.292,-0.16284
9.296,-0.15697
9.3,-0.08279
9.304,-0.04494
9.308,-0.02826
9.312,-0.04385
9.316,-0.01969
9.32,-0.02625
9.324,-0.03456
9.328,-0.00853
9.332,-0.00519
9.336,-0.05211
9.34,-0.01969
9.344,-0.02458
9.348,-0.03455
9.352,-0.05501
9.356,-0.03388
9.36,-0.02248
9.364,-0.02384
9.368,-0.00032
9.372,-0.03284
9.376,-0.01263
9.38,-0.04669
9.384,-0.02262
9.388,-0.05677
9.392,-0.04357
9.396,-0.04817
9.4,-0.01427
9.404,-0.01939
9.408,-0.00092
9.412,-0.00648
9.416,-0.03135
9.42,-0.03812
9.424,-0.01263
9.428,0.00291
9.432,-0.01598
9.436,-0.02457
9.44,0.0089
9.444,-0.02774
9.448,0.01676
9.452,0.00596
9.456,-0.00013
9.46,0.0143
9.464,0.00977
9.468,0.01691
9.472,0.06208
9.476,0.04285
9.48,0.0738
9.484,0.08768
9.488,0.10779
9.492,0.12286
9.496,0.11752
9.5,0.11735
9.504,0.15093
9.508,0.16752
9.512,0.16229
9.516,0.15511
9.52,0.17423
9.524,0.17053
9.528,0.20903
9.532,0.20286
9.536,0.1532
9.54,0.19473
9.544,0.20444
9.548,0.17403
9.552,0.17338
9.556,0.12247
9.56,0.16523
9.564,0.14134
9.568,0.12094
9.572,0.12421
9.576,0.08841
9.58,0.08651
9.584,0.06899
9.588,0.08928
9.592,0.0605
9.596,0.03184
9.6,0.0635
9.604,0.03247
9.608,0.025
9.612,0.00446
9.616,0.02345
9.62,-0.00177
9.624,-0.0054
9.628,-0.02571
9.632,0.00526
9.636,0.0041
9.64,-0.05176
9.644,-0.00681
9.648,-0.05874
9.652,0.00135
9.656,-0.02591
9.66,-0.04019
9.664,-0.01201
9.668,-0.004
9.672,-0.04438
9.676,-0.00045
9.68,-0.0301
9.684,-0.03421
9.688,-0.03647
9.692,-0.04757
9.696,-0.04334
9.7,-0.03194
9.704,-0.0528
9.708,-0.03319
9.712,-0.02364
9.716,-0.01752
9.72,-0.01821
9.724,-0.01315
9.728,-0.02048
9.732,-0.00782
9.736,0.03797
9.74,0.02023
9.744,0.02223
9.748,0.03633
9.752,0.0797
9.756,0.04861
9.76,0.09045
9.764,0.05434
9.768,0.06708
9.772,0.03607
9.776,0.04444
9.78,0.02118
9.784,0.027
9.788,-0.00218
9.792,0.01498
9.796,0.01126
9.8,-0.01313
9.804,-0.02426
9.808,-0.02187
9.812,-0.01402
9.816,-0.04355
9.82,-0.02963
9.824,-0.00877
9.828,-0.0133
9.832,-0.02681
9.836,-0.00549
9.84,-0.03596
9.844,-0.03985
9.848,-0.03931
9.852,-0.0387
9.856,-0.01909
9.86,-0.03399
9.864,-0.05981
9.868,-0.0057
9.872,-0.01486
9.876,-0.05593
9.88,-0.10624
9.884,-0.10072
9.888,-0.15388
9.892,-0.11916
9.896,-0.04469
9.9,0.11544
9.904,0.29758
9.908,0.51881
9.912,0.70008
9.916,0.90644
9.92,0.97445
9.924,0.94657
9.928,0.78554
9.932,0.6323
9.936,0.37071
9.94,0.15305
9.944,-0.02921
9.948,-0.15497
9.952,-0.1758
9.956,-0.17588
9.96,-0.16268
9.964,-0.08893
9.968,-0.06911
9.972,-0.04893
9.976,-0.04053
9.98,0.00515
9.984,-0.01349
9.988,0.00032
9.992,-0.03054
9.996,-0.0407
