t_seg,ecg_mV
0.0,0.06645
0.004,0.06758
0.008,0.09106
0.012,0.11168
0.016,0.12809
0.02,0.11712
0.024,0.12765
0.028,0.13097
0.032,0.10319
0.036,0.13114
0.04,0.06885
0.044,0.05031
0.048,0.07697
0.052,0.0665
0.056,0.04863
0.06,0.01416
0.064,0.03936
0.068,0.02131
0.072,0.04299
0.076,0.03652
0.08,0.02831
0.084,0.0131
0.088,0.01599
0.092,0.00985
0.096,0.0278
0.1,0.05647
0.104,0.03616
0.108,0.03347
0.112,0.02328
0.116,0.01507
0.12,0.0591
0.124,0.02041
0.128,0.04206
0.132,0.03377
0.136,0.02226
0.14,-0.02706
0.144,-0.05537
0.148,-0.05362
0.152,-0.06813
0.156,-0.05936
0.16,0.08738
0.164,0.24714
0.168,0.4502
0.172,0.67009
0.176,0.86255
0.18,0.976
0.184,1.02462
0.188,0.93949
0.192,0.78693
0.196,0.57255
0.2,0.32772
0.204,0.13295
0.208,-0.01764
0.212,-0.10282
0.216,-0.15171
0.22,-0.12423
0.224,-0.08861
0.228,-0.05817
0.232,0.00027
0.236,0.00939
0.24,0.01297
0.244,0.01323
0.248,0.03071
0.252,0.0502
0.256,0.0193
0.26,0.03902
0.264,0.0028
0.268,-0.001
0.272,0.02454
0.276,0.05092
0.28,0.04332
0.284,0.0397
0.288,0.04127
0.292,0.02917
0.296,0.01702
0.3,0.04769
0.304,0.04491
0.308,0.0243
0.312,0.01588
0.316,0.02388
0.32,0.03375
0.324,0.03421
0.328,0.01791
0.332,0.03399
0.336,0.02984
0.34,0.02003
0.344,0.05315
0.348,0.02567
0.352,0.02503
0.356,0.03669
0.36,0.04193
0.364,0.05369
0.368,0.06547
0.372,0.03676
0.376,0.09127
0.38,0.06841
0.384,0.07714
0.388,0.05471
0.392,0.07791
0.396,0.09282
0.4,0.10796
0.404,0.09506
0.408,0.12738
0.412,0.14716
0.416,0.16848
0.42,0.17891
0.424,0.16905
0.428,0.17466
0.432,0.16146
0.436,0.22795
0.44,0.21692
0.444,0.21985
0.448,0.23771
0.452,0.22659
0.456,0.24161
0.46,0.25267
0.464,0.25426
0.468,0.24518
0.472,0.25214
0.476,0.23899
0.48,0.21678
0.484,0.21403
0.488,0.23392
0.492,0.23992
0.496,0.18093
0.5,0.1855
0.504,0.15209
0.508,0.16471
0.512,0.14818
0.516,0.12236
0.52,0.13289
0.524,0.12375
0.528,0.11453
0.532,0.10863
0.536,0.08867
0.54,0.056
0.544,0.07008
0.548,0.06452
0.552,0.05983
0.556,0.0414
0.56,0.0453
0.564,0.06935
0.568,0.04714
0.572,0.0424
0.576,0.0459
0.58,0.04132
0.584,0.02084
0.588,0.03733
0.592,0.03606
0.596,0.04758
0.6,0.02863
0.604,0.06647
0.608,0.04176
0.612,0.04949
0.616,0.05009
0.62,0.04233
0.624,0.02853
0.628,0.02698
0.632,0.03182
0.636,0.02268
0.64,-0.0046
0.644,0.05821
0.648,0.01761
0.652,0.05009
0.656,0.03014
0.66,0.0018
0.664,0.01251
0.668,0.01748
0.672,0.02062
0.676,0.03316
0.68,0.02202
0.684,0.03869
0.688,0.01346
0.692,0.01243
0.696,0.06187
0.7,0.05973
0.704,0.07943
0.708,0.10092
0.712,0.09742
0.716,0.09647
0.72,0.12083
0.724,0.08755
0.728,0.14087
0.732,0.14149
0.736,0.12336
0.74,0.10503
0.744,0.09245
0.748,0.12205
0.752,0.08886
0.756,0.08769
0.76,0.07632
0.764,0.05729
0.768,0.05041
0.772,0.04905
0.776,0.04739
0.78,0.04264
0.784,0.0421
0.788,0.02669
0.792,0.01459
0.796,0.06106
0.8,0.02589
0.804,0.02228
0.808,0.04075
0.812,0.04673
0.816,0.03179
0.82,0.02658
0.824,0.0529
0.828,0.02055
0.832,0.0199
0.836,0.03774
0.84,0.03406
0.844,-0.02292
0.848,-0.00636
0.852,-0.02699
0.856,-0.08141
0.86,-0.06722
0.864,-0.00908
0.868,0.10125
0.872,0.25024
0.876,0.47637
0.88,0.70314
0.884,0.87317
0.888,0.98792
0.892,1.0344
0.896,0.92639
0.9,0.7363
0.904,0.50728
0.908,0.3109
0.912,0.10155
0.916,-0.0468
0.92,-0.1248
0.924,-0.15749
0.928,-0.10255
0.932,-0.08723
0.936,-0.0426
0.94,-0.02213
0.944,-0.00681
0.948,0.03818
0.952,0.02291
0.956,0.0156
0.96,0.04715
0.964,0.02267
0.968,0.0397
0.972,0.03777
0.976,0.0215
0.98,0.02065
0.984,0.04756
0.988,0.02847
0.992,0.02224
0.996,0.03903
1.0,0.04076
1.004,0.03311
1.008,0.02065
1.012,0.03413
1.016,0.03608
1.02,0.03532
1.024,0.03964
1.028,0.03888
1.032,0.03933
1.036,0.01251
1.04,0.01906
1.044,0.06379
1.048,0.03348
1.052,0.03826
1.056,0.04511
1.06,0.02352
1.064,0.02472
1.068,0.03747
1.072,0.05474
1.076,0.06045
1.08,0.05576
1.084,0.08088
1.088,0.06278
1.092,0.08296
1.096,0.0885
1.1,0.09261
1.104,0.10085
1.108,0.10054
1.112,0.09482
1.116,0.12622
1.12,0.13549
1.124,0.16943
1.128,0.16639
1.132,0.18135
1.136,0.21038
1.14,0.19237
1.144,0.21834
1.148,0.20723
1.152,0.23059
1.156,0.20813
1.16,0.24282
1.164,0.24255
1.168,0.25793
1.172,0.25404
1.176,0.23466
1.18,0.23492
1.184,0.23589
1.188,0.24905
1.192,0.24981
1.196,0.21623
1.2,0.20376
1.204,0.15535
1.208,0.17798
1.212,0.20288
1.216,0.16798
1.22,0.14153
1.224,0.13805
1.228,0.15246
1.232,0.10383
1.236,0.10425
1.24,0.08701
1.244,0.06882
1.248,0.06763
1.252,0.07144
1.256,0.07092
1.26,0.06348
1.264,0.04423
1.268,0.05488
1.272,0.03611
1.276,0.05366
1.28,0.04123
1.284,0.02543
1.288,0.01011
1.292,0.01196
1.296,0.04216
1.3,0.0074
1.304,-0.00253
1.308,-0.00078
1.312,-0.00075
1.316,0.01845
1.32,0.00775
1.324,0.02529
1.328,0.00847
1.332,0.00539
1.336,0.03657
1.34,0.01165
1.344,0.01805
1.348,0.03642
1.352,-0.00163
1.356,0.01941
1.36,-0.00929
1.364,-0.00499
1.368,0.02084
1.372,0.02354
1.376,0.06095
1.38,0.02784
1.384,0.01969
1.388,0.02104
1.392,0.03193
1.396,0.03434
1.4,0.02776
1.404,0.03161
1.408,0.01714
1.412,0.03309
1.416,0.01537
1.42,0.01834
1.424,0.00915
1.428,0.05859
1.432,0.02137
1.436,0.01357
1.44,0.03496
1.444,0.0357
1.448,0.00304
1.452,0.02202
1.456,0.0342
1.46,0.02681
1.464,-0.00014
1.468,0.01306
1.472,0.02273
1.476,0.02794
1.48,0.01732
1.484,0.02464
1.488,0.04153
1.492,0.04281
1.496,0.04819
1.5,0.08531
1.504,0.07883
1.508,0.07868
1.512,0.0777
1.516,0.09149
1.52,0.09504
1.524,0.1253
1.528,0.12537
1.532,0.11502
1.536,0.07914
1.54,0.08843
1.544,0.10571
1.548,0.09882
1.552,0.05628
1.556,0.04918
1.56,0.03348
1.564,0.03075
1.568,0.05038
1.572,0.01506
1.576,0.03476
1.58,0.02259
1.584,0.01891
1.588,0.01735
1.592,0.02639
1.596,0.00489
1.6,0.00949
1.604,0.02108
1.608,0.03301
1.612,0.0215
1.616,0.01817
1.62,0.00496
1.624,0.01863
1.628,0.01294
1.632,0.02119
1.636,0.02634
1.64,-0.02533
1.644,-0.0459
1.648,-0.08983
1.652,-0.11127
1.656,-0.04178
1.66,0.07363
1.664,0.22036
1.668,0.42296
1.672,0.65761
1.676,0.82217
1.68,0.95671
1.684,1.00699
1.688,0.93629
1.692,0.78724
1.696,0.53652
1.7,0.30927
1.704,0.12466
1.708,-0.03011
1.712,-0.1157
1.716,-0.15274
1.72,-0.13359
1.724,-0.07581
1.728,-0.01647
1.732,-0.02484
1.736,-0.01641
1.74,0.00544
1.744,0.03513
1.748,0.05502
1.752,0.00867
1.756,0.02426
1.76,0.01794
1.764,0.02976
1.768,0.03029
1.772,-0.01418
1.776,0.00229
1.78,0.01848
1.784,0.02477
1.788,0.00183
1.792,0.01959
1.796,0.03751
1.8,0.0096
1.804,0.01248
1.808,-0.00528
1.812,0.00234
1.816,-0.00588
1.82,-0.00067
1.824,0.0018
1.828,0.00547
1.832,0.0248
1.836,0.02835
1.84,0.02969
1.844,0.02758
1.848,0.03369
1.852,0.01821
1.856,0.02173
1.86,0.03856
1.864,0.03687
1.868,0.04158
1.872,0.02272
1.876,0.03982
1.88,0.05365
1.884,0.06121
1.888,0.07331
1.892,0.08064
1.896,0.0934
1.9,0.11157
1.904,0.07906
1.908,0.12156
1.912,0.14558
1.916,0.15749
1.92,0.1503
1.924,0.15073
1.928,0.16514
1.932,0.15517
1.936,0.19985
1.94,0.21809
1.944,0.226
1.948,0.2041
1.952,0.25665
1.956,0.23573
1.96,0.2175
1.964,0.24538
1.968,0.21285
1.972,0.22119
1.976,0.22386
1.98,0.22192
1.984,0.20439
1.988,0.17309
1.992,0.20441
1.996,0.17878
2.0,0.13753
2.004,0.15152
2.008,0.13623
2.012,0.13169
2.016,0.10909
2.02,0.10418
2.024,0.08658
2.028,0.08329
2.032,0.05891
2.036,0.06938
2.04,0.03559
2.044,0.03387
2.048,0.0815
2.052,0.0533
2.056,0.03521
2.06,0.02844
2.064,0.00325
2.068,0.02169
2.072,0.003
2.076,0.02527
2.08,0.02403
2.084,0.0152
2.088,0.03697
2.092,0.04035
2.096,0.04189
2.1,-0.02478
2.104,0.00894
2.108,0.01815
2.112,0.00189
2.116,0.03641
2.12,0.00018
2.124,-0.00234
2.128,0.0201
2.132,-0.03314
2.136,0.00934
2.14,0.00089
2.144,-0.00156
2.148,-0.00554
2.152,-0.00498
2.156,-0.0021
2.16,-0.00418
2.164,0.00595
2.168,0.01191
2.172,0.01741
2.176,0.00634
2.18,0.00506
2.184,-0.00557
2.188,0.01874
2.192,0.02041
2.196,-0.03197
2.2,-0.00156
2.204,0.01961
2.208,0.04013
2.212,0.0013
2.216,-0.02012
2.22,-0.00584
2.224,0.01401
2.228,0.00391
2.232,0.01923
2.236,-0.01231
2.24,-0.00198
2.244,0.01614
2.248,-0.02575
2.252,0.0083
2.256,0.00905
2.26,0.01087
2.264,0.00945
2.268,-0.0105
2.272,-0.01308
2.276,0.01146
2.28,0.00748
2.284,0.00895
2.288,0.01891
2.292,0.00615
2.296,0.02739
2.3,0.02373
2.304,0.00114
2.308,-0.00861
2.312,0.0034
2.316,-0.01636
2.32,-0.01171
2.324,0.00618
2.328,-0.00152
2.332,-0.00028
2.336,-0.00224
2.34,0.01988
2.344,0.00841
2.348,0.02202
2.352,-0.01787
2.356,-0.02211
2.36,0.01017
2.364,0.00577
2.368,0.01091
2.372,0.00798
2.376,0.03011
2.38,0.01932
2.384,0.02981
2.388,0.06364
2.392,0.0726
2.396,0.06111
2.4,0.04861
2.404,0.09831
2.408,0.0916
2.412,0.1276
2.416,0.11961
2.42,0.08927
2.424,0.10417
2.428,0.06363
2.432,0.0506
2.436,0.06823
2.44,0.0399
2.444,0.0131
2.448,0.02474
2.452,0.00814
2.456,0.02326
2.46,-0.00054
2.464,0.01101
2.468,-0.00855
2.472,0.00427
2.476,-0.01515
2.48,0.00411
2.484,-0.02667
2.488,-0.01513
2.492,0.00535
2.496,0.00519
2.5,-0.00345
2.504,-0.01323
2.508,-0.01891
2.512,-0.01856
2.516,-0.00857
2.52,0.01746
2.524,-0.00548
2.528,-0.04269
2.532,-0.04478
2.536,-0.09555
2.54,-0.14164
2.544,-0.15408
2.548,-0.01909
2.552,0.05136
2.556,0.25505
2.56,0.45988
2.564,0.70263
2.568,0.88812
2.572,0.96782
2.576,0.97652
2.58,0.89199
2.584,0.69292
2.588,0.46278
2.592,0.20298
2.596,0.02583
2.6,-0.06187
2.604,-0.14313
2.608,-0.16846
2.612,-0.13927
2.616,-0.11268
2.62,-0.05055
2.624,-0.03877
2.628,-0.01536
2.632,0.00161
2.636,0.01498
2.64,-0.01645
2.644,0.00391
2.648,0.02635
2.652,-0.00497
2.656,-0.05097
2.66,-0.01983
2.664,-0.01062
2.668,-0.01179
2.672,0.00011
2.676,-0.02783
2.68,-0.01865
2.684,-0.04177
2.688,-0.01468
2.692,0.00547
2.696,-0.03033
2.7,-0.0041
2.704,-0.00849
2.708,0.0128
2.712,-0.00523
2.716,0.01595
2.72,-0.0002
2.724,0.01788
2.728,0.00703
2.732,0.00239
2.736,-0.0196
2.74,0.02841
2.744,0.01521
2.748,-0.01514
2.752,0.01214
2.756,0.0295
2.76,-0.0084
2.764,0.02243
2.768,0.01918
2.772,0.0532
2.776,0.0143
2.78,0.05798
2.784,0.046
2.788,0.0751
2.792,0.04466
2.796,0.08746
2.8,0.10546
2.804,0.08852
2.808,0.13027
2.812,0.14301
2.816,0.18333
2.82,0.14134
2.824,0.17057
2.828,0.16545
2.832,0.17907
2.836,0.17164
2.84,0.17931
2.844,0.20456
2.848,0.20113
2.852,0.20768
2.856,0.20681
2.86,0.222
2.864,0.23559
2.868,0.19861
2.872,0.20329
2.876,0.20103
2.88,0.16601
2.884,0.14335
2.888,0.14696
2.892,0.1449
2.896,0.11391
2.9,0.12499
2.904,0.11805
2.908,0.0777
2.912,0.07195
2.916,0.07255
2.92,0.03703
2.924,0.05704
2.928,0.04423
2.932,0.0299
2.936,0.0111
2.94,-0.00444
2.944,0.03096
2.948,-0.004
2.952,-0.01068
2.956,0.02752
2.96,0.00274
2.964,0.00387
2.968,-0.01311
2.972,0.00095
2.976,-0.00385
2.98,0.01207
2.984,-0.00554
2.988,-0.01049
2.992,-0.00381
2.996,-0.05758
3.0,-0.01541
3.004,-0.03273
3.008,-0.01008
3.012,-0.02392
3.016,-0.01684
3.02,-0.01149
3.024,-0.03252
3.028,-0.00316
3.032,-0.02043
3.036,0.00458
3.04,-0.02206
3.044,-0.05078
3.048,-0.01081
3.052,-0.0104
3.056,-0.01427
3.06,-0.00449
3.064,-0.00647
3.068,0.00085
3.072,-0.00797
3.076,0.00864
3.08,0.00765
3.084,0.00627
3.088,0.01887
3.092,0.01338
3.096,0.07003
3.1,0.07162
3.104,0.06145
3.108,0.03861
3.112,0.1005
3.116,0.07916
3.12,0.07216
3.124,0.08688
3.128,0.02992
3.132,0.04767
3.136,0.03099
3.14,0.03588
3.144,0.00615
3.148,0.03368
3.152,-0.00735
3.156,0.01124
3.16,-0.03242
3.164,-0.00303
3.168,-0.02234
3.172,-0.01949
3.176,-0.00056
3.18,-0.00146
3.184,-0.01251
3.188,-0.00684
3.192,-0.03811
3.196,-0.003
3.2,-0.03663
3.204,-0.03478
3.208,-0.03589
3.212,-0.01853
3.216,0.00403
3.22,-0.03431
3.224,-0.03379
3.228,-0.06362
3.232,-0.07962
3.236,-0.13817
3.24,-0.16413
3.244,-0.126
3.248,-0.01936
3.252,0.19036
3.256,0.33271
3.26,0.59133
3.264,0.78329
3.268,0.9177
3.272,0.96535
3.276,0.89574
3.28,0.76087
3.284,0.55678
3.288,0.33481
3.292,0.10518
3.296,-0.06339
3.3,-0.18751
3.304,-0.2034
3.308,-0.14082
3.312,-0.12469
3.316,-0.11448
3.32,-0.05811
3.324,-0.05147
3.328,-0.02561
3.332,-0.01665
3.336,-0.05975
3.34,-0.02757
3.344,-0.03112
3.348,-0.00486
3.352,-0.03356
3.356,-0.02112
3.36,-0.0287
3.364,-0.02183
3.368,-0.02549
3.372,-0.06253
3.376,-0.02004
3.38,-0.03612
3.384,-0.02654
3.388,-0.03746
3.392,-0.05778
3.396,-0.0649
3.4,-0.01315
3.404,-0.00954
3.408,0.00182
3.412,-0.00452
3.416,-0.00244
3.42,-0.00311
3.424,-0.0607
3.428,0.00667
3.432,-0.03798
3.436,-0.02985
3.44,-0.0205
3.444,0.00628
3.448,-0.02981
3.452,0.0101
3.456,-0.01507
3.46,0.00833
3.464,0.01373
3.468,-0.01194
3.472,0.02934
3.476,0.05081
3.48,0.02832
3.484,0.02957
3.488,0.05073
3.492,0.07516
3.496,0.03087
3.5,0.085
3.504,0.10565
3.508,0.11439
3.512,0.12063
3.516,0.14811
3.52,0.14988
3.524,0.16371
3.528,0.1596
3.532,0.19095
3.536,0.18638
3.54,0.18397
3.544,0.21691
3.548,0.18305
3.552,0.18577
3.556,0.20048
3.56,0.17027
3.564,0.20099
3.568,0.16711
3.572,0.18795
3.576,0.15747
3.58,0.12961
3.584,0.15158
3.588,0.11802
3.592,0.1149
3.596,0.1326
3.6,0.07497
3.604,0.09031
3.608,0.07417
3.612,0.06943
3.616,0.00714
3.62,0.05195
3.624,0.02406
3.628,0.01941
3.632,0.00694
3.636,0.01172
3.64,-0.0152
3.644,-0.0072
3.648,-0.01621
3.652,0.00843
3.656,-0.01861
3.66,-0.02609
3.664,-0.02405
3.668,-0.01836
3.672,0.00883
3.676,-0.02312
3.68,-0.02775
3.684,0.00305
3.688,-0.00884
3.692,-0.02341
3.696,0.00434
3.7,0.00273
3.704,0.01737
3.708,0.03601
3.712,0.05407
3.716,0.08458
3.72,0.06688
3.724,0.05968
3.728,0.06104
3.732,0.06698
3.736,0.05153
3.74,0.06728
3.744,0.05537
3.748,0.04629
3.752,0.02257
3.756,0.02804
3.76,0.01323
3.764,0.00491
3.768,-0.02724
3.772,-0.02682
3.776,-0.00795
3.78,-0.03654
3.784,0.0075
3.788,-0.02288
3.792,-0.02276
3.796,-0.00604
3.8,-0.04434
3.804,-0.0117
3.808,-0.02251
3.812,-0.02336
3.816,-0.03497
3.82,-0.03091
3.824,-0.04988
3.828,-0.03989
3.832,-0.02899
3.836,-0.01249
3.84,-0.03832
3.844,-0.06453
3.848,-0.08254
3.852,-0.13399
3.856,-0.17698
3.86,-0.12255
3.864,-0.00437
3.868,0.16226
3.872,0.32677
3.876,0.55892
3.88,0.76112
3.884,0.90084
3.888,0.96018
3.892,0.91893
3.896,0.73905
3.9,0.5514
3.904,0.3501
3.908,0.07439
3.912,-0.04279
3.916,-0.13003
3.92,-0.18376
3.924,-0.16503
3.928,-0.18465
3.932,-0.14215
3.936,-0.05987
3.94,-0.06343
3.944,-0.03773
3.948,-0.02492
3.952,-0.03512
3.956,-0.01677
3.96,-0.01122
3.964,-0.04188
3.968,-0.01841
3.972,-0.04317
3.976,-0.02441
3.98,-0.01028
3.984,-0.01903
3.988,-0.0358
3.992,-0.0349
3.996,-0.02737
4.0,-0.03701
4.004,-0.02437
4.008,-0.05957
4.012,-0.02065
4.016,-0.02194
4.02,-0.0314
4.024,-0.04384
4.028,-0.02756
4.032,-0.03918
4.036,-0.03187
4.04,-0.03638
4.044,-0.02517
4.048,-0.01554
4.052,-0.03049
4.056,2e-05
4.06,0.00536
4.064,-0.06235
4.068,-0.00858
4.072,-0.01031
4.076,-0.00122
4.08,-0.01923
4.084,-0.02239
4.088,0.01825
4.092,0.02509
4.096,0.02153
4.1,0.05203
4.104,0.03036
4.108,0.05178
4.112,0.04797
4.116,0.0775
4.12,0.09369
4.124,0.11246
4.128,0.11711
4.132,0.1239
4.136,0.13571
4.14,0.13531
4.144,0.15804
4.148,0.16538
4.152,0.18852
4.156,0.18642
4.16,0.19526
4.164,0.18465
4.168,0.21034
4.172,0.18552
4.176,0.1828
4.18,0.16982
4.184,0.17167
4.188,0.17508
4.192,0.14932
4.196,0.12525
4.2,0.13465
4.204,0.1542
4.208,0.10858
4.212,0.09671
4.216,0.07589
4.22,0.05795
4.224,0.0754
4.228,0.03598
4.232,0.07699
4.236,0.03747
4.24,0.04734
4.244,0.02614
4.248,0.03279
4.252,-0.00856
4.256,0.01128
4.26,0.00448
4.264,0.00192
4.268,0.01309
4.272,-0.03038
4.276,-0.01236
4.28,-0.01885
4.284,-0.00943
4.288,-0.01931
4.292,-0.02101
4.296,-0.01235
4.3,-0.01637
4.304,-0.03786
4.308,-0.0147
4.312,0.00415
4.316,-0.06289
4.32,-0.01979
4.324,-0.03378
4.328,-0.0282
4.332,-0.03199
4.336,-0.0374
4.34,-0.01591
4.344,-0.01505
4.348,0.00579
4.352,-0.00848
4.356,-0.02897
4.36,-0.033
4.364,-0.02422
4.368,-0.01432
4.372,-0.01398
4.376,-0.01508
4.38,-0.04542
4.384,-0.02261
4.388,-0.02265
4.392,-0.0387
4.396,-0.02233
4.4,-0.02917
4.404,-0.0234
4.408,-0.05458
4.412,-0.04357
4.416,-0.0121
4.42,-0.0158
4.424,-0.0182
4.428,-0.0167
4.432,-0.0675
4.436,-0.02942
4.44,-0.0272
4.444,-0.03247
4.448,-0.0234
4.452,-0.02558
4.456,-0.00501
4.46,-0.00979
4.464,0.03106
4.468,0.03487
4.472,0.03725
4.476,0.0166
4.48,0.0507
4.484,0.01532
4.488,0.06577
4.492,0.0568
4.496,0.0586
4.5,0.07748
4.504,0.0307
4.508,0.06096
4.512,0.03295
4.516,0.03865
4.52,0.03156
4.524,0.0105
4.528,0.00711
4.532,0.01176
4.536,-0.03362
4.54,-0.04226
4.544,0.00516
4.548,-0.02136
4.552,-0.03995
4.556,-0.04358
4.56,-0.03109
4.564,-0.03974
4.568,-0.02412
4.572,-0.00112
4.576,-0.03681
4.58,-0.05032
4.584,-0.03499
4.588,-0.00804
4.592,-0.02759
4.596,-0.03087
4.6,-0.0307
4.604,-0.04317
4.608,-0.00798
4.612,-0.06193
4.616,-0.08648
4.62,-0.1375
4.624,-0.14441
4.628,-0.11908
4.632,0.0075
4.636,0.12997
4.64,0.34326
4.644,0.54882
4.648,0.7531
4.652,0.90135
4.656,0.96748
4.66,0.92635
4.664,0.76254
4.668,0.54555
4.672,0.30486
4.676,0.09956
4.68,-0.0509
4.684,-0.16397
4.688,-0.18858
4.692,-0.18778
4.696,-0.14685
4.7,-0.10969
4.704,-0.06657
4.708,-0.01836
4.712,-0.0334
4.716,-0.02408
4.72,-0.02541
4.724,-0.01934
4.728,-0.00633
4.732,-0.00455
4.736,-0.02124
4.74,-0.01698
4.744,-0.00911
4.748,-0.03526
4.752,-0.03848
4.756,-0.02874
4.76,-0.04249
4.764,-0.02868
4.768,-0.01778
4.772,-0.02242
4.776,-0.04488
4.78,-0.00165
4.784,0.00389
4.788,-0.01202
4.792,-0.01739
4.796,-0.02176
4.8,-0.02281
4.804,-0.02181
4.808,-0.0103
4.812,-0.03174
4.816,-0.00701
4.82,0.01565
4.824,-0.01054
4.828,-0.01624
4.832,-0.0196
4.836,-0.02634
4.84,0.00583
4.844,-0.00795
4.848,0.00717
4.852,0.02683
4.856,0.02083
4.86,0.02243
4.864,0.02806
4.868,0.03648
4.872,0.0393
4.876,0.0721
4.88,0.08002
4.884,0.09278
4.888,0.12657
4.892,0.09854
4.896,0.16118
4.9,0.13232
4.904,0.17337
4.908,0.14567
4.912,0.16477
4.916,0.17279
4.92,0.20885
4.924,0.18641
4.928,0.19247
4.932,0.19461
4.936,0.20911
4.94,0.1968
4.944,0.21328
4.948,0.19885
4.952,0.17236
4.956,0.18259
4.96,0.18778
4.964,0.1567
4.968,0.13646
4.972,0.1379
4.976,0.13901
4.98,0.12389
4.984,0.11425
4.988,0.1051
4.992,0.06966
4.996,0.05803
5.0,0.05519
5.004,0.03868
5.008,0.04177
5.012,0.03374
5.016,0.02751
5.02,0.00818
5.024,0.03168
5.028,-0.00935
5.032,-0.01382
5.036,-0.02098
5.04,-0.00968
5.044,0.01537
5.048,-0.00663
5.052,-0.02409
5.056,0.00033
5.06,0.00912
5.064,-0.0228
5.068,-0.00878
5.072,0.00791
5.076,-0.0145
5.08,0.00045
5.084,0.00143
5.088,-0.00732
5.092,-0.02685
5.096,-0.01599
5.1,-0.01126
5.104,0.00271
5.108,0.00167
5.112,-0.04273
5.116,-0.04144
5.12,-0.00426
5.124,-0.01391
5.128,0.00166
5.132,-0.00549
5.136,-0.02348
5.14,-0.00193
5.144,-0.01589
5.148,-0.00168
5.152,0.00309
5.156,0.00447
5.16,-0.04514
5.164,-0.00537
5.168,-0.0314
5.172,-0.01104
5.176,0.01483
5.18,0.01035
5.184,-0.02074
5.188,-0.00586
5.192,0.00271
5.196,-0.00183
5.2,0.01436
5.204,-0.02072
5.208,0.02632
5.212,-0.01422
5.216,-0.01082
5.22,-0.01549
5.224,-0.02287
5.228,0.00386
5.232,0.01291
5.236,-0.00806
5.24,-0.02274
5.244,-0.01132
5.248,-0.02501
5.252,0.03648
5.256,0.0046
5.26,0.00297
5.264,0.05303
5.268,0.05616
5.272,0.06981
5.276,0.10068
5.28,0.08798
5.284,0.08167
5.288,0.07371
5.292,0.09464
5.296,0.0514
5.3,0.09139
5.304,0.05539
5.308,0.02818
5.312,0.03565
5.316,0.03924
5.32,0.01811
5.324,0.00366
5.328,-0.00307
5.332,0.01023
5.336,-0.00968
5.34,-0.02949
5.344,-0.00167
5.348,0.0048
5.352,0.00409
5.356,-0.01404
5.36,-0.02269
5.364,-0.03368
5.368,-0.01412
5.372,0.00802
5.376,-0.02092
5.38,-0.00715
5.384,0.00471
5.388,-0.00065
5.392,-0.02217
5.396,-0.01013
5.4,-0.03834
5.404,-0.0474
5.408,-0.07682
5.412,-0.12794
5.416,-0.1176
5.42,-0.05181
5.424,0.07469
5.428,0.25712
5.432,0.45802
5.436,0.69552
5.44,0.86512
5.444,0.99123
5.448,0.97165
5.452,0.85493
5.456,0.67084
5.46,0.43681
5.464,0.23767
5.468,0.02845
5.472,-0.0769
5.476,-0.1499
5.48,-0.1628
5.484,-0.15913
5.488,-0.09403
5.492,-0.04774
5.496,-0.04979
5.5,-0.02312
5.504,-0.00098
5.508,0.00041
5.512,-0.01692
5.516,-0.02965
5.52,-0.03951
5.524,-0.02288
5.528,0.002
5.532,-0.01064
5.536,-0.00547
5.54,-0.03242
5.544,0.001
5.548,0.0292
5.552,-0.01202
5.556,-0.00144
5.56,0.00291
5.564,-0.01339
5.568,0.0168
5.572,-0.01953
5.576,0.00409
5.58,-0.00411
5.584,-0.00789
5.588,-0.00809
5.592,0.00949
5.596,0.01069
5.6,-0.00644
5.604,0.03267
5.608,0.01133
5.612,-0.00548
5.616,0.01769
5.62,0.00393
5.624,0.00404
5.628,0.00538
5.632,0.03447
5.636,0.02592
5.64,0.05939
5.644,0.04071
5.648,0.04846
5.652,0.04331
5.656,0.07125
5.66,0.08195
5.664,0.08331
5.668,0.09854
5.672,0.13203
5.676,0.09979
5.68,0.11155
5.684,0.14333
5.688,0.12947
5.692,0.15654
5.696,0.17937
5.7,0.18314
5.704,0.20335
5.708,0.18217
5.712,0.21831
5.716,0.21656
5.72,0.22556
5.724,0.19953
5.728,0.22255
5.732,0.21286
5.736,0.18759
5.74,0.21162
5.744,0.20939
5.748,0.21028
5.752,0.17567
5.756,0.17291
5.76,0.1712
5.764,0.15076
5.768,0.12721
5.772,0.12597
5.776,0.10139
5.78,0.11621
5.784,0.10662
5.788,0.11586
5.792,0.06929
5.796,0.05433
5.8,0.044
5.804,0.02641
5.808,0.05964
5.812,0.04803
5.816,0.02296
5.82,0.05126
5.824,0.04139
5.828,0.01591
5.832,0.03222
5.836,0.01041
5.84,0.02751
5.844,0.0051
5.848,0.00567
5.852,0.02785
5.856,0.02483
5.86,0.01247
5.864,0.014
5.868,0.02562
5.872,0.00174
5.876,0.0378
5.88,0.03953
5.884,0.04326
5.888,0.02139
5.892,0.04706
5.896,0.05528
5.9,0.07829
5.904,0.08321
5.908,0.08092
5.912,0.10787
5.916,0.1084
5.92,0.10178
5.924,0.0963
5.928,0.0981
5.932,0.09422
5.936,0.06602
5.94,0.09206
5.944,0.03938
5.948,0.01376
5.952,0.01222
5.956,0.04075
5.96,0.0157
5.964,0.01645
5.968,0.03476
5.972,-0.00362
5.976,-0.01589
5.98,0.02187
5.984,-0.0016
5.988,-0.01412
5.992,0.01798
5.996,0.04994
6.0,-0.01364
6.004,0.02205
6.008,-0.00385
6.012,0.02806
6.016,0.00148
6.02,-0.00557
6.024,0.00466
6.028,-0.01347
6.032,-0.03791
6.036,-0.0627
6.04,-0.08085
6.044,-0.10109
6.048,-0.04813
6.052,0.04259
6.056,0.16863
6.06,0.38556
6.064,0.62345
6.068,0.80213
6.072,0.97199
6.076,0.98598
6.08,0.9344
6.084,0.78803
6.088,0.58627
6.092,0.33204
6.096,0.10125
6.1,-0.00431
6.104,-0.11629
6.108,-0.16076
6.112,-0.12492
6.116,-0.10075
6.12,-0.03918
6.124,-0.02425
6.128,0.00459
6.132,-0.01675
6.136,0.01447
6.14,0.00777
6.144,0.00122
6.148,0.00023
6.152,-0.01379
6.156,0.01271
6.16,0.02611
6.164,0.00869
6.168,-0.00725
6.172,0.00846
6.176,0.00801
6.18,0.01989
6.184,-0.00861
6.188,-0.00265
6.192,-0.01175
6.196,0.0079
6.2,-0.00453
6.204,-0.02817
6.208,0.01658
6.212,-0.01257
6.216,8e-05
6.22,0.04804
6.224,0.01999
6.228,0.00555
6.232,0.02155
6.236,-0.00186
6.24,0.00711
6.244,0.02054
6.248,0.03899
6.252,0.01232
6.256,0.02077
6.26,0.02416
6.264,0.05937
6.268,0.05796
6.272,0.04549
6.276,0.07961
6.28,0.06142
6.284,0.07931
6.288,0.06254
6.292,0.09941
6.296,0.12026
6.3,0.09801
6.304,0.1346
6.308,0.15936
6.312,0.14138
6.316,0.16336
6.32,0.16417
6.324,0.20029
6.328,0.20122
6.332,0.21836
6.336,0.20785
6.34,0.20518
6.344,0.22552
6.348,0.22037
6.352,0.20629
6.356,0.25994
6.36,0.27336
6.364,0.2441
6.368,0.25505
6.372,0.23933
6.376,0.21468
6.38,0.21584
6.384,0.18733
6.388,0.18816
6.392,0.17139
6.396,0.16707
6.4,0.16188
6.404,0.15005
6.408,0.14262
6.412,0.11098
6.416,0.10675
6.42,0.11645
6.424,0.07723
6.428,0.1114
6.432,0.0535
6.436,0.07934
6.44,0.07283
6.444,0.06011
6.448,0.05305
6.452,0.0406
6.456,0.04867
6.46,0.02971
6.464,0.02882
6.468,0.02426
6.472,0.03293
6.476,0.01579
6.48,0.01883
6.484,0.01273
6.488,0.03994
6.492,0.0378
6.496,0.00516
6.5,0.02661
6.504,0.01635
6.508,-0.01209
6.512,0.02459
6.516,0.01527
6.52,0.01922
6.524,0.02464
6.528,0.02161
6.532,0.03604
6.536,0.03076
6.54,0.00376
6.544,0.00265
6.548,0.02367
6.552,0.04843
6.556,0.0178
6.56,0.02897
6.564,0.02082
6.568,0.03132
6.572,0.04007
6.576,0.02959
6.58,0.00674
6.584,0.04183
6.588,0.01017
6.592,0.04508
6.596,0.02736
6.6,0.02483
6.604,0.04671
6.608,0.0307
6.612,0.01986
6.616,0.05116
6.62,0.01711
6.624,0.03812
6.628,0.03342
6.632,0.01884
6.636,0.01065
6.64,0.03564
6.644,0.0361
6.648,0.01114
6.652,0.02949
6.656,0.05253
6.66,-0.00051
6.664,-0.00139
6.668,0.03932
6.672,-0.00664
6.676,0.02968
6.68,0.01004
6.684,0.01888
6.688,0.02045
6.692,0.03744
6.696,0.02597
6.7,0.00661
6.704,0.04151
6.708,0.00587
6.712,0.02229
6.716,0.03029
6.72,0.05145
6.724,0.06829
6.728,0.07806
6.732,0.10336
6.736,0.11295
6.74,0.10642
6.744,0.13663
6.748,0.14546
6.752,0.12052
6.756,0.12962
6.76,0.13129
6.764,0.1014
6.768,0.08243
6.772,0.06289
6.776,0.05602
6.78,0.0672
6.784,0.01113
6.788,0.04924
6.792,0.04728
6.796,0.03798
6.8,0.04917
6.804,0.00635
6.808,-0.02759
6.812,-0.00339
6.816,0.04483
6.82,0.04957
6.824,0.01198
6.828,0.02402
6.832,0.01408
6.836,0.02221
6.84,0.01745
6.844,0.02174
6.848,0.03063
6.852,0.01869
6.856,0.04529
6.86,0.02207
6.864,0.01027
6.868,-0.02898
6.872,-0.05749
6.876,-0.09783
6.88,-0.05791
6.884,-0.00555
6.888,0.15429
6.892,0.35381
6.896,0.56276
6.9,0.77403
6.904,0.93006
6.908,1.01515
6.912,1.01457
6.916,0.85017
6.92,0.6695
6.924,0.43965
6.928,0.22867
6.932,0.01643
6.936,-0.07969
6.94,-0.11912
6.944,-0.15004
6.948,-0.07515
6.952,-0.06777
6.956,-0.0002
6.96,-0.00343
6.964,0.03095
6.968,0.02581
6.972,0.03844
6.976,0.03744
6.98,0.04718
6.984,0.05708
6.988,0.04833
6.992,0.03423
6.996,0.03837
7.0,0.01583
7.004,0.02534
7.008,0.06793
7.012,0.03198
7.016,0.02601
7.02,0.04883
7.024,0.03853
7.028,0.02567
7.032,0.02433
7.036,0.01512
7.04,0.01989
7.044,0.00404
7.048,0.02424
7.052,0.04865
7.056,0.03001
7.06,0.06408
7.064,0.02477
7.068,0.04138
7.072,0.04505
7.076,0.03744
7.08,0.0466
7.084,0.03046
7.088,0.04301
7.092,0.0929
7.096,0.04682
7.1,0.0605
7.104,0.05062
7.108,0.07257
7.112,0.10266
7.116,0.11095
7.12,0.08092
7.124,0.08916
7.128,0.11889
7.132,0.10913
7.136,0.16056
7.14,0.13983
7.144,0.15961
7.148,0.1605
7.152,0.20974
7.156,0.20518
7.16,0.20871
7.164,0.16376
7.168,0.22219
7.172,0.20415
7.176,0.22931
7.18,0.25698
7.184,0.25833
7.188,0.26242
7.192,0.25033
7.196,0.24851
7.2,0.23206
7.204,0.24798
7.208,0.24173
7.212,0.228
7.216,0.22048
7.22,0.21757
7.224,0.18633
7.228,0.15144
7.232,0.18719
7.236,0.15035
7.24,0.1468
7.244,0.10713
7.248,0.12689
7.252,0.09238
7.256,0.10565
7.26,0.07858
7.264,0.09737
7.268,0.07655
7.272,0.08754
7.276,0.06579
7.28,0.04726
7.284,0.0773
7.288,0.04255
7.292,0.0674
7.296,0.05247
7.3,0.06304
7.304,0.03846
7.308,0.05361
7.312,0.01049
7.316,0.04784
7.32,0.0252
7.324,0.0545
7.328,0.04534
7.332,0.01448
7.336,0.00815
7.34,0.01933
7.344,0.04898
7.348,0.03887
7.352,0.01593
7.356,0.03847
7.36,0.04396
7.364,0.0002
7.368,0.03727
7.372,0.00543
7.376,0.00479
7.38,0.03095
7.384,0.0241
7.388,0.03901
7.392,0.03491
7.396,0.02984
7.4,0.03951
7.404,0.04242
7.408,0.05387
7.412,0.03504
7.416,0.03047
7.42,0.02198
7.424,0.03279
7.428,0.03582
7.432,0.02637
7.436,0.03337
7.44,0.03119
7.444,0.03685
7.448,0.03818
7.452,0.03728
7.456,0.01668
7.46,0.0339
7.464,0.03597
7.468,0.04222
7.472,0.02515
7.476,0.02654
7.48,0.0056
7.484,-0.00576
7.488,0.02278
7.492,0.02235
7.496,0.02947
7.5,0.04439
7.504,0.0467
7.508,0.03109
7.512,0.0215
7.516,0.04345
7.52,0.05789
7.524,0.04777
7.528,0.05074
7.532,0.04316
7.536,0.06599
7.54,0.08888
7.544,0.0798
7.548,0.08744
7.552,0.1011
7.556,0.11218
7.56,0.12895
7.564,0.12267
7.568,0.12594
7.572,0.13564
7.576,0.10452
7.58,0.11456
7.584,0.08952
7.588,0.06338
7.592,0.07118
7.596,0.065
7.6,0.03111
7.604,0.04492
7.608,0.04888
7.612,0.05007
7.616,0.02116
7.62,0.0176
7.624,-0.00993
7.628,0.05161
7.632,0.05415
7.636,0.03259
7.64,0.01979
7.644,0.02797
7.648,0.03243
7.652,0.05002
7.656,0.06262
7.66,0.01554
7.664,0.03867
7.668,0.00579
7.672,0.03189
7.676,-0.00388
7.68,0.00996
7.684,-0.00549
7.688,-0.07961
7.692,-0.09177
7.696,-0.07687
7.7,0.00989
7.704,0.1713
7.708,0.34869
7.712,0.58287
7.716,0.7501
7.72,0.92084
7.724,1.01116
7.728,1.00465
7.732,0.87679
7.736,0.64218
7.74,0.42619
7.744,0.22964
7.748,0.05779
7.752,-0.07685
7.756,-0.13923
7.76,-0.11681
7.764,-0.09498
7.768,-0.05595
7.772,-0.01341
7.776,0.0036
7.78,0.0218
7.784,0.01971
7.788,0.04989
7.792,0.05981
7.796,-0.01084
7.8,0.00394
7.804,0.02943
7.808,0.03808
7.812,0.03172
7.816,0.00717
7.82,0.02466
7.824,0.04862
7.828,0.03704
7.832,0.03519
7.836,0.0456
7.84,0.0357
7.844,0.03527
7.848,0.04511
7.852,0.03767
7.856,0.05364
7.86,0.02102
7.864,0.01339
7.868,0.00476
7.872,0.0178
7.876,0.03497
7.88,0.03702
7.884,0.01764
7.888,0.04977
7.892,0.04411
7.896,0.01859
7.9,0.02399
7.904,0.0609
7.908,0.05114
7.912,0.07094
7.916,0.04613
7.92,0.05898
7.924,0.08534
7.928,0.05677
7.932,0.06659
7.936,0.10387
7.94,0.10267
7.944,0.12344
7.948,0.10244
7.952,0.15344
7.956,0.14363
7.96,0.14997
7.964,0.17012
7.968,0.18244
7.972,0.19921
7.976,0.20528
7.98,0.19529
7.984,0.21006
7.988,0.24292
7.992,0.23531
7.996,0.24477
8.0,0.2411
8.004,0.25123
8.008,0.22371
8.012,0.23249
8.016,0.22228
8.02,0.25651
8.024,0.2205
8.028,0.20664
8.032,0.2074
8.036,0.19741
8.04,0.17276
8.044,0.18177
8.048,0.15657
8.052,0.14565
8.056,0.12405
8.06,0.11583
8.064,0.1337
8.068,0.1033
8.072,0.08463
8.076,0.06356
8.08,0.09365
8.084,0.09134
8.088,0.08114
8.092,0.06769
8.096,0.04276
8.1,0.0433
8.104,0.02382
8.108,0.03797
8.112,0.0185
8.116,0.04587
8.12,0.02057
8.124,0.03517
8.128,0.01901
8.132,0.04994
8.136,0.03854
8.14,0.02511
8.144,0.01089
8.148,0.00877
8.152,0.03566
8.156,0.02175
8.16,0.02609
8.164,0.01971
8.168,0.02575
8.172,0.04414
8.176,0.02188
8.18,-0.0095
8.184,0.01435
8.188,0.01356
8.192,0.02257
8.196,0.01831
8.2,0.00147
8.204,0.02074
8.208,0.05267
8.212,0.03205
8.216,0.01509
8.22,0.01435
8.224,0.05237
8.228,-0.00882
8.232,0.01587
8.236,0.03585
8.24,0.00887
8.244,0.01481
8.248,0.02746
8.252,0.03844
8.256,0.01358
8.26,0.02757
8.264,0.01926
8.268,0.01786
8.272,0.04315
8.276,0.02854
8.28,0.02139
8.284,0.02685
8.288,0.0501
8.292,0.02882
8.296,0.08723
8.3,0.08189
8.304,0.11725
8.308,0.12216
8.312,0.10756
8.316,0.12366
8.32,0.12366
8.324,0.1152
8.328,0.0833
8.332,0.10646
8.336,0.06692
8.34,0.08183
8.344,0.08063
8.348,0.03149
8.352,0.04722
8.356,0.02906
8.36,0.03786
8.364,0.04559
8.368,0.0321
8.372,0.01569
8.376,0.03124
8.38,0.01325
8.384,0.01959
8.388,0.04506
8.392,0.01611
8.396,0.01374
8.4,0.00958
8.404,0.0045
8.408,0.01089
8.412,0.02438
8.416,-0.02534
8.42,0.00887
8.424,0.01431
8.428,0.01619
8.432,-0.00177
8.436,-0.02527
8.44,-0.06553
8.444,-0.08895
8.448,-0.09959
8.452,-0.05584
8.456,0.08413
8.46,0.27369
8.464,0.4628
8.468,0.65494
8.472,0.8758
8.476,1.01791
8.48,0.99925
8.484,0.94181
8.488,0.74979
8.492,0.5131
8.496,0.28618
8.5,0.08107
8.504,-0.06388
8.508,-0.13403
8.512,-0.13857
8.516,-0.14347
8.52,-0.09319
8.524,-0.05927
8.528,-0.00538
8.532,0.01905
8.536,0.03217
8.54,-0.01586
8.544,-0.00158
8.548,0.03082
8.552,0.01496
8.556,-0.01415
8.56,-0.00577
8.564,0.00846
8.568,0.02547
8.572,0.01228
8.576,0.00245
8.58,-0.00417
8.584,0.00216
8.588,-0.0039
8.592,0.00401
8.596,0.0016
8.6,0.03521
8.604,-0.00339
8.608,0.00456
8.612,0.01888
8.616,0.00436
8.62,0.00277
8.624,-0.00158
8.628,0.02841
8.632,0.01826
8.636,0.00127
8.64,0.03317
8.644,0.01933
8.648,0.01955
8.652,0.02421
8.656,0.019
8.66,0.02057
8.664,0.03581
8.668,0.02144
8.672,0.02742
8.676,0.06083
8.68,0.08414
8.684,0.06576
8.688,0.06157
8.692,0.08301
8.696,0.09874
8.7,0.09596
8.704,0.12633
8.708,0.11788
8.712,0.12596
8.716,0.13391
8.72,0.16594
8.724,0.16657
8.728,0.19552
8.732,0.18443
8.736,0.21082
8.74,0.21559
8.744,0.20748
8.748,0.21627
8.752,0.23112
8.756,0.23512
8.76,0.22308
8.764,0.22346
8.768,0.19885
8.772,0.19708
8.776,0.20982
8.78,0.23627
8.784,0.19356
8.788,0.18987
8.792,0.18689
8.796,0.19163
8.8,0.14532
8.804,0.12508
8.808,0.12029
8.812,0.12571
8.816,0.09749
8.82,0.10269
8.824,0.09585
8.828,0.05819
8.832,0.06617
8.836,0.0346
8.84,0.03992
8.844,0.04302
8.848,0.03045
8.852,0.05177
8.856,0.007
8.86,0.01003
8.864,0.00218
8.868,0.03944
8.872,0.02406
8.876,0.01894
8.88,0.01849
8.884,0.00882
8.888,0.01719
8.892,0.02492
8.896,0.00092
8.9,0.03436
8.904,0.03853
8.908,0.0819
8.912,0.08165
8.916,0.09887
8.92,0.10655
8.924,0.10394
8.928,0.11984
8.932,0.10598
8.936,0.10588
8.94,0.08251
8.944,0.09332
8.948,0.05796
8.952,0.07226
8.956,0.04521
8.96,0.02478
8.964,0.04023
8.968,0.01201
8.972,0.02561
8.976,-0.01968
8.98,0.00456
8.984,0.03463
8.988,0.0071
8.992,0.00122
8.996,0.01573
9.0,-0.00183
9.004,-0.0286
9.008,-0.01666
9.012,0.00865
9.016,0.0144
9.02,0.01468
9.024,0.01202
9.028,0.00978
9.032,0.01332
9.036,-0.03249
9.04,-0.01275
9.044,-0.00691
9.048,-0.05115
9.052,-0.10422
9.056,-0.10971
9.06,-0.11913
9.064,-0.03038
9.068,0.10116
9.072,0.31626
9.076,0.49795
9.08,0.73144
9.084,0.87593
9.088,1.02664
9.092,0.96548
9.096,0.8555
9.1,0.65433
9.104,0.41449
9.108,0.21408
9.112,0.01484
9.116,-0.08586
9.12,-0.18867
9.124,-0.15406
9.128,-0.15957
9.132,-0.08801
9.136,-0.06115
9.14,-0.00555
9.144,-0.00982
9.148,-0.00048
9.152,0.01378
9.156,0.00294
9.16,-0.04011
9.164,-0.00444
9.168,-0.0078
9.172,0.0032
9.176,0.00559
9.18,-0.04287
9.184,0.00736
9.188,-0.00545
9.192,-0.00223
9.196,0.00144
9.2,0.00152
9.204,-0.01775
9.208,0.02233
9.212,-0.02824
9.216,-0.0285
9.22,-0.00618
9.224,0.0168
9.228,-0.01682
9.232,-0.0141
9.236,-0.01531
9.24,0.01598
9.244,-0.00745
9.248,0.01316
9.252,0.02083
9.256,-0.00187
9.26,-0.00161
9.264,0.01099
9.268,0.0153
9.272,0.01763
9.276,0.03041
9.28,0.01151
9.284,0.03686
9.288,0.06216
9.292,0.03537
9.296,0.04
9.3,0.05377
9.304,0.06478
9.308,0.06537
9.312,0.10207
9.316,0.09475
9.32,0.1153
9.324,0.12999
9.328,0.14522
9.332,0.11514
9.336,0.16023
9.34,0.17065
9.344,0.18548
9.348,0.1795
9.352,0.18818
9.356,0.22223
9.36,0.18445
9.364,0.2361
9.368,0.21607
9.372,0.21554
9.376,0.22835
9.38,0.21935
9.384,0.20622
9.388,0.1955
9.392,0.19394
9.396,0.17036
9.4,0.18814
9.404,0.18522
9.408,0.13531
9.412,0.13395
9.416,0.10486
9.42,0.1132
9.424,0.09688
9.428,0.05566
9.432,0.06739
9.436,0.0498
9.44,0.01042
9.444,0.04461
9.448,0.02295
9.452,0.03325
9.456,-0.00185
9.46,0.00903
9.464,0.01573
9.468,-0.00487
9.472,0.0317
9.476,0.01614
9.48,0.00546
9.484,0.00332
9.488,0.0091
9.492,-0.01752
9.496,-0.00708
9.5,-0.02448
9.504,-0.01204
9.508,0.0195
9.512,0.00109
9.516,-0.00071
9.52,-0.01108
9.524,-0.01233
9.528,0.00061
9.532,-0.04116
9.536,-0.01538
9.54,0.00807
9.544,-0.01955
9.548,-0.01945
9.552,-0.01907
9.556,-0.0033
9.56,-0.02284
9.564,-0.02563
9.568,-0.00138
9.572,-0.01234
9.576,0.00313
9.58,-0.00846
9.584,-0.03334
9.588,-0.01354
9.592,-0.01035
9.596,-0.00941
9.6,-0.03379
9.604,-0.04103
9.608,-0.00812
9.612,-0.0092
9.616,0.03599
9.62,0.01245
9.624,-0.00968
9.628,-0.01144
9.632,-0.00352
9.636,0.00175
9.64,-0.0205
9.644,-0.02091
9.648,-0.02268
9.652,0.00818
9.656,0.00259
9.66,-0.01722
9.664,0.02519
9.668,0.02208
9.672,0.02847
9.676,0.02759
9.68,0.03881
9.684,0.04886
9.688,0.05751
9.692,0.08573
9.696,0.05512
9.7,0.07953
9.704,0.07072
9.708,0.09057
9.712,0.08072
9.716,0.05372
9.72,0.03062
9.724,0.0205
9.728,0.03352
9.732,0.02403
9.736,0.01208
9.74,0.00302
9.744,-0.00164
9.748,-0.00214
9.752,0.01997
9.756,-0.00789
9.76,-0.02981
9.764,-0.00796
9.768,-0.01625
9.772,-0.01795
9.776,-0.01702
9.78,-0.02493
9.784,-0.02464
9.788,-0.02353
9.792,-0.02818
9.796,-0.02933
9.8,-0.00381
9.804,-0.00517
9.808,-0.03556
9.812,-0.04205
9.816,-0.0233
9.82,-0.05695
9.824,-0.12086
9.828,-0.13127
9.832,-0.13287
9.836,-0.03674
9.84,0.14847
9.844,0.32656
9.848,0.54613
9.852,0.74404
9.856,0.88008
9.86,0.9853
9.864,0.95679
9.868,0.7914
9.872,0.60976
9.876,0.34875
9.88,0.1458
9.884,-0.02254
9.888,-0.11711
9.892,-0.19957
9.896,-0.19569
9.9,-0.14035
9.904,-0.09419
9.908,-0.06504
9.912,-0.05461
9.916,-0.02916
9.92,-0.02083
9.924,-0.02417
9.928,-0.04182
9.932,-0.01688
9.936,-0.02804
9.94,-0.0397
9.944,-0.01576
9.948,-0.01785
9.952,-0.0255
9.956,-0.01684
9.96,-0.00612
9.964,-0.02558
9.968,0.00451
9.972,-0.04734
9.976,-0.04138
9.98,-0.02596
9.984,-0.01782
9.988,-0.02253
9.992,-0.02588
9.996,-0.00199
