t_seg,ecg_mV
0.0,0.01893
0.004,0.02407
0.008,0.02698
0.012,0.00574
0.016,0.01894
0.02,0.02508
0.024,0.0267
0.028,0.04409
0.032,0.02175
0.036,0.02908
0.04,0.03388
0.044,0.03519
0.048,0.04425
0.052,0.0228
0.056,0.0234
0.06,0.02985
0.064,0.02385
0.068,0.05747
0.072,0.03168
0.076,-0.00028
0.08,0.03472
0.084,0.02338
0.088,0.02466
0.092,0.02664
0.096,0.0389
0.1,0.06054
0.104,0.04813
0.108,0.04864
0.112,0.02862
0.116,0.03366
0.12,0.0295
0.124,0.04092
0.128,0.02293
0.132,0.0494
0.136,0.02917
0.14,0.04167
0.144,0.06069
0.148,0.03991
0.152,0.0229
0.156,0.03983
0.16,0.04434
0.164,0.0407
0.168,0.03298
0.172,0.02346
0.176,0.00736
0.18,0.01339
0.184,0.04499
0.188,0.01251
0.192,0.02159
0.196,0.02492
0.2,0.03534
0.204,0.04129
0.208,0.02646
0.212,0.00506
0.216,0.03492
0.22,0.04811
0.224,0.01723
0.228,0.03076
0.232,0.04006
0.236,0.03143
0.24,0.05032
0.244,0.03053
0.248,0.02704
0.252,-0.00615
0.256,0.01367
0.26,0.02022
0.264,0.01419
0.268,0.03232
0.272,0.03626
0.276,0.0233
0.28,0.03631
0.284,0.03395
0.288,0.03222
0.292,0.02567
0.296,0.01882
0.3,0.03717
0.304,0.05225
0.308,0.02715
0.312,0.04831
0.316,0.03981
0.32,0.03549
0.324,0.02359
0.328,0.00538
0.332,0.05844
0.336,0.02294
0.34,0.02815
0.344,0.05733
0.348,0.05002
0.352,0.03235
0.356,0.03946
0.36,0.01912
0.364,0.03972
0.368,0.02845
0.372,0.02714
0.376,0.02887
0.38,0.02955
0.384,0.02757
0.388,0.0141
0.392,0.02153
0.396,0.04759
0.4,0.03476
0.404,0.03133
0.408,-0.00527
0.412,0.01898
0.416,0.02271
0.42,0.02746
0.424,0.02912
0.428,0.02567
0.432,0.03431
0.436,0.02943
0.44,0.01295
0.444,0.02005
0.448,0.05128
0.452,0.05461
0.456,0.01988
0.46,-0.00984
0.464,0.05598
0.468,0.05071
0.472,0.03187
0.476,0.02982
0.48,0.05768
0.484,0.06118
0.488,0.04282
0.492,0.04599
0.496,0.0969
0.5,0.11362
0.504,0.11066
0.508,0.12047
0.512,0.12421
0.516,0.13467
0.52,0.13262
0.524,0.12975
0.528,0.11763
0.532,0.10292
0.536,0.10699
0.54,0.07126
0.544,0.06432
0.548,0.05352
0.552,0.06395
0.556,0.02661
0.56,0.04021
0.564,0.04156
0.568,0.01022
0.572,0.0173
0.576,0.03588
0.58,0.034
0.584,0.02931
0.588,0.0265
0.592,0.04285
0.596,0.00525
0.6,0.05063
0.604,0.03257
0.608,0.02626
0.612,0.02924
0.616,0.01696
0.62,0.00775
0.624,0.0205
0.628,0.0171
0.632,-0.01292
0.636,-0.01416
0.64,-0.04262
0.644,-0.07101
0.648,-0.08887
0.652,-0.01161
0.656,0.10756
0.66,0.30144
0.664,0.51458
0.668,0.728
0.672,0.92689
0.676,0.99759
0.68,1.01348
0.684,0.90028
0.688,0.68999
0.692,0.44193
0.696,0.27579
0.7,0.05735
0.704,-0.09157
0.708,-0.11504
0.712,-0.178
0.716,-0.11278
0.72,-0.05993
0.724,-0.03964
0.728,-0.0009
0.732,0.0099
0.736,0.00842
0.74,0.03681
0.744,0.00386
0.748,0.00771
0.752,0.03353
0.756,0.02893
0.76,0.0361
0.764,0.03553
0.768,0.00916
0.772,0.0249
0.776,0.0483
0.78,0.04635
0.784,0.02279
0.788,0.02802
0.792,0.02005
0.796,0.01735
0.8,0.03862
0.804,0.01479
0.808,0.0097
0.812,0.01355
0.816,0.01432
0.82,0.03381
0.824,0.01356
0.828,0.02042
0.832,0.00839
0.836,0.04126
0.84,0.02519
0.844,0.04535
0.848,0.01864
0.852,0.04294
0.856,0.033
0.86,0.05085
0.864,0.02964
0.868,0.0535
0.872,0.07286
0.876,0.07196
0.88,0.064
0.884,0.07776
0.888,0.09621
0.892,0.10887
0.896,0.11164
0.9,0.11706
0.904,0.12861
0.908,0.13656
0.912,0.12758
0.916,0.16531
0.92,0.16432
0.924,0.20272
0.928,0.22638
0.932,0.20129
0.936,0.21053
0.94,0.24069
0.944,0.23753
0.948,0.22709
0.952,0.22769
0.956,0.23954
0.96,0.21672
0.964,0.26595
0.968,0.22269
0.972,0.23538
0.976,0.2353
0.98,0.23065
0.984,0.21495
0.988,0.18858
0.992,0.17375
0.996,0.18606
1.0,0.15191
1.004,0.14902
1.008,0.12848
1.012,0.1379
1.016,0.13374
1.02,0.09588
1.024,0.0899
1.028,0.09903
1.032,0.06263
1.036,0.04706
1.04,0.06515
1.044,0.04471
1.048,0.04588
1.052,0.0534
1.056,0.03916
1.06,0.008
1.064,0.00712
1.068,0.01909
1.072,0.01356
1.076,0.01302
1.08,0.01008
1.084,0.01397
1.088,0.03306
1.092,0.00251
1.096,0.00895
1.1,0.0227
1.104,0.02393
1.108,0.00787
1.112,0.00942
1.116,0.0037
1.12,0.00714
1.124,-0.00842
1.128,0.01325
1.132,0.03895
1.136,0.03052
1.14,0.01665
1.144,0.0427
1.148,0.0343
1.152,0.0086
1.156,-0.00961
1.16,0.01007
1.164,0.00447
1.168,0.02746
1.172,0.03667
1.176,0.00788
1.18,-0.00146
1.184,0.02765
1.188,0.03085
1.192,0.00136
1.196,0.00877
1.2,0.03261
1.204,-0.0181
1.208,0.03497
1.212,-0.02468
1.216,0.02742
1.22,0.00788
1.224,0.02327
1.228,-0.00604
1.232,0.00656
1.236,0.02434
1.24,0.00184
1.244,0.03924
1.248,0.01044
1.252,0.00662
1.256,0.02146
1.26,0.01704
1.264,0.02734
1.268,0.04286
1.272,0.02244
1.276,0.00021
1.28,0.02327
1.284,0.02311
1.288,0.04337
1.292,0.04962
1.296,0.05131
1.3,0.07534
1.304,0.0623
1.308,0.08335
1.312,0.1003
1.316,0.11538
1.32,0.09236
1.324,0.11687
1.328,0.09654
1.332,0.09495
1.336,0.08878
1.34,0.07795
1.344,0.09005
1.348,0.06433
1.352,0.0341
1.356,0.0279
1.36,-0.00729
1.364,-0.00575
1.368,0.02287
1.372,0.01202
1.376,-0.0044
1.38,0.03712
1.384,0.01693
1.388,0.01971
1.392,0.00676
1.396,-0.00658
1.4,0.01285
1.404,0.0033
1.408,0.01215
1.412,-0.0184
1.416,0.01563
1.42,0.00942
1.424,-0.00783
1.428,-0.00097
1.432,-0.00654
1.436,-0.04298
1.44,-0.05451
1.444,-0.08611
1.448,-0.12733
1.452,-0.09889
1.456,0.02301
1.46,0.12841
1.464,0.34481
1.468,0.56069
1.472,0.76914
1.476,0.94808
1.48,1.01955
1.484,0.98578
1.488,0.81238
1.492,0.61532
1.496,0.34044
1.5,0.16347
1.504,-0.02547
1.508,-0.11659
1.512,-0.16705
1.516,-0.18237
1.52,-0.10675
1.524,-0.07096
1.528,-0.04561
1.532,-0.03331
1.536,0.03256
1.54,-0.00237
1.544,0.00074
1.548,0.03878
1.552,0.02735
1.556,-0.00651
1.56,-0.00827
1.564,-0.03239
1.568,0.01934
1.572,-0.02227
1.576,0.00431
1.58,0.01048
1.584,0.00393
1.588,-0.01275
1.592,-0.0132
1.596,0.01271
1.6,0.00264
1.604,0.01157
1.608,0.01793
1.612,-0.00685
1.616,-0.00731
1.62,-0.00414
1.624,0.00569
1.628,0.01378
1.632,0.00562
1.636,-0.00522
1.64,-0.00677
1.644,0.02936
1.648,0.02679
1.652,0.02894
1.656,0.0017
1.66,-0.01254
1.664,0.01886
1.668,0.01723
1.672,0.03879
1.676,0.04007
1.68,0.04
1.684,0.03866
1.688,0.05385
1.692,0.05156
1.696,0.06542
1.7,0.09285
1.704,0.08755
1.708,0.11544
1.712,0.13025
1.716,0.11509
1.72,0.13402
1.724,0.13776
1.728,0.1707
1.732,0.19659
1.736,0.16194
1.74,0.19216
1.744,0.21238
1.748,0.20971
1.752,0.21412
1.756,0.22287
1.76,0.23583
1.764,0.22012
1.768,0.22464
1.772,0.21312
1.776,0.17469
1.78,0.23467
1.784,0.16405
1.788,0.17238
1.792,0.13243
1.796,0.13858
1.8,0.14751
1.804,0.11597
1.808,0.11266
1.812,0.09891
1.816,0.08795
1.82,0.09229
1.824,0.07891
1.828,0.05717
1.832,0.05813
1.836,0.08311
1.84,0.01865
1.844,0.02962
1.848,0.02525
1.852,0.03101
1.856,0.04867
1.86,-0.00524
1.864,-0.01675
1.868,0.00963
1.872,0.00917
1.876,0.00522
1.88,-0.00357
1.884,-0.00889
1.888,0.0048
1.892,-0.00268
1.896,-0.01909
1.9,-0.01444
1.904,-0.02056
1.908,0.00443
1.912,0.01582
1.916,-0.01441
1.92,-0.02967
1.924,-0.00585
1.928,-0.03133
1.932,-0.00588
1.936,-0.02519
1.94,-0.00152
1.944,-0.00404
1.948,0.00513
1.952,0.02862
1.956,-0.01938
1.96,0.00293
1.964,-0.02899
1.968,-0.02316
1.972,0.03217
1.976,-0.02202
1.98,-0.02059
1.984,-0.03652
1.988,-0.03279
1.992,0.01481
1.996,0.00592
2.0,-0.01728
2.004,-0.02978
2.008,-0.01349
2.012,0.01083
2.016,-0.00049
2.02,-0.00129
2.024,-0.00014
2.028,-0.02205
2.032,0.0034
2.036,-0.00177
2.04,-0.0026
2.044,-0.00214
2.048,0.01755
2.052,0.01784
2.056,-0.01084
2.06,0.0002
2.064,-0.03029
2.068,-0.01313
2.072,-0.01646
2.076,-0.0339
2.08,0.00816
2.084,-0.01737
2.088,-0.03393
2.092,-0.02305
2.096,-0.01701
2.1,0.00301
2.104,-0.0101
2.108,-0.02077
2.112,-0.01236
2.116,-0.02062
2.12,0.03603
2.124,-0.03128
2.128,-0.00953
2.132,-0.02679
2.136,-0.00806
2.14,-0.00736
2.144,-0.01358
2.148,0.0234
2.152,-0.01726
2.156,-0.03141
2.16,-0.02178
2.164,0.01141
2.168,0.00448
2.172,0.00245
2.176,-0.03595
2.18,-0.0261
2.184,-0.03141
2.188,-0.01506
2.192,-0.01495
2.196,0.00702
2.2,0.00598
2.204,-0.01952
2.208,-0.00482
2.212,-0.03029
2.216,-0.00312
2.22,-0.02645
2.224,-0.01903
2.228,0.00339
2.232,0.01551
2.236,0.00587
2.24,0.00334
2.244,0.0263
2.248,0.0267
2.252,0.03846
2.256,0.07706
2.26,0.06695
2.264,0.07761
2.268,0.0979
2.272,0.08184
2.276,0.12692
2.28,0.06441
2.284,0.06016
2.288,0.07563
2.292,0.04535
2.296,0.05111
2.3,0.04276
2.304,0.00036
2.308,-0.01021
2.312,-0.00794
2.316,-0.0308
2.32,-0.02404
2.324,-0.00942
2.328,-0.03368
2.332,-0.01476
2.336,-0.01722
2.34,-0.03406
2.344,-0.00724
2.348,0.01201
2.352,-0.03269
2.356,-0.02893
2.36,-0.01842
2.364,-0.0433
2.368,-0.02993
2.372,-0.00682
2.376,-0.01579
2.38,-0.01099
2.384,-0.05729
2.388,-0.08843
2.392,-0.11842
2.396,-0.14793
2.4,-0.1033
2.404,-0.0326
2.408,0.13214
2.412,0.29624
2.416,0.52054
2.42,0.72733
2.424,0.91366
2.428,0.9682
2.432,0.97097
2.436,0.83124
2.44,0.64908
2.444,0.37229
2.448,0.18352
2.452,-0.02756
2.456,-0.10002
2.46,-0.16012
2.464,-0.16475
2.468,-0.133
2.472,-0.11933
2.476,-0.06815
2.48,-0.04373
2.484,-0.05065
2.488,-0.01488
2.492,-0.01656
2.496,-0.00947
2.5,-0.01701
2.504,-0.00181
2.508,-0.02367
2.512,-0.05061
2.516,-0.00098
2.52,-0.02471
2.524,-0.02048
2.528,0.03249
2.532,-0.03079
2.536,-0.01825
2.54,-0.02213
2.544,-0.02967
2.548,-0.03599
2.552,-0.04215
2.556,-0.0183
2.56,-0.00781
2.564,-0.01708
2.568,-0.02635
2.572,-0.00668
2.576,-0.05108
2.58,-0.03983
2.584,-0.00651
2.588,-0.02719
2.592,-0.01233
2.596,0.00872
2.6,-0.00026
2.604,-0.01381
2.608,-0.01294
2.612,-0.0207
2.616,0.01067
2.62,0.02265
2.624,0.03296
2.628,0.03469
2.632,0.00129
2.636,0.04031
2.64,0.03619
2.644,0.0645
2.648,0.05665
2.652,0.07535
2.656,0.09099
2.66,0.10277
2.664,0.12458
2.668,0.13435
2.672,0.12495
2.676,0.16338
2.68,0.16532
2.684,0.16048
2.688,0.16596
2.692,0.19291
2.696,0.19301
2.7,0.20685
2.704,0.19333
2.708,0.17979
2.712,0.19264
2.716,0.2099
2.72,0.19799
2.724,0.18906
2.728,0.18079
2.732,0.15804
2.736,0.17421
2.74,0.15711
2.744,0.09812
2.748,0.16701
2.752,0.11461
2.756,0.10315
2.76,0.10103
2.764,0.08045
2.768,0.06587
2.772,0.08086
2.776,0.05758
2.78,0.08694
2.784,0.0159
2.788,0.01952
2.792,0.04153
2.796,0.01582
2.8,-0.01498
2.804,-0.0074
2.808,0.0115
2.812,-0.02634
2.816,-0.00352
2.82,-0.02839
2.824,-0.01097
2.828,-0.0139
2.832,-0.01808
2.836,-0.04861
2.84,-0.01303
2.844,-0.00355
2.848,-0.02889
2.852,-0.05019
2.856,-0.01467
2.86,-0.02242
2.864,-0.02104
2.868,-0.02198
2.872,-0.0398
2.876,-0.01577
2.88,-0.01332
2.884,-0.0056
2.888,-0.05067
2.892,-0.04172
2.896,-0.07479
2.9,-0.00646
2.904,-0.0457
2.908,-0.02417
2.912,-0.01137
2.916,-0.06466
2.92,-0.03073
2.924,-0.02244
2.928,-0.01276
2.932,0.00814
2.936,-0.02049
2.94,-0.05386
2.944,-0.06689
2.948,-0.03744
2.952,-0.01097
2.956,-0.04063
2.96,-0.02661
2.964,-0.02259
2.968,-0.04586
2.972,0.00615
2.976,-0.04303
2.98,-0.01744
2.984,-0.01337
2.988,-0.0157
2.992,-0.06336
2.996,-0.05393
3.0,-0.03593
3.004,-0.03542
3.008,-0.0066
3.012,-0.04167
3.016,-0.02251
3.02,-0.01149
3.024,-0.01372
3.028,-0.01015
3.032,0.01847
3.036,0.03878
3.04,0.04519
3.044,0.04024
3.048,0.06525
3.052,0.05649
3.056,0.08862
3.06,0.0864
3.064,0.02803
3.068,0.04673
3.072,0.03418
3.076,0.03377
3.08,0.03181
3.084,0.03521
3.088,-0.01535
3.092,-0.00599
3.096,-0.03848
3.1,-0.0067
3.104,0.00238
3.108,-0.04282
3.112,-0.02756
3.116,-0.01805
3.12,-0.02193
3.124,-0.02498
3.128,-0.02878
3.132,-0.01375
3.136,-0.01806
3.14,-0.06718
3.144,-0.02762
3.148,-0.01341
3.152,-0.02422
3.156,-0.04698
3.16,-0.04399
3.164,-0.01372
3.168,-0.01864
3.172,-0.02865
3.176,-0.06744
3.18,-0.10753
3.184,-0.148
3.188,-0.15108
3.192,-0.06045
3.196,0.05675
3.2,0.21281
3.204,0.42047
3.208,0.64476
3.212,0.82008
3.216,0.9644
3.22,0.9578
3.224,0.87332
3.228,0.65602
3.232,0.41924
3.236,0.21828
3.24,0.03544
3.244,-0.10765
3.248,-0.19813
3.252,-0.18963
3.256,-0.16094
3.26,-0.13545
3.264,-0.07879
3.268,-0.01993
3.272,-0.03498
3.276,-0.04059
3.28,-0.02898
3.284,-0.02721
3.288,-0.03155
3.292,0.01757
3.296,-0.01457
3.3,-0.03333
3.304,-0.05164
3.308,-0.05114
3.312,-0.02777
3.316,-0.01557
3.32,-0.02518
3.324,-0.01567
3.328,0.01386
3.332,-0.04112
3.336,-0.04065
3.34,-0.05758
3.344,-0.02061
3.348,-0.03155
3.352,-0.02818
3.356,-0.03968
3.36,-0.00767
3.364,-0.02925
3.368,-0.02379
3.372,-0.01717
3.376,-0.03194
3.38,-0.01565
3.384,-0.05214
3.388,-0.00612
3.392,-0.00014
3.396,-0.02601
3.4,-0.01788
3.404,-0.00041
3.408,-0.01373
3.412,0.02513
3.416,-0.00918
3.42,0.03201
3.424,0.03473
3.428,0.04763
3.432,0.02959
3.436,0.02647
3.44,0.038
3.444,0.10321
3.448,0.0929
3.452,0.10498
3.456,0.12808
3.46,0.11434
3.464,0.16544
3.468,0.12481
3.472,0.16362
3.476,0.16058
3.48,0.17904
3.484,0.17527
3.488,0.19633
3.492,0.19531
3.496,0.17833
3.5,0.20475
3.504,0.1629
3.508,0.18435
3.512,0.16472
3.516,0.18626
3.52,0.18343
3.524,0.16859
3.528,0.1324
3.532,0.14267
3.536,0.1211
3.54,0.11039
3.544,0.11243
3.548,0.07523
3.552,0.05873
3.556,0.05654
3.56,0.03483
3.564,0.05233
3.568,0.03179
3.572,0.04285
3.576,0.00081
3.58,0.00155
3.584,-0.00065
3.588,0.00717
3.592,-0.0197
3.596,-0.0124
3.6,0.00184
3.604,-0.02835
3.608,-0.01621
3.612,0.00732
3.616,-0.0276
3.62,-0.00679
3.624,-0.01772
3.628,-0.01424
3.632,-0.00958
3.636,-0.01693
3.64,-0.02998
3.644,-0.01254
3.648,-0.02671
3.652,-0.04532
3.656,-0.00652
3.66,-0.04213
3.664,-0.04387
3.668,-0.00691
3.672,-0.01797
3.676,-0.04655
3.68,-0.02781
3.684,-0.0233
3.688,-0.02494
3.692,-0.0183
3.696,-0.05064
3.7,-0.02585
3.704,-0.04798
3.708,-0.0144
3.712,-0.03019
3.716,-0.01373
3.72,-0.01197
3.724,-0.05898
3.728,-0.049
3.732,-0.04064
3.736,-0.03067
3.74,-0.01959
3.744,-0.0293
3.748,-0.0471
3.752,-0.05161
3.756,-0.01851
3.76,-0.03171
3.764,-0.03229
3.768,-0.0368
3.772,-0.01367
3.776,-0.03586
3.78,-0.02745
3.784,-0.00783
3.788,-0.00075
3.792,-0.00626
3.796,-0.01598
3.8,-0.02061
3.804,-0.04948
3.808,-0.01891
3.812,-0.02611
3.816,-0.01724
3.82,-0.0278
3.824,-0.03768
3.828,-0.02153
3.832,-0.0185
3.836,-0.03677
3.84,-0.03544
3.844,-0.02041
3.848,-0.03157
3.852,-0.03117
3.856,-0.04275
3.86,-0.03752
3.864,-0.02493
3.868,-0.0051
3.872,-0.02498
3.876,0.01266
3.88,0.00249
3.884,0.00713
3.888,-0.02874
3.892,0.02586
3.896,0.03143
3.9,0.01456
3.904,0.04356
3.908,0.04729
3.912,0.03762
3.916,0.04596
3.92,0.05517
3.924,0.05871
3.928,0.05395
3.932,0.07525
3.936,0.03798
3.94,0.0821
3.944,0.01749
3.948,0.01298
3.952,0.03616
3.956,-0.00564
3.96,-0.02597
3.964,0.02615
3.968,-0.03876
3.972,-0.03168
3.976,-0.02888
3.98,-0.02791
3.984,-0.02091
3.988,-0.05086
3.992,-0.02359
3.996,-0.0243
4.0,-0.03558
4.004,-0.04273
4.008,-0.0505
4.012,-0.02061
4.016,-0.04088
4.02,-0.02612
4.024,-0.02856
4.028,-0.04471
4.032,-0.00671
4.036,-0.03116
4.04,-0.04571
4.044,-0.0915
4.048,-0.0983
4.052,-0.12313
4.056,-0.11664
4.06,-0.02052
4.064,0.12545
4.068,0.31449
4.072,0.52563
4.076,0.73698
4.08,0.90689
4.084,0.96622
4.088,0.93517
4.092,0.78021
4.096,0.5907
4.1,0.33255
4.104,0.1488
4.108,-0.03849
4.112,-0.13351
4.116,-0.20753
4.12,-0.19222
4.124,-0.15803
4.128,-0.09292
4.132,-0.06159
4.136,-0.06717
4.14,-0.01503
4.144,-0.00648
4.148,-0.03367
4.152,-0.02386
4.156,-0.02597
4.16,-0.00533
4.164,-0.01147
4.168,-0.02883
4.172,-0.01465
4.176,-0.015
4.18,0.00692
4.184,-0.03428
4.188,-0.02511
4.192,-0.01206
4.196,-0.01904
4.2,-0.01198
4.204,-0.03072
4.208,-0.03856
4.212,-0.03042
4.216,-0.02399
4.22,-0.01381
4.224,-0.02143
4.228,-0.02593
4.232,-0.02477
4.236,-0.01427
4.24,-0.01285
4.244,-0.02026
4.248,-0.01672
4.252,-0.0033
4.256,0.00241
4.26,-0.02649
4.264,0.00609
4.268,-0.00642
4.272,0.03075
4.276,-0.00594
4.28,0.0398
4.284,0.02598
4.288,0.06068
4.292,0.04059
4.296,0.0631
4.3,0.05311
4.304,0.06554
4.308,0.08206
4.312,0.11236
4.316,0.08104
4.32,0.10538
4.324,0.13258
4.328,0.17389
4.332,0.16049
4.336,0.14219
4.34,0.14946
4.344,0.18421
4.348,0.18018
4.352,0.16058
4.356,0.18309
4.36,0.21228
4.364,0.22225
4.368,0.22308
4.372,0.20077
4.376,0.16205
4.38,0.17389
4.384,0.15753
4.388,0.20206
4.392,0.15842
4.396,0.15993
4.4,0.1296
4.404,0.15355
4.408,0.13338
4.412,0.14368
4.416,0.10152
4.42,0.10205
4.424,0.07824
4.428,0.05085
4.432,0.0553
4.436,0.04995
4.44,0.03146
4.444,0.03526
4.448,0.04533
4.452,0.04178
4.456,0.03155
4.46,-0.00288
4.464,0.01946
4.468,0.00753
4.472,0.00867
4.476,0.00318
4.48,-0.02786
4.484,-0.00982
4.488,0.00607
4.492,-0.01181
4.496,-0.02505
4.5,-0.0256
4.504,0.00054
4.508,-0.00919
4.512,-0.01784
4.516,-0.01521
4.52,0.00602
4.524,-0.01771
4.528,0.01448
4.532,-0.02784
4.536,-0.01916
4.54,-0.00108
4.544,-0.00911
4.548,-0.00354
4.552,-0.0125
4.556,-0.0061
4.56,0.00367
4.564,-0.05861
4.568,-0.0262
4.572,0.00977
4.576,-0.01299
4.58,-0.00484
4.584,-0.03256
4.588,-0.03084
4.592,-0.0073
4.596,-0.00938
4.6,-0.02323
4.604,-0.02217
4.608,-0.0022
4.612,-0.01017
4.616,-0.0277
4.62,-0.01891
4.624,-0.02822
4.628,-0.03836
4.632,-0.05123
4.636,0.00043
4.64,-0.01494
4.644,0.00647
4.648,-0.02291
4.652,-0.03482
4.656,-0.01691
4.66,-0.02286
4.664,-0.00468
4.668,-0.01274
4.672,-0.00067
4.676,0.01711
4.68,-0.0099
4.684,-0.02035
4.688,0.00388
4.692,-0.00939
4.696,-0.01374
4.7,-0.01419
4.704,0.00138
4.708,-0.00664
4.712,0.00049
4.716,-0.02367
4.72,-0.00934
4.724,-0.04443
4.728,-0.00364
4.732,0.00268
4.736,-0.00056
4.74,-0.00779
4.744,0.0092
4.748,0.00616
4.752,-0.00993
4.756,-0.02789
4.76,-0.00717
4.764,-0.00097
4.768,0.01407
4.772,-0.00564
4.776,-0.00019
4.78,-0.01815
4.784,-0.02616
4.788,-0.0246
4.792,-0.01225
4.796,-0.00096
4.8,-0.00916
4.804,-0.00318
4.808,0.0258
4.812,0.01098
4.816,-0.02581
4.82,-0.01869
4.824,0.00204
4.828,0.00971
4.832,-0.00168
4.836,0.00427
4.84,-0.02333
4.844,0.00873
4.848,0.01
4.852,-0.00826
4.856,0.0345
4.86,0.03898
4.864,0.00045
4.868,0.00798
4.872,0.00265
4.876,-0.0046
4.88,-0.00477
4.884,0.01974
4.888,0.01398
4.892,-0.01168
4.896,0.00993
4.9,0.01515
4.904,0.00648
4.908,-0.0039
4.912,-0.00132
4.916,-0.03221
4.92,-0.01305
4.924,0.01838
4.928,0.01611
4.932,0.01124
4.936,-0.01174
4.94,-0.00952
4.944,-0.03144
4.948,0.01078
4.952,0.00897
4.956,0.01026
4.96,0.02837
4.964,0.0035
4.968,-0.00401
4.972,0.01987
4.976,-0.00364
4.98,-0.00787
4.984,-0.01057
4.988,0.03729
4.992,0.03113
4.996,0.02506
5.0,0.02912
5.004,0.01186
5.008,0.04893
5.012,0.07542
5.016,0.06521
5.02,0.07378
5.024,0.11276
5.028,0.11485
5.032,0.09164
5.036,0.13373
5.04,0.0832
5.044,0.06577
5.048,0.07154
5.052,0.06324
5.056,0.0488
5.06,0.02905
5.064,0.04381
5.068,0.01323
5.072,0.00486
5.076,0.00327
5.08,-0.00499
5.084,-0.01343
5.088,0.00129
5.092,-0.03591
5.096,-0.00407
5.1,0.01338
5.104,0.01272
5.108,-0.01
5.112,0.00227
5.116,0.00374
5.12,0.01382
5.124,0.0105
5.128,-0.00637
5.132,-0.01218
5.136,0.02062
5.14,0.00164
5.144,0.01553
5.148,-0.02301
5.152,-0.06056
5.156,-0.07903
5.16,-0.08246
5.164,-0.07212
5.168,-0.00243
5.172,0.14771
5.176,0.30187
5.18,0.56246
5.184,0.74638
5.188,0.94065
5.192,0.98541
5.196,0.94779
5.2,0.85035
5.204,0.63853
5.208,0.39041
5.212,0.19019
5.216,0.01465
5.22,-0.12213
5.224,-0.15822
5.228,-0.15684
5.232,-0.13949
5.236,-0.09856
5.24,-0.04666
5.244,0.0029
5.248,-0.0282
5.252,0.00023
5.256,-0.00866
5.26,0.01642
5.264,-0.00157
5.268,0.00098
5.272,-0.01
5.276,-0.00248
5.28,-0.00201
5.284,0.02159
5.288,0.02045
5.292,-0.02357
5.296,0.00119
5.3,0.0282
5.304,0.02581
5.308,0.02705
5.312,0.0067
5.316,-0.00352
5.32,0.01716
5.324,0.00147
5.328,0.02138
5.332,-0.00768
5.336,0.02317
5.34,0.01851
5.344,0.03341
5.348,0.02142
5.352,0.0047
5.356,0.02661
5.36,0.02851
5.364,0.00665
5.368,0.04746
5.372,0.03399
5.376,0.01614
5.38,0.02593
5.384,0.07229
5.388,0.03346
5.392,0.05734
5.396,0.07731
5.4,0.08285
5.404,0.08266
5.408,0.07169
5.412,0.08979
5.416,0.09464
5.42,0.11858
5.424,0.14633
5.428,0.15721
5.432,0.14584
5.436,0.14372
5.44,0.16927
5.444,0.21352
5.448,0.19747
5.452,0.21949
5.456,0.18804
5.46,0.23041
5.464,0.2199
5.468,0.21245
5.472,0.24899
5.476,0.24532
5.48,0.26225
5.484,0.19908
5.488,0.2472
5.492,0.17005
5.496,0.21251
5.5,0.22212
5.504,0.15894
5.508,0.18405
5.512,0.18404
5.516,0.15929
5.52,0.15351
5.524,0.10892
5.528,0.1466
5.532,0.11109
5.536,0.13167
5.54,0.06688
5.544,0.0886
5.548,0.07027
5.552,0.04049
5.556,0.04654
5.56,0.0473
5.564,0.04799
5.568,0.02537
5.572,0.00552
5.576,0.02121
5.58,0.01347
5.584,0.02591
5.588,-0.00227
5.592,0.01454
5.596,0.02083
5.6,0.0657
5.604,0.01645
5.608,0.01483
5.612,0.01705
5.616,0.02144
5.62,0.02469
5.624,0.03196
5.628,0.00862
5.632,0.05231
5.636,-0.00348
5.64,0.01107
5.644,0.02748
5.648,0.0252
5.652,0.00736
5.656,0.0332
5.66,-0.00416
5.664,0.01445
5.668,-0.00045
5.672,0.03805
5.676,0.0188
5.68,-0.00462
5.684,0.02324
5.688,0.01889
5.692,0.01159
5.696,0.00548
5.7,0.01179
5.704,0.0292
5.708,0.0135
5.712,0.01138
5.716,0.0175
5.72,0.00704
5.724,0.01204
5.728,0.03311
5.732,0.02225
5.736,0.01221
5.74,0.01559
5.744,0.03031
5.748,0.03162
5.752,0.03421
5.756,0.0479
5.76,0.0463
5.764,0.03522
5.768,0.01648
5.772,0.03766
5.776,0.03034
5.78,0.03951
5.784,0.032
5.788,0.03551
5.792,-0.00175
5.796,0.00769
5.8,0.00535
5.804,0.01381
5.808,0.01414
5.812,0.03328
5.816,0.00193
5.82,0.03218
5.824,0.02654
5.828,0.04363
5.832,0.01924
5.836,0.00952
5.84,0.03959
5.844,0.0383
5.848,0.02411
5.852,0.03293
5.856,0.02742
5.86,-0.0146
5.864,0.0155
5.868,0.03661
5.872,0.0252
5.876,0.01583
5.88,0.03607
5.884,0.0194
5.888,0.02797
5.892,0.03148
5.896,0.02102
5.9,0.02677
5.904,0.00185
5.908,0.00549
5.912,0.02018
5.916,0.00947
5.92,0.04251
5.924,0.03438
5.928,0.0324
5.932,0.02524
5.936,0.01421
5.94,0.04025
5.944,0.02058
5.948,0.05153
5.952,0.04032
5.956,0.05253
5.96,0.01898
5.964,0.04689
5.968,0.03554
5.972,0.01253
5.976,0.01676
5.98,0.02292
5.984,0.02736
5.988,-0.01034
5.992,0.02107
5.996,0.02105
6.0,0.01587
6.004,0.00764
6.008,0.02719
6.012,0.03613
6.016,0.01594
6.02,0.05183
6.024,0.03199
6.028,0.02339
6.032,0.01616
6.036,0.03836
6.04,0.03458
6.044,0.03613
6.048,0.06222
6.052,0.0578
6.056,0.0903
6.06,0.12126
6.064,0.07692
6.068,0.12388
6.072,0.10387
6.076,0.12121
6.08,0.13985
6.084,0.11905
6.088,0.12826
6.092,0.0925
6.096,0.09976
6.1,0.09922
6.104,0.08008
6.108,0.08245
6.112,0.05225
6.116,0.03731
6.12,0.04341
6.124,0.05009
6.128,0.01526
6.132,0.02029
6.136,0.04317
6.14,0.01749
6.144,0.01989
6.148,0.0005
6.152,0.02996
6.156,0.03937
6.16,0.02421
6.164,0.02937
6.168,0.01673
6.172,0.04531
6.176,0.03511
6.18,0.02835
6.184,0.01314
6.188,0.03657
6.192,0.01318
6.196,-0.01024
6.2,-0.04049
6.204,-0.11347
6.208,-0.08297
6.212,-0.05389
6.216,0.04271
6.22,0.20391
6.224,0.40928
6.228,0.61332
6.232,0.81694
6.236,0.94421
6.24,1.03689
6.244,0.97101
6.248,0.80259
6.252,0.57577
6.256,0.36371
6.26,0.14726
6.264,-0.02081
6.268,-0.10301
6.272,-0.14456
6.276,-0.11456
6.28,-0.08119
6.284,-0.06429
6.288,-0.03628
6.292,0.01591
6.296,0.03004
6.3,0.04297
6.304,0.03104
6.308,0.01965
6.312,0.03635
6.316,0.01059
6.32,0.02204
6.324,0.04278
6.328,-0.00387
6.332,0.01801
6.336,0.01974
6.34,0.01057
6.344,0.04117
6.348,0.01277
6.352,0.01473
6.356,0.00656
6.36,0.022
6.364,0.04583
6.368,0.04667
6.372,0.02653
6.376,0.00824
6.38,0.04565
6.384,0.05155
6.388,0.03363
6.392,0.06559
6.396,0.04848
6.4,0.03453
6.404,0.03527
6.408,0.05078
6.412,0.02737
6.416,0.02336
6.42,0.03444
6.424,0.06406
6.428,0.06709
6.432,0.07124
6.436,0.08867
6.44,0.07952
6.444,0.05474
6.448,0.06214
6.452,0.12243
6.456,0.10188
6.46,0.12506
6.464,0.10601
6.468,0.15616
6.472,0.16676
6.476,0.15159
6.48,0.16734
6.484,0.2074
6.488,0.19865
6.492,0.19151
6.496,0.20823
6.5,0.24822
6.504,0.24653
6.508,0.2219
6.512,0.23682
6.516,0.26646
6.52,0.21778
6.524,0.27247
6.528,0.253
6.532,0.22921
6.536,0.22915
6.54,0.23468
6.544,0.19986
6.548,0.22209
6.552,0.19481
6.556,0.20814
6.56,0.18428
6.564,0.16187
6.568,0.1428
6.572,0.13611
6.576,0.1411
6.58,0.12542
6.584,0.14258
6.588,0.09398
6.592,0.08773
6.596,0.08948
6.6,0.03745
6.604,0.0825
6.608,0.05118
6.612,0.06308
6.616,0.05966
6.62,0.04541
6.624,0.04239
6.628,0.0289
6.632,0.03298
6.636,0.04483
6.64,0.02398
6.644,0.04619
6.648,0.0387
6.652,0.02404
6.656,0.04841
6.66,0.04935
6.664,0.0232
6.668,0.05984
6.672,0.01018
6.676,0.04549
6.68,0.0336
6.684,-0.00126
6.688,0.03287
6.692,0.01801
6.696,0.05117
6.7,0.04445
6.704,0.00649
6.708,0.02485
6.712,0.02586
6.716,0.02554
6.72,0.02762
6.724,0.00729
6.728,0.05098
6.732,0.00778
6.736,0.01664
6.74,0.00473
6.744,0.02754
6.748,0.01638
6.752,0.04365
6.756,0.01152
6.76,0.0479
6.764,0.03052
6.768,-0.00507
6.772,0.02733
6.776,0.03376
6.78,0.01872
6.784,0.02207
6.788,0.05591
6.792,0.05513
6.796,0.02389
6.8,0.03992
6.804,0.03269
6.808,0.05961
6.812,0.01129
6.816,0.01689
6.82,0.04111
6.824,0.00684
6.828,0.0414
6.832,0.01452
6.836,0.02519
6.84,0.03144
6.844,0.01684
6.848,0.01584
6.852,0.01625
6.856,0.02219
6.86,0.03205
6.864,0.03094
6.868,0.01715
6.872,0.04562
6.876,0.02839
6.88,0.05472
6.884,0.04853
6.888,-0.00166
6.892,0.01155
6.896,0.00843
6.9,0.01282
6.904,0.04399
6.908,0.05054
6.912,0.06146
6.916,0.02703
6.92,0.00391
6.924,0.05633
6.928,0.02427
6.932,0.02963
6.936,-4e-05
6.94,0.02368
6.944,0.04822
6.948,0.07491
6.952,0.06155
6.956,0.01885
6.96,0.0181
6.964,0.04868
6.968,0.03786
6.972,0.00232
6.976,0.0687
6.98,0.01671
6.984,0.03897
6.988,0.03013
6.992,0.04734
6.996,0.08476
7.0,0.08231
7.004,0.06461
7.008,0.11714
7.012,0.13006
7.016,0.11974
7.02,0.12794
7.024,0.11006
7.028,0.13609
7.032,0.09405
7.036,0.09719
7.04,0.079
7.044,0.07435
7.048,0.06046
7.052,0.06487
7.056,0.07502
7.06,0.06416
7.064,0.05913
7.068,0.02351
7.072,0.04959
7.076,0.0322
7.08,0.03245
7.084,0.05566
7.088,0.04058
7.092,0.03723
7.096,0.03726
7.1,0.02744
7.104,0.04486
7.108,0.0389
7.112,0.03057
7.116,0.04757
7.12,0.02028
7.124,0.02725
7.128,0.02525
7.132,0.03831
7.136,0.02203
7.14,-0.02625
7.144,-0.07213
7.148,-0.10034
7.152,-0.08738
7.156,-0.05701
7.16,0.13369
7.164,0.27577
7.168,0.47165
7.172,0.69456
7.176,0.87035
7.18,1.04697
7.184,0.99683
7.188,0.89254
7.192,0.75762
7.196,0.50283
7.2,0.28598
7.204,0.10414
7.208,-0.05668
7.212,-0.12343
7.216,-0.16966
7.22,-0.11806
7.224,-0.08995
7.228,-0.03421
7.232,0.01604
7.236,0.01057
7.24,0.02896
7.244,0.01878
7.248,0.02561
7.252,0.04557
7.256,0.02167
7.26,0.00284
7.264,0.03898
7.268,0.03435
7.272,0.03634
7.276,0.02482
7.28,0.01654
7.284,0.04987
7.288,0.01076
7.292,0.03207
7.296,0.01582
7.3,0.00776
7.304,0.03776
7.308,0.01323
7.312,0.01882
7.316,0.01171
7.32,0.02123
7.324,0.00616
7.328,0.00954
7.332,0.03666
7.336,0.03608
7.34,0.05331
7.344,0.04726
7.348,0.02696
7.352,0.01688
7.356,0.04081
7.36,0.06347
7.364,0.07061
7.368,0.06471
7.372,0.07424
7.376,0.07548
7.38,0.06521
7.384,0.0912
7.388,0.06042
7.392,0.10084
7.396,0.11015
7.4,0.11797
7.404,0.0889
7.408,0.1314
7.412,0.15335
7.416,0.1339
7.42,0.18907
7.424,0.19849
7.428,0.20537
7.432,0.1846
7.436,0.24326
7.44,0.18148
7.444,0.20808
7.448,0.23342
7.452,0.25558
7.456,0.26114
7.46,0.23116
7.464,0.25463
7.468,0.2425
7.472,0.24383
7.476,0.2263
7.48,0.22859
7.484,0.19709
7.488,0.20624
7.492,0.22022
7.496,0.18522
7.5,0.18872
7.504,0.16549
7.508,0.13749
7.512,0.15281
7.516,0.13218
7.52,0.13515
7.524,0.12114
7.528,0.09755
7.532,0.08865
7.536,0.08708
7.54,0.04733
7.544,0.05324
7.548,0.08539
7.552,0.08265
7.556,0.06289
7.56,0.03931
7.564,0.05443
7.568,0.03362
7.572,0.03905
7.576,0.03139
7.58,0.03325
7.584,0.01014
7.588,0.02185
7.592,0.01335
7.596,0.00961
7.6,-0.0013
7.604,0.00438
7.608,0.0164
7.612,0.01886
7.616,0.01699
7.62,0.00046
7.624,0.00996
7.628,0.00635
7.632,0.04309
7.636,0.0225
7.64,0.03507
7.644,-0.02432
7.648,0.02584
7.652,0.029
7.656,0.04424
7.66,0.0137
7.664,0.00765
7.668,0.03599
7.672,0.00137
7.676,0.04092
7.68,0.03179
7.684,0.04444
7.688,0.04124
7.692,0.02073
7.696,0.02375
7.7,0.00175
7.704,-0.0065
7.708,0.0068
7.712,-0.00131
7.716,0.00918
7.72,0.02599
7.724,-0.00573
7.728,0.02109
7.732,0.03123
7.736,0.04098
7.74,0.02926
7.744,0.0402
7.748,0.0102
7.752,0.03125
7.756,0.01512
7.76,0.01454
7.764,0.00026
7.768,0.0286
7.772,0.02673
7.776,0.01648
7.78,0.0261
7.784,0.00456
7.788,0.0111
7.792,0.03489
7.796,0.03
7.8,0.02331
7.804,0.03106
7.808,0.01772
7.812,0.04552
7.816,0.01172
7.82,0.00595
7.824,0.01258
7.828,0.03248
7.832,-0.01488
7.836,0.03174
7.84,-0.02596
7.844,-0.00654
7.848,0.01403
7.852,0.02641
7.856,0.03214
7.86,0.01077
7.864,0.00525
7.868,0.03974
7.872,0.01777
7.876,0.01223
7.88,0.01994
7.884,0.01948
7.888,0.0366
7.892,0.00429
7.896,0.01415
7.9,0.00531
7.904,0.01514
7.908,3e-05
7.912,0.01859
7.916,0.03724
7.92,0.02522
7.924,0.012
7.928,0.02698
7.932,0.01783
7.936,0.01897
7.94,0.01295
7.944,0.00845
7.948,0.00677
7.952,0.01353
7.956,0.01189
7.96,0.00237
7.964,0.02787
7.968,0.01843
7.972,0.0375
7.976,0.0769
7.98,0.042
7.984,0.0722
7.988,0.05605
7.992,0.06933
7.996,0.08755
8.0,0.07015
8.004,0.10743
8.008,0.10073
8.012,0.12793
8.016,0.1245
8.02,0.08291
8.024,0.06762
8.028,0.0534
8.032,0.05318
8.036,0.04019
8.04,0.03857
8.044,0.00146
8.048,0.02252
8.052,0.00398
8.056,0.00678
8.06,-0.0126
8.064,0.00711
8.068,-0.00529
8.072,0.01424
8.076,0.00435
8.08,0.01503
8.084,0.00816
8.088,-0.02164
8.092,0.03067
8.096,-2e-05
8.1,0.00044
8.104,-0.00315
8.108,0.0136
8.112,0.00957
8.116,0.00591
8.12,0.0154
8.124,-0.0362
8.128,-0.09277
8.132,-0.09529
8.136,-0.1057
8.14,-0.01505
8.144,0.1503
8.148,0.32229
8.152,0.57575
8.156,0.77419
8.16,0.95751
8.164,0.99646
8.168,0.96646
8.172,0.8442
8.176,0.62801
8.18,0.38796
8.184,0.18804
8.188,0.02008
8.192,-0.10878
8.196,-0.16099
8.2,-0.15554
8.204,-0.11943
8.208,-0.07837
8.212,-0.05109
8.216,-0.04131
8.22,0.00487
8.224,-0.02071
8.228,0.00522
8.232,-0.00065
8.236,-0.03757
8.24,0.02539
8.244,0.01244
8.248,-0.00028
8.252,0.0232
8.256,0.00396
8.26,-0.02616
8.264,-0.00287
8.268,-0.00944
8.272,0.03569
8.276,-0.02375
8.28,0.00452
8.284,-0.00289
8.288,0.01461
8.292,-0.00773
8.296,-0.0006
8.3,-0.00568
8.304,-0.00237
8.308,0.01667
8.312,-0.01034
8.316,0.02994
8.32,-0.00497
8.324,-0.02246
8.328,0.00538
8.332,0.01578
8.336,0.01188
8.34,-0.01241
8.344,0.01942
8.348,0.02414
8.352,0.02887
8.356,0.0359
8.36,0.03346
8.364,0.02508
8.368,0.05614
8.372,0.05318
8.376,0.06798
8.38,0.08501
8.384,0.08546
8.388,0.09304
8.392,0.11116
8.396,0.10946
8.4,0.16388
8.404,0.12557
8.408,0.15618
8.412,0.15674
8.416,0.16736
8.42,0.15597
8.424,0.20935
8.428,0.21347
8.432,0.21869
8.436,0.2194
8.44,0.20829
8.444,0.22537
8.448,0.2202
8.452,0.20381
8.456,0.20189
8.46,0.1808
8.464,0.19554
8.468,0.19201
8.472,0.1717
8.476,0.16595
8.48,0.14341
8.484,0.16748
8.488,0.15612
8.492,0.11569
8.496,0.1214
8.5,0.08615
8.504,0.06893
8.508,0.10532
8.512,0.088
8.516,0.05653
8.52,0.05409
8.524,0.05668
8.528,0.05078
8.532,0.01483
8.536,0.01534
8.54,0.01468
8.544,-0.00305
8.548,0.03332
8.552,-0.01956
8.556,0.02098
8.56,-0.00682
8.564,0.01829
8.568,0.0167
8.572,-0.00847
8.576,-0.018
8.58,0.00271
8.584,0.01957
8.588,-0.00906
8.592,-0.02208
8.596,-0.00934
8.6,-0.01166
8.604,-0.00679
8.608,-0.03604
8.612,-0.01145
8.616,-0.0321
8.62,-0.00821
8.624,-0.00778
8.628,-0.01115
8.632,0.0022
8.636,0.00214
8.64,-0.00296
8.644,-0.02521
8.648,0.01003
8.652,0.00097
8.656,0.02152
8.66,-0.00334
8.664,-0.01885
8.668,-0.01417
8.672,-0.0014
8.676,0.00712
8.68,0.01995
8.684,0.01609
8.688,0.01743
8.692,-0.00355
8.696,-0.02115
8.7,-0.00371
8.704,0.01166
8.708,-0.00487
8.712,-0.01597
8.716,-0.02745
8.72,-0.01352
8.724,-0.00173
8.728,-0.01333
8.732,-0.02354
8.736,-0.02906
8.74,-0.00416
8.744,-0.00206
8.748,-0.03932
8.752,0.01544
8.756,-0.02117
8.76,0.0195
8.764,-0.00339
8.768,-0.01032
8.772,0.01708
8.776,0.05841
8.78,0.03091
8.784,0.09042
8.788,0.06402
8.792,0.06432
8.796,0.09728
8.8,0.09028
8.804,0.09144
8.808,0.07613
8.812,0.07544
8.816,0.05626
8.82,0.06798
8.824,0.04673
8.828,0.03246
8.832,-0.00036
8.836,0.02878
8.84,0.00477
8.844,0.00518
8.848,-0.00718
8.852,-0.00737
8.856,-0.06084
8.86,-0.01385
8.864,0.00446
8.868,-0.01105
8.872,-0.01051
8.876,-0.01143
8.88,-0.01323
8.884,-0.03058
8.888,-0.01945
8.892,-0.00929
8.896,-0.02372
8.9,-0.00404
8.904,-0.03136
8.908,-0.02721
8.912,-0.04143
8.916,-0.02418
8.92,-0.0882
8.924,-0.11947
8.928,-0.15154
8.932,-0.10259
8.936,-0.00432
8.94,0.12803
8.944,0.3502
8.948,0.55328
8.952,0.77003
8.956,0.90922
8.96,1.04092
8.964,0.96459
8.968,0.77343
8.972,0.59194
8.976,0.35813
8.98,0.14195
8.984,-0.03986
8.988,-0.15762
8.992,-0.18283
8.996,-0.15686
9.0,-0.15525
9.004,-0.10228
9.008,-0.05545
9.012,-0.04951
9.016,-0.01969
9.02,-0.02821
9.024,-0.04284
9.028,-0.0182
9.032,-0.02592
9.036,-0.02371
9.04,0.00378
9.044,-0.00955
9.048,-0.00133
9.052,-0.00811
9.056,0.00047
9.06,0.0051
9.064,-0.02487
9.068,0.00641
9.072,-0.02122
9.076,-0.00502
9.08,0.01143
9.084,-0.01555
9.088,-0.01325
9.092,-0.02645
9.096,-0.06294
9.1,-0.00379
9.104,-0.02678
9.108,-0.02595
9.112,-0.0351
9.116,0.00208
9.12,-0.00526
9.124,-0.00327
9.128,-0.03119
9.132,-0.00135
9.136,-0.00881
9.14,-0.00837
9.144,-0.02605
9.148,-0.01455
9.152,-0.00617
9.156,0.03104
9.16,0.03143
9.164,0.02351
9.168,0.01729
9.172,0.04269
9.176,0.03012
9.18,0.07329
9.184,0.07901
9.188,0.09865
9.192,0.08969
9.196,0.09709
9.2,0.11725
9.204,0.18223
9.208,0.12818
9.212,0.16099
9.216,0.1669
9.22,0.16332
9.224,0.16425
9.228,0.19507
9.232,0.19747
9.236,0.17276
9.24,0.17571
9.244,0.21065
9.248,0.18215
9.252,0.19065
9.256,0.16288
9.26,0.18567
9.264,0.15437
9.268,0.14569
9.272,0.15755
9.276,0.13601
9.28,0.12304
9.284,0.07693
9.288,0.09336
9.292,0.07972
9.296,0.05367
9.3,0.07948
9.304,0.05471
9.308,0.02625
9.312,0.06388
9.316,0.013
9.32,0.00905
9.324,-0.01289
9.328,0.02181
9.332,0.02259
9.336,0.01355
9.34,0.03244
9.344,-0.00025
9.348,-0.02196
9.352,-0.0019
9.356,-0.02522
9.36,-0.00482
9.364,-0.00863
9.368,-0.01008
9.372,-0.02638
9.376,-0.00998
9.38,-0.0491
9.384,-0.03493
9.388,-0.00911
9.392,-0.01973
9.396,-0.03406
9.4,-0.04114
9.404,-0.00593
9.408,-0.00778
9.412,-0.01735
9.416,-0.00937
9.42,-0.02961
9.424,-0.05276
9.428,0.00365
9.432,0.00014
9.436,0.00659
9.44,-0.01974
9.444,-0.02513
9.448,-0.02076
9.452,-0.01703
9.456,-0.05304
9.46,-0.03721
9.464,-0.02701
9.468,-0.03108
9.472,-0.02738
9.476,-0.02422
9.48,-0.02319
9.484,-0.03111
9.488,-0.0298
9.492,-0.03971
9.496,-0.04781
9.5,-0.03177
9.504,-0.02782
9.508,-0.0519
9.512,-0.03398
9.516,-0.0186
9.52,-0.01446
9.524,-0.04303
9.528,-0.03534
9.532,-0.01713
9.536,-0.05039
9.54,0.0095
9.544,-0.04343
9.548,-0.03435
9.552,-0.01499
9.556,-0.01619
9.56,-0.03668
9.564,-0.02915
9.568,-0.02286
9.572,-0.025
9.576,-0.02525
9.58,-0.01657
9.584,-0.01753
9.588,-0.00319
9.592,0.01267
9.596,-0.03113
9.6,-0.02669
9.604,0.01413
9.608,-0.00218
9.612,0.00321
9.616,0.05139
9.62,0.03065
9.624,0.04116
9.628,0.06478
9.632,0.06363
9.636,0.07265
9.64,0.06281
9.644,0.08451
9.648,0.0766
9.652,0.05881
9.656,0.04739
9.66,0.01705
9.664,0.0061
9.668,0.01387
9.672,0.0064
9.676,0.01396
9.68,-0.02709
9.684,-0.03045
9.688,-0.03775
9.692,-0.00863
9.696,-0.03236
9.7,-0.0292
9.704,-0.02844
9.708,-0.0211
9.712,-0.02617
9.716,-0.05612
9.72,-0.041
9.724,-0.02538
9.728,-0.03875
9.732,-0.05041
9.736,-0.04518
9.74,-0.04438
9.744,-0.03068
9.748,-0.01401
9.752,-0.0474
9.756,-0.05749
9.76,-0.09783
9.764,-0.14177
9.768,-0.15514
9.772,-0.08604
9.776,-0.00103
9.78,0.20527
9.784,0.37794
9.788,0.58764
9.792,0.75181
9.796,0.92421
9.8,0.97343
9.804,0.8721
9.808,0.71812
9.812,0.52327
9.816,0.2639
9.82,0.07145
9.824,-0.05934
9.828,-0.15258
9.832,-0.2111
9.836,-0.16994
9.84,-0.14273
9.844,-0.10354
9.848,-0.06376
9.852,-0.0425
9.856,-0.00349
9.86,-0.02633
9.864,-0.00437
9.868,-0.03996
9.872,-0.05373
9.876,-0.03397
9.88,-0.0359
9.884,-0.05936
9.888,-0.01739
9.892,-0.00703
9.896,-0.04738
9.9,-0.04099
9.904,-0.03902
9.908,-0.00903
9.912,-0.02583
9.916,-0.04578
9.92,-0.03521
9.924,-0.01598
9.928,-0.01603
9.932,-0.04797
9.936,-0.03597
9.94,-0.02596
9.944,-0.05261
9.948,-0.02803
9.952,-0.00453
9.956,-0.01922
9.96,-0.05351
9.964,-0.04079
9.968,0.00686
9.972,-0.00626
9.976,-0.03753
9.98,-0.00601
9.984,-0.02284
9.988,-0.00558
9.992,-0.00784
9.996,0.00741
