t_seg,ecg_mV
0.0,-0.01668
0.004,-0.04474
0.008,-0.02616
0.012,-0.03452
0.016,-0.02022
0.02,-0.02396
0.024,-0.0252
0.028,-0.03505
0.032,-0.03355
0.036,-0.02686
0.04,-0.02032
0.044,-0.04019
0.048,-0.03581
0.052,-0.03232
0.056,-0.04892
0.06,-0.00797
0.064,-0.04468
0.068,-0.03372
0.072,-0.00643
0.076,-0.03186
0.08,-0.02443
0.084,-0.03577
0.088,-0.01561
0.092,-0.03294
0.096,-0.01055
0.1,-0.03981
0.104,-0.05972
0.108,-0.015
0.112,-0.01205
0.116,-0.04735
0.12,0.00188
0.124,-0.03183
0.128,-0.03225
0.132,-0.00654
0.136,-0.01821
0.14,-0.02849
0.144,-0.00493
0.148,-0.03384
0.152,-0.04021
0.156,-0.01038
0.16,-0.02001
0.164,-0.01865
0.168,-0.02371
0.172,-0.03225
0.176,-0.0459
0.18,-0.02123
0.184,-0.028
0.188,-0.00998
0.192,-0.03806
0.196,-0.02346
0.2,-0.02881
0.204,-0.04175
0.208,0.00368
0.212,0.00346
0.216,-0.04144
0.22,-0.02144
0.224,-0.02903
0.228,-0.01786
0.232,-0.05628
0.236,-0.03663
0.24,-0.02073
0.244,-0.00353
0.248,-0.01101
0.252,-0.02588
0.256,-0.02487
0.26,-0.01224
0.264,-0.02218
0.268,-0.03047
0.272,-0.01385
0.276,-0.06
0.28,-0.01488
0.284,-0.02356
0.288,-0.05104
0.292,-0.03517
0.296,-0.0252
0.3,-0.0427
0.304,-0.01764
0.308,-0.04138
0.312,-0.02773
0.316,-0.01506
0.32,0.0113
0.324,-0.01057
0.328,-0.01483
0.332,-0.0021
0.336,0.02308
0.34,0.01083
0.344,0.02774
0.348,0.02548
0.352,0.04214
0.356,0.0663
0.36,0.04443
0.364,0.07712
0.368,0.10055
0.372,0.05934
0.376,0.05666
0.38,0.02507
0.384,0.04225
0.388,0.01281
0.392,0.01695
0.396,-0.0055
0.4,0.00832
0.404,0.00381
0.408,-0.02336
0.412,-0.01094
0.416,-0.02957
0.42,-0.01711
0.424,-0.01191
0.428,-0.01717
0.432,-0.04489
0.436,-0.05602
0.44,-0.06438
0.444,-0.00738
0.448,-0.01469
0.452,-0.05267
0.456,-0.01008
0.46,-0.00794
0.464,-0.03637
0.468,-0.01415
0.472,-0.01537
0.476,-0.06858
0.48,-0.04931
0.484,-0.032
0.488,-0.09094
0.492,-0.11647
0.496,-0.13385
0.5,-0.0567
0.504,0.07238
0.508,0.26024
0.512,0.45339
0.516,0.67542
0.52,0.84518
0.524,0.96819
0.528,0.94926
0.532,0.84436
0.536,0.63936
0.54,0.41831
0.544,0.19412
0.548,0.00774
0.552,-0.11187
0.556,-0.17863
0.56,-0.16593
0.564,-0.15909
0.568,-0.13044
0.572,-0.08015
0.576,-0.06927
0.58,-0.04079
0.584,-0.03856
0.588,-0.01312
0.592,-0.02968
0.596,-0.05751
0.6,-0.02134
0.604,-0.03939
0.608,-0.03
0.612,-0.01136
0.616,-0.02842
0.62,-0.01585
0.624,-0.02792
0.628,-0.0293
0.632,0.00645
0.636,-0.04068
0.64,-0.01556
0.644,-0.01893
0.648,-0.02999
0.652,-0.0449
0.656,-0.00171
0.66,-0.01743
0.664,-0.02558
0.668,-0.02564
0.672,-0.0222
0.676,-0.01274
0.68,-0.01698
0.684,-0.01733
0.688,-0.00385
0.692,-0.02112
0.696,-0.01491
0.7,-0.00959
0.704,-0.00194
0.708,-0.00712
0.712,-0.0018
0.716,0.02161
0.72,0.00675
0.724,0.01613
0.728,0.04834
0.732,0.02419
0.736,0.0689
0.74,0.05731
0.744,0.05938
0.748,0.1078
0.752,0.1002
0.756,0.09091
0.76,0.10745
0.764,0.11081
0.768,0.10129
0.772,0.13148
0.776,0.16821
0.78,0.19032
0.784,0.14542
0.788,0.18457
0.792,0.18317
0.796,0.21321
0.8,0.21404
0.804,0.20606
0.808,0.1775
0.812,0.20632
0.816,0.22516
0.82,0.23014
0.824,0.16685
0.828,0.16773
0.832,0.18948
0.836,0.16918
0.84,0.13953
0.844,0.14911
0.848,0.11744
0.852,0.12298
0.856,0.10465
0.86,0.08421
0.864,0.09939
0.868,0.05333
0.872,0.0412
0.876,0.07098
0.88,0.0419
0.884,0.04108
0.888,0.02675
0.892,0.00894
0.896,-0.0024
0.9,-0.00248
0.904,0.00586
0.908,-0.0029
0.912,-0.00299
0.916,-0.02122
0.92,-0.03388
0.924,0.00096
0.928,0.01064
0.932,-0.02217
0.936,-0.01685
0.94,-0.01369
0.944,-0.01356
0.948,-0.0149
0.952,-0.01592
0.956,-0.02386
0.96,0.00185
0.964,-0.02593
0.968,-0.0198
0.972,-0.01043
0.976,-0.01264
0.98,-0.03311
0.984,-0.0155
0.988,-0.01764
0.992,-0.0223
0.996,-0.00461
1.0,-0.01074
1.004,-0.0232
1.008,0.00037
1.012,-0.00429
1.016,-0.02915
1.02,-0.03925
1.024,-0.05384
1.028,-0.00272
1.032,-0.00765
1.036,-0.02118
1.04,0.01227
1.044,-0.00887
1.048,-0.02765
1.052,-0.02924
1.056,-0.0109
1.06,-0.02936
1.064,-0.01811
1.068,-0.00775
1.072,-0.02129
1.076,-0.01495
1.08,-0.01769
1.084,-0.01798
1.088,-0.02657
1.092,-0.02457
1.096,-0.01725
1.1,-0.02681
1.104,0.00901
1.108,-0.03238
1.112,-0.02605
1.116,0.02001
1.12,-0.03031
1.124,-0.00611
1.128,0.00072
1.132,-0.0237
1.136,-0.00426
1.14,-0.01732
1.144,-0.00215
1.148,7e-05
1.152,0.00708
1.156,-0.01466
1.16,0.00056
1.164,0.01925
1.168,-0.04184
1.172,-0.00619
1.176,-0.01134
1.18,0.01396
1.184,0.00632
1.188,-0.00475
1.192,-0.0131
1.196,-0.00371
1.2,-0.02972
1.204,-0.01218
1.208,-0.03932
1.212,-0.01994
1.216,-0.01279
1.22,-0.01884
1.224,-0.01012
1.228,0.02874
1.232,0.02492
1.236,0.04028
1.24,0.03033
1.244,0.02983
1.248,0.03174
1.252,0.04046
1.256,0.09328
1.26,0.08464
1.264,0.08868
1.268,0.12082
1.272,0.0746
1.276,0.10019
1.28,0.08717
1.284,0.08448
1.288,0.04248
1.292,0.05071
1.296,0.04073
1.3,0.0234
1.304,0.00105
1.308,0.02344
1.312,-0.02441
1.316,0.00833
1.32,-0.00795
1.324,0.0116
1.328,0.00435
1.332,0.01087
1.336,-0.02003
1.34,-0.02756
1.344,0.01152
1.348,-0.01137
1.352,-0.01351
1.356,-0.00087
1.36,-0.02742
1.364,-0.00398
1.368,-0.0352
1.372,-0.02662
1.376,-0.00261
1.38,-0.01775
1.384,-0.04619
1.388,-0.06555
1.392,-0.10384
1.396,-0.12272
1.4,-0.09004
1.404,-0.02379
1.408,0.13994
1.412,0.3183
1.416,0.53758
1.42,0.74212
1.424,0.90527
1.428,0.97252
1.432,0.95793
1.436,0.84622
1.44,0.62733
1.444,0.39564
1.448,0.19029
1.452,-0.0093
1.456,-0.11039
1.46,-0.18683
1.464,-0.18851
1.468,-0.15031
1.472,-0.09408
1.476,-0.03875
1.48,-0.02142
1.484,-0.00245
1.488,0.01045
1.492,0.00153
1.496,-0.00364
1.5,-0.00905
1.504,-0.00178
1.508,-0.00956
1.512,-0.02169
1.516,0.0138
1.52,0.00639
1.524,-0.01111
1.528,0.01629
1.532,0.01551
1.536,0.00328
1.54,1e-05
1.544,-0.00775
1.548,0.00013
1.552,0.02106
1.556,0.00133
1.56,-0.00945
1.564,-0.03597
1.568,-0.01105
1.572,0.04647
1.576,0.03182
1.58,-0.01469
1.584,0.0202
1.588,0.01408
1.592,-0.0342
1.596,0.04915
1.6,0.00976
1.604,0.02913
1.608,-0.00369
1.612,0.03617
1.616,0.03608
1.62,0.0324
1.624,0.02361
1.628,0.036
1.632,0.06294
1.636,0.05939
1.64,0.0466
1.644,0.06184
1.648,0.07134
1.652,0.10088
1.656,0.10231
1.66,0.12181
1.664,0.12053
1.668,0.12327
1.672,0.14814
1.676,0.18916
1.68,0.19216
1.684,0.18382
1.688,0.20686
1.692,0.21666
1.696,0.20015
1.7,0.23217
1.704,0.21855
1.708,0.20607
1.712,0.20831
1.716,0.24878
1.72,0.18376
1.724,0.19057
1.728,0.17967
1.732,0.18327
1.736,0.17452
1.74,0.16494
1.744,0.16008
1.748,0.16186
1.752,0.14949
1.756,0.09505
1.76,0.11876
1.764,0.09587
1.768,0.09618
1.772,0.07656
1.776,0.08615
1.78,0.06593
1.784,0.07158
1.788,0.04811
1.792,0.041
1.796,0.02576
1.8,0.02381
1.804,0.0259
1.808,0.04523
1.812,0.01442
1.816,0.01553
1.82,0.03623
1.824,-0.02073
1.828,0.01423
1.832,0.00954
1.836,0.03188
1.84,0.00517
1.844,0.01446
1.848,0.03919
1.852,-0.00085
1.856,0.00224
1.86,-0.01191
1.864,0.0218
1.868,0.00858
1.872,-0.00349
1.876,0.00046
1.88,0.01439
1.884,0.01812
1.888,-0.00675
1.892,-0.01694
1.896,0.00253
1.9,0.03368
1.904,-0.00628
1.908,0.019
1.912,0.01475
1.916,0.0401
1.92,-0.00235
1.924,0.01859
1.928,0.00721
1.932,0.00278
1.936,0.0126
1.94,0.02541
1.944,0.00611
1.948,0.02383
1.952,-0.00577
1.956,0.0319
1.96,0.01554
1.964,0.01892
1.968,0.02159
1.972,0.02246
1.976,-0.00098
1.98,0.00831
1.984,0.02231
1.988,0.01233
1.992,-0.01004
1.996,-0.00582
2.0,-0.00751
2.004,-0.00046
2.008,-0.01145
2.012,-0.01114
2.016,0.00961
2.02,-0.00403
2.024,0.0047
2.028,0.01897
2.032,0.01957
2.036,0.03883
2.04,0.03034
2.044,0.01346
2.048,0.01574
2.052,0.00435
2.056,0.00631
2.06,0.01269
2.064,0.02913
2.068,0.0487
2.072,0.03136
2.076,0.01094
2.08,0.00264
2.084,0.00402
2.088,-0.01138
2.092,0.00275
2.096,0.02343
2.1,0.00187
2.104,0.00506
2.108,0.0198
2.112,-0.00013
2.116,0.0071
2.12,0.00561
2.124,0.02298
2.128,0.01114
2.132,0.00759
2.136,0.02616
2.14,0.0235
2.144,0.00735
2.148,0.00697
2.152,-0.00124
2.156,-0.00336
2.16,0.01217
2.164,-0.0161
2.168,0.00451
2.172,0.0089
2.176,0.00582
2.18,0.01501
2.184,0.02109
2.188,0.00025
2.192,0.03065
2.196,0.02398
2.2,0.03075
2.204,0.02218
2.208,0.0142
2.212,0.03057
2.216,0.02425
2.22,0.02769
2.224,0.03277
2.228,0.02355
2.232,0.02243
2.236,0.02528
2.24,0.00093
2.244,0.03878
2.248,0.04401
2.252,0.06157
2.256,0.04685
2.26,0.06367
2.264,0.07546
2.268,0.08158
2.272,0.11991
2.276,0.11466
2.28,0.11963
2.284,0.12799
2.288,0.10384
2.292,0.11673
2.296,0.11252
2.3,0.06987
2.304,0.06639
2.308,0.08628
2.312,0.05553
2.316,0.04708
2.32,0.0559
2.324,0.02465
2.328,0.01373
2.332,0.04168
2.336,0.03176
2.34,0.0245
2.344,0.02357
2.348,0.01007
2.352,0.01603
2.356,-0.00185
2.36,0.02173
2.364,0.0083
2.368,0.01551
2.372,0.00488
2.376,0.0445
2.38,0.02154
2.384,0.01589
2.388,0.00905
2.392,-0.03257
2.396,0.01359
2.4,-0.01887
2.404,-0.06518
2.408,-0.07061
2.412,-0.07548
2.416,-0.03982
2.42,0.10025
2.424,0.2749
2.428,0.49474
2.432,0.70009
2.436,0.87861
2.44,0.98806
2.444,1.00241
2.448,0.91127
2.452,0.70358
2.456,0.46776
2.46,0.2521
2.464,0.05731
2.468,-0.09834
2.472,-0.10644
2.476,-0.14154
2.48,-0.11877
2.484,-0.08495
2.488,-0.05131
2.492,0.02083
2.496,0.00159
2.5,-0.01331
2.504,0.02105
2.508,0.0051
2.512,0.03563
2.516,0.03656
2.52,0.03268
2.524,0.05044
2.528,0.01215
2.532,0.05096
2.536,-0.0013
2.54,0.00986
2.544,0.00811
2.548,0.02415
2.552,0.01076
2.556,0.01528
2.56,0.0205
2.564,0.02177
2.568,0.04607
2.572,0.03304
2.576,0.03813
2.58,0.03415
2.584,0.01222
2.588,0.0035
2.592,0.04035
2.596,0.03043
2.6,0.03169
2.604,0.0213
2.608,0.03556
2.612,0.0166
2.616,0.05049
2.62,0.03272
2.624,0.06935
2.628,0.03367
2.632,0.0446
2.636,0.07347
2.64,0.05293
2.644,0.07059
2.648,0.06591
2.652,0.11863
2.656,0.10356
2.66,0.09964
2.664,0.12326
2.668,0.128
2.672,0.12607
2.676,0.14382
2.68,0.13523
2.684,0.16358
2.688,0.21185
2.692,0.19601
2.696,0.21842
2.7,0.22572
2.704,0.23319
2.708,0.24289
2.712,0.25666
2.716,0.24568
2.72,0.25232
2.724,0.24262
2.728,0.23387
2.732,0.24554
2.736,0.23521
2.74,0.23092
2.744,0.2587
2.748,0.18541
2.752,0.20103
2.756,0.16706
2.76,0.22588
2.764,0.18226
2.768,0.14716
2.772,0.16489
2.776,0.13599
2.78,0.12977
2.784,0.11843
2.788,0.10347
2.792,0.08966
2.796,0.12454
2.8,0.09832
2.804,0.06177
2.808,0.05872
2.812,0.0476
2.816,0.05829
2.82,0.04898
2.824,0.0414
2.828,0.03903
2.832,0.04032
2.836,0.03475
2.84,0.04492
2.844,0.01601
2.848,0.05701
2.852,0.03639
2.856,0.01696
2.86,0.02916
2.864,0.04266
2.868,0.02469
2.872,0.05182
2.876,0.01148
2.88,0.0208
2.884,0.02655
2.888,0.01578
2.892,0.04574
2.896,0.00708
2.9,0.02941
2.904,0.01226
2.908,0.01951
2.912,0.03101
2.916,0.06303
2.92,0.02789
2.924,0.04019
2.928,0.01851
2.932,0.00994
2.936,0.01236
2.94,0.02508
2.944,0.02437
2.948,-0.00515
2.952,0.0353
2.956,0.01251
2.96,0.00213
2.964,0.03251
2.968,0.0291
2.972,0.01809
2.976,0.00351
2.98,0.06022
2.984,0.00967
2.988,0.04128
2.992,0.02361
2.996,0.01941
3.0,0.01574
3.004,0.02553
3.008,0.04569
3.012,-0.00277
3.016,0.0462
3.02,0.03007
3.024,0.04217
3.028,0.00455
3.032,0.03255
3.036,0.06294
3.04,0.00524
3.044,0.01557
3.048,0.02686
3.052,0.03848
3.056,0.01418
3.06,0.04243
3.064,0.02328
3.068,0.02726
3.072,0.01963
3.076,0.02959
3.08,0.03229
3.084,0.01567
3.088,0.03724
3.092,0.00059
3.096,0.01654
3.1,0.01443
3.104,0.01248
3.108,0.0284
3.112,0.03434
3.116,0.04479
3.12,0.04076
3.124,0.00754
3.128,0.04498
3.132,0.04818
3.136,0.04686
3.14,0.05652
3.144,0.02246
3.148,0.03421
3.152,0.02343
3.156,0.02093
3.16,0.03778
3.164,0.0246
3.168,0.03908
3.172,0.04548
3.176,0.02212
3.18,0.03629
3.184,0.01151
3.188,0.03474
3.192,0.03061
3.196,0.01825
3.2,0.02733
3.204,0.05003
3.208,0.0443
3.212,0.01815
3.216,0.01802
3.22,0.01803
3.224,0.02413
3.228,0.03434
3.232,0.03145
3.236,0.00923
3.24,0.02388
3.244,0.04732
3.248,0.03161
3.252,0.02214
3.256,0.01366
3.26,0.05633
3.264,0.03994
3.268,0.06144
3.272,0.06059
3.276,0.0453
3.28,0.07365
3.284,0.0968
3.288,0.09484
3.292,0.11244
3.296,0.10079
3.3,0.13105
3.304,0.14225
3.308,0.1286
3.312,0.09277
3.316,0.09862
3.32,0.10774
3.324,0.09716
3.328,0.0836
3.332,0.04015
3.336,0.04977
3.34,0.04761
3.344,0.03799
3.348,0.02903
3.352,0.01378
3.356,0.03622
3.36,0.03402
3.364,0.01589
3.368,0.04699
3.372,0.03928
3.376,0.01553
3.38,0.01904
3.384,0.04552
3.388,0.01945
3.392,0.01783
3.396,0.00638
3.4,0.05002
3.404,0.05431
3.408,0.03412
3.412,0.00534
3.416,0.04072
3.42,-0.00465
3.424,-0.01299
3.428,-0.07747
3.432,-0.07352
3.436,-0.03379
3.44,0.08417
3.444,0.27265
3.448,0.48559
3.452,0.68672
3.456,0.86895
3.46,0.98353
3.464,1.0256
3.468,0.9441
3.472,0.75951
3.476,0.50658
3.48,0.32949
3.484,0.11428
3.488,-0.02067
3.492,-0.0582
3.496,-0.1543
3.5,-0.12094
3.504,-0.07986
3.508,-0.04687
3.512,-0.01594
3.516,0.03352
3.52,0.01664
3.524,0.01581
3.528,0.02533
3.532,0.04093
3.536,-0.00334
3.54,0.02368
3.544,0.02075
3.548,0.03979
3.552,0.03347
3.556,0.01998
3.56,0.03774
3.564,0.05125
3.568,0.04736
3.572,0.00457
3.576,0.02025
3.58,0.01622
3.584,0.04059
3.588,0.03719
3.592,0.01699
3.596,0.02197
3.6,0.01916
3.604,0.01942
3.608,0.04163
3.612,0.03609
3.616,0.02813
3.62,0.01082
3.624,0.03723
3.628,0.0347
3.632,0.06481
3.636,0.06047
3.64,0.05809
3.644,0.03409
3.648,0.00569
3.652,0.0568
3.656,0.05888
3.66,0.06421
3.664,0.06802
3.668,0.06381
3.672,0.09717
3.676,0.07554
3.68,0.12097
3.684,0.09028
3.688,0.14195
3.692,0.12849
3.696,0.14169
3.7,0.16516
3.704,0.16132
3.708,0.20801
3.712,0.18841
3.716,0.1974
3.72,0.22053
3.724,0.233
3.728,0.21915
3.732,0.25227
3.736,0.24391
3.74,0.23734
3.744,0.24769
3.748,0.22272
3.752,0.25536
3.756,0.24537
3.76,0.251
3.764,0.20784
3.768,0.21794
3.772,0.19805
3.776,0.18973
3.78,0.19003
3.784,0.19593
3.788,0.14526
3.792,0.15417
3.796,0.10921
3.8,0.13063
3.804,0.11458
3.808,0.13869
3.812,0.11114
3.816,0.06212
3.82,0.06679
3.824,0.05425
3.828,0.06767
3.832,0.05738
3.836,0.0416
3.84,0.04657
3.844,0.04485
3.848,0.04562
3.852,0.04751
3.856,0.05846
3.86,0.04611
3.864,0.02754
3.868,0.03032
3.872,0.02685
3.876,0.06187
3.88,0.04378
3.884,0.01703
3.888,0.02829
3.892,0.04772
3.896,-0.01202
3.9,0.0286
3.904,0.02171
3.908,0.03446
3.912,0.0467
3.916,0.00766
3.92,0.03701
3.924,0.04624
3.928,0.02585
3.932,0.01213
3.936,-0.00689
3.94,0.01571
3.944,0.01702
3.948,0.02419
3.952,0.02638
3.956,0.00612
3.96,0.00776
3.964,0.00129
3.968,0.02528
3.972,0.03264
3.976,0.02519
3.98,0.01564
3.984,0.02071
3.988,0.02551
3.992,0.01554
3.996,0.0397
4.0,0.02886
4.004,0.02429
4.008,0.03397
4.012,0.02141
4.016,0.03982
4.02,0.01279
4.024,0.01174
4.028,0.03461
4.032,0.02593
4.036,0.0011
4.04,0.0497
4.044,0.03131
4.048,0.02481
4.052,0.02244
4.056,0.03898
4.06,0.03105
4.064,0.01895
4.068,0.02249
4.072,0.01939
4.076,0.04863
4.08,0.00951
4.084,0.02358
4.088,0.01992
4.092,0.03575
4.096,0.04521
4.1,0.02917
4.104,0.00557
4.108,-0.0065
4.112,0.01528
4.116,0.01194
4.12,0.03717
4.124,0.02697
4.128,0.03354
4.132,0.03005
4.136,0.02697
4.14,0.03084
4.144,0.04601
4.148,0.02236
4.152,0.01403
4.156,0.04876
4.16,0.02915
4.164,0.07907
4.168,0.06754
4.172,0.03702
4.176,0.0966
4.18,0.09665
4.184,0.10893
4.188,0.09888
4.192,0.12542
4.196,0.12928
4.2,0.09396
4.204,0.11049
4.208,0.08738
4.212,0.07751
4.216,0.06848
4.22,0.06803
4.224,0.03529
4.228,0.03522
4.232,0.03997
4.236,0.00556
4.24,0.01456
4.244,0.0534
4.248,0.01533
4.252,0.03563
4.256,0.02553
4.26,0.00501
4.264,0.01739
4.268,0.01399
4.272,0.02023
4.276,0.00533
4.28,0.01306
4.284,0.03206
4.288,0.01537
4.292,0.01524
4.296,0.02094
4.3,0.00858
4.304,-0.00314
4.308,-0.03641
4.312,-0.1121
4.316,-0.11452
4.32,-0.09889
4.324,-0.02052
4.328,0.1247
4.332,0.29666
4.336,0.53
4.34,0.74732
4.344,0.90979
4.348,1.02613
4.352,0.98882
4.356,0.85335
4.36,0.66144
4.364,0.43535
4.368,0.20797
4.372,0.03846
4.376,-0.08277
4.38,-0.14294
4.384,-0.15401
4.388,-0.12474
4.392,-0.09167
4.396,-0.03887
4.4,-0.05241
4.404,0.01758
4.408,0.02593
4.412,0.02698
4.416,0.00666
4.42,0.00982
4.424,0.02112
4.428,-0.00884
4.432,0.01054
4.436,0.00434
4.44,0.00267
4.444,0.04189
4.448,0.00353
4.452,0.03309
4.456,0.00281
4.46,-0.00708
4.464,0.01312
4.468,0.01365
4.472,-0.00328
4.476,0.02219
4.48,0.01752
4.484,0.03632
4.488,0.04897
4.492,0.02635
4.496,0.05647
4.5,-0.00508
4.504,0.00655
4.508,0.00734
4.512,0.02126
4.516,0.04595
4.52,0.03879
4.524,-0.00881
4.528,0.03628
4.532,0.05608
4.536,0.02263
4.54,0.05998
4.544,0.05279
4.548,0.02348
4.552,0.07116
4.556,0.05125
4.56,0.05857
4.564,0.11261
4.568,0.13366
4.572,0.13504
4.576,0.11334
4.58,0.11984
4.584,0.15759
4.588,0.14126
4.592,0.16093
4.596,0.16879
4.6,0.20992
4.604,0.19653
4.608,0.18834
4.612,0.21227
4.616,0.19984
4.62,0.22185
4.624,0.20148
4.628,0.24252
4.632,0.23419
4.636,0.23639
4.64,0.2313
4.644,0.23487
4.648,0.22021
4.652,0.21951
4.656,0.19861
4.66,0.18521
4.664,0.17947
4.668,0.18024
4.672,0.14821
4.676,0.11705
4.68,0.14915
4.684,0.08069
4.688,0.08991
4.692,0.11077
4.696,0.08662
4.7,0.07057
4.704,0.05758
4.708,0.06684
4.712,0.05047
4.716,0.01977
4.72,0.04228
4.724,-0.01322
4.728,0.0118
4.732,0.0288
4.736,0.00907
4.74,0.01673
4.744,0.0203
4.748,0.03445
4.752,0.00427
4.756,0.02551
4.76,-0.01016
4.764,0.00146
4.768,0.02294
4.772,0.00788
4.776,0.02331
4.78,-0.00174
4.784,-0.00817
4.788,-0.00734
4.792,0.02997
4.796,0.00983
4.8,0.00681
4.804,0.00084
4.808,0.01663
4.812,-0.02137
4.816,0.00114
4.82,-0.00795
4.824,-0.01043
4.828,-0.01088
4.832,-0.01886
4.836,0.01186
4.84,-0.02325
4.844,-0.01255
4.848,0.01277
4.852,0.01593
4.856,0.00116
4.86,0.00708
4.864,0.00591
4.868,0.00781
4.872,-0.00488
4.876,-0.00442
4.88,-0.00196
4.884,-9e-05
4.888,-0.00151
4.892,0.03911
4.896,0.01273
4.9,-0.02147
4.904,-0.01189
4.908,0.01791
4.912,-0.01623
4.916,0.00285
4.92,0.00856
4.924,-0.01237
4.928,-0.00789
4.932,-0.01046
4.936,0.00537
4.94,-0.00578
4.944,0.01047
4.948,0.01992
4.952,-0.0163
4.956,-0.03085
4.96,-0.01926
4.964,0.00829
4.968,0.00056
4.972,0.01136
4.976,0.00252
4.98,-0.01405
4.984,-0.0145
4.988,0.00129
4.992,-0.01672
4.996,-0.00251
5.0,-0.00288
5.004,-0.01125
5.008,-0.01636
5.012,0.00991
5.016,0.00196
5.02,-0.01283
5.024,-0.00773
5.028,0.01578
5.032,0.0126
5.036,0.00793
5.04,0.00391
5.044,-0.01621
5.048,0.01105
5.052,-0.02218
5.056,0.01129
5.06,-0.00552
5.064,-0.01485
5.068,-0.00892
5.072,-0.03106
5.076,0.01909
5.08,0.03312
5.084,-0.01577
5.088,-0.01264
5.092,0.00581
5.096,-0.00723
5.1,0.01977
5.104,-0.00922
5.108,0.01436
5.112,0.00893
5.116,0.00067
5.12,-0.02104
5.124,-0.00218
5.128,-0.01804
5.132,-0.00829
5.136,0.00638
5.14,0.01762
5.144,0.00699
5.148,-0.00127
5.152,-0.00057
5.156,0.01523
5.16,0.00869
5.164,0.01011
5.168,0.03155
5.172,0.01136
5.176,0.06228
5.18,0.03259
5.184,0.06596
5.188,0.09049
5.192,0.07664
5.196,0.08316
5.2,0.08606
5.204,0.11293
5.208,0.09663
5.212,0.06201
5.216,0.0558
5.22,0.04626
5.224,0.01821
5.228,0.02734
5.232,0.01387
5.236,0.01356
5.24,0.00924
5.244,0.00165
5.248,0.00553
5.252,-0.01448
5.256,-0.03414
5.26,-0.00254
5.264,-0.04015
5.268,-0.00896
5.272,-0.0198
5.276,-0.00069
5.28,-0.03938
5.284,-0.00062
5.288,-0.0009
5.292,0.00512
5.296,-0.00467
5.3,-0.01587
5.304,-0.00013
5.308,0.00597
5.312,0.00361
5.316,-0.0397
5.32,-0.06123
5.324,-0.09378
5.328,-0.11952
5.332,-0.12645
5.336,-0.05558
5.34,0.06585
5.344,0.22754
5.348,0.42539
5.352,0.68509
5.356,0.85187
5.36,0.96668
5.364,0.96237
5.368,0.87515
5.372,0.70525
5.376,0.47741
5.38,0.23098
5.384,0.04843
5.388,-0.06683
5.392,-0.14916
5.396,-0.20235
5.4,-0.12908
5.404,-0.08716
5.408,-0.09541
5.412,-0.05127
5.416,-0.06812
5.42,0.00203
5.424,-0.0197
5.428,-0.0559
5.432,-0.02869
5.436,0.00084
5.44,-0.02754
5.444,-0.00187
5.448,-0.01724
5.452,-0.0169
5.456,-0.03294
5.46,-0.01658
5.464,-0.00773
5.468,-0.02035
5.472,-0.01541
5.476,-0.01664
5.48,-0.03962
5.484,-0.0151
5.488,-0.033
5.492,-0.01921
5.496,-0.01142
5.5,0.0014
5.504,-0.00088
5.508,-0.00981
5.512,-0.01483
5.516,-0.00424
5.52,-0.03132
5.524,0.00245
5.528,0.00254
5.532,-0.00987
5.536,-0.00139
5.54,0.01056
5.544,0.00013
5.548,-0.0147
5.552,0.00909
5.556,0.00183
5.56,0.02517
5.564,0.01331
5.568,0.04668
5.572,0.03958
5.576,0.05161
5.58,0.06855
5.584,0.11666
5.588,0.07836
5.592,0.09247
5.596,0.09904
5.6,0.09375
5.604,0.13715
5.608,0.12772
5.612,0.1524
5.616,0.17512
5.62,0.1838
5.624,0.16326
5.628,0.17237
5.632,0.17874
5.636,0.21879
5.64,0.20636
5.644,0.18006
5.648,0.17324
5.652,0.17544
5.656,0.19795
5.66,0.19216
5.664,0.18609
5.668,0.17966
5.672,0.15264
5.676,0.14074
5.68,0.15647
5.684,0.11755
5.688,0.11318
5.692,0.11108
5.696,0.10174
5.7,0.12137
5.704,0.04647
5.708,0.06264
5.712,0.03241
5.716,0.04276
5.72,0.03411
5.724,0.02043
5.728,0.01583
5.732,0.00408
5.736,0.00355
5.74,0.00987
5.744,0.03604
5.748,0.00562
5.752,-0.02884
5.756,-0.00102
5.76,0.00787
5.764,0.00318
5.768,-0.00142
5.772,-0.03284
5.776,0.00361
5.78,-0.00639
5.784,-0.01139
5.788,-0.00882
5.792,-0.01454
5.796,-0.04389
5.8,-0.02065
5.804,-0.02239
5.808,-0.05484
5.812,-0.01665
5.816,-0.03149
5.82,-0.02307
5.824,-0.0172
5.828,-0.02573
5.832,-0.03902
5.836,-0.02626
5.84,-0.02383
5.844,-0.00263
5.848,-0.02295
5.852,-0.04968
5.856,-0.04386
5.86,-0.02983
5.864,-0.04918
5.868,-0.01421
5.872,-0.01444
5.876,-0.00789
5.88,-0.00851
5.884,-0.04201
5.888,-0.02383
5.892,-0.03384
5.896,-0.0105
5.9,-0.04577
5.904,-0.02827
5.908,-0.02563
5.912,-0.03815
5.916,-0.02589
5.92,-0.02498
5.924,0.01437
5.928,-0.01237
5.932,-0.02748
5.936,0.00459
5.94,-0.03876
5.944,-0.01572
5.948,-0.01713
5.952,-0.01672
5.956,0.01303
5.96,-0.0081
5.964,-0.01222
5.968,-0.02033
5.972,-0.02103
5.976,-0.03666
5.98,-0.03913
5.984,-0.02692
5.988,-0.0359
5.992,-0.00959
5.996,-0.01108
6.0,-0.03451
6.004,-0.03668
6.008,-0.03858
6.012,-0.01223
6.016,-0.02434
6.02,-0.00624
6.024,-0.00727
6.028,-0.02713
6.032,-0.02294
6.036,-0.05879
6.04,-0.03983
6.044,-0.03577
6.048,-0.0483
6.052,-0.03778
6.056,-0.00024
6.06,-0.027
6.064,-0.05033
6.068,-0.00547
6.072,-0.04155
6.076,-0.01645
6.08,-0.03789
6.084,-0.01136
6.088,-0.03819
6.092,-0.02392
6.096,-0.04409
6.1,-0.01009
6.104,-0.06784
6.108,-0.01815
6.112,-0.00379
6.116,-0.02529
6.12,-0.01318
6.124,0.00917
6.128,0.01397
6.132,0.04358
6.136,0.04782
6.14,0.05415
6.144,0.05179
6.148,0.07659
6.152,0.05305
6.156,0.03771
6.16,0.08102
6.164,0.06867
6.168,0.04627
6.172,0.03578
6.176,0.03212
6.18,0.03177
6.184,0.00016
6.188,-0.02239
6.192,-0.00334
6.196,-0.01731
6.2,-0.0212
6.204,-0.02537
6.208,-0.03297
6.212,-0.06189
6.216,-0.00966
6.22,-0.01427
6.224,-0.02497
6.228,-0.04009
6.232,0.00017
6.236,-0.01869
6.24,0.00103
6.244,-0.00917
6.248,-0.03951
6.252,-0.036
6.256,-0.02875
6.26,-0.04738
6.264,-0.02854
6.268,-0.04598
6.272,-0.08479
6.276,-0.10242
6.28,-0.15277
6.284,-0.1454
6.288,-0.07578
6.292,0.04316
6.296,0.24805
6.3,0.46283
6.304,0.65428
6.308,0.85499
6.312,0.95625
6.316,0.97125
6.32,0.848
6.324,0.65463
6.328,0.44708
6.332,0.2012
6.336,0.02398
6.34,-0.09135
6.344,-0.20077
6.348,-0.18466
6.352,-0.15376
6.356,-0.11159
6.36,-0.07517
6.364,-0.0667
6.368,-0.03128
6.372,-0.04462
6.376,-0.04765
6.38,-0.04093
6.384,-0.03302
6.388,-0.05066
6.392,-0.04138
6.396,-0.05444
6.4,-0.02029
6.404,-0.01945
6.408,-0.02688
6.412,-0.00825
6.416,-0.02647
6.42,-0.04565
6.424,-0.01863
6.428,-0.01529
6.432,-0.03746
6.436,-0.00987
6.44,-0.02499
6.444,-0.04055
6.448,-0.03949
6.452,-0.04229
6.456,-0.01786
6.46,-0.01562
6.464,0.00074
6.468,-0.01492
6.472,-0.01579
6.476,-0.0194
6.48,-0.02238
6.484,-0.01403
6.488,-0.02528
6.492,-0.02043
6.496,-0.00359
6.5,0.00788
6.504,-0.01701
6.508,0.00165
6.512,0.01779
6.516,0.0161
6.52,0.02663
6.524,0.03001
6.528,0.05135
6.532,0.05863
6.536,0.07602
6.54,0.08854
6.544,0.07278
6.548,0.08099
6.552,0.09074
6.556,0.14743
6.56,0.12268
6.564,0.15097
6.568,0.16304
6.572,0.16608
6.576,0.16345
6.58,0.17582
6.584,0.18922
6.588,0.19984
6.592,0.18715
6.596,0.1759
6.6,0.18935
6.604,0.18466
6.608,0.18272
6.612,0.17674
6.616,0.1754
6.62,0.15473
6.624,0.15421
6.628,0.1384
6.632,0.1216
6.636,0.12335
6.64,0.10625
6.644,0.05519
6.648,0.05137
6.652,0.07894
6.656,0.0702
6.66,0.0337
6.664,0.04755
6.668,0.02637
6.672,-0.00017
6.676,0.00028
6.68,-0.00898
6.684,0.01661
6.688,0.00291
6.692,0.00101
6.696,0.00219
6.7,-0.01539
6.704,-0.03516
6.708,-0.01946
6.712,-0.00945
6.716,-0.02383
6.72,-0.00661
6.724,-0.00987
6.728,-0.0396
6.732,-0.02378
6.736,-0.06315
6.74,-0.03286
6.744,-0.0323
6.748,-0.03493
6.752,-0.03773
6.756,-0.03864
6.76,-0.01385
6.764,-0.02717
6.768,-0.01476
6.772,-0.01822
6.776,-0.0534
6.78,-0.03192
6.784,-0.02226
6.788,-0.02197
6.792,-0.01681
6.796,-0.02927
6.8,-0.03192
6.804,-0.02097
6.808,-0.0186
6.812,-0.04006
6.816,-0.02362
6.82,-0.02659
6.824,-0.00647
6.828,-0.02272
6.832,-0.01439
6.836,-0.02989
6.84,-0.00688
6.844,-0.01523
6.848,-0.02408
6.852,-0.03365
6.856,-0.04852
6.86,-0.02215
6.864,-0.00979
6.868,-0.02355
6.872,-0.02661
6.876,-0.04345
6.88,-0.01328
6.884,-0.03411
6.888,-0.03734
6.892,-0.00981
6.896,-0.1015
6.9,-0.02269
6.904,-0.00696
6.908,-0.02211
6.912,-0.03111
6.916,-0.00925
6.92,-0.03664
6.924,-0.02291
6.928,-0.01723
6.932,-0.01366
6.936,-0.01328
6.94,-0.00895
6.944,-0.04296
6.948,-0.03607
6.952,-0.03227
6.956,-0.02317
6.96,-0.03054
6.964,-0.04074
6.968,-0.0433
6.972,-0.02364
6.976,-0.0279
6.98,-0.02826
6.984,-0.02174
6.988,-0.03324
6.992,-0.02557
6.996,-0.02737
7.0,-0.00275
7.004,-0.04658
7.008,-0.01556
7.012,-0.03356
7.016,-0.00977
7.02,-0.05434
7.024,-0.04715
7.028,-0.03717
7.032,-0.02267
7.036,-0.03377
7.04,-0.01122
7.044,-0.00921
7.048,-0.01835
7.052,-0.01162
7.056,-0.04441
7.06,-0.01201
7.064,-0.00969
7.068,-0.01597
7.072,-0.00502
7.076,-0.01409
7.08,-0.05421
7.084,-0.00692
7.088,-0.02421
7.092,-0.04686
7.096,-0.03076
7.1,-0.02539
7.104,-0.0398
7.108,-0.01262
7.112,-0.00466
7.116,-0.0063
7.12,0.00708
7.124,0.00402
7.128,0.03371
7.132,0.03891
7.136,0.04342
7.14,0.05879
7.144,0.07892
7.148,0.06581
7.152,0.0811
7.156,0.04454
7.16,0.07216
7.164,0.06491
7.168,0.04668
7.172,0.02163
7.176,0.00398
7.18,0.00739
7.184,-0.00827
7.188,0.0013
7.192,-0.01951
7.196,-0.00935
7.2,-0.03554
7.204,-0.01716
7.208,-0.01299
7.212,-0.06733
7.216,-0.0651
7.22,-0.03993
7.224,-0.02016
7.228,-0.03641
7.232,-0.0084
7.236,-0.04911
7.24,-0.03686
7.244,-0.00722
7.248,-0.04181
7.252,-0.02939
7.256,-0.01917
7.26,-0.03047
7.264,-0.06095
7.268,-0.07786
7.272,-0.11718
7.276,-0.15405
7.28,-0.12454
7.284,-0.06141
7.288,0.07703
7.292,0.23591
7.296,0.42348
7.3,0.61857
7.304,0.82398
7.308,0.95794
7.312,0.95176
7.316,0.8625
7.32,0.65225
7.324,0.44899
7.328,0.22812
7.332,0.05268
7.336,-0.09966
7.34,-0.18097
7.344,-0.18134
7.348,-0.14711
7.352,-0.12205
7.356,-0.1066
7.36,-0.07766
7.364,-0.03257
7.368,-0.00785
7.372,-7e-05
7.376,-0.03159
7.38,-0.0438
7.384,-0.02112
7.388,0.00495
7.392,-0.01612
7.396,0.0026
7.4,-0.01328
7.404,-0.05511
7.408,-0.0402
7.412,-0.03436
7.416,-0.06314
7.42,-0.03684
7.424,-0.02613
7.428,-0.01038
7.432,-0.03192
7.436,-0.01101
7.44,0.00104
7.444,-0.02838
7.448,-0.02086
7.452,-0.0269
7.456,-0.01848
7.46,-0.00483
7.464,0.00773
7.468,-0.04002
7.472,-0.04072
7.476,-0.01522
7.48,0.00019
7.484,0.01405
7.488,0.00161
7.492,0.01594
7.496,0.00568
7.5,0.0017
7.504,0.02415
7.508,0.02812
7.512,0.04332
7.516,0.03833
7.52,0.04167
7.524,0.04792
7.528,0.08011
7.532,0.07904
7.536,0.08218
7.54,0.1214
7.544,0.12244
7.548,0.0936
7.552,0.14585
7.556,0.13305
7.56,0.18537
7.564,0.1585
7.568,0.17304
7.572,0.1795
7.576,0.17658
7.58,0.20522
7.584,0.1984
7.588,0.17252
7.592,0.20149
7.596,0.21003
7.6,0.19228
7.604,0.18401
7.608,0.16766
7.612,0.16416
7.616,0.18921
7.62,0.15905
7.624,0.1759
7.628,0.11955
7.632,0.10968
7.636,0.11041
7.64,0.13698
7.644,0.0926
7.648,0.08795
7.652,0.05907
7.656,0.05618
7.66,0.0251
7.664,0.03666
7.668,0.0439
7.672,0.04265
7.676,0.03493
7.68,-0.00925
7.684,0.02371
7.688,0.02981
7.692,0.01354
7.696,0.00821
7.7,0.00929
7.704,0.00172
7.708,-0.00651
7.712,-0.0159
7.716,0.00234
7.72,-0.0008
7.724,-0.00069
7.728,-0.01295
7.732,-0.02664
7.736,-0.01172
7.74,-0.00621
7.744,-0.02985
7.748,-0.00264
7.752,-0.01075
7.756,-0.00118
7.76,-0.02497
7.764,-0.01296
7.768,-0.01827
7.772,-0.01104
7.776,-0.01375
7.78,-0.03505
7.784,-0.03534
7.788,-0.01622
7.792,-0.00521
7.796,0.01013
7.8,-0.02731
7.804,-0.02769
7.808,-0.01469
7.812,-0.03183
7.816,0.00243
7.82,-0.02073
7.824,-0.03486
7.828,-0.00939
7.832,-0.00438
7.836,-0.04073
7.84,-0.02752
7.844,-0.02838
7.848,-0.01593
7.852,-0.04302
7.856,-0.00584
7.86,-0.0029
7.864,-0.00024
7.868,0.01353
7.872,0.00919
7.876,-0.00259
7.88,-0.02312
7.884,-0.01186
7.888,-0.02388
7.892,-0.01532
7.896,-0.02503
7.9,-0.00053
7.904,-0.01372
7.908,-0.00562
7.912,-0.00958
7.916,-0.00222
7.92,-0.00112
7.924,-0.0059
7.928,0.02455
7.932,0.03048
7.936,0.04715
7.94,0.05386
7.944,0.05337
7.948,0.02541
7.952,0.05196
7.956,0.07311
7.96,0.09149
7.964,0.10023
7.968,0.11247
7.972,0.08489
7.976,0.06098
7.98,0.03234
7.984,0.07047
7.988,0.04747
7.992,0.02104
7.996,0.03118
8.0,0.0092
8.004,0.02545
8.008,0.00954
8.012,0.01933
8.016,-0.02991
8.02,-0.0278
8.024,-0.01456
8.028,0.00835
8.032,0.00317
8.036,0.00581
8.04,0.00247
8.044,0.00522
8.048,0.00359
8.052,-0.01803
8.056,0.0062
8.06,-0.00769
8.064,0.00039
8.068,-0.01066
8.072,-0.03178
8.076,-0.01592
8.08,-0.02165
8.084,-0.06302
8.088,-0.12751
8.092,-0.11443
8.096,-0.09472
8.1,-0.00122
8.104,0.15334
8.108,0.37139
8.112,0.55749
8.116,0.76385
8.12,0.93155
8.124,0.9912
8.128,0.95458
8.132,0.82162
8.136,0.56229
8.14,0.32291
8.144,0.16613
8.148,-0.00292
8.152,-0.11165
8.156,-0.16429
8.16,-0.17579
8.164,-0.11735
8.168,-0.06598
8.172,-0.03976
8.176,-0.03668
8.18,-0.0141
8.184,0.01086
8.188,-0.02283
8.192,-0.00703
8.196,0.00765
8.2,-0.0132
8.204,-0.0204
8.208,-0.02002
8.212,-0.02379
8.216,-0.01359
8.22,-0.01637
8.224,0.01891
8.228,-0.02629
8.232,0.00902
8.236,0.00544
8.24,0.00224
8.244,0.01667
8.248,-0.0085
8.252,-0.01991
8.256,-0.00836
8.26,0.00674
8.264,-0.00819
8.268,-0.00568
8.272,0.02533
8.276,0.01079
8.28,0.00228
8.284,0.00483
8.288,0.04875
8.292,0.01109
8.296,0.01506
8.3,0.02079
8.304,0.0153
8.308,0.03417
8.312,0.02455
8.316,0.04048
8.32,0.03566
8.324,0.06758
8.328,0.07825
8.332,0.08058
8.336,0.09084
8.34,0.09947
8.344,0.10108
8.348,0.10186
8.352,0.1017
8.356,0.13258
8.36,0.14868
8.364,0.15218
8.368,0.18972
8.372,0.18661
8.376,0.20895
8.38,0.20281
8.384,0.20042
8.388,0.18587
8.392,0.23582
8.396,0.21474
8.4,0.21069
8.404,0.22872
8.408,0.23171
8.412,0.19598
8.416,0.21625
8.42,0.2201
8.424,0.20036
8.428,0.17634
8.432,0.20377
8.436,0.14131
8.44,0.1664
8.444,0.15135
8.448,0.12892
8.452,0.14872
8.456,0.10042
8.46,0.09858
8.464,0.11146
8.468,0.0739
8.472,0.07429
8.476,0.08289
8.48,0.07791
8.484,0.05528
8.488,0.03049
8.492,0.01324
8.496,0.02168
8.5,0.06021
8.504,0.02304
8.508,0.04222
8.512,0.0229
8.516,0.00092
8.52,0.00613
8.524,0.0175
8.528,0.00583
8.532,0.00317
8.536,0.01132
8.54,0.0038
8.544,-0.01129
8.548,-0.00116
8.552,-0.01585
8.556,0.00207
8.56,0.01062
8.564,0.01672
8.568,0.04089
8.572,0.032
8.576,0.00219
8.58,0.01421
8.584,-0.01061
8.588,-0.00596
8.592,0.02273
8.596,0.01799
8.6,0.02132
8.604,0.02348
8.608,0.01286
8.612,0.01892
8.616,0.02706
8.62,0.01107
8.624,0.01861
8.628,-0.01173
8.632,0.03287
8.636,-0.0069
8.64,0.0178
8.644,-0.02367
8.648,0.00306
8.652,0.01022
8.656,0.01269
8.66,0.0249
8.664,-0.0051
8.668,0.03678
8.672,0.02942
8.676,-0.00363
8.68,0.01443
8.684,-0.01151
8.688,0.00899
8.692,0.00064
8.696,0.0013
8.7,0.0266
8.704,0.00641
8.708,0.01207
8.712,-0.00601
8.716,0.00968
8.72,0.02145
8.724,-0.01345
8.728,0.01147
8.732,0.01348
8.736,0.02141
8.74,0.0381
8.744,0.00272
8.748,0.04109
8.752,0.01054
8.756,0.04822
8.76,0.03274
8.764,-0.00906
8.768,0.02696
8.772,0.0124
8.776,0.03816
8.78,0.00595
8.784,0.04986
8.788,0.0293
8.792,0.00057
8.796,0.0342
8.8,-0.00241
8.804,0.01573
8.808,0.00946
8.812,-0.01699
8.816,0.01197
8.82,0.01051
8.824,0.00062
8.828,0.00779
8.832,0.00531
8.836,0.00286
8.84,0.01226
8.844,-0.00523
8.848,0.01132
8.852,0.0161
8.856,0.01952
8.86,-0.00156
8.864,0.04458
8.868,0.00786
8.872,0.02022
8.876,0.03437
8.88,0.04166
8.884,0.02386
8.888,0.04279
8.892,0.03113
8.896,0.0648
8.9,0.07315
8.904,0.07879
8.908,0.08234
8.912,0.08636
8.916,0.10288
8.92,0.09205
8.924,0.14559
8.928,0.13089
8.932,0.11537
8.936,0.07528
8.94,0.11505
8.944,0.07128
8.948,0.07072
8.952,0.04645
8.956,0.03877
8.96,0.0331
8.964,0.01391
8.968,0.02561
8.972,0.05954
8.976,0.01225
8.98,0.03839
8.984,0.02825
8.988,0.0344
8.992,0.0209
8.996,0.00962
9.0,0.03954
9.004,0.0173
9.008,0.02001
9.012,0.03141
9.016,0.02004
9.02,0.03661
9.024,0.00367
9.028,0.02221
9.032,0.02659
9.036,0.01582
9.04,-0.01834
9.044,-0.02901
9.048,-0.09968
9.052,-0.05757
9.056,-0.04184
9.06,0.02366
9.064,0.18184
9.068,0.37741
9.072,0.59058
9.076,0.80534
9.08,0.95641
9.084,1.02057
9.088,0.96334
9.092,0.82574
9.096,0.61737
9.1,0.36992
9.104,0.15605
9.108,-0.01993
9.112,-0.07913
9.116,-0.14185
9.12,-0.11009
9.124,-0.10656
9.128,-0.06542
9.132,-0.03212
9.136,0.00958
9.14,0.00713
9.144,0.03701
9.148,-0.01776
9.152,0.01667
9.156,0.01981
9.16,0.02657
9.164,0.01564
9.168,0.01369
9.172,0.01213
9.176,-0.00999
9.18,0.02393
9.184,0.01436
9.188,0.0104
9.192,0.01045
9.196,0.01604
9.2,0.03519
9.204,0.01021
9.208,0.01308
9.212,0.02981
9.216,0.0273
9.22,0.03359
9.224,0.00508
9.228,0.02144
9.232,0.03616
9.236,0.02002
9.24,0.01444
9.244,0.01219
9.248,0.05959
9.252,0.02269
9.256,0.04266
9.26,0.04424
9.264,0.0643
9.268,0.04603
9.272,0.0455
9.276,0.03984
9.28,0.10771
9.284,0.08402
9.288,0.06541
9.292,0.10867
9.296,0.08109
9.3,0.08347
9.304,0.1212
9.308,0.13874
9.312,0.15157
9.316,0.15491
9.32,0.15493
9.324,0.16866
9.328,0.17881
9.332,0.17325
9.336,0.18392
9.34,0.1951
9.344,0.23899
9.348,0.21162
9.352,0.24907
9.356,0.24646
9.36,0.23603
9.364,0.24949
9.368,0.23554
9.372,0.2248
9.376,0.23227
9.38,0.23996
9.384,0.20742
9.388,0.20173
9.392,0.21672
9.396,0.19223
9.4,0.21191
9.404,0.18378
9.408,0.15221
9.412,0.16886
9.416,0.14336
9.42,0.13987
9.424,0.1102
9.428,0.10122
9.432,0.09417
9.436,0.07136
9.44,0.09575
9.444,0.10687
9.448,0.06589
9.452,0.04568
9.456,0.04498
9.46,0.0525
9.464,0.0617
9.468,0.05033
9.472,0.03997
9.476,0.01582
9.48,0.01624
9.484,0.02247
9.488,0.01789
9.492,0.04285
9.496,0.0043
9.5,0.04094
9.504,0.00797
9.508,0.03639
9.512,0.01677
9.516,0.04499
9.52,0.01028
9.524,0.04558
9.528,0.05344
9.532,0.04191
9.536,0.05409
9.54,0.03223
9.544,0.05561
9.548,0.01146
9.552,-0.00912
9.556,0.0211
9.56,0.03771
9.564,0.06522
9.568,0.01107
9.572,0.04013
9.576,0.02432
9.58,0.02795
9.584,0.06164
9.588,0.00384
9.592,0.01564
9.596,0.01331
9.6,0.02558
9.604,0.04712
9.608,0.01239
9.612,0.04913
9.616,0.03113
9.62,0.04508
9.624,0.02624
9.628,0.02475
9.632,0.03032
9.636,0.03397
9.64,0.04841
9.644,0.0302
9.648,0.01998
9.652,0.02244
9.656,0.04295
9.66,0.03119
9.664,0.04321
9.668,0.04975
9.672,0.03993
9.676,0.02619
9.68,0.0124
9.684,0.04006
9.688,0.06426
9.692,0.01707
9.696,0.03564
9.7,0.04133
9.704,0.0251
9.708,0.01734
9.712,0.04171
9.716,0.02529
9.72,0.02082
9.724,0.00906
9.728,0.03294
9.732,0.02808
9.736,0.01281
9.74,0.05364
9.744,0.05672
9.748,0.03652
9.752,0.06442
9.756,0.05612
9.76,0.06741
9.764,0.08234
9.768,0.04994
9.772,0.09056
9.776,0.08891
9.78,0.12147
9.784,0.13201
9.788,0.10399
9.792,0.17674
9.796,0.12674
9.8,0.12079
9.804,0.11567
9.808,0.09986
9.812,0.10193
9.816,0.07802
9.82,0.08349
9.824,0.07268
9.828,0.03204
9.832,0.02539
9.836,0.03498
9.84,0.02974
9.844,0.04823
9.848,0.02967
9.852,0.01638
9.856,0.00688
9.86,0.01169
9.864,0.01887
9.868,0.04433
9.872,0.02086
9.876,0.04216
9.88,0.04806
9.884,0.02788
9.888,0.01818
9.892,0.01008
9.896,0.03006
9.9,0.00671
9.904,0.01918
9.908,-0.00137
9.912,-0.04588
9.916,-0.03669
9.92,-0.08089
9.924,-0.05576
9.928,0.05732
9.932,0.20253
9.936,0.40183
9.94,0.62772
9.944,0.84984
9.948,0.95542
9.952,1.0486
9.956,0.94088
9.96,0.78107
9.964,0.57402
9.968,0.33909
9.972,0.12112
9.976,-0.04162
9.98,-0.13551
9.984,-0.15319
9.988,-0.12531
9.992,-0.09867
9.996,-0.045
