t_seg,ecg_mV
0.0,0.0333
0.004,0.02414
0.008,0.03643
0.012,0.02779
0.016,0.0623
0.02,0.00236
0.024,0.01161
0.028,0.05032
0.032,0.04128
0.036,0.03223
0.04,0.02344
0.044,0.02327
0.048,0.02453
0.052,0.04738
0.056,0.01523
0.06,0.00889
0.064,0.02183
0.068,0.02389
0.072,0.03894
0.076,0.01377
0.08,0.02859
0.084,0.02388
0.088,-0.00161
0.092,0.02556
0.096,0.03436
0.1,0.02143
0.104,0.04102
0.108,0.05356
0.112,0.01735
0.116,0.02321
0.12,0.01926
0.124,0.02986
0.128,0.02464
0.132,0.00807
0.136,0.03336
0.14,0.02009
0.144,0.01833
0.148,0.0497
0.152,0.00203
0.156,0.032
0.16,0.02154
0.164,0.02168
0.168,0.03358
0.172,0.02335
0.176,0.02696
0.18,0.03615
0.184,0.0322
0.188,0.0341
0.192,0.05655
0.196,0.02442
0.2,0.03236
0.204,0.00433
0.208,-0.00974
0.212,0.03364
0.216,0.01889
0.22,0.00687
0.224,0.04048
0.228,0.03754
0.232,0.0251
0.236,0.0398
0.24,0.01884
0.244,0.01108
0.248,0.02709
0.252,-0.00152
0.256,0.02404
0.26,0.02607
0.264,0.0112
0.268,0.00796
0.272,0.0042
0.276,0.01099
0.28,0.02332
0.284,0.03271
0.288,0.01974
0.292,0.03972
0.296,0.04786
0.3,0.0208
0.304,0.01538
0.308,0.03797
0.312,0.02664
0.316,0.04324
0.32,0.03953
0.324,0.04411
0.328,0.05474
0.332,0.0776
0.336,0.10065
0.34,0.09176
0.344,0.11003
0.348,0.13481
0.352,0.13084
0.356,0.13339
0.36,0.1151
0.364,0.09712
0.368,0.0811
0.372,0.09756
0.376,0.07264
0.38,0.0398
0.384,0.03781
0.388,0.04816
0.392,0.0027
0.396,0.02927
0.4,0.02835
0.404,0.01227
0.408,0.0079
0.412,0.04782
0.416,0.03733
0.42,0.02527
0.424,0.02116
0.428,0.01896
0.432,0.01927
0.436,0.02936
0.44,0.027
0.444,0.00631
0.448,0.00978
0.452,0.0066
0.456,0.02626
0.46,0.01093
0.464,0.02675
0.468,-0.01511
0.472,-0.06671
0.476,-0.06239
0.48,-0.0898
0.484,-0.05902
0.488,0.03315
0.492,0.2039
0.496,0.43035
0.5,0.61157
0.504,0.81946
0.508,0.98908
0.512,0.98444
0.516,0.95158
0.52,0.76795
0.524,0.57982
0.528,0.33224
0.532,0.14668
0.536,-0.0188
0.54,-0.13391
0.544,-0.15017
0.548,-0.1301
0.552,-0.09942
0.556,-0.07314
0.56,-0.01655
0.564,0.00887
0.568,0.03357
0.572,0.01023
0.576,0.00559
0.58,0.0055
0.584,0.02609
0.588,-0.01453
0.592,-0.00569
0.596,0.0015
0.6,0.04334
0.604,0.01111
0.608,0.01636
0.612,0.01372
0.616,-0.04415
0.62,-0.01278
0.624,0.01418
0.628,0.01052
0.632,0.00693
0.636,0.00336
0.64,-0.01306
0.644,0.00884
0.648,0.01778
0.652,0.02329
0.656,-0.00409
0.66,0.02253
0.664,0.02438
0.668,0.02196
0.672,0.0129
0.676,0.01553
0.68,0.01417
0.684,0.01343
0.688,0.0505
0.692,0.0195
0.696,0.0351
0.7,0.00974
0.704,0.06787
0.708,0.05121
0.712,0.03026
0.716,0.03397
0.72,0.05392
0.724,0.05965
0.728,0.08016
0.732,0.0711
0.736,0.08921
0.74,0.13078
0.744,0.14212
0.748,0.15766
0.752,0.13279
0.756,0.16386
0.76,0.20549
0.764,0.18186
0.768,0.19363
0.772,0.21052
0.776,0.2101
0.78,0.2366
0.784,0.20342
0.788,0.21611
0.792,0.24624
0.796,0.24319
0.8,0.22242
0.804,0.21584
0.808,0.19763
0.812,0.22755
0.816,0.21236
0.82,0.17555
0.824,0.16941
0.828,0.17799
0.832,0.18104
0.836,0.12881
0.84,0.128
0.844,0.12677
0.848,0.11246
0.852,0.09281
0.856,0.0945
0.86,0.06874
0.864,0.06417
0.868,0.07586
0.872,0.0198
0.876,0.05014
0.88,0.03143
0.884,0.05186
0.888,0.03261
0.892,0.01575
0.896,0.03087
0.9,0.01043
0.904,0.00842
0.908,0.02102
0.912,0.00516
0.916,-0.0024
0.92,0.01947
0.924,0.00621
0.928,0.00209
0.932,-0.02337
0.936,0.01823
0.94,0.02647
0.944,0.00166
0.948,0.03782
0.952,0.00868
0.956,-0.00619
0.96,0.01167
0.964,-0.01847
0.968,0.02091
0.972,-0.02058
0.976,0.00912
0.98,-0.01454
0.984,-0.0135
0.988,0.02186
0.992,0.01182
0.996,0.01525
1.0,-0.02685
1.004,0.01596
1.008,0.01012
1.012,0.01747
1.016,-0.01173
1.02,-0.02817
1.024,0.01052
1.028,0.00817
1.032,-0.01704
1.036,0.01425
1.04,-0.01681
1.044,0.00917
1.048,0.01219
1.052,0.01257
1.056,-0.00689
1.06,0.00437
1.064,0.00549
1.068,-0.00213
1.072,0.00835
1.076,0.00159
1.08,-0.00094
1.084,0.00627
1.088,0.01615
1.092,-0.00055
1.096,-0.01071
1.1,0.00712
1.104,0.00794
1.108,0.01584
1.112,0.02791
1.116,-0.01031
1.12,-0.02185
1.124,0.03353
1.128,-0.02235
1.132,0.00526
1.136,-0.01106
1.14,-0.03035
1.144,-0.02637
1.148,0.00941
1.152,0.00245
1.156,-0.00771
1.16,-0.00504
1.164,0.00616
1.168,0.01471
1.172,0.00499
1.176,0.00449
1.18,0.01948
1.184,-0.01285
1.188,-0.00303
1.192,-0.01885
1.196,0.00354
1.2,0.00207
1.204,0.01246
1.208,-0.01097
1.212,-0.00892
1.216,0.01078
1.22,0.01981
1.224,0.02089
1.228,0.00594
1.232,0.04392
1.236,0.04913
1.24,0.0346
1.244,0.07001
1.248,0.06247
1.252,0.10132
1.256,0.10336
1.26,0.08899
1.264,0.08438
1.268,0.08507
1.272,0.06658
1.276,0.04786
1.28,0.02711
1.284,0.02667
1.288,0.02523
1.292,-0.00806
1.296,0.00033
1.3,-0.01675
1.304,-0.00475
1.308,0.02049
1.312,-0.00469
1.316,-0.01542
1.32,-0.00036
1.324,-0.03706
1.328,0.03198
1.332,-0.00038
1.336,-0.03077
1.34,-0.0165
1.344,-0.02064
1.348,0.01524
1.352,-0.01128
1.356,0.00779
1.36,-0.01365
1.364,-0.02362
1.368,-0.02265
1.372,-0.06585
1.376,-0.13261
1.38,-0.10222
1.384,-0.11203
1.388,-0.07084
1.392,0.04046
1.396,0.24711
1.4,0.45765
1.404,0.6688
1.408,0.86181
1.412,0.96796
1.416,0.98557
1.42,0.86858
1.424,0.67731
1.428,0.46347
1.432,0.22606
1.436,0.06913
1.44,-0.08504
1.444,-0.15223
1.448,-0.16052
1.452,-0.16225
1.456,-0.10313
1.46,-0.0367
1.464,-0.03982
1.468,-0.03486
1.472,-0.01255
1.476,-0.04113
1.48,-0.03732
1.484,-0.02568
1.488,0.01054
1.492,-0.00065
1.496,-0.02198
1.5,0.0057
1.504,-0.008
1.508,0.00134
1.512,-0.01495
1.516,-0.01815
1.52,-0.01489
1.524,-0.02157
1.528,-0.01426
1.532,0.00955
1.536,-0.02607
1.54,-0.01644
1.544,0.01874
1.548,-0.02074
1.552,-0.02799
1.556,-0.00085
1.56,-0.03441
1.564,-0.01809
1.568,0.00489
1.572,0.0104
1.576,-0.00927
1.58,-0.01932
1.584,0.01059
1.588,-0.00392
1.592,-0.01206
1.596,0.02869
1.6,0.00194
1.604,-0.00116
1.608,0.01174
1.612,0.03253
1.616,0.03191
1.62,0.04361
1.624,0.04311
1.628,0.075
1.632,0.04943
1.636,0.0826
1.64,0.08567
1.644,0.07534
1.648,0.10124
1.652,0.12756
1.656,0.11801
1.66,0.12517
1.664,0.12773
1.668,0.15714
1.672,0.18168
1.676,0.15639
1.68,0.19265
1.684,0.18891
1.688,0.19316
1.692,0.20264
1.696,0.17766
1.7,0.18762
1.704,0.20584
1.708,0.19659
1.712,0.18539
1.716,0.14713
1.72,0.16181
1.724,0.17717
1.728,0.14556
1.732,0.17649
1.736,0.12242
1.74,0.10574
1.744,0.10386
1.748,0.12374
1.752,0.05803
1.756,0.08819
1.76,0.07706
1.764,0.05846
1.768,0.07821
1.772,0.02543
1.776,0.02262
1.78,0.00611
1.784,0.00429
1.788,-0.00224
1.792,-0.00222
1.796,0.01724
1.8,-0.01551
1.804,-0.01429
1.808,-0.02664
1.812,-0.01468
1.816,-0.03206
1.82,-0.04152
1.824,-0.00914
1.828,-0.03048
1.832,0.00271
1.836,-0.01842
1.84,-0.03569
1.844,-0.00466
1.848,-0.01715
1.852,-0.00764
1.856,-0.02292
1.86,-0.033
1.864,-0.04817
1.868,-0.01761
1.872,-0.03387
1.876,-0.03744
1.88,-0.02967
1.884,0.00025
1.888,-0.00752
1.892,-0.03093
1.896,-0.02642
1.9,-0.03493
1.904,-0.03575
1.908,-0.03277
1.912,-0.0134
1.916,-0.0385
1.92,0.00623
1.924,0.00137
1.928,-0.04881
1.932,-0.03006
1.936,-0.03989
1.94,0.00241
1.944,-0.01778
1.948,-0.04644
1.952,-0.00549
1.956,-0.03823
1.96,-0.02974
1.964,-0.02173
1.968,-0.05469
1.972,0.00483
1.976,-0.00971
1.98,-0.01367
1.984,-0.01559
1.988,-0.01862
1.992,-0.04825
1.996,-0.03133
2.0,-0.03467
2.004,-0.0172
2.008,0.00422
2.012,-0.01429
2.016,-0.03333
2.02,-0.01804
2.024,-0.03831
2.028,0.01929
2.032,-0.0416
2.036,-0.03558
2.04,-0.01001
2.044,-0.01087
2.048,-0.02962
2.052,-0.04432
2.056,-0.0406
2.06,-0.03104
2.064,-0.00669
2.068,-0.00591
2.072,-0.00368
2.076,0.00127
2.08,0.00395
2.084,-0.046
2.088,0.02571
2.092,0.0163
2.096,0.04169
2.1,0.06216
2.104,0.04807
2.108,0.06584
2.112,0.08518
2.116,0.05848
2.12,0.08154
2.124,0.04347
2.128,0.04786
2.132,0.06437
2.136,0.04425
2.14,0.02925
2.144,0.00989
2.148,-0.02475
2.152,0.01035
2.156,-0.0306
2.16,-0.03458
2.164,-0.00944
2.168,-0.03826
2.172,-0.00661
2.176,-0.02473
2.18,-0.0069
2.184,-0.01752
2.188,-0.01344
2.192,-0.01123
2.196,-0.00715
2.2,-0.03785
2.204,-0.01673
2.208,-0.0327
2.212,0.00369
2.216,-0.04203
2.22,-0.04372
2.224,-0.01486
2.228,-0.04807
2.232,-0.08341
2.236,-0.11369
2.24,-0.16933
2.244,-0.10438
2.248,-0.04519
2.252,0.10304
2.256,0.25245
2.26,0.50234
2.264,0.71792
2.268,0.89414
2.272,0.9705
2.276,0.91648
2.28,0.78053
2.284,0.6072
2.288,0.39886
2.292,0.189
2.296,-0.0235
2.3,-0.14258
2.304,-0.17493
2.308,-0.20431
2.312,-0.18896
2.316,-0.12101
2.32,-0.10713
2.324,-0.05296
2.328,-0.07189
2.332,-0.04467
2.336,-0.02538
2.34,-0.03394
2.344,0.00854
2.348,-0.03151
2.352,-0.00811
2.356,-0.03148
2.36,-0.03195
2.364,-0.0165
2.368,-0.03458
2.372,-0.00972
2.376,-0.02962
2.38,-0.00332
2.384,-0.00753
2.388,-0.03851
2.392,-0.01761
2.396,-0.05254
2.4,-0.02189
2.404,-0.02413
2.408,-0.03738
2.412,-0.02584
2.416,-0.02122
2.42,-0.0182
2.424,-0.03816
2.428,-0.02945
2.432,0.00647
2.436,0.00044
2.44,-0.01387
2.444,-0.00808
2.448,-0.01297
2.452,-0.02142
2.456,0.00149
2.46,-0.01019
2.464,0.00216
2.468,0.01744
2.472,0.04033
2.476,0.04365
2.48,-0.00104
2.484,0.02895
2.488,0.03541
2.492,0.04378
2.496,0.04686
2.5,0.09532
2.504,0.07883
2.508,0.11542
2.512,0.09461
2.516,0.13132
2.52,0.1435
2.524,0.14296
2.528,0.13275
2.532,0.15377
2.536,0.15045
2.54,0.15374
2.544,0.16251
2.548,0.20465
2.552,0.18745
2.556,0.19802
2.56,0.18463
2.564,0.1944
2.568,0.17603
2.572,0.16517
2.576,0.15954
2.58,0.14765
2.584,0.14234
2.588,0.14643
2.592,0.13016
2.596,0.09073
2.6,0.09726
2.604,0.0878
2.608,0.07191
2.612,0.08074
2.616,0.07172
2.62,0.04979
2.624,0.05016
2.628,0.01671
2.632,0.02127
2.636,0.02049
2.64,-0.01751
2.644,-0.00316
2.648,0.00099
2.652,-0.02841
2.656,-0.0115
2.66,-0.03612
2.664,-0.02139
2.668,-0.04432
2.672,-0.019
2.676,-0.03719
2.68,-0.03174
2.684,-0.0061
2.688,-0.02541
2.692,-0.03176
2.696,-0.03405
2.7,-0.01191
2.704,-0.0098
2.708,-0.01967
2.712,-0.04447
2.716,-0.04292
2.72,-0.01313
2.724,-0.04514
2.728,-0.03422
2.732,-0.0314
2.736,-0.0013
2.74,-0.04532
2.744,-0.01687
2.748,-0.03002
2.752,0.00692
2.756,-0.02275
2.76,-0.01892
2.764,-0.03869
2.768,-0.03841
2.772,-0.02443
2.776,-0.03915
2.78,-0.05283
2.784,-0.04637
2.788,-0.03614
2.792,-0.01854
2.796,-0.06299
2.8,-0.01316
2.804,-0.01853
2.808,-0.04448
2.812,-0.03994
2.816,-0.02032
2.82,-0.0242
2.824,-0.02013
2.828,-0.03259
2.832,-0.03134
2.836,-0.03162
2.84,-0.0075
2.844,-0.00546
2.848,-0.04151
2.852,-0.01308
2.856,-0.00604
2.86,-0.03663
2.864,-0.06711
2.868,-0.03831
2.872,-0.03405
2.876,-0.01324
2.88,-0.02105
2.884,-0.03438
2.888,-0.01772
2.892,-0.03657
2.896,-0.02524
2.9,-0.02019
2.904,-0.05498
2.908,-0.0373
2.912,-0.03741
2.916,-0.0449
2.92,-0.02355
2.924,-0.03665
2.928,-0.03281
2.932,-0.03649
2.936,-0.02106
2.94,-0.01033
2.944,-0.0083
2.948,-0.00189
2.952,-0.0055
2.956,-0.04189
2.96,-0.04016
2.964,-0.04661
2.968,-0.01374
2.972,0.00299
2.976,-0.01509
2.98,0.00412
2.984,-0.04315
2.988,0.01735
2.992,0.01
2.996,0.01928
3.0,0.01911
3.004,0.01388
3.008,0.02621
3.012,0.07934
3.016,0.05856
3.02,0.06917
3.024,0.06847
3.028,0.06689
3.032,0.07018
3.036,0.07736
3.04,0.04577
3.044,0.04272
3.048,0.0236
3.052,0.00024
3.056,-0.03326
3.06,-0.00753
3.064,-0.0089
3.068,-0.02713
3.072,-0.01115
3.076,-0.02771
3.08,-0.0339
3.084,-0.01174
3.088,-0.04575
3.092,-0.0294
3.096,-0.05921
3.1,-0.02762
3.104,-0.02917
3.108,-0.02302
3.112,-0.02303
3.116,-0.04569
3.12,-0.00811
3.124,-0.03781
3.128,-0.01966
3.132,-0.00839
3.136,-0.02993
3.14,-0.06651
3.144,-0.08748
3.148,-0.13498
3.152,-0.15925
3.156,-0.12435
3.16,-0.00519
3.164,0.14242
3.168,0.31494
3.172,0.52975
3.176,0.75238
3.18,0.88721
3.184,0.98062
3.188,0.93166
3.192,0.79785
3.196,0.57607
3.2,0.3254
3.204,0.11812
3.208,-0.01909
3.212,-0.1591
3.216,-0.21001
3.22,-0.20887
3.224,-0.14599
3.228,-0.11946
3.232,-0.0912
3.236,-0.05528
3.24,-0.02868
3.244,-0.00616
3.248,-0.04818
3.252,-0.01
3.256,-0.0157
3.26,-0.02577
3.264,-0.01219
3.268,-0.043
3.272,-0.00482
3.276,-0.01614
3.28,-0.01147
3.284,-0.02415
3.288,-0.02873
3.292,-0.03939
3.296,0.01788
3.3,-0.05997
3.304,-0.04968
3.308,-0.01769
3.312,-0.0231
3.316,-0.0225
3.32,-0.00427
3.324,-0.0052
3.328,-0.0324
3.332,-0.02975
3.336,-0.01682
3.34,-0.02378
3.344,-0.01332
3.348,-0.02567
3.352,-0.0108
3.356,-0.00044
3.36,-0.00889
3.364,0.00827
3.368,0.00104
3.372,0.01564
3.376,-0.00119
3.38,0.01137
3.384,0.00724
3.388,0.04647
3.392,0.05255
3.396,0.03222
3.4,0.08895
3.404,0.05553
3.408,0.07652
3.412,0.08117
3.416,0.10751
3.42,0.10669
3.424,0.12492
3.428,0.14921
3.432,0.14571
3.436,0.15321
3.44,0.18098
3.444,0.18505
3.448,0.21103
3.452,0.20803
3.456,0.20362
3.46,0.19511
3.464,0.18712
3.468,0.20836
3.472,0.17996
3.476,0.18436
3.48,0.17516
3.484,0.17524
3.488,0.166
3.492,0.16787
3.496,0.13286
3.5,0.15179
3.504,0.12691
3.508,0.11895
3.512,0.08468
3.516,0.09313
3.52,0.08618
3.524,0.07877
3.528,0.05228
3.532,0.04549
3.536,0.04086
3.54,0.03141
3.544,0.00467
3.548,0.03784
3.552,0.0211
3.556,0.00334
3.56,0.00143
3.564,0.00183
3.568,0.01186
3.572,-0.00789
3.576,0.01152
3.58,-0.00861
3.584,-0.01364
3.588,-0.01403
3.592,-0.02373
3.596,-0.02005
3.6,-0.02785
3.604,-0.03313
3.608,-0.02249
3.612,-0.04045
3.616,-0.02197
3.62,-0.0248
3.624,-0.00835
3.628,-0.01322
3.632,-0.03256
3.636,-0.018
3.64,-0.04396
3.644,-0.03453
3.648,-0.02574
3.652,-0.02263
3.656,-0.02107
3.66,-0.01091
3.664,-0.04411
3.668,-0.01248
3.672,-0.00576
3.676,-0.01242
3.68,-0.02716
3.684,-0.02362
3.688,-0.03341
3.692,-0.00444
3.696,-0.00719
3.7,0.00554
3.704,-0.01628
3.708,-0.03089
3.712,-0.03547
3.716,-0.02637
3.72,-0.00615
3.724,-0.02024
3.728,-0.01805
3.732,0.00089
3.736,-0.01599
3.74,-0.01104
3.744,-0.0007
3.748,0.00781
3.752,0.00165
3.756,0.00764
3.76,0.03046
3.764,0.04923
3.768,0.05244
3.772,0.0902
3.776,0.07242
3.78,0.07853
3.784,0.07932
3.788,0.10683
3.792,0.09705
3.796,0.05427
3.8,0.08518
3.804,0.03934
3.808,0.035
3.812,0.05355
3.816,0.00772
3.82,0.00903
3.824,-0.02433
3.828,-0.03128
3.832,-0.02263
3.836,-0.00863
3.84,0.00771
3.844,0.02793
3.848,-0.04771
3.852,-0.02261
3.856,-0.04377
3.86,0.00826
3.864,-0.03817
3.868,-0.00661
3.872,0.01626
3.876,0.00405
3.88,-0.02673
3.884,-0.01488
3.888,-0.02562
3.892,0.0083
3.896,-0.02826
3.9,-0.04727
3.904,-0.08117
3.908,-0.124
3.912,-0.14165
3.916,-0.0669
3.92,0.05315
3.924,0.19134
3.928,0.40419
3.932,0.61585
3.936,0.8109
3.94,0.96138
3.944,0.9814
3.948,0.93425
3.952,0.75229
3.956,0.53577
3.96,0.30636
3.964,0.09502
3.968,-0.06179
3.972,-0.15445
3.976,-0.20089
3.98,-0.15162
3.984,-0.09629
3.988,-0.08991
3.992,-0.05086
3.996,-0.01812
4.0,-0.02032
4.004,-0.01189
4.008,0.00277
4.012,0.00633
4.016,-0.00251
4.02,-0.00645
4.024,-0.02453
4.028,-0.02566
4.032,0.00407
4.036,-0.0064
4.04,-0.02509
4.044,-0.02508
4.048,-0.0176
4.052,-0.00995
4.056,-0.02254
4.06,-0.00033
4.064,0.00087
4.068,-0.01007
4.072,-0.02267
4.076,-0.00684
4.08,-0.00723
4.084,-0.03701
4.088,-0.00783
4.092,-0.02913
4.096,0.015
4.1,0.0109
4.104,-0.01278
4.108,-0.01019
4.112,-0.00802
4.116,0.03813
4.12,0.01603
4.124,0.00686
4.128,0.01463
4.132,0.04136
4.136,-0.00163
4.14,0.06639
4.144,0.03578
4.148,0.04158
4.152,0.04746
4.156,0.05768
4.16,0.0523
4.164,0.07393
4.168,0.07238
4.172,0.10274
4.176,0.16999
4.18,0.17366
4.184,0.13984
4.188,0.14278
4.192,0.19425
4.196,0.17296
4.2,0.19462
4.204,0.1919
4.208,0.22158
4.212,0.1985
4.216,0.19904
4.22,0.23236
4.224,0.21848
4.228,0.22037
4.232,0.20135
4.236,0.20503
4.24,0.18717
4.244,0.18275
4.248,0.159
4.252,0.1963
4.256,0.15956
4.26,0.18076
4.264,0.16482
4.268,0.14481
4.272,0.13528
4.276,0.11639
4.28,0.13236
4.284,0.11166
4.288,0.08657
4.292,0.0826
4.296,0.08028
4.3,0.05552
4.304,0.04436
4.308,0.02792
4.312,0.02563
4.316,0.00121
4.32,0.03166
4.324,0.01411
4.328,0.03338
4.332,0.00547
4.336,0.0023
4.34,0.00046
4.344,-0.015
4.348,0.00209
4.352,0.00013
4.356,-0.00243
4.36,-0.00309
4.364,0.03592
4.368,-0.00077
4.372,0.00405
4.376,0.0283
4.38,-0.02215
4.384,0.02722
4.388,0.01725
4.392,-0.00043
4.396,0.0022
4.4,-0.00189
4.404,0.00786
4.408,0.00592
4.412,-0.01516
4.416,-0.01751
4.42,0.03196
4.424,-0.00065
4.428,-0.01748
4.432,0.00844
4.436,0.02194
4.44,0.00758
4.444,0.00566
4.448,-7e-05
4.452,0.00413
4.456,-0.00661
4.46,-0.00777
4.464,0.00056
4.468,0.00628
4.472,0.01495
4.476,-0.00242
4.48,0.0233
4.484,0.00984
4.488,0.04722
4.492,0.06758
4.496,0.06148
4.5,0.06399
4.504,0.09029
4.508,0.08859
4.512,0.0933
4.516,0.10512
4.52,0.10157
4.524,0.09808
4.528,0.074
4.532,0.09712
4.536,0.07456
4.54,0.08103
4.544,0.06939
4.548,0.05668
4.552,0.00941
4.556,0.02545
4.56,0.02248
4.564,0.0121
4.568,0.01433
4.572,-0.00097
4.576,-0.00201
4.58,0.03466
4.584,0.00035
4.588,0.01134
4.592,0.00059
4.596,-0.01581
4.6,0.01503
4.604,0.01377
4.608,-0.0089
4.612,0.02301
4.616,-0.00522
4.62,0.01427
4.624,0.00623
4.628,0.0187
4.632,0.00488
4.636,-0.0179
4.64,-0.03271
4.644,-0.05349
4.648,-0.12719
4.652,-0.08139
4.656,-0.0061
4.66,0.13292
4.664,0.35901
4.668,0.54903
4.672,0.73906
4.676,0.92492
4.68,0.9964
4.684,0.97677
4.688,0.85006
4.692,0.63309
4.696,0.38321
4.7,0.1797
4.704,0.01353
4.708,-0.08393
4.712,-0.15983
4.716,-0.17814
4.72,-0.12746
4.724,-0.07549
4.728,-0.04359
4.732,-0.01898
4.736,0.02248
4.74,0.027
4.744,0.0007
4.748,0.00306
4.752,0.01715
4.756,0.02304
4.76,0.01765
4.764,0.0272
4.768,0.01206
4.772,-0.01117
4.776,-0.01378
4.78,0.04404
4.784,0.00981
4.788,0.01038
4.792,0.00359
4.796,0.01513
4.8,0.00713
4.804,0.04235
4.808,-0.01679
4.812,0.04228
4.816,0.03359
4.82,0.00272
4.824,0.02773
4.828,0.01705
4.832,-0.02181
4.836,-0.00481
4.84,0.03668
4.844,0.04279
4.848,0.02202
4.852,0.00727
4.856,0.04033
4.86,0.04094
4.864,0.02005
4.868,0.06398
4.872,0.03346
4.876,0.06158
4.88,0.07385
4.884,0.05251
4.888,0.08723
4.892,0.09441
4.896,0.12692
4.9,0.08419
4.904,0.10914
4.908,0.11538
4.912,0.16897
4.916,0.16625
4.92,0.15598
4.924,0.15781
4.928,0.19169
4.932,0.1726
4.936,0.20031
4.94,0.22966
4.944,0.22182
4.948,0.21958
4.952,0.18402
4.956,0.24695
4.96,0.21472
4.964,0.2255
4.968,0.23758
4.972,0.22848
4.976,0.22357
4.98,0.20737
4.984,0.21434
4.988,0.20321
4.992,0.17018
4.996,0.1605
5.0,0.17552
5.004,0.15164
5.008,0.12624
5.012,0.15183
5.016,0.13045
5.02,0.0998
5.024,0.06876
5.028,0.1009
5.032,0.06766
5.036,0.05257
5.04,0.0611
5.044,0.04975
5.048,0.04466
5.052,0.04453
5.056,0.02411
5.06,0.01645
5.064,0.04035
5.068,0.03307
5.072,0.02127
5.076,0.03599
5.08,0.00906
5.084,0.02331
5.088,0.03919
5.092,0.03864
5.096,0.04263
5.1,0.0277
5.104,-0.00647
5.108,-0.00158
5.112,0.01604
5.116,0.05405
5.12,0.01687
5.124,0.03067
5.128,0.03554
5.132,0.00713
5.136,0.01119
5.14,0.00392
5.144,-0.00198
5.148,0.01218
5.152,0.02449
5.156,-0.00409
5.16,0.00962
5.164,0.02027
5.168,0.01618
5.172,0.0206
5.176,0.05969
5.18,0.01989
5.184,0.04042
5.188,0.00927
5.192,0.02863
5.196,0.02033
5.2,0.03033
5.204,0.04252
5.208,0.01641
5.212,0.0078
5.216,0.02095
5.22,0.01217
5.224,0.0257
5.228,-0.00145
5.232,0.03864
5.236,-0.00319
5.24,0.04213
5.244,0.03596
5.248,0.02614
5.252,0.03265
5.256,0.02271
5.26,0.02366
5.264,0.01541
5.268,0.03008
5.272,0.05564
5.276,0.04294
5.28,0.02266
5.284,0.0151
5.288,0.00859
5.292,0.04255
5.296,0.03116
5.3,0.03085
5.304,0.02417
5.308,0.03116
5.312,0.03147
5.316,0.03215
5.32,0.00779
5.324,0.03322
5.328,0.02395
5.332,0.01928
5.336,0.03135
5.34,0.005
5.344,0.01395
5.348,0.01693
5.352,0.03854
5.356,0.01397
5.36,0.00255
5.364,0.05954
5.368,0.02644
5.372,0.03622
5.376,-0.00038
5.38,0.02679
5.384,0.02422
5.388,-0.01135
5.392,0.01811
5.396,0.02119
5.4,0.04394
5.404,0.03656
5.408,0.02715
5.412,0.04095
5.416,0.00774
5.42,0.01083
5.424,0.00698
5.428,0.01353
5.432,0.02105
5.436,0.03375
5.44,0.03787
5.444,0.0276
5.448,0.03442
5.452,0.04173
5.456,0.05285
5.46,0.046
5.464,0.08835
5.468,0.10179
5.472,0.07484
5.476,0.09591
5.48,0.10938
5.484,0.12085
5.488,0.126
5.492,0.13381
5.496,0.14367
5.5,0.10788
5.504,0.10359
5.508,0.08598
5.512,0.06111
5.516,0.07347
5.52,0.04252
5.524,0.05252
5.528,0.04536
5.532,0.05973
5.536,0.02866
5.54,0.03735
5.544,0.02149
5.548,0.01726
5.552,0.02779
5.556,0.02985
5.56,0.0286
5.564,0.00551
5.568,0.02592
5.572,0.02677
5.576,0.03099
5.58,0.03604
5.584,0.04783
5.588,0.03275
5.592,0.0193
5.596,0.03206
5.6,0.02874
5.604,0.02654
5.608,-0.0282
5.612,-0.09605
5.616,-0.07117
5.62,-0.05633
5.624,0.03149
5.628,0.18227
5.632,0.35838
5.636,0.60861
5.64,0.82524
5.644,0.95312
5.648,1.06093
5.652,0.99129
5.656,0.82047
5.66,0.62944
5.664,0.36998
5.668,0.20035
5.672,0.02653
5.676,-0.10977
5.68,-0.13836
5.684,-0.14035
5.688,-0.08378
5.692,-0.0199
5.696,-0.03569
5.7,0.0203
5.704,0.03207
5.708,0.02673
5.712,0.03458
5.716,0.03367
5.72,0.02476
5.724,0.03308
5.728,0.01482
5.732,0.02404
5.736,0.03841
5.74,0.05865
5.744,0.01942
5.748,0.03654
5.752,0.03095
5.756,0.03459
5.76,0.00556
5.764,0.03221
5.768,0.04481
5.772,0.0472
5.776,0.03446
5.78,0.01949
5.784,0.06395
5.788,0.02741
5.792,0.04251
5.796,0.04655
5.8,0.06437
5.804,0.03096
5.808,0.05225
5.812,0.04216
5.816,0.0299
5.82,0.01781
5.824,0.04086
5.828,0.04681
5.832,0.0552
5.836,0.04383
5.84,0.04867
5.844,0.05116
5.848,0.0725
5.852,0.08812
5.856,0.0866
5.86,0.08955
5.864,0.09982
5.868,0.11557
5.872,0.13933
5.876,0.1598
5.88,0.16289
5.884,0.1611
5.888,0.20252
5.892,0.18751
5.896,0.19889
5.9,0.20929
5.904,0.21094
5.908,0.213
5.912,0.25591
5.916,0.23448
5.92,0.25888
5.924,0.25497
5.928,0.24398
5.932,0.23146
5.936,0.21497
5.94,0.25615
5.944,0.23952
5.948,0.23918
5.952,0.23986
5.956,0.2217
5.96,0.2092
5.964,0.1833
5.968,0.15883
5.972,0.17064
5.976,0.15527
5.98,0.13749
5.984,0.12838
5.988,0.11697
5.992,0.09868
5.996,0.08647
6.0,0.11754
6.004,0.09214
6.008,0.06141
6.012,0.04957
6.016,0.04719
6.02,0.07162
6.024,0.03454
6.028,0.03956
6.032,0.05841
6.036,0.01437
6.04,0.00988
6.044,0.07
6.048,0.03109
6.052,0.06022
6.056,0.02316
6.06,0.04745
6.064,0.03216
6.068,0.03519
6.072,0.03722
6.076,0.01071
6.08,0.05739
6.084,0.03023
6.088,0.01411
6.092,0.04489
6.096,0.05183
6.1,0.00955
6.104,0.00983
6.108,0.01632
6.112,0.01383
6.116,0.03948
6.12,0.04771
6.124,0.02529
6.128,0.03491
6.132,0.04335
6.136,0.03727
6.14,0.01701
6.144,0.04395
6.148,0.01745
6.152,0.04394
6.156,0.02944
6.16,0.04911
6.164,0.03065
6.168,0.04268
6.172,0.0266
6.176,0.04042
6.18,0.01999
6.184,0.06221
6.188,0.06252
6.192,0.06858
6.196,0.08498
6.2,0.06402
6.204,0.08465
6.208,0.09922
6.212,0.11918
6.216,0.11037
6.22,0.12885
6.224,0.12597
6.228,0.12031
6.232,0.11153
6.236,0.11171
6.24,0.10168
6.244,0.09085
6.248,0.09182
6.252,0.05132
6.256,0.05373
6.26,0.01839
6.264,0.04086
6.268,0.05603
6.272,0.02029
6.276,0.01427
6.28,0.04585
6.284,0.02358
6.288,0.02871
6.292,0.02321
6.296,0.04262
6.3,0.03528
6.304,0.03759
6.308,0.03173
6.312,0.03914
6.316,0.0412
6.32,0.03347
6.324,0.03454
6.328,0.0317
6.332,0.00349
6.336,0.0177
6.34,-0.00893
6.344,-0.03866
6.348,-0.09501
6.352,-0.09779
6.356,-0.06342
6.36,0.04954
6.364,0.23091
6.368,0.44108
6.372,0.63748
6.376,0.87067
6.38,0.96023
6.384,0.99226
6.388,0.96381
6.392,0.77222
6.396,0.5253
6.4,0.33045
6.404,0.13211
6.408,-0.01194
6.412,-0.11102
6.416,-0.14088
6.42,-0.11482
6.424,-0.08579
6.428,-0.01877
6.432,0.00554
6.436,0.01847
6.44,0.00307
6.444,0.00367
6.448,0.03275
6.452,0.0372
6.456,0.04493
6.46,0.04785
6.464,0.02952
6.468,0.02297
6.472,0.04945
6.476,0.04247
6.48,0.04055
6.484,0.04204
6.488,0.0199
6.492,0.02778
6.496,0.03162
6.5,0.04948
6.504,0.04966
6.508,0.02928
6.512,0.0143
6.516,0.042
6.52,0.04296
6.524,0.03338
6.528,0.01037
6.532,0.03811
6.536,0.04093
6.54,0.0448
6.544,0.02002
6.548,0.03653
6.552,0.02347
6.556,0.02993
6.56,0.04514
6.564,0.0448
6.568,0.02514
6.572,0.05434
6.576,0.0427
6.58,0.05645
6.584,0.08604
6.588,0.08377
6.592,0.07032
6.596,0.07551
6.6,0.09665
6.604,0.12858
6.608,0.11326
6.612,0.11951
6.616,0.13974
6.62,0.20412
6.624,0.19425
6.628,0.17845
6.632,0.19714
6.636,0.19086
6.64,0.2413
6.644,0.23639
6.648,0.21974
6.652,0.27306
6.656,0.22843
6.66,0.23426
6.664,0.24738
6.668,0.22282
6.672,0.25334
6.676,0.21766
6.68,0.24359
6.684,0.21268
6.688,0.22251
6.692,0.2002
6.696,0.19875
6.7,0.18196
6.704,0.15679
6.708,0.15717
6.712,0.13783
6.716,0.13307
6.72,0.13737
6.724,0.10266
6.728,0.12541
6.732,0.10132
6.736,0.06214
6.74,0.05363
6.744,0.09739
6.748,0.06945
6.752,0.08663
6.756,0.05627
6.76,0.03258
6.764,0.01487
6.768,0.03712
6.772,-0.00504
6.776,0.04028
6.78,0.04118
6.784,0.03753
6.788,0.038
6.792,0.04887
6.796,0.03919
6.8,-0.00417
6.804,0.03104
6.808,0.03495
6.812,0.03401
6.816,0.00996
6.82,0.02962
6.824,0.01124
6.828,0.02711
6.832,0.0275
6.836,0.02289
6.84,0.00817
6.844,-0.01754
6.848,0.02568
6.852,0.0163
6.856,0.00472
6.86,0.02834
6.864,-0.00454
6.868,0.02652
6.872,0.02384
6.876,0.03787
6.88,0.02358
6.884,0.01852
6.888,0.02192
6.892,0.01172
6.896,0.02291
6.9,0.03754
6.904,0.04084
6.908,-0.00666
6.912,0.02552
6.916,0.03877
6.92,0.02019
6.924,0.00384
6.928,0.01975
6.932,-0.00314
6.936,0.00879
6.94,0.01697
6.944,0.01729
6.948,0.03781
6.952,0.016
6.956,0.03009
6.96,0.02853
6.964,0.02067
6.968,0.01305
6.972,0.04623
6.976,-0.00357
6.98,0.0331
6.984,0.02248
6.988,-0.00185
6.992,0.0357
6.996,-0.00091
7.0,0.01171
7.004,0.02043
7.008,-0.00927
7.012,0.04232
7.016,0.01405
7.02,0.03811
7.024,0.01381
7.028,0.02568
7.032,0.01393
7.036,0.02465
7.04,-0.00327
7.044,0.03461
7.048,-0.00153
7.052,0.03199
7.056,0.01611
7.06,0.02213
7.064,0.02369
7.068,0.03074
7.072,0.00027
7.076,0.03692
7.08,0.02845
7.084,0.02838
7.088,0.04635
7.092,0.01949
7.096,0.06344
7.1,0.05891
7.104,0.06587
7.108,0.08923
7.112,0.10148
7.116,0.07837
7.12,0.10076
7.124,0.12152
7.128,0.11312
7.132,0.08614
7.136,0.08032
7.14,0.10773
7.144,0.10423
7.148,0.06189
7.152,0.0519
7.156,0.0551
7.16,0.02509
7.164,0.00168
7.168,0.05447
7.172,0.03456
7.176,0.0296
7.18,-0.00255
7.184,0.0289
7.188,-0.00331
7.192,0.00504
7.196,0.01832
7.2,0.02151
7.204,0.02003
7.208,-0.0001
7.212,0.01134
7.216,-0.00971
7.22,0.00823
7.224,0.01052
7.228,0.01275
7.232,0.00087
7.236,0.00655
7.24,-0.01166
7.244,-0.02749
7.248,-0.06869
7.252,-0.0819
7.256,-0.09515
7.26,-0.06645
7.264,0.06783
7.268,0.26223
7.272,0.44697
7.276,0.67331
7.28,0.84884
7.284,0.95665
7.288,1.00226
7.292,0.90681
7.296,0.73961
7.3,0.51514
7.304,0.33187
7.308,0.09795
7.312,-0.04695
7.316,-0.14835
7.32,-0.13268
7.324,-0.11897
7.328,-0.09365
7.332,-0.03868
7.336,-0.0324
7.34,-0.01434
7.344,-0.03703
7.348,0.01746
7.352,0.02285
7.356,-0.00703
7.36,-0.01517
7.364,0.02659
7.368,0.01585
7.372,0.00826
7.376,0.00201
7.38,0.00997
7.384,0.01544
7.388,-0.0004
7.392,0.02582
7.396,0.01743
7.4,-0.00301
7.404,0.01415
7.408,-0.00077
7.412,0.01828
7.416,0.02842
7.42,0.00299
7.424,0.00432
7.428,0.0089
7.432,0.02609
7.436,0.03346
7.44,0.01036
7.444,0.0051
7.448,0.00466
7.452,-0.00727
7.456,0.0068
7.46,0.00044
7.464,0.02306
7.468,0.03629
7.472,0.03414
7.476,0.05391
7.48,0.01052
7.484,0.07386
7.488,0.05121
7.492,0.05738
7.496,0.09389
7.5,0.06572
7.504,0.08861
7.508,0.08925
7.512,0.10764
7.516,0.11872
7.52,0.15226
7.524,0.11073
7.528,0.17772
7.532,0.16917
7.536,0.1887
7.54,0.17193
7.544,0.18565
7.548,0.19931
7.552,0.22217
7.556,0.21598
7.56,0.1945
7.564,0.21727
7.568,0.24111
7.572,0.23936
7.576,0.20464
7.58,0.23284
7.584,0.21924
7.588,0.21531
7.592,0.18055
7.596,0.19255
7.6,0.1849
7.604,0.15908
7.608,0.15483
7.612,0.13377
7.616,0.13553
7.62,0.13356
7.624,0.09691
7.628,0.0711
7.632,0.06533
7.636,0.05152
7.64,0.07082
7.644,0.04857
7.648,0.05775
7.652,0.00973
7.656,0.01552
7.66,0.0312
7.664,0.0058
7.668,0.00817
7.672,0.03381
7.676,-0.00016
7.68,0.01701
7.684,0.04132
7.688,-0.01699
7.692,0.01418
7.696,-0.01658
7.7,0.00162
7.704,-0.00122
7.708,-0.01125
7.712,0.02385
7.716,0.00223
7.72,0.01302
7.724,-0.01392
7.728,0.02298
7.732,0.00633
7.736,-0.00441
7.74,-0.00703
7.744,-0.00823
7.748,-0.02174
7.752,0.02871
7.756,-0.00544
7.76,0.00464
7.764,-0.00889
7.768,0.02691
7.772,-0.01617
7.776,-0.00174
7.78,0.00877
7.784,0.01086
7.788,-0.01041
7.792,0.00124
7.796,0.01129
7.8,-0.00261
7.804,0.01015
7.808,0.00952
7.812,0.01115
7.816,0.00452
7.82,0.00335
7.824,-0.01498
7.828,0.02472
7.832,0.00207
7.836,-0.02991
7.84,-0.02259
7.844,-0.00226
7.848,0.00933
7.852,0.0007
7.856,-0.01365
7.86,0.00317
7.864,-0.00937
7.868,-0.00611
7.872,-0.01462
7.876,-0.00206
7.88,-0.00245
7.884,-0.03502
7.888,-0.01303
7.892,0.02624
7.896,-0.01245
7.9,0.04597
7.904,-0.00421
7.908,0.00187
7.912,-0.00166
7.916,0.00634
7.92,0.04171
7.924,-0.00854
7.928,-0.00436
7.932,-0.0012
7.936,-0.0221
7.94,-0.0096
7.944,-0.02703
7.948,-0.01299
7.952,-0.01857
7.956,0.00443
7.96,0.0006
7.964,-0.02018
7.968,0.00323
7.972,0.02822
7.976,-0.00876
7.98,0.01045
7.984,0.03041
7.988,-0.01701
7.992,0.06626
7.996,0.04172
8.0,0.08778
8.004,0.07119
8.008,0.10134
8.012,0.08775
8.016,0.08606
8.02,0.08144
8.024,0.05785
8.028,0.06256
8.032,0.07577
8.036,0.06331
8.04,0.05296
8.044,0.0195
8.048,0.00697
8.052,0.00917
8.056,0.02076
8.06,0.0164
8.064,0.01084
8.068,-0.03676
8.072,-0.01355
8.076,-0.01186
8.08,-0.01303
8.084,-0.0006
8.088,-0.00068
8.092,-0.00048
8.096,-0.01405
8.1,-0.01389
8.104,-0.02244
8.108,0.0119
8.112,0.03055
8.116,0.0088
8.12,-0.02655
8.124,-0.01156
8.128,-0.02525
8.132,-0.00449
8.136,-0.05159
8.14,-0.12271
8.144,-0.13072
8.148,-0.11245
8.152,0.01633
8.156,0.12758
8.16,0.37148
8.164,0.56483
8.168,0.76118
8.172,0.91943
8.176,0.97382
8.18,0.95807
8.184,0.79565
8.188,0.59463
8.192,0.33564
8.196,0.12612
8.2,-0.03323
8.204,-0.12781
8.208,-0.16576
8.212,-0.19587
8.216,-0.14143
8.22,-0.09615
8.224,-0.04747
8.228,-0.0242
8.232,-0.0034
8.236,-0.00996
8.24,-0.01041
8.244,-0.03004
8.248,-0.0179
8.252,-0.02091
8.256,-0.0004
8.26,-0.01937
8.264,-0.02513
8.268,-0.00521
8.272,-0.02177
8.276,-0.0293
8.28,-0.00331
8.284,-0.04531
8.288,0.01292
8.292,-0.02058
8.296,-0.00557
8.3,-0.01549
8.304,-0.01276
8.308,-0.00852
8.312,0.01118
8.316,0.00593
8.32,-0.01678
8.324,-0.00551
8.328,-0.01795
8.332,-0.00139
8.336,-0.01343
8.34,-0.00161
8.344,-0.00706
8.348,-0.00088
8.352,0.00148
8.356,0.01979
8.36,0.00229
8.364,0.0263
8.368,0.00048
8.372,0.02051
8.376,0.03357
8.38,0.02105
8.384,0.04466
8.388,0.04001
8.392,0.07954
8.396,0.07208
8.4,0.11461
8.404,0.11202
8.408,0.10329
8.412,0.12072
8.416,0.12969
8.42,0.13303
8.424,0.15197
8.428,0.1817
8.432,0.20023
8.436,0.16605
8.44,0.16909
8.444,0.17337
8.448,0.21125
8.452,0.20499
8.456,0.23308
8.46,0.19445
8.464,0.18981
8.468,0.17081
8.472,0.21032
8.476,0.16123
8.48,0.15772
8.484,0.1649
8.488,0.14563
8.492,0.11037
8.496,0.14598
8.5,0.09485
8.504,0.11315
8.508,0.07646
8.512,0.07375
8.516,0.04266
8.52,0.0344
8.524,0.0219
8.528,0.0339
8.532,0.02401
8.536,0.01431
8.54,0.01398
8.544,-0.00927
8.548,0.00874
8.552,-0.02324
8.556,0.03251
8.56,-0.01806
8.564,-0.01892
8.568,-0.01496
8.572,-0.01828
8.576,-0.01084
8.58,-0.00988
8.584,-0.00726
8.588,-0.02238
8.592,-0.03649
8.596,-0.01269
8.6,-0.00643
8.604,-0.02994
8.608,0.01538
8.612,-0.02617
8.616,-0.01607
8.62,-0.00897
8.624,-0.01601
8.628,-0.04131
8.632,-0.01569
8.636,-0.00352
8.64,-0.03645
8.644,-0.02637
8.648,-0.03829
8.652,-0.00632
8.656,-0.00677
8.66,-0.01209
8.664,-0.03457
8.668,-0.02766
8.672,-0.02322
8.676,-0.04392
8.68,-0.03757
8.684,-0.01753
8.688,-0.02802
8.692,-0.01599
8.696,-0.03453
8.7,-0.05395
8.704,-0.04141
8.708,-0.05549
8.712,-0.01907
8.716,-0.01197
8.72,-0.03394
8.724,-0.00079
8.728,-0.03523
8.732,-0.03275
8.736,-0.04267
8.74,-0.0125
8.744,-0.03273
8.748,-0.044
8.752,-0.02234
8.756,-0.04708
8.76,-0.02143
8.764,-0.02623
8.768,-0.03007
8.772,-0.00982
8.776,-0.03263
8.78,-0.01962
8.784,-0.02388
8.788,-0.02075
8.792,-0.01355
8.796,-0.01805
8.8,-0.02945
8.804,-0.03072
8.808,-0.04724
8.812,-0.00747
8.816,-0.04489
8.82,-0.01611
8.824,-0.01412
8.828,-0.00893
8.832,-0.02286
8.836,-0.02658
8.84,-0.06506
8.844,-0.01766
8.848,-0.04151
8.852,-0.02429
8.856,-0.03464
8.86,-0.02553
8.864,-0.01727
8.868,-0.04347
8.872,-0.036
8.876,-0.01941
8.88,-0.02799
8.884,-0.01752
8.888,-0.02361
8.892,0.00187
8.896,-2e-05
8.9,0.00478
8.904,-0.00509
8.908,0.02217
8.912,0.04608
8.916,0.01726
8.92,0.06876
8.924,0.06478
8.928,0.08059
8.932,0.07172
8.936,0.06079
8.94,0.07878
8.944,0.07418
8.948,0.04294
8.952,0.02615
8.956,0.04378
8.96,0.03096
8.964,0.00103
8.968,-0.01051
8.972,-0.02075
8.976,-0.02299
8.98,-0.01765
8.984,-0.00806
8.988,-0.04199
8.992,-0.04534
8.996,-0.01892
9.0,-0.045
9.004,-0.01389
9.008,-0.04562
9.012,-0.02292
9.016,-0.04571
9.02,-0.01067
9.024,-0.0158
9.028,-0.00126
9.032,-0.03407
9.036,-0.00171
9.04,-0.03129
9.044,-0.06193
9.048,-0.07096
9.052,-0.08493
9.056,-0.14708
9.06,-0.11953
9.064,-0.09187
9.068,0.02253
9.072,0.19666
9.076,0.37704
9.08,0.62155
9.084,0.77855
9.088,0.92687
9.092,0.97381
9.096,0.92166
9.1,0.707
9.104,0.5032
9.108,0.25389
9.112,0.0579
9.116,-0.0662
9.12,-0.16796
9.124,-0.20744
9.128,-0.20554
9.132,-0.15018
9.136,-0.09568
9.14,-0.07113
9.144,-0.08163
9.148,-0.02359
9.152,-0.05051
9.156,-0.0225
9.16,-0.05039
9.164,-0.01737
9.168,-0.0268
9.172,-0.02931
9.176,-0.01157
9.18,-0.02984
9.184,-0.05328
9.188,-0.05243
9.192,-0.03035
9.196,-0.03549
9.2,-0.03438
9.204,-0.02508
9.208,-0.02122
9.212,-0.01991
9.216,-0.02434
9.22,-0.05131
9.224,-0.01973
9.228,-0.0181
9.232,-0.04709
9.236,-0.01039
9.24,-0.02722
9.244,-0.01475
9.248,-0.02608
9.252,-0.01134
9.256,-0.00887
9.26,-0.05583
9.264,0.01142
9.268,0.00659
9.272,0.01015
9.276,-0.02154
9.28,0.01196
9.284,0.0115
9.288,0.00413
9.292,0.00122
9.296,0.03906
9.3,0.04143
9.304,0.0604
9.308,0.04362
9.312,0.0668
9.316,0.07342
9.32,0.09532
9.324,0.09358
9.328,0.11835
9.332,0.11832
9.336,0.11377
9.34,0.15069
9.344,0.1638
9.348,0.14635
9.352,0.17983
9.356,0.18486
9.36,0.18928
9.364,0.19983
9.368,0.18618
9.372,0.17532
9.376,0.17702
9.38,0.19159
9.384,0.20782
9.388,0.16365
9.392,0.16202
9.396,0.1585
9.4,0.17637
9.404,0.12479
9.408,0.10102
9.412,0.09812
9.416,0.11347
9.42,0.11067
9.424,0.09555
9.428,0.05834
9.432,0.04874
9.436,0.04362
9.44,0.03139
9.444,0.03006
9.448,0.01907
9.452,0.00136
9.456,-0.01958
9.46,0.01268
9.464,-0.00121
9.468,0.01298
9.472,-0.00754
9.476,-0.01441
9.48,-0.02893
9.484,0.01499
9.488,-0.00048
9.492,-0.03395
9.496,-0.0155
9.5,-0.02913
9.504,-0.02404
9.508,-0.02537
9.512,-0.0272
9.516,-0.02673
9.52,-0.03468
9.524,-0.0093
9.528,-0.03594
9.532,-0.02026
9.536,-0.06717
9.54,-0.00793
9.544,-0.018
9.548,-0.04108
9.552,-0.0322
9.556,-0.04569
9.56,-0.0443
9.564,-0.03145
9.568,-0.05251
9.572,-0.03203
9.576,-0.03429
9.58,-0.02869
9.584,-0.02783
9.588,-0.02268
9.592,-0.0349
9.596,-0.05757
9.6,-0.03662
9.604,-0.03649
9.608,-0.04393
9.612,-0.04293
9.616,-0.02204
9.62,-0.04351
9.624,-0.04027
9.628,-0.03361
9.632,-0.01527
9.636,-0.01543
9.64,-0.0351
9.644,-0.01872
9.648,-0.0322
9.652,-0.02341
9.656,-0.0462
9.66,-0.02235
9.664,-0.00859
9.668,-0.01971
9.672,0.00562
9.676,-0.02663
9.68,-0.04846
9.684,-0.0445
9.688,-0.04553
9.692,-0.03718
9.696,-0.05191
9.7,-0.00888
9.704,-0.01232
9.708,-0.03743
9.712,-0.03262
9.716,-0.02422
9.72,-0.05696
9.724,-0.03571
9.728,-0.03296
9.732,-0.02916
9.736,-0.03522
9.74,-0.05185
9.744,-0.01046
9.748,-0.01136
9.752,-0.02487
9.756,-0.00072
9.76,-0.02009
9.764,0.00988
9.768,0.01268
9.772,0.02927
9.776,0.02935
9.78,0.03316
9.784,0.06137
9.788,0.0928
9.792,0.05348
9.796,0.05713
9.8,0.02388
9.804,0.06754
9.808,0.06756
9.812,0.03918
9.816,0.03503
9.82,0.02877
9.824,-0.00095
9.828,-0.0373
9.832,-0.01236
9.836,-0.01984
9.84,-0.03158
9.844,-0.02873
9.848,-0.008
9.852,-0.03854
9.856,-0.01444
9.86,-0.03592
9.864,-0.04075
9.868,-0.04804
9.872,-0.03689
9.876,-0.01168
9.88,-0.0473
9.884,-0.04654
9.888,-0.03005
9.892,-0.0156
9.896,-0.04075
9.9,-0.01817
9.904,-0.03423
9.908,-0.04154
9.912,-0.12298
9.916,-0.13247
9.92,-0.14747
9.924,-0.10538
9.928,-0.0346
9.932,0.09867
9.936,0.25249
9.94,0.51879
9.944,0.70596
9.948,0.87867
9.952,0.97344
9.956,0.93517
9.96,0.82387
9.964,0.60104
9.968,0.35447
9.972,0.16979
9.976,-0.02278
9.98,-0.14525
9.984,-0.19435
9.988,-0.20456
9.992,-0.14018
9.996,-0.10252
