t_seg,ecg_mV
0.0,0.0391
0.004,0.06044
0.008,0.02977
0.012,0.03239
0.016,0.04916
0.02,0.05207
0.024,0.03092
0.028,0.02165
0.032,0.00262
0.036,-0.0061
0.04,0.00806
0.044,0.04679
0.048,0.03662
0.052,0.02221
0.056,0.00196
0.06,0.04874
0.064,0.0255
0.068,0.0664
0.072,0.08973
0.076,0.08804
0.08,0.04623
0.084,0.09559
0.088,0.11774
0.092,0.12263
0.096,0.11588
0.1,0.13975
0.104,0.13227
0.108,0.13164
0.112,0.10068
0.116,0.1296
0.12,0.09149
0.124,0.08312
0.128,0.10701
0.132,0.0657
0.136,0.05482
0.14,0.06993
0.144,0.05978
0.148,0.03225
0.152,0.02643
0.156,0.02832
0.16,0.00544
0.164,0.03237
0.168,0.0167
0.172,0.06453
0.176,0.0311
0.18,0.0005
0.184,0.04384
0.188,0.03007
0.192,0.03449
0.196,0.0329
0.2,0.0216
0.204,0.01713
0.208,0.00205
0.212,0.01987
0.216,0.0083
0.22,-0.02151
0.224,-0.04874
0.228,-0.08307
0.232,-0.07957
0.236,-0.01571
0.24,0.09736
0.244,0.28802
0.248,0.51027
0.252,0.67021
0.256,0.88447
0.26,0.97768
0.264,1.02064
0.268,0.94235
0.272,0.77181
0.276,0.5373
0.28,0.30278
0.284,0.10085
0.288,-0.05171
0.292,-0.12406
0.296,-0.14922
0.3,-0.13876
0.304,-0.09288
0.308,-0.02782
0.312,-0.01455
0.316,-0.02125
0.32,0.02821
0.324,0.01703
0.328,0.02431
0.332,0.0472
0.336,0.02732
0.34,0.02944
0.344,0.00836
0.348,0.02602
0.352,0.054
0.356,0.01389
0.36,0.01861
0.364,0.01317
0.368,0.031
0.372,0.03321
0.376,0.05621
0.38,0.01266
0.384,0.02882
0.388,0.04792
0.392,0.01999
0.396,0.02119
0.4,0.02734
0.404,0.01295
0.408,0.03309
0.412,0.00851
0.416,0.04531
0.42,0.02056
0.424,0.04193
0.428,0.05005
0.432,0.02822
0.436,0.03892
0.44,0.0522
0.444,0.04101
0.448,0.04795
0.452,0.03892
0.456,0.04893
0.46,0.09014
0.464,0.08224
0.468,0.09817
0.472,0.10066
0.476,0.0964
0.48,0.07812
0.484,0.10003
0.488,0.15029
0.492,0.14557
0.496,0.18002
0.5,0.15854
0.504,0.18635
0.508,0.18834
0.512,0.23725
0.516,0.18859
0.52,0.23951
0.524,0.19375
0.528,0.22527
0.532,0.25766
0.536,0.22835
0.54,0.25202
0.544,0.24394
0.548,0.24685
0.552,0.24631
0.556,0.2528
0.56,0.23166
0.564,0.234
0.568,0.20237
0.572,0.19348
0.576,0.20395
0.58,0.16675
0.584,0.19668
0.588,0.1748
0.592,0.16874
0.596,0.13636
0.6,0.13561
0.604,0.13207
0.608,0.09186
0.612,0.12628
0.616,0.08628
0.62,0.07415
0.624,0.09718
0.628,0.06781
0.632,0.09159
0.636,0.04945
0.64,0.05378
0.644,0.06911
0.648,0.04537
0.652,0.05678
0.656,0.05198
0.66,0.01954
0.664,0.00911
0.668,0.03868
0.672,0.01601
0.676,0.03889
0.68,-5e-05
0.684,0.04419
0.688,0.01851
0.692,0.04212
0.696,0.02969
0.7,0.05158
0.704,0.04088
0.708,0.04287
0.712,0.0452
0.716,0.04035
0.72,0.00788
0.724,0.0308
0.728,0.01805
0.732,0.05852
0.736,0.03914
0.74,0.03767
0.744,0.02732
0.748,0.02407
0.752,-0.0096
0.756,0.01483
0.76,0.01748
0.764,0.02355
0.768,0.01193
0.772,0.02768
0.776,0.02054
0.78,0.02213
0.784,0.01586
0.788,0.01617
0.792,0.02643
0.796,0.04714
0.8,0.01967
0.804,0.02765
0.808,0.029
0.812,0.02006
0.816,0.00752
0.82,0.05357
0.824,0.00173
0.828,-0.01991
0.832,0.02808
0.836,0.03344
0.84,0.04192
0.844,0.03285
0.848,0.00679
0.852,0.04709
0.856,0.04353
0.86,0.03813
0.864,0.04248
0.868,0.02555
0.872,0.02919
0.876,0.02229
0.88,0.05336
0.884,0.00525
0.888,0.02713
0.892,0.01372
0.896,0.02822
0.9,-0.00365
0.904,0.0177
0.908,0.01424
0.912,0.0138
0.916,0.01129
0.92,0.03553
0.924,0.01403
0.928,0.03737
0.932,0.01047
0.936,0.01125
0.94,0.02527
0.944,0.01864
0.948,0.02142
0.952,0.02628
0.956,-0.0019
0.96,0.02507
0.964,0.02951
0.968,0.02669
0.972,0.00604
0.976,0.01404
0.98,-0.00135
0.984,0.02129
0.988,0.02837
0.992,0.02007
0.996,0.03213
1.0,0.07768
1.004,0.03786
1.008,0.05425
1.012,0.07833
1.016,0.08412
1.02,0.09734
1.024,0.12691
1.028,0.1152
1.032,0.12741
1.036,0.09987
1.04,0.11172
1.044,0.08801
1.048,0.11793
1.052,0.07557
1.056,0.07095
1.06,0.08156
1.064,0.07148
1.068,0.04288
1.072,0.02635
1.076,0.00468
1.08,0.01028
1.084,0.03478
1.088,0.01404
1.092,0.0184
1.096,0.03592
1.1,0.02367
1.104,0.03372
1.108,0.00721
1.112,0.02561
1.116,0.03959
1.12,0.03431
1.124,0.01791
1.128,0.00189
1.132,0.03265
1.136,-0.00427
1.14,-0.00843
1.144,0.01481
1.148,-0.02612
1.152,-0.04844
1.156,-0.08258
1.16,-0.08028
1.164,-0.01439
1.168,0.08409
1.172,0.25524
1.176,0.4465
1.18,0.68454
1.184,0.8769
1.188,0.98484
1.192,1.02202
1.196,0.9408
1.2,0.74864
1.204,0.51871
1.208,0.28321
1.212,0.07416
1.216,-0.08988
1.22,-0.14231
1.224,-0.1702
1.228,-0.14944
1.232,-0.1084
1.236,-0.04358
1.24,-0.02272
1.244,0.00162
1.248,0.00487
1.252,-0.00035
1.256,0.0438
1.26,0.02412
1.264,0.02678
1.268,0.02063
1.272,0.01694
1.276,0.03286
1.28,0.02167
1.284,0.01641
1.288,0.0187
1.292,-0.02396
1.296,0.03332
1.3,0.01754
1.304,0.0282
1.308,0.01595
1.312,0.02443
1.316,0.01102
1.32,0.01917
1.324,0.0347
1.328,0.02831
1.332,0.03063
1.336,0.03028
1.34,0.01905
1.344,0.0053
1.348,0.03862
1.352,0.02192
1.356,0.03103
1.36,0.02639
1.364,0.01925
1.368,0.01677
1.372,0.04132
1.376,0.0493
1.38,0.01658
1.384,0.0574
1.388,0.02411
1.392,0.05562
1.396,0.077
1.4,0.0631
1.404,0.11161
1.408,0.10145
1.412,0.08932
1.416,0.13061
1.42,0.1492
1.424,0.13994
1.428,0.16782
1.432,0.16595
1.436,0.15426
1.44,0.19146
1.444,0.20923
1.448,0.17324
1.452,0.1979
1.456,0.23166
1.46,0.25043
1.464,0.26101
1.468,0.25374
1.472,0.24027
1.476,0.24013
1.48,0.24668
1.484,0.21911
1.488,0.21636
1.492,0.2155
1.496,0.18249
1.5,0.20464
1.504,0.17934
1.508,0.17413
1.512,0.17668
1.516,0.13218
1.52,0.10554
1.524,0.10524
1.528,0.11665
1.532,0.11165
1.536,0.07069
1.54,0.05155
1.544,0.04293
1.548,0.07223
1.552,0.02168
1.556,0.07071
1.56,0.04848
1.564,0.03722
1.568,0.04276
1.572,0.03074
1.576,0.02553
1.58,0.01635
1.584,0.00463
1.588,0.03314
1.592,0.01394
1.596,0.00038
1.6,0.02675
1.604,0.00208
1.608,0.01685
1.612,0.02338
1.616,-0.00255
1.62,0.01875
1.624,0.0442
1.628,0.00976
1.632,0.00442
1.636,0.0099
1.64,0.00377
1.644,0.01197
1.648,0.01562
1.652,0.00262
1.656,0.00265
1.66,-0.03038
1.664,0.0336
1.668,0.0038
1.672,0.02702
1.676,0.01982
1.68,-0.00929
1.684,-0.00888
1.688,-0.01673
1.692,0.01516
1.696,0.00352
1.7,0.01298
1.704,0.00389
1.708,0.00848
1.712,0.02484
1.716,0.00097
1.72,-0.00178
1.724,-0.01195
1.728,0.00637
1.732,-0.02111
1.736,-0.01851
1.74,0.01767
1.744,0.01786
1.748,-0.02323
1.752,-0.00165
1.756,-0.00946
1.76,-0.01636
1.764,0.00626
1.768,0.0152
1.772,0.00556
1.776,0.03911
1.78,0.02024
1.784,0.01736
1.788,0.04068
1.792,0.03111
1.796,0.04228
1.8,0.06389
1.804,0.06696
1.808,0.0616
1.812,0.09727
1.816,0.05811
1.82,0.12807
1.824,0.09565
1.828,0.07615
1.832,0.08942
1.836,0.06754
1.84,0.05547
1.844,0.04543
1.848,0.04784
1.852,0.05608
1.856,0.01619
1.86,0.01022
1.864,-0.00883
1.868,-0.00122
1.872,0.00902
1.876,0.00979
1.88,0.00468
1.884,-0.01639
1.888,-0.01832
1.892,-0.00572
1.896,-0.01216
1.9,0.01011
1.904,0.0137
1.908,0.00599
1.912,-0.01724
1.916,0.02181
1.92,-0.02448
1.924,-0.01202
1.928,0.00795
1.932,-0.01306
1.936,-0.03623
1.94,-0.06008
1.944,-0.10834
1.948,-0.11548
1.952,-0.1276
1.956,-0.00472
1.96,0.13482
1.964,0.34153
1.968,0.54951
1.972,0.75157
1.976,0.92251
1.98,0.98659
1.984,0.96553
1.988,0.82624
1.992,0.5836
1.996,0.4026
2.0,0.15512
2.004,-0.00508
2.008,-0.1355
2.012,-0.18704
2.016,-0.15904
2.02,-0.15105
2.024,-0.10071
2.028,-0.04026
2.032,-0.01612
2.036,-0.0287
2.04,-0.00484
2.044,-0.01456
2.048,-0.01734
2.052,0.00269
2.056,0.00112
2.06,-0.02141
2.064,-0.00133
2.068,0.00935
2.072,0.00346
2.076,0.02493
2.08,-0.01256
2.084,0.01186
2.088,-0.02956
2.092,-0.01456
2.096,-0.01563
2.1,0.0006
2.104,-0.00205
2.108,-0.00589
2.112,-0.02682
2.116,-0.02415
2.12,-0.0155
2.124,-0.05628
2.128,-0.00442
2.132,0.03415
2.136,0.01838
2.14,0.01106
2.144,-0.00552
2.148,0.01805
2.152,-0.03935
2.156,-0.00296
2.16,0.03559
2.164,0.02771
2.168,0.02878
2.172,0.04739
2.176,0.03697
2.18,0.03199
2.184,0.01871
2.188,0.06362
2.192,0.05388
2.196,0.05727
2.2,0.08802
2.204,0.08684
2.208,0.10304
2.212,0.12069
2.216,0.12044
2.22,0.15922
2.224,0.15543
2.228,0.17865
2.232,0.15528
2.236,0.17298
2.24,0.20557
2.244,0.17496
2.248,0.20984
2.252,0.18584
2.256,0.20616
2.26,0.2014
2.264,0.23014
2.268,0.20473
2.272,0.19459
2.276,0.21782
2.28,0.16251
2.284,0.1706
2.288,0.16226
2.292,0.15731
2.296,0.16496
2.3,0.13271
2.304,0.13278
2.308,0.09813
2.312,0.08307
2.316,0.07683
2.32,0.09894
2.324,0.06532
2.328,0.06766
2.332,0.06571
2.336,0.03477
2.34,0.02822
2.344,0.01801
2.348,-0.00114
2.352,0.00788
2.356,0.00883
2.36,0.01322
2.364,0.00381
2.368,-0.00866
2.372,0.0094
2.376,0.01738
2.38,-0.00475
2.384,-0.02858
2.388,-0.00867
2.392,-4e-05
2.396,-0.01641
2.4,-0.01614
2.404,-0.02181
2.408,-0.03246
2.412,-0.00373
2.416,-0.00801
2.42,-0.01783
2.424,-0.02261
2.428,-0.04423
2.432,-0.03662
2.436,-0.00355
2.44,0.0029
2.444,-0.02584
2.448,-0.00255
2.452,-0.00391
2.456,-0.02248
2.46,-0.00559
2.464,-0.01333
2.468,-0.0238
2.472,-0.03565
2.476,-0.01668
2.48,0.01084
2.484,-0.01515
2.488,-0.04426
2.492,-0.02985
2.496,-0.01463
2.5,-0.02346
2.504,-0.008
2.508,0.03783
2.512,0.01069
2.516,0.01633
2.52,0.04892
2.524,0.0277
2.528,0.07359
2.532,0.07063
2.536,0.08817
2.54,0.07336
2.544,0.07856
2.548,0.10031
2.552,0.10179
2.556,0.0948
2.56,0.04091
2.564,0.06237
2.568,0.06838
2.572,0.0248
2.576,0.03337
2.58,-0.00123
2.584,0.00338
2.588,0.00886
2.592,-0.01314
2.596,-0.01555
2.6,-0.01246
2.604,-0.04035
2.608,-0.035
2.612,-0.00942
2.616,-0.03464
2.62,-0.02454
2.624,-0.01792
2.628,0.00206
2.632,-0.02303
2.636,-0.03421
2.64,-0.01342
2.644,-0.0248
2.648,-0.02024
2.652,-0.02504
2.656,-0.02256
2.66,-0.02685
2.664,-0.07943
2.668,-0.11146
2.672,-0.1439
2.676,-0.15905
2.68,-0.05902
2.684,0.04979
2.688,0.24029
2.692,0.42699
2.696,0.64459
2.7,0.83193
2.704,0.95262
2.708,0.94564
2.712,0.8565
2.716,0.71555
2.72,0.46145
2.724,0.2076
2.728,0.05685
2.732,-0.06883
2.736,-0.16601
2.74,-0.19672
2.744,-0.18452
2.748,-0.10468
2.752,-0.06148
2.756,-0.0583
2.76,-0.04428
2.764,-0.03189
2.768,0.00276
2.772,-0.02124
2.776,-0.04091
2.78,-0.00953
2.784,-0.04764
2.788,-0.00622
2.792,-0.03274
2.796,-0.02239
2.8,-0.02007
2.804,-0.00582
2.808,-0.02136
2.812,-0.02467
2.816,-0.01409
2.82,-0.01125
2.824,-0.04529
2.828,-0.04455
2.832,-0.01651
2.836,-0.0161
2.84,-0.01091
2.844,-0.03887
2.848,-0.017
2.852,-0.00938
2.856,0.00824
2.86,-0.02415
2.864,-0.01448
2.868,-0.02821
2.872,-0.01954
2.876,-0.02957
2.88,-0.02427
2.884,-0.00408
2.888,-0.01521
2.892,0.00423
2.896,-0.00649
2.9,0.02722
2.904,0.0282
2.908,0.0377
2.912,0.02734
2.916,0.05611
2.92,0.05255
2.924,0.06918
2.928,0.06364
2.932,0.07116
2.936,0.09148
2.94,0.08795
2.944,0.12884
2.948,0.11291
2.952,0.11458
2.956,0.14738
2.96,0.17682
2.964,0.19591
2.968,0.16481
2.972,0.16411
2.976,0.19956
2.98,0.20359
2.984,0.18922
2.988,0.16812
2.992,0.18368
2.996,0.20451
3.0,0.15124
3.004,0.16738
3.008,0.15988
3.012,0.14745
3.016,0.14443
3.02,0.15871
3.024,0.12072
3.028,0.13792
3.032,0.11016
3.036,0.09855
3.04,0.08194
3.044,0.03787
3.048,0.04022
3.052,0.06368
3.056,0.02605
3.06,0.03814
3.064,0.05497
3.068,0.01017
3.072,0.01238
3.076,-0.01774
3.08,0.00072
3.084,0.00502
3.088,-1e-05
3.092,-0.01645
3.096,-0.02738
3.1,-0.01048
3.104,-0.00239
3.108,-0.03174
3.112,-0.02536
3.116,-0.03461
3.12,-0.03148
3.124,-0.00461
3.128,-0.00645
3.132,-0.04311
3.136,-0.00475
3.14,-0.01865
3.144,-0.04911
3.148,-0.01864
3.152,-0.00678
3.156,-0.02415
3.16,-0.03677
3.164,-0.03492
3.168,-0.02234
3.172,-0.01134
3.176,-0.00187
3.18,-0.02336
3.184,-0.03324
3.188,-0.02939
3.192,-0.0159
3.196,-0.01176
3.2,-0.0066
3.204,-0.00856
3.208,-0.04995
3.212,-0.0377
3.216,-0.0129
3.22,-0.03691
3.224,-0.03417
3.228,-0.02128
3.232,-0.00542
3.236,-0.05292
3.24,-0.04317
3.244,-0.00732
3.248,-0.00607
3.252,-0.025
3.256,-0.02993
3.26,-0.05318
3.264,-0.03906
3.268,-0.00429
3.272,-0.00233
3.276,-0.03238
3.28,-0.0083
3.284,-0.02352
3.288,-0.02859
3.292,-0.0099
3.296,-0.02347
3.3,-0.02748
3.304,-0.01138
3.308,-0.02468
3.312,-0.02332
3.316,-0.0639
3.32,-0.04761
3.324,-0.01823
3.328,-0.02394
3.332,-0.05134
3.336,-0.00829
3.34,-0.00807
3.344,-0.03017
3.348,-0.03493
3.352,-0.0301
3.356,-0.02942
3.36,-0.03459
3.364,-0.02396
3.368,-0.01048
3.372,-0.03539
3.376,-0.06783
3.38,-0.05801
3.384,-0.0219
3.388,-0.00757
3.392,-0.01248
3.396,-0.04241
3.4,-0.0246
3.404,-0.00826
3.408,-0.01883
3.412,-0.02787
3.416,-0.01727
3.42,-0.01163
3.424,-0.01843
3.428,-0.0139
3.432,0.01322
3.436,-0.00581
3.44,0.01164
3.444,0.00096
3.448,0.00621
3.452,0.04884
3.456,0.05497
3.46,0.06783
3.464,0.04117
3.468,0.08791
3.472,0.03478
3.476,0.07771
3.48,0.05144
3.484,0.04474
3.488,0.0078
3.492,0.01169
3.496,-0.01097
3.5,-0.00387
3.504,-0.00853
3.508,-0.02547
3.512,-0.03561
3.516,-0.03672
3.52,-0.0423
3.524,-0.02234
3.528,-0.01793
3.532,-0.05158
3.536,-0.0392
3.54,-0.01971
3.544,-0.02064
3.548,-0.01973
3.552,-0.00189
3.556,-0.03953
3.56,-0.0446
3.564,-0.02749
3.568,-0.02727
3.572,-0.05282
3.576,-0.02149
3.58,-0.05885
3.584,-0.02092
3.588,-0.07305
3.592,-0.11422
3.596,-0.13089
3.6,-0.09648
3.604,-0.00674
3.608,0.18458
3.612,0.35364
3.616,0.59728
3.62,0.77506
3.624,0.90727
3.628,0.93697
3.632,0.86987
3.636,0.72008
3.64,0.49841
3.644,0.28087
3.648,0.07504
3.652,-0.09838
3.656,-0.18305
3.66,-0.22445
3.664,-0.19487
3.668,-0.15043
3.672,-0.0997
3.676,-0.0626
3.68,-0.04548
3.684,-0.03643
3.688,-0.04921
3.692,-0.04001
3.696,-0.0291
3.7,-0.01499
3.704,-0.00678
3.708,-0.04172
3.712,-0.02037
3.716,-0.05256
3.72,-0.03278
3.724,-0.04797
3.728,-0.03523
3.732,-0.01144
3.736,-0.04154
3.74,-0.0344
3.744,-0.03603
3.748,-0.0159
3.752,-0.0051
3.756,-0.01271
3.76,-0.04568
3.764,-0.03332
3.768,-0.02415
3.772,-0.02274
3.776,-0.02132
3.78,-0.02314
3.784,-0.01099
3.788,-0.01113
3.792,-0.04426
3.796,-0.02621
3.8,-0.00037
3.804,-0.00981
3.808,0.00412
3.812,-0.01618
3.816,0.00277
3.82,0.02699
3.824,0.00133
3.828,0.00757
3.832,0.04878
3.836,0.01086
3.84,0.06506
3.844,0.05118
3.848,0.04867
3.852,0.06914
3.856,0.11009
3.86,0.10123
3.864,0.10047
3.868,0.13638
3.872,0.14109
3.876,0.16551
3.88,0.12149
3.884,0.17543
3.888,0.15868
3.892,0.16937
3.896,0.18138
3.9,0.16699
3.904,0.18992
3.908,0.22178
3.912,0.18693
3.916,0.18506
3.92,0.17746
3.924,0.16513
3.928,0.16903
3.932,0.17271
3.936,0.15878
3.94,0.11807
3.944,0.11516
3.948,0.11208
3.952,0.07292
3.956,0.07899
3.96,0.08579
3.964,0.06213
3.968,0.06913
3.972,0.05462
3.976,0.05023
3.98,0.02833
3.984,0.01142
3.988,0.00667
3.992,0.0146
3.996,-0.0292
4.0,0.01397
4.004,0.00515
4.008,0.01318
4.012,-0.01254
4.016,0.02733
4.02,-0.0057
4.024,-0.00644
4.028,-0.02205
4.032,-0.0146
4.036,-0.05726
4.04,-0.02449
4.044,-0.02547
4.048,0.00343
4.052,-0.00321
4.056,0.01222
4.06,-0.05152
4.064,-0.03203
4.068,-0.05076
4.072,-0.02983
4.076,-0.05814
4.08,-0.03577
4.084,-0.0393
4.088,-0.02899
4.092,-0.01629
4.096,-0.04943
4.1,-0.01713
4.104,-0.0321
4.108,-0.05836
4.112,-0.04224
4.116,-0.03413
4.12,-0.01448
4.124,-0.01583
4.128,-0.01321
4.132,-0.04575
4.136,-0.03001
4.14,-0.01508
4.144,-0.02067
4.148,-0.02481
4.152,-0.00042
4.156,-0.03299
4.16,-0.03469
4.164,-0.0301
4.168,-0.03735
4.172,-0.03898
4.176,-0.02293
4.18,-0.04428
4.184,-0.03861
4.188,-0.01114
4.192,-0.03242
4.196,-0.03817
4.2,-0.02113
4.204,-0.02535
4.208,-0.03744
4.212,0.01324
4.216,-0.03873
4.22,-0.02914
4.224,-0.03429
4.228,-0.0025
4.232,-0.04003
4.236,-0.0435
4.24,-0.00469
4.244,-0.03157
4.248,-0.03557
4.252,-0.0206
4.256,-0.00508
4.26,-0.03306
4.264,-0.04069
4.268,-0.04677
4.272,-0.02517
4.276,-0.01623
4.28,-0.00399
4.284,-0.0119
4.288,-0.0095
4.292,-0.02986
4.296,-0.02091
4.3,-0.01142
4.304,-0.00694
4.308,-0.00729
4.312,-0.01704
4.316,-0.05381
4.32,-0.03665
4.324,-0.03626
4.328,-0.02533
4.332,0.03241
4.336,0.02504
4.34,0.02209
4.344,0.02754
4.348,0.02252
4.352,0.05733
4.356,0.08321
4.36,0.08435
4.364,0.06037
4.368,0.0703
4.372,0.05305
4.376,0.05357
4.38,0.06859
4.384,0.07629
4.388,0.03739
4.392,0.01798
4.396,0.03049
4.4,0.02284
4.404,-0.02503
4.408,-0.00156
4.412,-0.01825
4.416,0.00508
4.42,-0.02091
4.424,-0.0313
4.428,-0.02661
4.432,-0.01299
4.436,-0.026
4.44,-0.03398
4.444,0.0003
4.448,0.00403
4.452,-0.03302
4.456,-0.02398
4.46,-0.00535
4.464,-0.02064
4.468,-0.04275
4.472,-0.01373
4.476,-0.01821
4.48,-0.00095
4.484,-0.05125
4.488,-0.07901
4.492,-0.10638
4.496,-0.12119
4.5,-0.13507
4.504,-0.04546
4.508,0.09437
4.512,0.23745
4.516,0.49145
4.52,0.68264
4.524,0.88997
4.528,0.96051
4.532,0.9587
4.536,0.82972
4.54,0.66142
4.544,0.41862
4.548,0.20323
4.552,0.04764
4.556,-0.11529
4.56,-0.15315
4.564,-0.17264
4.568,-0.18305
4.572,-0.11438
4.576,-0.10058
4.58,-0.04267
4.584,-0.00922
4.588,-0.01284
4.592,-0.00324
4.596,-0.04593
4.6,-0.0239
4.604,0.0031
4.608,-0.04876
4.612,-0.01619
4.616,-0.0056
4.62,-0.01894
4.624,-0.02732
4.628,-0.00436
4.632,-0.03155
4.636,0.003
4.64,-0.02738
4.644,-0.00557
4.648,-0.01462
4.652,-0.0324
4.656,-0.03789
4.66,-0.02162
4.664,-0.00015
4.668,-0.01476
4.672,-0.01861
4.676,-0.04624
4.68,-0.01231
4.684,-0.0156
4.688,-0.00487
4.692,-0.01596
4.696,-0.03243
4.7,-0.00995
4.704,-0.0142
4.708,0.0015
4.712,-0.00918
4.716,0.0039
4.72,-0.01271
4.724,0.01968
4.728,0.01306
4.732,-0.0041
4.736,0.05463
4.74,0.03381
4.744,0.0524
4.748,0.10086
4.752,0.10133
4.756,0.07369
4.76,0.07736
4.764,0.11146
4.768,0.14546
4.772,0.13475
4.776,0.17308
4.78,0.17723
4.784,0.18768
4.788,0.17801
4.792,0.20876
4.796,0.19773
4.8,0.19849
4.804,0.21882
4.808,0.21158
4.812,0.19855
4.816,0.19206
4.82,0.18569
4.824,0.19789
4.828,0.1704
4.832,0.17705
4.836,0.18625
4.84,0.1533
4.844,0.13443
4.848,0.14659
4.852,0.15389
4.856,0.11486
4.86,0.0929
4.864,0.07712
4.868,0.12669
4.872,0.05399
4.876,0.07004
4.88,0.04378
4.884,0.06338
4.888,0.06618
4.892,0.03517
4.896,0.02571
4.9,0.00136
4.904,0.01018
4.908,0.02756
4.912,-0.00319
4.916,-0.00863
4.92,0.00368
4.924,-0.03558
4.928,0.01433
4.932,-0.01034
4.936,-0.00017
4.94,-0.00316
4.944,0.02192
4.948,-0.00654
4.952,-0.00336
4.956,-0.00232
4.96,0.01049
4.964,-0.02589
4.968,-0.03148
4.972,0.01418
4.976,-0.01626
4.98,-0.0
4.984,-0.0087
4.988,-0.01203
4.992,0.00035
4.996,-0.00519
5.0,-0.02482
5.004,-0.04459
5.008,0.00383
5.012,-0.00015
5.016,-0.00404
5.02,-0.00191
5.024,-0.02383
5.028,-0.01929
5.032,-0.01101
5.036,0.03135
5.04,0.00504
5.044,0.0086
5.048,-0.00307
5.052,0.00281
5.056,0.02461
5.06,-0.01685
5.064,-0.00455
5.068,-0.00997
5.072,-0.01402
5.076,0.00015
5.08,0.02717
5.084,-0.04134
5.088,0.00197
5.092,-0.01139
5.096,0.00322
5.1,-0.00171
5.104,-0.02572
5.108,-0.00189
5.112,0.01313
5.116,0.00805
5.12,-0.01527
5.124,0.03866
5.128,0.00392
5.132,-0.01098
5.136,-0.01237
5.14,-0.00484
5.144,-0.00068
5.148,-0.00132
5.152,-0.01355
5.156,0.02913
5.16,-0.0241
5.164,0.01615
5.168,0.0209
5.172,-0.00494
5.176,0.00328
5.18,-0.02422
5.184,-0.01337
5.188,-0.00833
5.192,0.01856
5.196,0.00102
5.2,0.02725
5.204,-0.02325
5.208,0.03541
5.212,0.01877
5.216,0.01639
5.22,0.01022
5.224,0.01925
5.228,0.0431
5.232,0.0513
5.236,0.04701
5.24,0.0578
5.244,0.07712
5.248,0.10908
5.252,0.06532
5.256,0.07637
5.26,0.09396
5.264,0.0798
5.268,0.06016
5.272,0.06716
5.276,0.03737
5.28,0.05747
5.284,0.04837
5.288,0.04707
5.292,0.02283
5.296,0.01953
5.3,-0.00234
5.304,-0.02318
5.308,0.00478
5.312,0.00915
5.316,0.01056
5.32,0.00013
5.324,0.00239
5.328,0.00727
5.332,0.00951
5.336,-0.00031
5.34,0.02394
5.344,0.00477
5.348,0.02302
5.352,0.01993
5.356,0.01395
5.36,-0.00101
5.364,-0.00593
5.368,-0.00841
5.372,0.01925
5.376,-0.02028
5.38,-0.07036
5.384,-0.11085
5.388,-0.07397
5.392,-0.02802
5.396,0.11837
5.4,0.29177
5.404,0.50033
5.408,0.71851
5.412,0.89556
5.416,1.00445
5.42,0.98474
5.424,0.89523
5.428,0.69181
5.432,0.42861
5.436,0.20137
5.44,0.02228
5.444,-0.08007
5.448,-0.15198
5.452,-0.16259
5.456,-0.13719
5.46,-0.08372
5.464,-0.03159
5.468,-0.01879
5.472,0.00984
5.476,0.02572
5.48,0.00241
5.484,0.00638
5.488,-0.00362
5.492,0.0109
5.496,0.01573
5.5,0.00808
5.504,0.01457
5.508,0.01447
5.512,0.04109
5.516,0.01667
5.52,-0.01697
5.524,0.00081
5.528,0.01028
5.532,0.00981
5.536,0.00074
5.54,0.00966
5.544,-0.01124
5.548,0.02631
5.552,0.00971
5.556,-0.00016
5.56,-0.00629
5.564,-0.00324
5.568,0.01281
5.572,0.00697
5.576,0.00062
5.58,0.01702
5.584,0.03166
5.588,0.02404
5.592,0.04406
5.596,0.04382
5.6,0.0471
5.604,0.03905
5.608,0.03772
5.612,0.0668
5.616,0.06055
5.62,0.05348
5.624,0.0576
5.628,0.08737
5.632,0.11167
5.636,0.10041
5.64,0.1265
5.644,0.11386
5.648,0.12462
5.652,0.13293
5.656,0.14686
5.66,0.17682
5.664,0.18059
5.668,0.1864
5.672,0.21712
5.676,0.21355
5.68,0.20233
5.684,0.23695
5.688,0.23374
5.692,0.22092
5.696,0.2199
5.7,0.2582
5.704,0.24149
5.708,0.21569
5.712,0.23188
5.716,0.22626
5.72,0.22422
5.724,0.21058
5.728,0.17004
5.732,0.16962
5.736,0.17513
5.74,0.16709
5.744,0.13499
5.748,0.1353
5.752,0.11674
5.756,0.09879
5.76,0.0785
5.764,0.09294
5.768,0.06065
5.772,0.07046
5.776,0.09094
5.78,0.04351
5.784,0.05919
5.788,0.03714
5.792,0.05273
5.796,0.04651
5.8,0.01645
5.804,0.02441
5.808,-0.00692
5.812,0.01836
5.816,-0.01295
5.82,-0.01318
5.824,0.02099
5.828,0.01386
5.832,0.03537
5.836,0.00209
5.84,0.03926
5.844,0.01577
5.848,-0.00379
5.852,0.02394
5.856,0.02403
5.86,0.03351
5.864,0.00927
5.868,0.0138
5.872,0.01334
5.876,0.00386
5.88,0.03437
5.884,0.0366
5.888,0.00295
5.892,0.03622
5.896,0.02057
5.9,0.02658
5.904,0.02229
5.908,0.04726
5.912,0.04799
5.916,0.04555
5.92,0.02373
5.924,0.01302
5.928,0.01348
5.932,0.01671
5.936,-0.00383
5.94,0.01964
5.944,0.02687
5.948,-0.01157
5.952,0.02654
5.956,0.04344
5.96,0.02392
5.964,-0.00084
5.968,0.03738
5.972,0.03853
5.976,0.02298
5.98,0.02079
5.984,0.02184
5.988,0.03572
5.992,0.0164
5.996,0.01248
6.0,0.04611
6.004,0.00551
6.008,0.03588
6.012,0.03167
6.016,0.03093
6.02,0.03727
6.024,0.03479
6.028,0.01322
6.032,0.00108
6.036,0.04072
6.04,0.00971
6.044,0.01619
6.048,0.02524
6.052,0.04202
6.056,0.03137
6.06,0.01322
6.064,0.0307
6.068,0.04672
6.072,0.02917
6.076,0.02008
6.08,0.00517
6.084,0.01108
6.088,0.01753
6.092,0.04561
6.096,0.00579
6.1,0.01317
6.104,0.02299
6.108,0.01293
6.112,0.02132
6.116,0.00347
6.12,0.03457
6.124,0.00694
6.128,0.03277
6.132,0.00897
6.136,0.04337
6.14,0.03568
6.144,0.02563
6.148,0.03873
6.152,0.0537
6.156,0.0397
6.16,0.06429
6.164,0.0697
6.168,0.07468
6.172,0.11304
6.176,0.12191
6.18,0.10026
6.184,0.13214
6.188,0.11261
6.192,0.13006
6.196,0.11051
6.2,0.09071
6.204,0.10656
6.208,0.08347
6.212,0.02972
6.216,0.05425
6.22,0.04467
6.224,0.05228
6.228,0.04731
6.232,0.01544
6.236,0.00293
6.24,0.03577
6.244,0.01519
6.248,0.02674
6.252,0.0323
6.256,0.01978
6.26,0.03046
6.264,0.01358
6.268,0.03046
6.272,0.03358
6.276,0.01438
6.28,0.05055
6.284,0.02993
6.288,0.02033
6.292,0.02589
6.296,0.03223
6.3,-0.00258
6.304,-0.05451
6.308,-0.07536
6.312,-0.09897
6.316,-0.05125
6.32,0.07736
6.324,0.23383
6.328,0.43256
6.332,0.66311
6.336,0.8555
6.34,0.98276
6.344,1.03078
6.348,0.96486
6.352,0.78607
6.356,0.56298
6.36,0.34906
6.364,0.11932
6.368,-0.02404
6.372,-0.09638
6.376,-0.14877
6.38,-0.11562
6.384,-0.07634
6.388,-0.06263
6.392,0.00014
6.396,-0.00471
6.4,0.05563
6.404,0.02517
6.408,0.04518
6.412,0.01125
6.416,0.01537
6.42,0.02262
6.424,0.0328
6.428,0.0322
6.432,0.05815
6.436,0.02463
6.44,0.03613
6.444,0.01472
6.448,0.04733
6.452,0.01459
6.456,0.00721
6.46,0.01941
6.464,-0.00238
6.468,0.00434
6.472,0.02364
6.476,0.00823
6.48,0.00581
6.484,0.01193
6.488,0.03773
6.492,0.01748
6.496,0.03816
6.5,0.04063
6.504,0.03589
6.508,0.03115
6.512,0.04652
6.516,0.04441
6.52,0.04591
6.524,0.05003
6.528,0.04027
6.532,0.04783
6.536,0.06144
6.54,0.09079
6.544,0.06001
6.548,0.07587
6.552,0.0865
6.556,0.11981
6.56,0.11921
6.564,0.13519
6.568,0.1229
6.572,0.14635
6.576,0.1521
6.58,0.16126
6.584,0.17153
6.588,0.19005
6.592,0.20499
6.596,0.20316
6.6,0.22379
6.604,0.23807
6.608,0.24933
6.612,0.22913
6.616,0.27752
6.62,0.2614
6.624,0.26071
6.628,0.22842
6.632,0.25357
6.636,0.22975
6.64,0.26226
6.644,0.22178
6.648,0.21183
6.652,0.19767
6.656,0.21366
6.66,0.20731
6.664,0.19153
6.668,0.16084
6.672,0.139
6.676,0.13018
6.68,0.11031
6.684,0.09305
6.688,0.0938
6.692,0.10015
6.696,0.07233
6.7,0.07869
6.704,0.07643
6.708,0.07146
6.712,0.07073
6.716,0.02958
6.72,0.04786
6.724,0.02213
6.728,0.06106
6.732,0.04754
6.736,0.05743
6.74,0.04464
6.744,0.05083
6.748,0.03482
6.752,0.01474
6.756,0.03779
6.76,0.03234
6.764,0.0141
6.768,0.02558
6.772,0.05158
6.776,0.01041
6.78,0.02084
6.784,0.05703
6.788,0.03923
6.792,0.01801
6.796,0.03457
6.8,0.03789
6.804,0.03519
6.808,0.02083
6.812,0.05514
6.816,0.02224
6.82,0.00787
6.824,0.0368
6.828,0.04694
6.832,0.04034
6.836,0.03039
6.84,0.0233
6.844,0.01846
6.848,0.02064
6.852,0.03796
6.856,0.0389
6.86,0.04241
6.864,0.04985
6.868,0.04212
6.872,0.02196
6.876,0.04645
6.88,0.00511
6.884,0.02762
6.888,0.01104
6.892,0.0153
6.896,0.03268
6.9,0.02809
6.904,0.04744
6.908,0.05317
6.912,0.03461
6.916,0.04917
6.92,0.0292
6.924,0.06607
6.928,0.00552
6.932,0.01881
6.936,0.01725
6.94,0.05509
6.944,0.04002
6.948,0.01924
6.952,0.04483
6.956,0.03013
6.96,0.02282
6.964,0.04085
6.968,0.03947
6.972,0.01748
6.976,0.04618
6.98,0.04846
6.984,0.07769
6.988,0.08457
6.992,0.07924
6.996,0.1025
7.0,0.12707
7.004,0.09433
7.008,0.12362
7.012,0.13172
7.016,0.1391
7.02,0.13883
7.024,0.11778
7.028,0.14057
7.032,0.12262
7.036,0.10986
7.04,0.06777
7.044,0.10498
7.048,0.06328
7.052,0.05274
7.056,0.01876
7.06,0.03346
7.064,0.03121
7.068,0.01787
7.072,0.00896
7.076,0.03456
7.08,0.03799
7.084,0.01979
7.088,0.02548
7.092,0.03841
7.096,0.05567
7.1,0.0395
7.104,0.03325
7.108,0.0119
7.112,0.00376
7.116,0.021
7.12,0.0207
7.124,0.02025
7.128,0.02554
7.132,0.00183
7.136,-0.02584
7.14,-0.07469
7.144,-0.10645
7.148,-0.07208
7.152,-0.00465
7.156,0.16262
7.16,0.31268
7.164,0.54083
7.168,0.75593
7.172,0.91606
7.176,1.01161
7.18,0.99574
7.184,0.90642
7.188,0.70647
7.192,0.44551
7.196,0.29607
7.2,0.0793
7.204,-0.07488
7.208,-0.12381
7.212,-0.12897
7.216,-0.09953
7.22,-0.05919
7.224,-0.01881
7.228,0.0239
7.232,0.02141
7.236,0.03585
7.24,0.02223
7.244,0.03074
7.248,0.03071
7.252,0.03753
7.256,0.03147
7.26,0.05571
7.264,0.00759
7.268,0.03474
7.272,0.05463
7.276,0.03392
7.28,0.05948
7.284,0.04889
7.288,0.01551
7.292,0.00669
7.296,0.04442
7.3,0.01593
7.304,0.02404
7.308,0.0328
7.312,0.04484
7.316,0.05136
7.32,0.03168
7.324,0.03501
7.328,0.0124
7.332,0.02834
7.336,0.0134
7.34,0.04547
7.344,0.04927
7.348,0.01783
7.352,0.03943
7.356,0.04775
7.36,0.0447
7.364,0.04978
7.368,0.04764
7.372,0.05256
7.376,0.07207
7.38,0.04306
7.384,0.12266
7.388,0.09412
7.392,0.10079
7.396,0.08633
7.4,0.14523
7.404,0.12363
7.408,0.13732
7.412,0.1882
7.416,0.1597
7.42,0.18863
7.424,0.19236
7.428,0.19236
7.432,0.21425
7.436,0.22705
7.44,0.26762
7.444,0.25836
7.448,0.24841
7.452,0.23867
7.456,0.25607
7.46,0.24151
7.464,0.26798
7.468,0.20587
7.472,0.23711
7.476,0.23966
7.48,0.21415
7.484,0.22009
7.488,0.20941
7.492,0.18496
7.496,0.16904
7.5,0.16234
7.504,0.15975
7.508,0.12587
7.512,0.12549
7.516,0.13175
7.52,0.08836
7.524,0.09262
7.528,0.09162
7.532,0.0795
7.536,0.06536
7.54,0.0661
7.544,0.03702
7.548,0.04719
7.552,0.03677
7.556,0.07744
7.56,0.02241
7.564,0.04461
7.568,0.02689
7.572,0.03164
7.576,0.00241
7.58,0.05072
7.584,0.00699
7.588,0.00946
7.592,0.03785
7.596,0.02485
7.6,0.0137
7.604,0.01345
7.608,0.00045
7.612,0.01376
7.616,0.02657
7.62,0.02901
7.624,0.05385
7.628,0.01603
7.632,0.01991
7.636,0.02034
7.64,0.04641
7.644,0.00097
7.648,0.04453
7.652,-0.02273
7.656,0.00399
7.66,0.02553
7.664,0.03066
7.668,0.00258
7.672,0.03309
7.676,0.05577
7.68,0.00588
7.684,0.03105
7.688,0.01618
7.692,0.0407
7.696,0.04109
7.7,0.04524
7.704,0.03073
7.708,0.02498
7.712,0.05946
7.716,0.0438
7.72,0.07721
7.724,0.06423
7.728,0.07917
7.732,0.0827
7.736,0.10339
7.74,0.11249
7.744,0.11838
7.748,0.08987
7.752,0.12007
7.756,0.09475
7.76,0.07706
7.764,0.05369
7.768,0.06851
7.772,0.03446
7.776,0.05973
7.78,0.03907
7.784,0.01475
7.788,0.05263
7.792,0.02444
7.796,0.03718
7.8,-0.00876
7.804,0.03691
7.808,0.01702
7.812,0.01538
7.816,0.01184
7.82,0.00325
7.824,0.0051
7.828,0.03722
7.832,0.03726
7.836,0.01558
7.84,0.00305
7.844,0.05347
7.848,0.00487
7.852,0.0329
7.856,0.01965
7.86,-0.02136
7.864,-0.04486
7.868,-0.07236
7.872,-0.11704
7.876,-0.0679
7.88,0.05502
7.884,0.2413
7.888,0.44519
7.892,0.63973
7.896,0.83182
7.9,0.98552
7.904,1.01314
7.908,0.9538
7.912,0.75992
7.916,0.57233
7.92,0.32328
7.924,0.09992
7.928,-0.0344
7.932,-0.09939
7.936,-0.14023
7.94,-0.13151
7.944,-0.08739
7.948,-0.05381
7.952,-0.03606
7.956,-0.02096
7.96,0.01815
7.964,0.01059
7.968,0.01538
7.972,0.01252
7.976,-0.01782
7.98,-0.01454
7.984,0.02272
7.988,0.02087
7.992,-0.01074
7.996,0.02701
8.0,0.03837
8.004,-0.00835
8.008,0.00221
8.012,-0.00205
8.016,0.03254
8.02,0.01699
8.024,-0.00247
8.028,-0.00526
8.032,0.02691
8.036,0.02278
8.04,-0.00147
8.044,-0.02272
8.048,0.01489
8.052,0.02275
8.056,0.03616
8.06,0.02625
8.064,0.02794
8.068,0.04194
8.072,0.04102
8.076,0.01266
8.08,0.03077
8.084,0.03335
8.088,0.01941
8.092,0.05133
8.096,0.05929
8.1,0.03651
8.104,0.05785
8.108,0.10375
8.112,0.07078
8.116,0.08623
8.12,0.06486
8.124,0.09609
8.128,0.11196
8.132,0.11535
8.136,0.11991
8.14,0.13255
8.144,0.18369
8.148,0.19062
8.152,0.17736
8.156,0.17742
8.16,0.22085
8.164,0.20374
8.168,0.21684
8.172,0.24736
8.176,0.24458
8.18,0.22206
8.184,0.19863
8.188,0.21463
8.192,0.22463
8.196,0.21225
8.2,0.2158
8.204,0.20484
8.208,0.1989
8.212,0.13915
8.216,0.20939
8.22,0.16759
8.224,0.13191
8.228,0.14163
8.232,0.12173
8.236,0.12621
8.24,0.10283
8.244,0.09649
8.248,0.07643
8.252,0.07914
8.256,0.06722
8.26,0.08568
8.264,0.05653
8.268,0.01038
8.272,0.04235
8.276,0.06076
8.28,0.0013
8.284,0.02951
8.288,0.01082
8.292,0.01238
8.296,0.01511
8.3,0.02151
8.304,-0.01061
8.308,-0.00739
8.312,0.01355
8.316,0.00635
8.32,-0.00519
8.324,0.02884
8.328,-0.00347
8.332,0.01501
8.336,-0.00688
8.34,0.02408
8.344,-0.00228
8.348,0.03101
8.352,0.00315
8.356,0.00777
8.36,0.00854
8.364,0.00944
8.368,-0.02276
8.372,0.01611
8.376,0.0065
8.38,-0.00704
8.384,0.01471
8.388,0.00503
8.392,0.00815
8.396,-0.01977
8.4,0.02591
8.404,-0.03544
8.408,0.01201
8.412,-0.00728
8.416,0.01452
8.42,0.0092
8.424,0.00657
8.428,0.01441
8.432,0.00618
8.436,-0.00415
8.44,-0.02048
8.444,0.02655
8.448,-0.00577
8.452,0.0123
8.456,-0.01015
8.46,-0.00131
8.464,0.02056
8.468,0.03093
8.472,0.03748
8.476,0.02811
8.48,0.04811
8.484,0.07516
8.488,0.06726
8.492,0.07814
8.496,0.09622
8.5,0.09229
8.504,0.12295
8.508,0.09874
8.512,0.11043
8.516,0.06837
8.52,0.08117
8.524,0.0295
8.528,0.06011
8.532,0.05003
8.536,0.01749
8.54,0.00574
8.544,0.02899
8.548,-0.00315
8.552,-0.02666
8.556,0.01758
8.56,-0.01867
8.564,-0.00146
8.568,0.00797
8.572,0.00902
8.576,-0.01714
8.58,-0.00602
8.584,-0.02006
8.588,-0.03007
8.592,-0.03359
8.596,-0.00731
8.6,-0.01675
8.604,0.00167
8.608,-0.0237
8.612,0.01703
8.616,0.01746
8.62,-0.03318
8.624,-0.05075
8.628,-0.14061
8.632,-0.11475
8.636,-0.0805
8.64,0.00029
8.644,0.16236
8.648,0.34195
8.652,0.58072
8.656,0.78072
8.66,0.93739
8.664,0.95169
8.668,0.95814
8.672,0.81001
8.676,0.59881
8.68,0.35323
8.684,0.16958
8.688,-0.00299
8.692,-0.11237
8.696,-0.19821
8.7,-0.18064
8.704,-0.14896
8.708,-0.10301
8.712,-0.03502
8.716,-0.01414
8.72,-0.02892
8.724,-0.0094
8.728,-0.01833
8.732,0.00571
8.736,0.00365
8.74,-0.00919
8.744,-0.04067
8.748,-0.00862
8.752,-0.0032
8.756,-0.01717
8.76,-0.00539
8.764,-0.02181
8.768,0.00163
8.772,0.0022
8.776,-0.00871
8.78,-0.00392
8.784,-0.00499
8.788,-0.01127
8.792,-0.03279
8.796,-0.00115
8.8,0.00336
8.804,0.00708
8.808,-0.00189
8.812,0.0012
8.816,-0.01056
8.82,-0.00355
8.824,0.01748
8.828,0.00831
8.832,0.00361
8.836,0.01341
8.84,-0.00443
8.844,0.00568
8.848,0.01024
8.852,0.02912
8.856,0.03645
8.86,0.04391
8.864,0.04547
8.868,0.03401
8.872,0.06568
8.876,0.09259
8.88,0.05874
8.884,0.10932
8.888,0.07522
8.892,0.13514
8.896,0.10833
8.9,0.1184
8.904,0.15624
8.908,0.15793
8.912,0.16282
8.916,0.14539
8.92,0.20155
8.924,0.15652
8.928,0.20874
8.932,0.22661
8.936,0.22757
8.94,0.23186
8.944,0.15906
8.948,0.22996
8.952,0.23436
8.956,0.17496
8.96,0.19436
8.964,0.16584
8.968,0.17031
8.972,0.16819
8.976,0.15968
8.98,0.14515
8.984,0.14833
8.988,0.12552
8.992,0.11675
8.996,0.09824
9.0,0.09962
9.004,0.06606
9.008,0.07515
9.012,0.09701
9.016,0.06352
9.02,0.03821
9.024,0.03311
9.028,0.01988
9.032,-0.01631
9.036,0.01577
9.04,0.01891
9.044,0.00345
9.048,0.01025
9.052,0.01053
9.056,0.03587
9.06,0.00503
9.064,-0.03099
9.068,3e-05
9.072,-0.01165
9.076,-0.00102
9.08,0.00099
9.084,0.00127
9.088,-0.00478
9.092,0.00319
9.096,-0.01331
9.1,-0.02152
9.104,-0.0334
9.108,-0.00696
9.112,-0.01103
9.116,-0.01266
9.12,0.00057
9.124,-0.01096
9.128,-0.02454
9.132,-0.02741
9.136,0.00178
9.14,-0.01451
9.144,-0.02156
9.148,-0.02482
9.152,-0.01322
9.156,-0.03261
9.16,0.018
9.164,0.00055
9.168,0.01429
9.172,-0.03233
9.176,-0.00896
9.18,0.00427
9.184,0.00022
9.188,-0.023
9.192,0.0085
9.196,-0.00469
9.2,0.03017
9.204,-0.02713
9.208,-0.0234
9.212,-0.03061
9.216,-0.00727
9.22,-0.00623
9.224,0.00262
9.228,-0.01822
9.232,-0.03157
9.236,-0.01528
9.24,-0.02476
9.244,-0.02864
9.248,0.01427
9.252,-0.01834
9.256,-0.04387
9.26,-0.02981
9.264,-0.01379
9.268,-0.02605
9.272,0.0091
9.276,-0.01499
9.28,-0.03925
9.284,-0.03871
9.288,-0.03466
9.292,-0.0143
9.296,-0.01268
9.3,-0.02731
9.304,-0.00149
9.308,-0.02427
9.312,0.03979
9.316,-0.00112
9.32,0.02254
9.324,0.0415
9.328,0.06158
9.332,0.07383
9.336,0.09877
9.34,0.0931
9.344,0.07735
9.348,0.08955
9.352,0.08763
9.356,0.04213
9.36,0.0549
9.364,0.02991
9.368,0.00032
9.372,-0.01771
9.376,0.02477
9.38,-0.0041
9.384,-0.01177
9.388,-0.02481
9.392,0.01346
9.396,-0.0193
9.4,-0.00348
9.404,-0.01049
9.408,0.00017
9.412,-0.02696
9.416,-0.01838
9.42,0.00411
9.424,-0.0265
9.428,-0.01822
9.432,-0.01718
9.436,-0.00712
9.44,-0.0137
9.444,-0.0283
9.448,-0.00996
9.452,-0.02529
9.456,-0.04753
9.46,-0.06483
9.464,-0.07212
9.468,-0.12415
9.472,-0.16212
9.476,-0.11993
9.48,-0.00317
9.484,0.17301
9.488,0.35895
9.492,0.5753
9.496,0.79628
9.5,0.91852
9.504,0.97446
9.508,0.90949
9.512,0.74326
9.516,0.51133
9.52,0.28077
9.524,0.08766
9.528,-0.03238
9.532,-0.14826
9.536,-0.17996
9.54,-0.21319
9.544,-0.15881
9.548,-0.07612
9.552,-0.06088
9.556,-0.03226
9.56,-0.02056
9.564,-0.04273
9.568,-0.02275
9.572,-0.02201
9.576,-0.03861
9.58,-0.0236
9.584,-0.04817
9.588,-0.01955
9.592,-0.04315
9.596,-0.06107
9.6,-0.03413
9.604,-0.02252
9.608,-0.0161
9.612,-0.07077
9.616,-0.02356
9.62,-0.03693
9.624,0.00923
9.628,-0.03469
9.632,-0.02728
9.636,-0.01488
9.64,-0.02388
9.644,-0.01846
9.648,-0.01561
9.652,-0.05491
9.656,-0.03008
9.66,-0.00934
9.664,-0.00726
9.668,-0.01885
9.672,-0.02184
9.676,-0.00273
9.68,0.0015
9.684,-0.01495
9.688,-0.00279
9.692,-0.00708
9.696,0.01414
9.7,0.01626
9.704,0.00715
9.708,0.03057
9.712,0.05976
9.716,0.04079
9.72,0.03422
9.724,0.07284
9.728,0.08415
9.732,0.08499
9.736,0.11087
9.74,0.11905
9.744,0.11141
9.748,0.13588
9.752,0.16191
9.756,0.15709
9.76,0.15897
9.764,0.19359
9.768,0.16718
9.772,0.20757
9.776,0.20025
9.78,0.18848
9.784,0.17126
9.788,0.17299
9.792,0.20094
9.796,0.16688
9.8,0.17949
9.804,0.18043
9.808,0.17311
9.812,0.15198
9.816,0.14183
9.82,0.12704
9.824,0.10596
9.828,0.11299
9.832,0.07561
9.836,0.07879
9.84,0.05516
9.844,0.04362
9.848,0.04027
9.852,0.05407
9.856,0.02073
9.86,0.00526
9.864,0.04394
9.868,-0.00809
9.872,0.02826
9.876,0.00363
9.88,-0.0207
9.884,-0.00178
9.888,-0.03934
9.892,-0.02068
9.896,0.00209
9.9,-0.01753
9.904,-0.0025
9.908,-0.02159
9.912,-0.01845
9.916,-0.03458
9.92,-0.02552
9.924,-0.03436
9.928,-0.00787
9.932,-0.01856
9.936,-0.01431
9.94,-0.04653
9.944,-0.06021
9.948,-0.04433
9.952,-0.0368
9.956,-0.02005
9.96,-0.02208
9.964,-0.02731
9.968,-0.02641
9.972,-0.02792
9.976,-0.0232
9.98,-0.02834
9.984,-0.03612
9.988,-0.02565
9.992,-0.02498
9.996,-0.02414
