t_seg,ecg_mV
0.0,-0.03238
0.004,0.02346
0.008,-0.00375
0.012,-0.03939
0.016,0.05915
0.02,0.01133
0.024,0.07152
0.028,0.10041
0.032,0.06085
0.036,0.10863
0.04,0.09122
0.044,0.06813
0.048,0.09084
0.052,0.07021
0.056,0.01663
0.06,0.0488
0.064,0.05794
0.068,0.09514
0.072,0.00221
0.076,-0.00354
0.08,-0.00825
0.084,0.00128
0.088,-0.0582
0.092,0.02841
0.096,0.0203
0.1,-0.0058
0.104,0.01211
0.108,-0.05947
0.112,0.02441
0.116,-0.07489
0.12,-0.07651
0.124,-0.02045
0.128,-0.03403
0.132,-0.09225
0.136,0.00483
0.14,-0.03172
0.144,-0.09016
0.148,-0.01735
0.152,-0.04239
0.156,-0.04695
0.16,-0.0636
0.164,-0.132
0.168,-0.1037
0.172,-0.17035
0.176,-0.07818
0.18,0.09196
0.184,0.24007
0.188,0.49652
0.192,0.74449
0.196,0.82199
0.2,1.03095
0.204,0.93064
0.208,0.8624
0.212,0.68145
0.216,0.41016
0.22,0.21357
0.224,0.0046
0.228,-0.07476
0.232,-0.2366
0.236,-0.21253
0.24,-0.11436
0.244,-0.15214
0.248,-0.08618
0.252,-0.08593
0.256,-0.08672
0.26,-0.05777
0.264,-0.07549
0.268,-0.04599
0.272,-0.04031
0.276,0.03006
0.28,-0.00874
0.284,-0.01988
0.288,0.00141
0.292,0.00366
0.296,-0.00122
0.3,-0.02113
0.304,-0.0096
0.308,-0.04466
0.312,0.00386
0.316,-0.07345
0.32,0.04786
0.324,-0.02617
0.328,-0.03341
0.332,0.06161
0.336,0.0537
0.34,-0.02431
0.344,-0.02766
0.348,0.07158
0.352,0.0422
0.356,-0.01437
0.36,0.07134
0.364,0.0356
0.368,0.00288
0.372,-0.00433
0.376,-0.01989
0.38,-0.07797
0.384,-0.01763
0.388,-0.01678
0.392,0.02159
0.396,0.04055
0.4,0.0105
0.404,0.00249
0.408,0.08007
0.412,0.06303
0.416,0.09776
0.42,0.07215
0.424,0.17027
0.428,0.05427
0.432,0.10719
0.436,0.16144
0.44,0.09745
0.444,0.16809
0.448,0.13934
0.452,0.22351
0.456,0.17837
0.46,0.17025
0.464,0.16954
0.468,0.19502
0.472,0.23984
0.476,0.23965
0.48,0.20162
0.484,0.25072
0.488,0.16131
0.492,0.18419
0.496,0.18913
0.5,0.19648
0.504,0.15542
0.508,0.17961
0.512,0.19352
0.516,0.14062
0.52,0.14099
0.524,0.13565
0.528,0.15978
0.532,0.03987
0.536,0.09711
0.54,0.09269
0.544,0.10004
0.548,0.07258
0.552,0.06033
0.556,0.08324
0.56,0.01644
0.564,0.03549
0.568,0.03246
0.572,0.03161
0.576,0.06455
0.58,0.0126
0.584,0.09971
0.588,0.06536
0.592,0.00544
0.596,-0.02167
0.6,0.00794
0.604,0.02619
0.608,-0.00755
0.612,0.00585
0.616,0.05595
0.62,-0.00522
0.624,-0.01247
0.628,0.00695
0.632,-0.0103
0.636,0.07393
0.64,0.06643
0.644,0.09091
0.648,-0.02469
0.652,0.00393
0.656,-0.02585
0.66,0.03588
0.664,-0.0394
0.668,0.06734
0.672,0.0502
0.676,-0.03973
0.68,-0.02613
0.684,0.0244
0.688,0.02561
0.692,0.00763
0.696,-0.07945
0.7,-0.02657
0.704,0.01098
0.708,0.01843
0.712,-0.0169
0.716,0.0479
0.72,0.05842
0.724,0.05858
0.728,0.05289
0.732,0.10552
0.736,0.085
0.74,0.08196
0.744,0.12954
0.748,0.10259
0.752,0.03574
0.756,0.02569
0.76,0.05432
0.764,0.02949
0.768,0.1108
0.772,0.07543
0.776,-0.02962
0.78,0.03499
0.784,0.02515
0.788,0.02201
0.792,0.04875
0.796,-0.01565
0.8,0.02945
0.804,-0.01786
0.808,-0.02539
0.812,-0.01646
0.816,0.04815
0.82,0.03667
0.824,0.01151
0.828,0.07264
0.832,0.03695
0.836,-0.00434
0.84,-0.01243
0.844,-0.03768
0.848,0.00912
0.852,-0.02996
0.856,-0.04938
0.86,-0.03818
0.864,-0.11475
0.868,-0.15747
0.872,-0.05936
0.876,0.03773
0.88,0.11788
0.884,0.37236
0.888,0.58957
0.892,0.70972
0.896,0.95643
0.9,1.0272
0.904,0.99285
0.908,0.83482
0.912,0.62766
0.916,0.3084
0.92,0.1248
0.924,-0.057
0.928,-0.09002
0.932,-0.18126
0.936,-0.2153
0.94,-0.0745
0.944,-0.10462
0.948,-0.04438
0.952,-0.06237
0.956,-0.03375
0.96,-0.0162
0.964,0.03925
0.968,0.02739
0.972,0.04095
0.976,-0.00101
0.98,-0.00045
0.984,-0.04104
0.988,0.00113
0.992,-0.03013
0.996,0.0115
1.0,-0.0335
1.004,0.00552
1.008,0.04953
1.012,0.03574
1.016,-0.03276
1.02,0.00217
1.024,0.0162
1.028,-0.0295
1.032,-0.06287
1.036,0.00255
1.04,-0.00372
1.044,0.00202
1.048,0.01303
1.052,0.02758
1.056,-0.00746
1.06,0.07994
1.064,0.01112
1.068,-0.01557
1.072,0.03745
1.076,0.04627
1.08,0.01539
1.084,0.02407
1.088,-0.01849
1.092,0.01969
1.096,0.02733
1.1,0.07378
1.104,0.05794
1.108,0.01513
1.112,0.04969
1.116,-0.00292
1.12,0.0333
1.124,0.06771
1.128,0.11803
1.132,0.10613
1.136,0.1244
1.14,0.14231
1.144,0.16463
1.148,0.14734
1.152,0.22594
1.156,0.10293
1.16,0.18225
1.164,0.1963
1.168,0.27599
1.172,0.18394
1.176,0.23376
1.18,0.21239
1.184,0.2002
1.188,0.22815
1.192,0.23686
1.196,0.22892
1.2,0.20613
1.204,0.16815
1.208,0.18275
1.212,0.18353
1.216,0.17702
1.22,0.16279
1.224,0.16617
1.228,0.17862
1.232,0.16669
1.236,0.13491
1.24,0.03682
1.244,0.0701
1.248,0.06149
1.252,0.05179
1.256,0.1414
1.26,0.08051
1.264,0.07926
1.268,0.04313
1.272,0.07484
1.276,0.01072
1.28,0.01176
1.284,-0.00304
1.288,0.03153
1.292,0.02828
1.296,-0.00389
1.3,-0.01875
1.304,-0.01709
1.308,-0.04516
1.312,0.00623
1.316,0.00424
1.32,0.0297
1.324,0.02016
1.328,0.07718
1.332,0.05127
1.336,0.03392
1.34,0.04313
1.344,0.07867
1.348,0.00826
1.352,0.03705
1.356,0.0042
1.36,0.0349
1.364,0.02158
1.368,0.06941
1.372,0.07132
1.376,-0.05315
1.38,-0.01092
1.384,0.08675
1.388,0.02054
1.392,-0.02997
1.396,0.04828
1.4,0.06435
1.404,-0.02378
1.408,0.03496
1.412,0.00949
1.416,0.06438
1.42,-0.02632
1.424,-0.0013
1.428,0.06982
1.432,0.06542
1.436,-0.00436
1.44,0.03053
1.444,0.00702
1.448,0.0436
1.452,0.01352
1.456,0.06819
1.46,0.07519
1.464,0.06292
1.468,0.04961
1.472,0.08245
1.476,0.06936
1.48,0.09201
1.484,0.10614
1.488,0.113
1.492,0.08487
1.496,0.05927
1.5,0.08657
1.504,0.11634
1.508,0.11744
1.512,0.09406
1.516,0.06327
1.52,0.09722
1.524,0.11253
1.528,-0.01695
1.532,0.09783
1.536,0.03433
1.54,0.00139
1.544,0.04953
1.548,0.06393
1.552,0.01246
1.556,0.02685
1.56,0.03534
1.564,0.00336
1.568,0.05007
1.572,0.04809
1.576,-0.01771
1.58,0.04487
1.584,0.01884
1.588,0.02493
1.592,-0.00305
1.596,-0.04489
1.6,-0.01893
1.604,0.01851
1.608,0.00995
1.612,0.02691
1.616,-0.05747
1.62,-0.10002
1.624,-0.01428
1.628,-0.0769
1.632,0.03656
1.636,0.20778
1.64,0.42678
1.644,0.63514
1.648,0.81827
1.652,0.98402
1.656,1.04943
1.66,0.94134
1.664,0.7395
1.668,0.60075
1.672,0.35341
1.676,0.17032
1.68,-0.02473
1.684,-0.09314
1.688,-0.17619
1.692,-0.1024
1.696,-0.11483
1.7,-0.06212
1.704,-0.03605
1.708,-0.04037
1.712,0.01903
1.716,-0.00991
1.72,-0.03937
1.724,0.02446
1.728,0.08485
1.732,-0.05187
1.736,-0.03577
1.74,0.08431
1.744,0.0534
1.748,0.05293
1.752,-0.01775
1.756,0.05461
1.76,0.08365
1.764,0.06898
1.768,0.00906
1.772,0.02873
1.776,0.01458
1.78,0.01455
1.784,-0.02648
1.788,0.03293
1.792,0.04278
1.796,0.07905
1.8,0.03098
1.804,0.04462
1.808,-0.00226
1.812,0.01332
1.816,0.0368
1.82,0.00633
1.824,0.00464
1.828,0.07352
1.832,0.02448
1.836,0.00685
1.84,0.03682
1.844,0.1089
1.848,0.05246
1.852,0.0796
1.856,0.05834
1.86,0.0302
1.864,0.13373
1.868,0.11984
1.872,0.20191
1.876,0.15121
1.88,0.07337
1.884,0.15349
1.888,0.20813
1.892,0.14843
1.896,0.15202
1.9,0.27797
1.904,0.18918
1.908,0.13419
1.912,0.22296
1.916,0.1873
1.92,0.22205
1.924,0.25267
1.928,0.17816
1.932,0.27737
1.936,0.27478
1.94,0.21263
1.944,0.25446
1.948,0.28601
1.952,0.26964
1.956,0.2523
1.96,0.20882
1.964,0.25903
1.968,0.26419
1.972,0.15939
1.976,0.27355
1.98,0.26405
1.984,0.24032
1.988,0.15789
1.992,0.28759
1.996,0.20206
2.0,0.24824
2.004,0.16521
2.008,0.20534
2.012,0.16949
2.016,0.0676
2.02,0.05039
2.024,0.12256
2.028,0.07036
2.032,0.07683
2.036,0.122
2.04,0.03272
2.044,-0.03044
2.048,0.04257
2.052,0.0675
2.056,0.02458
2.06,0.08508
2.064,0.00645
2.068,0.10819
2.072,0.0205
2.076,0.08214
2.08,-0.01394
2.084,0.03917
2.088,0.03369
2.092,0.05107
2.096,0.09919
2.1,0.02332
2.104,0.01401
2.108,-0.00506
2.112,-0.07431
2.116,-0.09106
2.12,-0.10665
2.124,-0.03808
2.128,0.08531
2.132,0.26782
2.136,0.49036
2.14,0.74235
2.144,0.83244
2.148,1.05837
2.152,0.98099
2.156,0.90649
2.16,0.74673
2.164,0.53105
2.168,0.28059
2.172,0.07905
2.176,0.0503
2.18,-0.12211
2.184,-0.09904
2.188,-0.11502
2.192,-0.06967
2.196,-0.03461
2.2,-0.02498
2.204,0.03652
2.208,0.01501
2.212,0.0861
2.216,0.01949
2.22,0.07255
2.224,-0.00486
2.228,0.04726
2.232,0.03865
2.236,0.02935
2.24,-0.01058
2.244,-0.04702
2.248,-0.00648
2.252,0.08616
2.256,0.07325
2.26,0.03039
2.264,-0.03614
2.268,0.01372
2.272,-0.00118
2.276,0.04085
2.28,0.03641
2.284,0.00139
2.288,0.04253
2.292,0.06072
2.296,0.0133
2.3,0.02053
2.304,-0.00526
2.308,0.06648
2.312,0.03961
2.316,0.10515
2.32,0.04496
2.324,0.07543
2.328,0.03963
2.332,0.05705
2.336,0.05457
2.34,-0.01166
2.344,0.04302
2.348,0.06831
2.352,0.09666
2.356,0.05545
2.36,0.09413
2.364,0.14951
2.368,0.09587
2.372,0.09685
2.376,0.15808
2.38,0.19501
2.384,0.09484
2.388,0.13061
2.392,0.21853
2.396,0.21086
2.4,0.20671
2.404,0.25046
2.408,0.21336
2.412,0.22253
2.416,0.21381
2.42,0.21869
2.424,0.27242
2.428,0.28886
2.432,0.21131
2.436,0.1803
2.44,0.18849
2.444,0.30683
2.448,0.24952
2.452,0.18019
2.456,0.21143
2.46,0.25527
2.464,0.17663
2.468,0.1383
2.472,0.15802
2.476,0.22638
2.48,0.2099
2.484,0.12974
2.488,0.12397
2.492,0.08925
2.496,0.0733
2.5,0.10182
2.504,0.1409
2.508,0.11342
2.512,0.07106
2.516,0.08587
2.52,0.04546
2.524,0.01463
2.528,0.08399
2.532,0.05655
2.536,0.02099
2.54,0.07754
2.544,0.05797
2.548,0.07273
2.552,0.07361
2.556,0.11881
2.56,0.0524
2.564,0.13014
2.568,0.04729
2.572,0.1071
2.576,0.09088
2.58,0.09434
2.584,0.08158
2.588,0.11123
2.592,0.1397
2.596,0.10319
2.6,0.11159
2.604,0.06961
2.608,0.0433
2.612,0.09445
2.616,0.05728
2.62,0.07011
2.624,0.13966
2.628,0.04243
2.632,-0.00343
2.636,0.03485
2.64,0.05367
2.644,0.02201
2.648,0.0609
2.652,0.03253
2.656,0.05602
2.66,0.06733
2.664,0.03312
2.668,0.04275
2.672,0.0489
2.676,0.03566
2.68,0.03471
2.684,0.00838
2.688,-0.05275
2.692,0.05532
2.696,0.04113
2.7,0.04912
2.704,0.08186
2.708,-0.044
2.712,-0.02385
2.716,-0.06073
2.72,-0.09524
2.724,-0.09425
2.728,0.09843
2.732,0.19371
2.736,0.40743
2.74,0.56037
2.744,0.79486
2.748,0.99989
2.752,1.02447
2.756,0.92165
2.76,0.8471
2.764,0.62789
2.768,0.38904
2.772,0.17135
2.776,0.04384
2.78,-0.12144
2.784,-0.17876
2.788,-0.12007
2.792,-0.07034
2.796,-0.06467
2.8,-0.02139
2.804,0.00073
2.808,0.05245
2.812,0.04768
2.816,0.05642
2.82,0.06541
2.824,-0.00759
2.828,0.05332
2.832,0.03988
2.836,0.03352
2.84,0.0158
2.844,-0.04031
2.848,0.01326
2.852,0.0118
2.856,-0.00895
2.86,0.06813
2.864,-0.01
2.868,0.00361
2.872,0.0317
2.876,0.01448
2.88,-0.01803
2.884,0.06842
2.888,0.01086
2.892,0.02718
2.896,-0.01973
2.9,0.07508
2.904,-0.0361
2.908,0.01223
2.912,0.01098
2.916,0.08789
2.92,0.05575
2.924,-0.00063
2.928,0.04389
2.932,0.018
2.936,0.04508
2.94,0.07723
2.944,0.09538
2.948,0.13151
2.952,0.05204
2.956,0.0478
2.96,0.09999
2.964,0.05003
2.968,0.07167
2.972,0.14504
2.976,0.09816
2.98,0.19393
2.984,0.09971
2.988,0.16351
2.992,0.16996
2.996,0.13804
3.0,0.16617
3.004,0.17776
3.008,0.24161
3.012,0.19309
3.016,0.17677
3.02,0.27526
3.024,0.26149
3.028,0.22889
3.032,0.26418
3.036,0.24307
3.04,0.22991
3.044,0.16057
3.048,0.18769
3.052,0.282
3.056,0.23466
3.06,0.19124
3.064,0.20964
3.068,0.22808
3.072,0.21652
3.076,0.20263
3.08,0.14915
3.084,0.11172
3.088,0.15513
3.092,0.08386
3.096,0.13378
3.1,0.12508
3.104,0.05132
3.108,0.10072
3.112,0.07899
3.116,0.11198
3.12,0.07047
3.124,0.09854
3.128,0.0957
3.132,0.10385
3.136,0.1576
3.14,0.15747
3.144,0.16829
3.148,0.16577
3.152,0.12669
3.156,0.11822
3.16,0.13382
3.164,0.07743
3.168,0.10487
3.172,0.12198
3.176,0.07159
3.18,0.05371
3.184,0.13269
3.188,-0.01262
3.192,0.07966
3.196,0.00646
3.2,0.08238
3.204,-0.00101
3.208,-0.03091
3.212,0.05088
3.216,0.05802
3.22,0.00963
3.224,-0.0429
3.228,-0.02604
3.232,0.01489
3.236,0.01832
3.24,-0.00893
3.244,-0.05337
3.248,-0.00218
3.252,0.02762
3.256,0.16536
3.26,0.02259
3.264,-0.03962
3.268,-0.00029
3.272,-0.0164
3.276,-0.07686
3.28,-0.13328
3.284,0.00807
3.288,0.13835
3.292,0.33419
3.296,0.48774
3.3,0.7534
3.304,0.95473
3.308,1.0121
3.312,0.96004
3.316,0.83155
3.32,0.65176
3.324,0.45219
3.328,0.24676
3.332,0.078
3.336,-0.01279
3.34,-0.20077
3.344,-0.13558
3.348,-0.12327
3.352,-0.10125
3.356,-0.07079
3.36,0.01591
3.364,0.03883
3.368,0.02158
3.372,0.05598
3.376,-0.01562
3.38,-0.01004
3.384,0.0142
3.388,0.04351
3.392,-0.00721
3.396,-0.01122
3.4,0.03056
3.404,0.01545
3.408,0.12743
3.412,-0.00495
3.416,0.06547
3.42,0.08224
3.424,0.07655
3.428,0.048
3.432,0.07691
3.436,0.11428
3.44,0.16299
3.444,0.11047
3.448,0.07608
3.452,0.17185
3.456,0.05694
3.46,0.08592
3.464,0.06364
3.468,0.07337
3.472,0.05572
3.476,0.04442
3.48,-0.03081
3.484,0.01396
3.488,0.01634
3.492,0.00723
3.496,0.03629
3.5,0.00783
3.504,0.07003
3.508,0.05804
3.512,0.02914
3.516,0.06223
3.52,0.01728
3.524,0.11452
3.528,0.15119
3.532,0.09773
3.536,0.10927
3.54,0.16714
3.544,0.13342
3.548,0.15217
3.552,0.19498
3.556,0.18656
3.56,0.14798
3.564,0.15159
3.568,0.20123
3.572,0.1053
3.576,0.07617
3.58,0.12914
3.584,0.16506
3.588,0.38083
3.592,0.66646
3.596,0.8519
3.6,0.94593
3.604,1.19389
3.608,1.19405
3.612,1.21429
3.616,0.95416
3.62,0.71565
3.624,0.53701
3.628,0.37804
3.632,0.10974
3.636,0.03094
3.64,-0.04186
3.644,-0.03385
3.648,0.03525
3.652,-0.0186
3.656,-0.01187
3.66,0.03235
3.664,0.04263
3.668,0.00874
3.672,0.05524
3.676,0.01942
3.68,0.06009
3.684,0.04929
3.688,0.00218
3.692,0.05059
3.696,0.00477
3.7,-0.04734
3.704,-0.02445
3.708,0.02633
3.712,0.02397
3.716,0.01888
3.72,0.01333
3.724,-0.00414
3.728,-0.01673
3.732,0.02825
3.736,0.02869
3.74,0.008
3.744,-0.07334
3.748,-0.02005
3.752,-0.01115
3.756,0.06186
3.76,0.0137
3.764,-0.00924
3.768,-0.02118
3.772,0.02949
3.776,0.01282
3.78,0.01048
3.784,0.02327
3.788,-0.04119
3.792,0.07246
3.796,0.01207
3.8,0.01459
3.804,0.03186
3.808,0.00782
3.812,0.09147
3.816,0.06839
3.82,0.04355
3.824,0.07937
3.828,0.08093
3.832,0.16335
3.836,0.03402
3.84,0.14787
3.844,0.1431
3.848,0.2204
3.852,0.18288
3.856,0.21051
3.86,0.20974
3.864,0.1958
3.868,0.23081
3.872,0.23227
3.876,0.28242
3.88,0.28362
3.884,0.23968
3.888,0.2584
3.892,0.24357
3.896,0.31013
3.9,0.33102
3.904,0.28411
3.908,0.28652
3.912,0.31605
3.916,0.18319
3.92,0.2572
3.924,0.24451
3.928,0.21375
3.932,0.23187
3.936,0.13887
3.94,0.06579
3.944,0.15863
3.948,0.11746
3.952,0.1442
3.956,0.0423
3.96,0.10798
3.964,0.05711
3.968,0.08195
3.972,0.06314
3.976,0.03783
3.98,0.01103
3.984,0.05829
3.988,-0.00251
3.992,-0.03355
3.996,0.04693
4.0,0.01241
4.004,-0.00393
4.008,-0.04637
4.012,0.00605
4.016,0.02045
4.02,0.02726
4.024,-0.00285
4.028,0.02836
4.032,0.0197
4.036,-0.01989
4.04,-0.1106
4.044,-0.07207
4.048,-0.03004
4.052,-0.0877
4.056,-0.00535
4.06,0.17472
4.064,0.35041
4.068,0.58157
4.072,0.79508
4.076,0.9454
4.08,0.97319
4.084,0.90224
4.088,0.76648
4.092,0.53563
4.096,0.32572
4.1,0.09141
4.104,-0.03871
4.108,-0.07721
4.112,-0.19323
4.116,-0.1752
4.12,-0.10489
4.124,-0.11489
4.128,-0.02852
4.132,0.00998
4.136,0.07689
4.14,-0.04484
4.144,0.02363
4.148,-0.02105
4.152,0.07947
4.156,-0.00569
4.16,-0.00935
4.164,0.04078
4.168,-0.04875
4.172,-0.00416
4.176,-0.07389
4.18,0.02756
4.184,0.06386
4.188,-0.02382
4.192,0.01864
4.196,0.00172
4.2,-0.01597
4.204,0.02018
4.208,0.01207
4.212,-0.02213
4.216,-0.01192
4.22,0.01513
4.224,-0.04221
4.228,0.0155
4.232,-0.00571
4.236,-0.07967
4.24,-0.00977
4.244,0.01755
4.248,-0.01473
4.252,0.00999
4.256,0.03029
4.26,0.00679
4.264,0.03326
4.268,0.02854
4.272,-0.00459
4.276,0.0377
4.28,-0.02349
4.284,-0.0122
4.288,0.09474
4.292,0.08425
4.296,0.09367
4.3,0.1156
4.304,0.15772
4.308,0.09117
4.312,0.15926
4.316,0.22668
4.32,0.17874
4.324,0.133
4.328,0.20878
4.332,0.17291
4.336,0.16753
4.34,0.2086
4.344,0.23701
4.348,0.2163
4.352,0.18878
4.356,0.16584
4.36,0.1849
4.364,0.23965
4.368,0.23748
4.372,0.1882
4.376,0.23514
4.38,0.21954
4.384,0.224
4.388,0.27741
4.392,0.17817
4.396,0.2
4.4,0.17706
4.404,0.22582
4.408,0.24021
4.412,0.20121
4.416,0.1507
4.42,0.15017
4.424,0.19019
4.428,0.10866
4.432,0.07842
4.436,0.13911
4.44,0.07937
4.444,0.02624
4.448,0.03176
4.452,0.03851
4.456,0.03415
4.46,0.0328
4.464,0.05085
4.468,0.02463
4.472,0.00933
4.476,0.00283
4.48,-0.01164
4.484,0.01454
4.488,0.05034
4.492,0.04296
4.496,-0.00887
4.5,-0.09154
4.504,-0.04969
4.508,0.00316
4.512,-0.05264
4.516,-0.02031
4.52,-0.02958
4.524,-0.06325
4.528,-0.04804
4.532,-0.05941
4.536,-0.13117
4.54,-0.1322
4.544,-0.03441
4.548,0.0335
4.552,0.23365
4.556,0.39676
4.56,0.62248
4.564,0.85897
4.568,0.92404
4.572,1.01064
4.576,0.90123
4.58,0.71248
4.584,0.50141
4.588,0.38102
4.592,0.10837
4.596,-0.07932
4.6,-0.17228
4.604,-0.15725
4.608,-0.11063
4.612,-0.15096
4.616,-0.13673
4.62,-0.0181
4.624,-0.06277
4.628,0.03568
4.632,0.03896
4.636,0.00597
4.64,-0.04363
4.644,-0.06836
4.648,-0.02366
4.652,-0.00146
4.656,0.02058
4.66,0.01931
4.664,-0.05237
4.668,0.01652
4.672,-0.0639
4.676,0.0051
4.68,-0.02473
4.684,0.02542
4.688,0.05065
4.692,0.01958
4.696,0.00873
4.7,-0.00216
4.704,0.04412
4.708,0.01632
4.712,0.05184
4.716,-0.02644
4.72,-0.0051
4.724,0.04843
4.728,-0.04334
4.732,0.04143
4.736,0.0048
4.74,0.02279
4.744,0.00646
4.748,-0.021
4.752,0.01538
4.756,0.04464
4.76,0.08084
4.764,0.02543
4.768,0.1026
4.772,0.06871
4.776,0.00573
4.78,0.02497
4.784,0.11911
4.788,0.07344
4.792,0.05189
4.796,0.06766
4.8,0.12751
4.804,0.17041
4.808,0.15903
4.812,0.1458
4.816,0.17217
4.82,0.11472
4.824,0.11629
4.828,0.16761
4.832,0.17963
4.836,0.17133
4.84,0.20969
4.844,0.18322
4.848,0.22363
4.852,0.19366
4.856,0.17512
4.86,0.20323
4.864,0.16865
4.868,0.23371
4.872,0.23626
4.876,0.22828
4.88,0.19375
4.884,0.20479
4.888,0.07606
4.892,0.09237
4.896,0.06587
4.9,0.12554
4.904,0.13711
4.908,0.08368
4.912,0.0282
4.916,0.10825
4.92,0.05063
4.924,0.05982
4.928,0.06862
4.932,0.04634
4.936,0.04267
4.94,0.04626
4.944,-0.05194
4.948,-0.02162
4.952,0.02742
4.956,-0.01024
4.96,-0.03313
4.964,0.04464
4.968,-0.0551
4.972,-0.02573
4.976,-0.00263
4.98,-0.03354
4.984,-0.00973
4.988,-0.03678
4.992,-0.01818
4.996,-0.00086
5.0,0.01841
5.004,-0.00654
5.008,0.01016
5.012,-0.07147
5.016,-0.01525
5.02,-0.04679
5.024,0.01177
5.028,-0.04229
5.032,-0.05561
5.036,0.01627
5.04,-0.01355
5.044,-0.01804
5.048,-0.05304
5.052,0.02394
5.056,0.0405
5.06,-0.00233
5.064,0.05696
5.068,0.00222
5.072,0.02474
5.076,0.07679
5.08,0.08283
5.084,0.04689
5.088,0.06384
5.092,0.07806
5.096,0.03983
5.1,0.11782
5.104,0.06513
5.108,0.09121
5.112,0.07398
5.116,0.00366
5.12,0.00509
5.124,0.00471
5.128,-0.02595
5.132,0.05207
5.136,-0.01651
5.14,-0.04197
5.144,-0.02676
5.148,-0.03062
5.152,0.00766
5.156,-0.07188
5.16,-0.02871
5.164,-0.03382
5.168,-0.05664
5.172,-0.03322
5.176,0.02325
5.18,-0.02102
5.184,-0.03264
5.188,-0.01942
5.192,-0.04981
5.196,0.00888
5.2,-0.02065
5.204,-0.07316
5.208,-0.07475
5.212,-0.11082
5.216,-0.19281
5.22,-0.16867
5.224,-0.08258
5.228,0.04149
5.232,0.22072
5.236,0.40336
5.24,0.68403
5.244,0.82766
5.248,0.94303
5.252,0.98334
5.256,0.88185
5.26,0.76569
5.264,0.42573
5.268,0.23272
5.272,0.06509
5.276,-0.11486
5.28,-0.20099
5.284,-0.18026
5.288,-0.19985
5.292,-0.11888
5.296,-0.05572
5.3,-0.09428
5.304,-0.03915
5.308,-0.03951
5.312,-0.01767
5.316,-0.01663
5.32,0.01152
5.324,-0.08733
5.328,-0.09607
5.332,-0.01885
5.336,-0.0437
5.34,-0.07171
5.344,-0.06913
5.348,-0.05158
5.352,-0.07494
5.356,-0.00951
5.36,-0.04901
5.364,0.01644
5.368,-0.02225
5.372,-0.09849
5.376,-0.0213
5.38,-0.04364
5.384,0.01153
5.388,0.00461
5.392,0.01196
5.396,-0.02234
5.4,-0.06212
5.404,0.00073
5.408,0.01579
5.412,-0.02358
5.416,-0.01008
5.42,0.00432
5.424,-0.04097
5.428,-0.01677
5.432,-0.07271
5.436,-0.03335
5.44,0.01221
5.444,0.01132
5.448,-0.01007
5.452,0.05326
5.456,0.08296
5.46,0.11655
5.464,0.05412
5.468,0.06662
5.472,0.06128
5.476,0.09564
5.48,0.07009
5.484,0.05462
5.488,0.14477
5.492,0.09195
5.496,0.15311
5.5,0.11727
5.504,0.15211
5.508,0.06657
5.512,0.20725
5.516,0.14065
5.52,0.25
5.524,0.18752
5.528,0.19666
5.532,0.19589
5.536,0.18742
5.54,0.19135
5.544,0.21479
5.548,0.18418
5.552,0.10762
5.556,0.14046
5.56,0.16292
5.564,0.16907
5.568,0.179
5.572,0.09004
5.576,0.06686
5.58,0.09874
5.584,0.03903
5.588,0.06742
5.592,0.0788
5.596,0.09984
5.6,0.05304
5.604,0.01481
5.608,0.0153
5.612,-0.0942
5.616,-0.05444
5.62,-0.04848
5.624,0.00979
5.628,0.02218
5.632,-0.0198
5.636,-0.00579
5.64,-0.00638
5.644,0.01779
5.648,0.01675
5.652,-0.01428
5.656,-0.06923
5.66,0.01086
5.664,-0.00532
5.668,-0.10029
5.672,0.00225
5.676,-0.01119
5.68,-0.00418
5.684,0.02668
5.688,-0.01982
5.692,0.02959
5.696,0.01564
5.7,0.06351
5.704,0.04878
5.708,0.10084
5.712,0.03735
5.716,0.01617
5.72,0.0418
5.724,0.01551
5.728,0.08281
5.732,0.00404
5.736,0.06944
5.74,-0.00905
5.744,-0.02783
5.748,0.04529
5.752,-0.03398
5.756,-0.02453
5.76,-0.04423
5.764,-0.03884
5.768,-0.0183
5.772,0.03306
5.776,-0.06491
5.78,0.00275
5.784,-0.02187
5.788,-0.10337
5.792,-0.01691
5.796,-0.01127
5.8,-0.08277
5.804,-0.06701
5.808,0.0405
5.812,0.04006
5.816,-0.04638
5.82,-0.01282
5.824,0.01555
5.828,-0.05809
5.832,-0.08049
5.836,-0.15051
5.84,-0.17265
5.844,-0.10819
5.848,0.03534
5.852,0.1402
5.856,0.25323
5.86,0.52513
5.864,0.71842
5.868,0.94678
5.872,0.93327
5.876,0.93035
5.88,0.74051
5.884,0.62628
5.888,0.31664
5.892,0.17907
5.896,0.0016
5.9,-0.1583
5.904,-0.32136
5.908,-0.13967
5.912,-0.12358
5.916,-0.10085
5.92,-0.08969
5.924,0.03076
5.928,-0.05174
5.932,-0.01973
5.936,-0.02752
5.94,-0.05354
5.944,-0.0777
5.948,-0.0453
5.952,0.03698
5.956,-0.03377
5.96,-0.02011
5.964,-0.07769
5.968,-0.02241
5.972,-0.06478
5.976,-0.04435
5.98,-0.0655
5.984,-0.01289
5.988,0.01828
5.992,-0.07028
5.996,-0.06063
6.0,-0.05034
6.004,-0.0467
6.008,0.03604
6.012,-0.05202
6.016,-0.09343
6.02,-0.06992
6.024,0.03156
6.028,0.01467
6.032,-0.03341
6.036,-0.02895
6.04,0.06345
6.044,0.04892
6.048,-0.0219
6.052,0.09246
6.056,0.05816
6.06,0.06766
6.064,0.19648
6.068,0.10922
6.072,0.10525
6.076,0.10425
6.08,0.12666
6.084,0.14155
6.088,0.05895
6.092,0.05318
6.096,0.1146
6.1,0.11123
6.104,0.06079
6.108,0.05044
6.112,0.11089
6.116,0.12637
6.12,0.14495
6.124,0.14483
6.128,0.12803
6.132,0.17477
6.136,0.17901
6.14,0.19635
6.144,0.17032
6.148,0.18916
6.152,0.22285
6.156,0.24261
6.16,0.15381
6.164,0.18829
6.168,0.13965
6.172,0.1799
6.176,0.17806
6.18,0.0406
6.184,0.05415
6.188,0.06293
6.192,0.01318
6.196,-0.03877
6.2,0.10935
6.204,0.25019
6.208,0.36904
6.212,0.60941
6.216,0.80398
6.22,0.91368
6.224,1.01431
6.228,1.02367
6.232,0.91088
6.236,0.64286
6.24,0.44592
6.244,0.1932
6.248,0.07401
6.252,-0.06377
6.256,-0.19941
6.26,-0.19242
6.264,-0.14996
6.268,-0.07022
6.272,-0.06459
6.276,0.01227
6.28,-0.01642
6.284,0.00821
6.288,-0.03948
6.292,-0.06599
6.296,-0.05016
6.3,0.00173
6.304,-0.03363
6.308,-0.01754
6.312,-0.0525
6.316,0.0463
6.32,-0.03646
6.324,-0.02053
6.328,-0.10215
6.332,0.00813
6.336,0.00832
6.34,-0.02423
6.344,0.03171
6.348,0.00597
6.352,-0.00102
6.356,-0.03141
6.36,0.01487
6.364,-0.04962
6.368,-0.03474
6.372,-0.05006
6.376,-0.02912
6.38,-0.01177
6.384,0.01534
6.388,-0.02139
6.392,-0.04577
6.396,0.00468
6.4,-0.00577
6.404,-0.05134
6.408,0.00511
6.412,-0.01733
6.416,-0.01291
6.42,0.02336
6.424,-0.01483
6.428,0.0735
6.432,0.02381
6.436,0.04297
6.44,0.08303
6.444,0.07428
6.448,0.08764
6.452,0.03984
6.456,0.10725
6.46,0.05515
6.464,0.07355
6.468,0.12716
6.472,0.1302
6.476,0.13359
6.48,0.22175
6.484,0.21298
6.488,0.1695
6.492,0.14909
6.496,0.24096
6.5,0.18762
6.504,0.1923
6.508,0.18351
6.512,0.20648
6.516,0.273
6.52,0.24491
6.524,0.21293
6.528,0.20848
6.532,0.19026
6.536,0.10436
6.54,0.14013
6.544,0.17856
6.548,0.18941
6.552,0.13295
6.556,0.20334
6.56,0.19684
6.564,0.1754
6.568,0.14138
6.572,0.13034
6.576,0.13599
6.58,0.09014
6.584,0.05426
6.588,0.10353
6.592,0.12909
6.596,0.0449
6.6,0.05012
6.604,0.05911
6.608,-0.04288
6.612,0.03105
6.616,-0.02442
6.62,0.02668
6.624,-0.06335
6.628,0.01845
6.632,0.00257
6.636,0.00296
6.64,0.07138
6.644,-0.01075
6.648,-0.04854
6.652,-0.01904
6.656,0.05848
6.66,0.00086
6.664,-0.02874
6.668,-0.02165
6.672,-0.04598
6.676,-0.00134
6.68,-0.02024
6.684,0.01289
6.688,0.02085
6.692,-0.09455
6.696,-0.11179
6.7,-0.12929
6.704,-0.0654
6.708,-0.07409
6.712,-0.02344
6.716,0.19856
6.72,0.34044
6.724,0.53351
6.728,0.76508
6.732,0.94185
6.736,0.98607
6.74,0.95
6.744,0.73505
6.748,0.55986
6.752,0.32855
6.756,0.12235
6.76,0.01208
6.764,-0.14168
6.768,-0.16551
6.772,-0.1415
6.776,-0.09609
6.78,-0.08516
6.784,-0.11234
6.788,0.0042
6.792,-0.01488
6.796,-0.01027
6.8,-0.02561
6.804,-0.05667
6.808,-0.07509
6.812,-0.04068
6.816,-0.02408
6.82,0.03115
6.824,-0.0259
6.828,-0.04077
6.832,0.05183
6.836,-0.03955
6.84,-0.04901
6.844,0.01335
6.848,-0.07498
6.852,0.05208
6.856,-0.02617
6.86,-0.00839
6.864,-0.00412
6.868,-0.02766
6.872,-0.03244
6.876,-0.04927
6.88,0.05924
6.884,0.00161
6.888,0.04734
6.892,-0.02899
6.896,-0.01891
6.9,0.05955
6.904,-0.01486
6.908,0.03358
6.912,-0.0709
6.916,-0.01486
6.92,-0.02854
6.924,0.00884
6.928,-0.00105
6.932,0.01926
6.936,0.02654
6.94,0.01835
6.944,0.07964
6.948,0.06344
6.952,0.07907
6.956,0.10324
6.96,0.08584
6.964,0.12371
6.968,0.1453
6.972,0.13611
6.976,0.09945
6.98,0.09491
6.984,0.12852
6.988,0.12035
6.992,0.18544
6.996,0.19784
7.0,0.21008
7.004,0.17774
7.008,0.17785
7.012,0.24199
7.016,0.2168
7.02,0.20594
7.024,0.27899
7.028,0.22358
7.032,0.24014
7.036,0.21159
7.04,0.19427
7.044,0.20651
7.048,0.25057
7.052,0.234
7.056,0.26383
7.06,0.21672
7.064,0.18996
7.068,0.2752
7.072,0.12099
7.076,0.13372
7.08,0.13818
7.084,0.14046
7.088,0.11212
7.092,-0.02719
7.096,0.09204
7.1,0.09179
7.104,0.04364
7.108,0.03392
7.112,0.00159
7.116,0.04245
7.12,-0.01055
7.124,0.01644
7.128,0.01131
7.132,-0.01703
7.136,-0.09374
7.14,0.00033
7.144,0.02505
7.148,0.06568
7.152,0.00522
7.156,-0.03504
7.16,-0.02698
7.164,-0.0617
7.168,-0.12082
7.172,-0.0085
7.176,-0.05278
7.18,-0.06331
7.184,-0.03549
7.188,-0.14119
7.192,-0.19663
7.196,-0.12792
7.2,-0.03182
7.204,0.17815
7.208,0.40371
7.212,0.59356
7.216,0.78965
7.22,0.93835
7.224,0.98054
7.228,0.90336
7.232,0.71268
7.236,0.52306
7.24,0.29721
7.244,0.06809
7.248,-0.0875
7.252,-0.14101
7.256,-0.18437
7.26,-0.18721
7.264,-0.12287
7.268,-0.07004
7.272,-0.01717
7.276,-0.05788
7.28,-0.01116
7.284,-0.00251
7.288,-0.06087
7.292,0.03311
7.296,-0.02364
7.3,-0.02449
7.304,0.03766
7.308,0.03558
7.312,-0.05705
7.316,0.02131
7.32,-0.07922
7.324,-0.01514
7.328,0.00496
7.332,-0.04146
7.336,-0.02233
7.34,0.0209
7.344,0.01989
7.348,-0.05974
7.352,-0.04419
7.356,0.03567
7.36,0.03893
7.364,-0.06124
7.368,-0.05507
7.372,-0.04524
7.376,0.02534
7.38,0.05367
7.384,0.10155
7.388,0.06659
7.392,0.02587
7.396,0.03975
7.4,0.0099
7.404,0.01625
7.408,-0.00945
7.412,0.02053
7.416,0.03749
7.42,0.05417
7.424,0.03032
7.428,0.02369
7.432,0.01294
7.436,0.08974
7.44,0.09824
7.444,0.0674
7.448,0.11043
7.452,0.06475
7.456,0.18459
7.46,0.15907
7.464,0.11853
7.468,0.18847
7.472,0.15419
7.476,0.22985
7.48,0.19749
7.484,0.24904
7.488,0.25733
7.492,0.21068
7.496,0.25442
7.5,0.14661
7.504,0.23963
7.508,0.29801
7.512,0.25226
7.516,0.23635
7.52,0.20469
7.524,0.16588
7.528,0.24754
7.532,0.21783
7.536,0.21852
7.54,0.16416
7.544,0.18054
7.548,0.1268
7.552,0.1795
7.556,0.07522
7.56,0.16496
7.564,0.13308
7.568,0.10899
7.572,0.01477
7.576,0.07107
7.58,0.1073
7.584,0.04322
7.588,0.02755
7.592,0.0117
7.596,0.0328
7.6,0.00164
7.604,0.02148
7.608,0.05789
7.612,0.01649
7.616,0.08465
7.62,0.09985
7.624,0.06236
7.628,0.10093
7.632,0.13898
7.636,0.12073
7.64,0.08805
7.644,0.13589
7.648,0.12345
7.652,0.06291
7.656,0.13264
7.66,0.05115
7.664,0.04922
7.668,0.08606
7.672,-0.0273
7.676,-0.01146
7.68,0.08384
7.684,-0.00148
7.688,0.00501
7.692,0.0281
7.696,0.04527
7.7,-0.02397
7.704,-0.06278
7.708,0.03676
7.712,-0.04788
7.716,-0.01328
7.72,0.02188
7.724,0.0098
7.728,-0.04144
7.732,0.0429
7.736,-0.0264
7.74,-0.00697
7.744,0.04387
7.748,-0.001
7.752,0.02331
7.756,-0.04129
7.76,-0.10201
7.764,-0.09309
7.768,-0.08587
7.772,-0.0872
7.776,-0.02458
7.78,0.18146
7.784,0.3185
7.788,0.50933
7.792,0.73224
7.796,0.89414
7.8,0.9822
7.804,0.98798
7.808,0.92573
7.812,0.72674
7.816,0.44969
7.82,0.28999
7.824,0.12648
7.828,-0.06465
7.832,-0.16038
7.836,-0.19154
7.84,-0.15079
7.844,-0.09968
7.848,-0.01018
7.852,-0.04377
7.856,-0.07658
7.86,-0.01708
7.864,0.06564
7.868,0.01516
7.872,-0.00933
7.876,0.04678
7.88,0.08138
7.884,-0.05744
7.888,0.06616
7.892,-0.06312
7.896,0.01325
7.9,-0.00916
7.904,0.05279
7.908,-0.00063
7.912,-0.0213
7.916,-0.02273
7.92,-0.02776
7.924,-0.01344
7.928,0.06778
7.932,-0.012
7.936,-0.00325
7.94,-0.00984
7.944,0.09623
7.948,0.03142
7.952,0.00985
7.956,-0.01873
7.96,-0.0227
7.964,-0.01087
7.968,-0.02209
7.972,0.01097
7.976,0.02762
7.98,-0.01781
7.984,0.08271
7.988,0.02671
7.992,0.08018
7.996,0.10583
8.0,0.06585
8.004,0.09213
8.008,0.10134
8.012,0.08604
8.016,0.06918
8.02,0.20078
8.024,0.17341
8.028,0.23863
8.032,0.21662
8.036,0.26438
8.04,0.24547
8.044,0.28604
8.048,0.2581
8.052,0.29614
8.056,0.31066
8.06,0.27207
8.064,0.20026
8.068,0.28333
8.072,0.25934
8.076,0.26376
8.08,0.278
8.084,0.27536
8.088,0.24098
8.092,0.29589
8.096,0.24543
8.1,0.24884
8.104,0.22748
8.108,0.2335
8.112,0.21146
8.116,0.09325
8.12,0.11002
8.124,0.10127
8.128,0.16976
8.132,0.14006
8.136,0.16333
8.14,0.10945
8.144,0.12123
8.148,0.16744
8.152,0.09022
8.156,0.09165
8.16,0.05097
8.164,-0.05044
8.168,-0.0664
8.172,-0.07892
8.176,0.08474
8.18,0.26032
8.184,0.49515
8.188,0.6589
8.192,0.82368
8.196,1.02093
8.2,1.0824
8.204,0.95543
8.208,0.73404
8.212,0.53269
8.216,0.25003
8.22,0.09838
8.224,-0.05841
8.228,-0.10903
8.232,-0.15492
8.236,-0.09568
8.24,-0.1041
8.244,-0.07189
8.248,-0.01784
8.252,0.02746
8.256,-0.04642
8.26,0.06573
8.264,0.04877
8.268,0.05098
8.272,0.01543
8.276,0.03204
8.28,0.03512
8.284,0.02194
8.288,0.00825
8.292,0.02152
8.296,0.04675
8.3,-0.04062
8.304,0.03056
8.308,-0.00857
8.312,0.08221
8.316,0.01728
8.32,0.04676
8.324,0.03259
8.328,0.02786
8.332,0.04125
8.336,0.04786
8.34,0.0161
8.344,0.03942
8.348,-0.00567
8.352,0.03498
8.356,0.04738
8.36,-0.01153
8.364,0.01502
8.368,0.11
8.372,0.0865
8.376,0.07679
8.38,-0.03343
8.384,0.05996
8.388,0.06919
8.392,0.01973
8.396,0.06206
8.4,0.13379
8.404,0.09107
8.408,0.07912
8.412,0.03445
8.416,0.10263
8.42,0.11642
8.424,0.1204
8.428,0.13506
8.432,0.15571
8.436,0.18379
8.44,0.22133
8.444,0.1925
8.448,0.14841
8.452,0.19389
8.456,0.28116
8.46,0.2391
8.464,0.32418
8.468,0.28937
8.472,0.35931
8.476,0.29966
8.48,0.31984
8.484,0.26651
8.488,0.3057
8.492,0.32026
8.496,0.32543
8.5,0.36828
8.504,0.32579
8.508,0.27177
8.512,0.24908
8.516,0.27624
8.52,0.17961
8.524,0.20829
8.528,0.15079
8.532,0.20995
8.536,0.15939
8.54,0.09445
8.544,0.13949
8.548,0.14261
8.552,0.05543
8.556,0.06853
8.56,0.11034
8.564,0.08866
8.568,0.09351
8.572,0.01344
8.576,0.07641
8.58,0.05236
8.584,-0.00635
8.588,0.06805
8.592,0.03081
8.596,0.03422
8.6,0.02244
8.604,0.03914
8.608,0.06178
8.612,-0.03743
8.616,0.01689
8.62,0.03648
8.624,-0.05361
8.628,-0.10174
8.632,-0.13408
8.636,-0.01515
8.64,-0.01163
8.644,0.10628
8.648,0.31311
8.652,0.40671
8.656,0.62437
8.66,0.65112
8.664,0.67112
8.668,0.62333
8.672,0.53548
8.676,0.37639
8.68,0.19922
8.684,0.00854
8.688,-0.12975
8.692,-0.15447
8.696,-0.11726
8.7,-0.08804
8.704,-0.09395
8.708,0.01102
8.712,0.01102
8.716,0.09606
8.72,0.03105
8.724,0.05192
8.728,0.0017
8.732,-0.00943
8.736,-0.03726
8.74,0.02642
8.744,0.07229
8.748,0.06207
8.752,0.0363
8.756,0.04489
8.76,0.02635
8.764,-0.03539
8.768,0.04716
8.772,0.03055
8.776,-0.03257
8.78,0.06506
8.784,0.07225
8.788,0.03405
8.792,0.03774
8.796,0.05187
8.8,0.04506
8.804,0.07385
8.808,-0.02108
8.812,0.01799
8.816,0.02232
8.82,0.03397
8.824,0.02391
8.828,0.06566
8.832,0.0932
8.836,-0.05121
8.84,0.02284
8.844,0.04396
8.848,0.03418
8.852,0.05478
8.856,0.05445
8.86,0.0555
8.864,0.03477
8.868,0.10716
8.872,0.08446
8.876,0.02429
8.88,0.15857
8.884,0.09673
8.888,0.11467
8.892,0.10581
8.896,0.16663
8.9,0.1239
8.904,0.13135
8.908,0.21905
8.912,0.16021
8.916,0.20667
8.92,0.23874
8.924,0.283
8.928,0.28159
8.932,0.22411
8.936,0.24246
8.94,0.17192
8.944,0.20983
8.948,0.25135
8.952,0.22148
8.956,0.22467
8.96,0.22959
8.964,0.2613
8.968,0.24498
8.972,0.1619
8.976,0.19824
8.98,0.19575
8.984,0.16446
8.988,0.23456
8.992,0.15542
8.996,0.16975
9.0,0.0304
9.004,0.14361
9.008,0.11524
9.012,0.13995
9.016,0.0881
9.02,0.07523
9.024,0.1008
9.028,0.09491
9.032,0.08403
9.036,0.02993
9.04,0.0862
9.044,0.12955
9.048,0.06386
9.052,0.07644
9.056,0.07471
9.06,0.14899
9.064,0.07197
9.068,0.14023
9.072,0.1503
9.076,0.14357
9.08,0.08699
9.084,0.17043
9.088,0.09734
9.092,0.1217
9.096,0.08989
9.1,0.08724
9.104,0.08731
9.108,0.02866
9.112,0.09792
9.116,0.00912
9.12,0.00321
9.124,0.02824
9.128,-0.0182
9.132,0.03803
9.136,0.07423
9.14,0.0161
9.144,0.06227
9.148,-0.0011
9.152,0.06632
9.156,0.11594
9.16,0.05312
9.164,-0.02324
9.168,0.10227
9.172,-0.02138
9.176,0.07304
9.18,-0.01039
9.184,0.06017
9.188,0.05734
9.192,-0.02946
9.196,0.05457
9.2,0.00948
9.204,0.04053
9.208,-0.11306
9.212,-0.08965
9.216,-0.04393
9.22,0.10076
9.224,0.17533
9.228,0.38673
9.232,0.6458
9.236,0.81999
9.24,0.97059
9.244,0.99405
9.248,0.95085
9.252,0.78757
9.256,0.52339
9.26,0.27942
9.264,0.17768
9.268,-0.07071
9.272,-0.15203
9.276,-0.13168
9.28,-0.13225
9.284,-0.09007
9.288,-0.04048
9.292,-0.02874
9.296,-0.06563
9.3,0.05563
9.304,0.02477
9.308,-0.00427
9.312,0.00453
9.316,0.02027
9.32,0.01971
9.324,0.03945
9.328,0.01512
9.332,0.04228
9.336,0.03094
9.34,0.09563
9.344,0.00249
9.348,-0.0042
9.352,0.06009
9.356,0.03206
9.36,0.03938
9.364,0.04723
9.368,0.028
9.372,-0.00955
9.376,0.04242
9.38,0.0632
9.384,-0.00222
9.388,0.04572
9.392,0.01435
9.396,0.01102
9.4,-0.07076
9.404,0.04307
9.408,0.01559
9.412,0.02891
9.416,0.05154
9.42,0.03567
9.424,0.03219
9.428,0.05593
9.432,0.12254
9.436,0.10577
9.44,0.11172
9.444,0.13106
9.448,0.08353
9.452,0.13465
9.456,0.07774
9.46,0.13357
9.464,0.15653
9.468,0.16085
9.472,0.21611
9.476,0.1058
9.48,0.15672
9.484,0.16263
9.488,0.17328
9.492,0.16863
9.496,0.19811
9.5,0.16751
9.504,0.26498
9.508,0.2085
9.512,0.19731
9.516,0.24397
9.52,0.25171
9.524,0.23738
9.528,0.22037
9.532,0.27551
9.536,0.28356
9.54,0.21982
9.544,0.23989
9.548,0.24016
9.552,0.18571
9.556,0.20478
9.56,0.2111
9.564,0.21896
9.568,0.14507
9.572,0.14268
9.576,0.12706
9.58,0.11812
9.584,0.07088
9.588,0.09978
9.592,0.06293
9.596,0.06646
9.6,0.11521
9.604,0.1012
9.608,0.1221
9.612,0.12415
9.616,0.03268
9.62,0.02885
9.624,0.00602
9.628,0.03248
9.632,-0.07197
9.636,0.03643
9.64,-0.05698
9.644,0.11576
9.648,0.04432
9.652,0.00836
9.656,0.04802
9.66,0.06654
9.664,0.02974
9.668,0.09301
9.672,0.10318
9.676,0.11606
9.68,0.13133
9.684,0.11178
9.688,0.03731
9.692,0.18636
9.696,0.11494
9.7,0.13476
9.704,0.11205
9.708,0.125
9.712,0.09774
9.716,0.08033
9.72,0.09912
9.724,0.11124
9.728,0.04356
9.732,0.09145
9.736,0.04165
9.74,0.05128
9.744,0.02218
9.748,0.05723
9.752,0.06252
9.756,0.08204
9.76,0.05013
9.764,0.0063
9.768,0.08021
9.772,0.04298
9.776,0.01398
9.78,-0.04179
9.784,0.05639
9.788,-0.0391
9.792,0.05549
9.796,0.04041
9.8,0.02865
9.804,0.0119
9.808,0.04154
9.812,0.00433
9.816,-0.01592
9.82,-0.02886
9.824,-0.09813
9.828,-0.11618
9.832,-0.04413
9.836,0.04895
9.84,0.24132
9.844,0.36563
9.848,0.52423
9.852,0.80283
9.856,0.91744
9.86,1.03929
9.864,0.90037
9.868,0.82035
9.872,0.65526
9.876,0.3444
9.88,0.11519
9.884,-0.01581
9.888,-0.09853
9.892,-0.19375
9.896,-0.09464
9.9,-0.14258
9.904,-0.02314
9.908,-0.02991
9.912,0.02984
9.916,0.01577
9.92,0.00067
9.924,0.01945
9.928,0.02214
9.932,-0.00895
9.936,0.02067
9.94,0.04114
9.944,-0.00673
9.948,0.01376
9.952,0.01952
9.956,-0.00516
9.96,-0.00075
9.964,-0.01458
9.968,-0.03051
9.972,0.04272
9.976,0.02623
9.98,-0.0374
9.984,0.02579
9.988,-0.02937
9.992,0.01644
9.996,0.01558
