t_seg,ecg_mV
0.0,0.03294
0.004,-0.01379
0.008,0.04823
0.012,0.08367
0.016,0.04701
0.02,0.0507
0.024,0.01663
0.028,0.0782
0.032,0.07346
0.036,0.04227
0.04,-0.08228
0.044,0.04247
0.048,-0.01257
0.052,0.07124
0.056,0.02555
0.06,0.01072
0.064,-0.08381
0.068,-0.04228
0.072,0.03565
0.076,-0.0828
0.08,0.04515
0.084,-0.06271
0.088,0.00475
0.092,-0.02613
0.096,-0.0294
0.1,0.03763
0.104,-0.01489
0.108,-0.00035
0.112,-0.08701
0.116,-0.06709
0.12,-0.01919
0.124,-0.03374
0.128,0.00029
0.132,-0.0334
0.136,-0.05352
0.14,-0.12038
0.144,-0.1428
0.148,-0.11786
0.152,-0.09309
0.156,-0.05456
0.16,0.01676
0.164,0.23684
0.168,0.43408
0.172,0.6829
0.176,0.85369
0.18,0.8841
0.184,0.97625
0.188,0.88432
0.192,0.69889
0.196,0.44709
0.2,0.15173
0.204,-0.02863
0.208,-0.12026
0.212,-0.22982
0.216,-0.19578
0.22,-0.15057
0.224,-0.13859
0.228,-0.09953
0.232,-0.08172
0.236,-0.03884
0.24,-0.09121
0.244,-0.05147
0.248,-0.04358
0.252,-0.02284
0.256,-0.01784
0.26,-0.06457
0.264,-0.04149
0.268,-0.02315
0.272,-0.02125
0.276,-0.0556
0.28,-0.05939
0.284,-0.04816
0.288,0.01421
0.292,-0.02451
0.296,-0.06018
0.3,-0.02308
0.304,0.04456
0.308,-0.12089
0.312,-0.05638
0.316,0.03646
0.32,-0.00783
0.324,-0.09622
0.328,0.03832
0.332,-0.00155
0.336,-0.03964
0.34,-0.00378
0.344,-0.09083
0.348,-0.03937
0.352,0.02143
0.356,-0.02824
0.36,-0.07541
0.364,0.02804
0.368,-0.02478
0.372,0.00749
0.376,-0.06222
0.38,0.04205
0.384,0.01859
0.388,0.02714
0.392,0.05046
0.396,0.02972
0.4,0.07347
0.404,0.13713
0.408,0.04522
0.412,0.05777
0.416,0.04689
0.42,0.15795
0.424,0.16183
0.428,0.12547
0.432,0.12194
0.436,0.11762
0.44,0.1919
0.444,0.21425
0.448,0.21658
0.452,0.18086
0.456,0.1659
0.46,0.22037
0.464,0.1849
0.468,0.29711
0.472,0.18957
0.476,0.2563
0.48,0.22297
0.484,0.22958
0.488,0.24076
0.492,0.27048
0.496,0.26699
0.5,0.29813
0.504,0.1918
0.508,0.20807
0.512,0.15242
0.516,0.1327
0.52,0.10499
0.524,0.09638
0.528,0.05176
0.532,0.10795
0.536,0.0346
0.54,0.05884
0.544,0.00858
0.548,0.00777
0.552,-0.02182
0.556,-0.03438
0.56,0.01139
0.564,-0.0339
0.568,0.00194
0.572,-0.02803
0.576,-0.0125
0.58,-0.06544
0.584,-0.1062
0.588,-0.05681
0.592,0.04439
0.596,0.02386
0.6,0.00094
0.604,-0.00473
0.608,-0.06591
0.612,-0.0768
0.616,-0.14801
0.62,-0.21682
0.624,-0.1513
0.628,-0.06756
0.632,-0.02151
0.636,0.18213
0.64,0.4197
0.644,0.60959
0.648,0.78473
0.652,0.88092
0.656,0.91785
0.66,0.86815
0.664,0.69211
0.668,0.45506
0.672,0.2218
0.676,0.01139
0.68,-0.0907
0.684,-0.12005
0.688,-0.22778
0.692,-0.18857
0.696,-0.09872
0.7,-0.09644
0.704,-0.03966
0.708,-0.01619
0.712,-0.06227
0.716,0.00081
0.72,-0.03904
0.724,-0.08004
0.728,-0.09646
0.732,-0.02448
0.736,-0.00603
0.74,0.05279
0.744,-0.05051
0.748,0.0804
0.752,-0.05103
0.756,-0.07739
0.76,-0.06365
0.764,-0.01477
0.768,-0.01189
0.772,-0.00623
0.776,-0.06685
0.78,-0.06531
0.784,-0.02764
0.788,-0.15169
0.792,0.02552
0.796,-0.03344
0.8,-0.08612
0.804,-0.02754
0.808,0.00495
0.812,-0.0089
0.816,-0.01718
0.82,-0.06582
0.824,0.00252
0.828,0.01725
0.832,-0.00404
0.836,-0.04913
0.84,0.0472
0.844,-0.04787
0.848,0.00273
0.852,0.03395
0.856,0.03795
0.86,0.04769
0.864,0.02026
0.868,0.00896
0.872,0.06592
0.876,0.11892
0.88,0.09106
0.884,0.03598
0.888,0.13654
0.892,0.11514
0.896,0.09054
0.9,0.10832
0.904,0.17834
0.908,0.1436
0.912,0.15234
0.916,0.15237
0.92,0.23182
0.924,0.18349
0.928,0.19611
0.932,0.15642
0.936,0.20847
0.94,0.23249
0.944,0.27233
0.948,0.18615
0.952,0.18109
0.956,0.15237
0.96,0.1343
0.964,0.14382
0.968,0.19974
0.972,0.13026
0.976,0.09264
0.98,0.09263
0.984,0.10607
0.988,0.05018
0.992,-0.0011
0.996,0.02724
1.0,0.08315
1.004,0.059
1.008,-0.00966
1.012,0.04221
1.016,0.01641
1.02,-0.0469
1.024,0.00705
1.028,-0.0002
1.032,0.0618
1.036,0.0091
1.04,-0.0377
1.044,-0.04733
1.048,-0.05653
1.052,-0.02732
1.056,-0.01393
1.06,-0.04208
1.064,-0.00373
1.068,0.02413
1.072,0.01646
1.076,-0.01858
1.08,0.048
1.084,-0.06059
1.088,-0.00936
1.092,-0.05151
1.096,-0.03157
1.1,-0.07077
1.104,0.02809
1.108,-0.02876
1.112,-0.05569
1.116,-0.02826
1.12,-0.02158
1.124,-0.05698
1.128,-0.03611
1.132,0.03808
1.136,0.03293
1.14,-0.04613
1.144,0.01897
1.148,-0.00227
1.152,-0.00899
1.156,-0.0201
1.16,-0.03642
1.164,-0.0365
1.168,-0.04129
1.172,-0.02552
1.176,0.01717
1.18,-0.05462
1.184,0.01568
1.188,0.0632
1.192,-0.08328
1.196,-0.04322
1.2,0.01761
1.204,-0.06007
1.208,-0.03256
1.212,0.00719
1.216,-0.08677
1.22,0.00735
1.224,0.02361
1.228,-0.00793
1.232,-0.02883
1.236,-0.04663
1.24,-0.00231
1.244,-0.01596
1.248,0.0286
1.252,-0.01008
1.256,-0.04102
1.26,-0.02931
1.264,-0.03269
1.268,0.02892
1.272,0.01235
1.276,-0.0439
1.28,-0.03962
1.284,-0.01333
1.288,-0.00208
1.292,0.04675
1.296,-0.00392
1.3,0.0121
1.304,-0.00991
1.308,0.019
1.312,0.04454
1.316,0.04386
1.32,0.0597
1.324,0.03728
1.328,0.03945
1.332,0.13938
1.336,0.08068
1.34,0.06622
1.344,0.04292
1.348,0.05227
1.352,0.04345
1.356,0.02572
1.36,0.01071
1.364,-0.04324
1.368,0.04372
1.372,0.00264
1.376,-0.02078
1.38,-0.0244
1.384,-0.02539
1.388,-0.04116
1.392,0.01851
1.396,0.01096
1.4,-0.03049
1.404,-0.086
1.408,-0.07657
1.412,-0.0313
1.416,-0.0555
1.42,-0.02714
1.424,-0.00068
1.428,-0.01233
1.432,0.01018
1.436,0.02766
1.44,-0.03158
1.444,-0.10922
1.448,-0.05108
1.452,-0.08803
1.456,-0.12288
1.46,-0.14493
1.464,-0.156
1.468,0.07411
1.472,0.23447
1.476,0.40964
1.48,0.65118
1.484,0.89604
1.488,0.96148
1.492,0.95838
1.496,0.89846
1.5,0.67323
1.504,0.47855
1.508,0.2592
1.512,0.10913
1.516,-0.07694
1.52,-0.10857
1.524,-0.16781
1.528,-0.22768
1.532,-0.13219
1.536,-0.11461
1.54,0.02496
1.544,0.00354
1.548,0.03204
1.552,-0.06784
1.556,-0.00365
1.56,-0.05402
1.564,-0.00966
1.568,-0.02527
1.572,0.01256
1.576,0.00039
1.58,-0.01835
1.584,0.00059
1.588,-0.00388
1.592,-0.05888
1.596,-0.05163
1.6,0.00441
1.604,-0.00708
1.608,-0.06253
1.612,-0.04183
1.616,0.00819
1.62,-0.00324
1.624,-0.0608
1.628,-0.01557
1.632,0.02308
1.636,-0.01843
1.64,-0.00946
1.644,0.00718
1.648,-0.08649
1.652,0.00951
1.656,-0.00327
1.66,0.02043
1.664,0.0264
1.668,0.05378
1.672,0.0502
1.676,0.0042
1.68,0.09967
1.684,0.02213
1.688,-0.04686
1.692,0.06632
1.696,0.07697
1.7,0.06567
1.704,-0.00182
1.708,0.07253
1.712,0.12466
1.716,0.10032
1.72,0.13784
1.724,0.16162
1.728,0.19069
1.732,0.1127
1.736,0.12802
1.74,0.19053
1.744,0.17731
1.748,0.20719
1.752,0.19607
1.756,0.21076
1.76,0.13249
1.764,0.22087
1.768,0.20989
1.772,0.20748
1.776,0.18629
1.78,0.1969
1.784,0.15596
1.788,0.1971
1.792,0.21448
1.796,0.21609
1.8,0.18696
1.804,0.15761
1.808,0.13203
1.812,0.09996
1.816,0.09734
1.82,0.10665
1.824,0.08025
1.828,0.07976
1.832,0.02721
1.836,0.08218
1.84,-0.00943
1.844,0.0328
1.848,0.0755
1.852,0.05122
1.856,0.02514
1.86,0.0738
1.864,0.09134
1.868,0.06565
1.872,0.03825
1.876,-0.0254
1.88,0.02077
1.884,0.05292
1.888,0.04824
1.892,0.08185
1.896,0.04635
1.9,0.04673
1.904,0.0543
1.908,0.09453
1.912,0.07906
1.916,0.09769
1.92,0.05847
1.924,0.05799
1.928,0.00607
1.932,0.02119
1.936,-0.00752
1.94,-0.04399
1.944,0.00596
1.948,-0.01198
1.952,-0.03224
1.956,-0.00066
1.96,0.0301
1.964,-0.02818
1.968,-0.00422
1.972,-0.01163
1.976,0.00243
1.98,-0.01532
1.984,-0.02761
1.988,0.04203
1.992,0.0306
1.996,-0.04279
2.0,-0.03573
2.004,0.01076
2.008,-0.06037
2.012,0.04983
2.016,-0.04046
2.02,0.00603
2.024,-0.08409
2.028,-0.08685
2.032,-0.18562
2.036,-0.08836
2.04,-0.02007
2.044,0.1968
2.048,0.35531
2.052,0.61413
2.056,0.8181
2.06,0.949
2.064,1.01748
2.068,0.99014
2.072,0.70459
2.076,0.57979
2.08,0.29293
2.084,0.15068
2.088,-0.00172
2.092,-0.15693
2.096,-0.13219
2.1,-0.17785
2.104,-0.10776
2.108,-0.07181
2.112,-0.03102
2.116,-0.06663
2.12,-0.0504
2.124,-0.02079
2.128,0.0091
2.132,0.02585
2.136,-0.0122
2.14,-0.05562
2.144,-0.01854
2.148,-0.00559
2.152,0.01089
2.156,-0.04398
2.16,-0.02278
2.164,-0.05786
2.168,0.00835
2.172,0.04999
2.176,0.05844
2.18,0.01163
2.184,0.0274
2.188,-0.04014
2.192,-0.00657
2.196,-0.037
2.2,-0.05358
2.204,0.05098
2.208,-0.00993
2.212,-0.03694
2.216,-0.02508
2.22,-0.04407
2.224,-0.0059
2.228,0.03813
2.232,0.01076
2.236,-0.03448
2.24,0.0222
2.244,0.02389
2.248,-0.0028
2.252,-0.01266
2.256,0.06704
2.26,0.00207
2.264,0.10753
2.268,0.06752
2.272,0.0483
2.276,0.07603
2.28,0.06624
2.284,0.09341
2.288,0.08907
2.292,0.08797
2.296,0.13064
2.3,0.13502
2.304,0.15552
2.308,0.13577
2.312,0.19176
2.316,0.18678
2.32,0.18888
2.324,0.27738
2.328,0.20985
2.332,0.21403
2.336,0.17382
2.34,0.17709
2.344,0.25176
2.348,0.22299
2.352,0.18068
2.356,0.19451
2.36,0.17503
2.364,0.21921
2.368,0.20021
2.372,0.17876
2.376,0.19356
2.38,0.19019
2.384,0.12992
2.388,0.10645
2.392,0.1805
2.396,0.04027
2.4,0.09439
2.404,0.09479
2.408,0.12375
2.412,0.07426
2.416,-0.05844
2.42,0.09174
2.424,0.06153
2.428,0.02774
2.432,-0.04163
2.436,-0.03195
2.44,-0.01909
2.444,0.06128
2.448,-0.00591
2.452,0.05442
2.456,0.00528
2.46,-0.02535
2.464,0.03825
2.468,-0.02325
2.472,0.00932
2.476,-0.07661
2.48,0.03172
2.484,0.01819
2.488,-0.03946
2.492,-0.0123
2.496,0.00727
2.5,-0.02429
2.504,-0.00573
2.508,0.0811
2.512,0.04702
2.516,-0.0038
2.52,0.0121
2.524,-0.01862
2.528,0.01964
2.532,0.00192
2.536,0.02266
2.54,-0.03873
2.544,-0.0256
2.548,-0.02221
2.552,0.02305
2.556,-0.02117
2.56,0.00092
2.564,0.04745
2.568,-0.05512
2.572,0.0431
2.576,0.00583
2.58,0.05938
2.584,-0.00755
2.588,-0.0334
2.592,-0.01122
2.596,0.0178
2.6,0.02736
2.604,-0.00153
2.608,0.01266
2.612,-0.01726
2.616,-0.00513
2.62,0.02258
2.624,-0.0415
2.628,0.04876
2.632,-0.03023
2.636,0.01874
2.64,-0.01215
2.644,0.01127
2.648,0.04668
2.652,0.03016
2.656,0.00945
2.66,0.08416
2.664,0.07093
2.668,0.01928
2.672,0.12004
2.676,0.13842
2.68,0.08232
2.684,0.09644
2.688,0.09626
2.692,0.1161
2.696,0.07361
2.7,0.04085
2.704,0.03329
2.708,0.00521
2.712,0.04801
2.716,0.05876
2.72,0.0293
2.724,0.00127
2.728,0.05537
2.732,0.04817
2.736,-0.02031
2.74,0.01132
2.744,-0.016
2.748,0.0172
2.752,-0.02697
2.756,0.06776
2.76,-0.01656
2.764,0.02122
2.768,-0.01012
2.772,-0.01192
2.776,0.02801
2.78,0.00107
2.784,-0.02895
2.788,0.03008
2.792,-0.05489
2.796,-0.00854
2.8,-0.0002
2.804,-0.07763
2.808,-0.13528
2.812,-0.15902
2.816,-0.0491
2.82,0.13229
2.824,0.32058
2.828,0.50272
2.832,0.68122
2.836,0.87173
2.84,0.9934
2.844,1.01501
2.848,0.88893
2.852,0.71357
2.856,0.42544
2.86,0.22534
2.864,0.11878
2.868,-0.09321
2.872,-0.11199
2.876,-0.11946
2.88,-0.12765
2.884,0.02935
2.888,-0.02203
2.892,0.0617
2.896,0.02522
2.9,-0.0696
2.904,0.00837
2.908,-0.03135
2.912,-0.00668
2.916,0.00188
2.92,0.03567
2.924,0.07284
2.928,0.04661
2.932,0.03806
2.936,-0.00772
2.94,-0.00911
2.944,-0.02206
2.948,0.0098
2.952,0.01861
2.956,0.02119
2.96,-0.01656
2.964,-0.01669
2.968,0.04051
2.972,0.05753
2.976,0.06147
2.98,0.08462
2.984,-0.00467
2.988,0.03333
2.992,0.01147
2.996,0.05314
3.0,0.01336
3.004,0.03384
3.008,0.06109
3.012,-0.04293
3.016,0.02295
3.02,0.01335
3.024,0.08092
3.028,-0.00468
3.032,0.05755
3.036,0.09201
3.04,0.12217
3.044,0.06978
3.048,0.06407
3.052,0.11854
3.056,0.07622
3.06,0.14027
3.064,0.08144
3.068,0.12269
3.072,0.13807
3.076,0.1017
3.08,0.14245
3.084,0.22831
3.088,0.21711
3.092,0.1534
3.096,0.25873
3.1,0.27505
3.104,0.22468
3.108,0.23832
3.112,0.24188
3.116,0.22491
3.12,0.28099
3.124,0.272
3.128,0.2877
3.132,0.23876
3.136,0.20113
3.14,0.19474
3.144,0.18668
3.148,0.21306
3.152,0.16939
3.156,0.1333
3.16,0.22018
3.164,0.10641
3.168,0.10882
3.172,0.13499
3.176,0.17956
3.18,0.09396
3.184,0.12011
3.188,0.12226
3.192,0.08064
3.196,0.04757
3.2,0.10708
3.204,0.0617
3.208,0.05479
3.212,0.02927
3.216,0.01552
3.22,0.12243
3.224,-0.03523
3.228,0.10971
3.232,0.07824
3.236,0.04927
3.24,0.01672
3.244,0.0736
3.248,0.00605
3.252,0.06384
3.256,0.01054
3.26,0.05028
3.264,-0.01779
3.268,0.02567
3.272,0.00884
3.276,0.00691
3.28,0.01046
3.284,0.00973
3.288,0.01427
3.292,0.06768
3.296,0.04552
3.3,0.0313
3.304,-0.00994
3.308,0.03847
3.312,0.02506
3.316,0.04593
3.32,-0.03531
3.324,-0.01508
3.328,0.04142
3.332,0.04745
3.336,0.01394
3.34,-0.01164
3.344,0.03047
3.348,0.01505
3.352,0.04541
3.356,0.04558
3.36,0.03467
3.364,-0.00147
3.368,-0.01754
3.372,0.00229
3.376,0.05098
3.38,-0.01357
3.384,-0.01931
3.388,0.04555
3.392,0.02909
3.396,-0.02465
3.4,0.09922
3.404,0.01365
3.408,0.0289
3.412,0.0501
3.416,-0.00798
3.42,0.08434
3.424,0.02461
3.428,0.10699
3.432,-0.03804
3.436,0.01955
3.44,0.02885
3.444,0.01042
3.448,0.07205
3.452,0.03944
3.456,-0.02145
3.46,-0.01113
3.464,0.09569
3.468,0.03286
3.472,0.00431
3.476,0.04655
3.48,0.01012
3.484,0.03727
3.488,0.01298
3.492,-0.02298
3.496,0.06818
3.5,0.0665
3.504,-0.02466
3.508,-0.00502
3.512,-0.00661
3.516,0.0812
3.52,0.06757
3.524,0.01077
3.528,0.03352
3.532,0.04671
3.536,0.0276
3.54,-0.02827
3.544,0.02856
3.548,0.01898
3.552,0.02591
3.556,-0.0134
3.56,0.0057
3.564,-0.00513
3.568,0.00724
3.572,0.04452
3.576,0.04493
3.58,0.08018
3.584,0.00534
3.588,0.03939
3.592,0.02653
3.596,0.02009
3.6,-0.00321
3.604,0.05291
3.608,-0.01875
3.612,0.008
3.616,-0.00954
3.62,0.00605
3.624,0.07293
3.628,-0.10514
3.632,0.00704
3.636,0.00741
3.64,0.02529
3.644,0.04926
3.648,-0.02551
3.652,-0.01746
3.656,0.00842
3.66,0.02833
3.664,0.03531
3.668,-0.00931
3.672,-0.01625
3.676,0.01095
3.68,0.00136
3.684,0.04849
3.688,0.06397
3.692,0.06707
3.696,0.07825
3.7,-0.00136
3.704,0.03861
3.708,0.10966
3.712,0.09913
3.716,0.11508
3.72,0.13236
3.724,0.11323
3.728,0.10282
3.732,0.11526
3.736,0.11276
3.74,0.14243
3.744,0.07591
3.748,0.12461
3.752,0.05826
3.756,0.04185
3.76,0.08284
3.764,0.05636
3.768,0.09746
3.772,-0.01021
3.776,0.04162
3.78,0.05008
3.784,0.05547
3.788,0.06654
3.792,0.02908
3.796,0.03551
3.8,0.06708
3.804,0.0055
3.808,0.06165
3.812,0.04527
3.816,-0.03208
3.82,0.07529
3.824,0.0064
3.828,0.04886
3.832,-0.01413
3.836,-0.03545
3.84,-0.02869
3.844,0.01759
3.848,0.03587
3.852,0.01281
3.856,-0.09456
3.86,-0.02523
3.864,-0.11293
3.868,0.01237
3.872,0.18143
3.876,0.32756
3.88,0.45056
3.884,0.63627
3.888,0.92127
3.892,0.99765
3.896,1.00495
3.9,0.90053
3.904,0.66684
3.908,0.4925
3.912,0.21341
3.916,0.01278
3.92,-0.11484
3.924,-0.13119
3.928,-0.12899
3.932,-0.10284
3.936,-0.0502
3.94,-0.0128
3.944,0.00624
3.948,0.02677
3.952,0.04224
3.956,-0.00169
3.96,0.01427
3.964,0.07452
3.968,0.00331
3.972,0.00023
3.976,-0.01264
3.98,-0.01294
3.984,0.03999
3.988,0.03561
3.992,0.0144
3.996,0.07351
4.0,0.03219
4.004,-0.00791
4.008,0.0098
4.012,-0.02888
4.016,0.05441
4.02,0.00227
4.024,0.08792
4.028,0.06688
4.032,0.02029
4.036,-0.00971
4.04,0.09657
4.044,-0.00614
4.048,-0.04095
4.052,-0.00358
4.056,0.03225
4.06,0.06359
4.064,0.04156
4.068,0.04748
4.072,0.03336
4.076,0.07186
4.08,0.12152
4.084,0.07122
4.088,0.12409
4.092,0.08971
4.096,0.06826
4.1,0.1247
4.104,0.15469
4.108,0.08717
4.112,0.11656
4.116,0.11388
4.12,0.16465
4.124,0.20264
4.128,0.18487
4.132,0.2784
4.136,0.14597
4.14,0.22493
4.144,0.1652
4.148,0.2119
4.152,0.19246
4.156,0.24453
4.16,0.19018
4.164,0.2944
4.168,0.24447
4.172,0.22129
4.176,0.25151
4.18,0.19399
4.184,0.2458
4.188,0.20533
4.192,0.22261
4.196,0.23332
4.2,0.23815
4.204,0.19589
4.208,0.1741
4.212,0.12094
4.216,0.14916
4.22,0.13594
4.224,0.15938
4.228,0.10612
4.232,0.14759
4.236,0.08831
4.24,0.03853
4.244,0.05577
4.248,0.11043
4.252,0.08763
4.256,0.06031
4.26,0.09699
4.264,0.02237
4.268,0.0724
4.272,0.14493
4.276,0.0311
4.28,0.06367
4.284,0.06347
4.288,0.02545
4.292,-0.02097
4.296,0.02329
4.3,0.03657
4.304,-0.02702
4.308,0.00221
4.312,0.02664
4.316,0.04212
4.32,0.0313
4.324,0.04113
4.328,0.07665
4.332,0.08609
4.336,0.07337
4.34,0.07205
4.344,0.09439
4.348,0.00839
4.352,0.08483
4.356,0.04585
4.36,0.11839
4.364,0.05656
4.368,0.0256
4.372,0.04713
4.376,-0.0194
4.38,0.00308
4.384,0.0408
4.388,0.00029
4.392,-0.01689
4.396,0.02028
4.4,0.03161
4.404,-0.03445
4.408,0.02198
4.412,0.0014
4.416,0.01836
4.42,0.02505
4.424,-0.01645
4.428,-0.00434
4.432,0.01982
4.436,0.02489
4.44,0.02319
4.444,0.03854
4.448,0.08076
4.452,0.04778
4.456,0.01074
4.46,0.01175
4.464,0.00472
4.468,0.05148
4.472,0.0722
4.476,0.04647
4.48,0.05879
4.484,0.05451
4.488,0.07055
4.492,0.05254
4.496,0.03717
4.5,-0.0196
4.504,0.01202
4.508,0.05212
4.512,0.00253
4.516,0.01377
4.52,0.05167
4.524,0.02823
4.528,0.05611
4.532,0.00667
4.536,0.00744
4.54,0.00987
4.544,-0.01305
4.548,0.0756
4.552,0.01606
4.556,0.06732
4.56,0.05447
4.564,0.04504
4.568,0.04475
4.572,0.05155
4.576,0.06204
4.58,0.00392
4.584,-0.01846
4.588,0.02526
4.592,-0.02121
4.596,0.03154
4.6,0.06638
4.604,0.05711
4.608,0.08969
4.612,0.03275
4.616,0.1536
4.62,0.1215
4.624,0.10052
4.628,0.11557
4.632,0.13279
4.636,0.09096
4.64,0.15334
4.644,0.14122
4.648,0.17151
4.652,0.10619
4.656,0.06699
4.66,0.08331
4.664,0.07908
4.668,0.06448
4.672,0.08518
4.676,0.07797
4.68,-0.00776
4.684,0.07317
4.688,0.0138
4.692,0.06416
4.696,0.02389
4.7,0.0172
4.704,0.00042
4.708,0.0352
4.712,0.05835
4.716,0.00708
4.72,-0.00143
4.724,0.04706
4.728,0.0435
4.732,0.0074
4.736,0.0635
4.74,-0.01132
4.744,0.03593
4.748,0.03496
4.752,0.03502
4.756,-0.01179
4.76,-0.07421
4.764,-0.04797
4.768,-0.04147
4.772,-0.084
4.776,-0.02341
4.78,-0.00187
4.784,0.13001
4.788,0.39232
4.792,0.64164
4.796,0.8148
4.8,0.90031
4.804,1.091
4.808,0.99999
4.812,0.79738
4.816,0.53728
4.82,0.43711
4.824,0.1657
4.828,0.0121
4.832,-0.12219
4.836,-0.14379
4.84,-0.13268
4.844,-0.07694
4.848,-0.02401
4.852,-0.01524
4.856,0.01391
4.86,0.10888
4.864,0.04785
4.868,0.05084
4.872,-0.02784
4.876,-0.04446
4.88,0.00378
4.884,-0.00952
4.888,0.02026
4.892,0.07586
4.896,0.03922
4.9,0.0689
4.904,0.01595
4.908,-0.00729
4.912,0.06076
4.916,-0.00702
4.92,-0.00671
4.924,0.00166
4.928,-0.02987
4.932,0.02699
4.936,0.00594
4.94,0.08109
4.944,0.00244
4.948,0.08812
4.952,0.0061
4.956,0.04144
4.96,0.08633
4.964,0.06122
4.968,0.01628
4.972,0.03526
4.976,0.13044
4.98,0.04703
4.984,-0.01884
4.988,0.01819
4.992,0.05404
4.996,0.0276
5.0,0.09513
5.004,0.05791
5.008,0.06757
5.012,0.08914
5.016,0.14153
5.02,0.09608
5.024,0.0773
5.028,0.10225
5.032,0.17953
5.036,0.1292
5.04,0.13115
5.044,0.18694
5.048,0.104
5.052,0.24851
5.056,0.15385
5.06,0.1923
5.064,0.19997
5.068,0.16875
5.072,0.20166
5.076,0.23488
5.08,0.26107
5.084,0.24228
5.088,0.21533
5.092,0.21745
5.096,0.2483
5.1,0.13078
5.104,0.23751
5.108,0.22798
5.112,0.18668
5.116,0.25285
5.12,0.15496
5.124,0.16472
5.128,0.11166
5.132,0.11599
5.136,0.1153
5.14,0.08692
5.144,0.05096
5.148,0.07605
5.152,0.09737
5.156,0.03505
5.16,0.08841
5.164,0.06974
5.168,0.06937
5.172,0.06913
5.176,0.02735
5.18,-0.03566
5.184,0.05424
5.188,0.05958
5.192,-0.01181
5.196,-0.00729
5.2,0.01782
5.204,0.01883
5.208,0.03366
5.212,-0.01471
5.216,-0.0131
5.22,0.05594
5.224,0.07523
5.228,0.00181
5.232,0.01367
5.236,0.05095
5.24,-0.00172
5.244,0.00535
5.248,0.04539
5.252,0.05352
5.256,0.01611
5.26,0.02241
5.264,0.04663
5.268,0.0115
5.272,-0.03179
5.276,0.0181
5.28,-0.01461
5.284,0.03355
5.288,0.04864
5.292,0.01118
5.296,0.02512
5.3,0.00499
5.304,-0.00136
5.308,0.01114
5.312,-0.02982
5.316,-0.03187
5.32,-0.00725
5.324,0.03466
5.328,0.03477
5.332,0.03354
5.336,0.02043
5.34,0.18235
5.344,0.05165
5.348,0.07534
5.352,0.1035
5.356,0.12223
5.36,0.11759
5.364,0.15777
5.368,0.06744
5.372,0.10918
5.376,0.09544
5.38,0.0582
5.384,0.07725
5.388,0.06633
5.392,0.05128
5.396,0.02489
5.4,0.00428
5.404,-0.01329
5.408,0.09127
5.412,-0.0069
5.416,0.00539
5.42,-0.02645
5.424,0.00192
5.428,-0.02576
5.432,0.08668
5.436,0.00966
5.44,0.0196
5.444,-0.0118
5.448,-0.00496
5.452,0.05228
5.456,0.00028
5.46,0.05436
5.464,0.0042
5.468,-0.04209
5.472,0.03065
5.476,-0.02515
5.48,-0.09358
5.484,-0.09013
5.488,-0.15057
5.492,0.00834
5.496,-0.00869
5.5,0.06096
5.504,0.21508
5.508,0.35246
5.512,0.44432
5.516,0.53324
5.52,0.60328
5.524,0.56712
5.528,0.4431
5.532,0.26588
5.536,0.15071
5.54,0.00758
5.544,-0.10638
5.548,-0.12152
5.552,-0.17391
5.556,-0.18316
5.56,-0.10589
5.564,-0.0178
5.568,-0.00393
5.572,-0.06451
5.576,0.01418
5.58,-0.02364
5.584,0.03722
5.588,-0.02979
5.592,0.02074
5.596,0.0233
5.6,0.01017
5.604,0.07775
5.608,-0.00433
5.612,0.03237
5.616,0.03675
5.62,-0.01769
5.624,-0.00782
5.628,0.06934
5.632,0.01619
5.636,-0.02122
5.64,0.02682
5.644,-0.00873
5.648,0.00242
5.652,0.02234
5.656,-0.02077
5.66,-0.05781
5.664,-0.00586
5.668,-0.01522
5.672,-0.01641
5.676,-0.00742
5.68,0.02356
5.684,-0.01059
5.688,-0.03995
5.692,0.00381
5.696,0.03942
5.7,0.03596
5.704,0.02962
5.708,-0.00115
5.712,0.00983
5.716,0.03241
5.72,0.05485
5.724,0.06373
5.728,0.03425
5.732,0.1152
5.736,-0.00617
5.74,0.10101
5.744,0.08492
5.748,0.07357
5.752,0.17627
5.756,0.15329
5.76,0.12988
5.764,0.14223
5.768,0.2221
5.772,0.18722
5.776,0.16263
5.78,0.25524
5.784,0.22064
5.788,0.21515
5.792,0.21024
5.796,0.26369
5.8,0.233
5.804,0.23318
5.808,0.22605
5.812,0.17357
5.816,0.19495
5.82,0.14925
5.824,0.2468
5.828,0.15726
5.832,0.21625
5.836,0.18166
5.84,0.11267
5.844,0.17615
5.848,0.14157
5.852,0.18946
5.856,0.14827
5.86,0.09912
5.864,0.09469
5.868,0.07909
5.872,0.10601
5.876,0.13302
5.88,0.07571
5.884,0.0925
5.888,0.11231
5.892,0.04353
5.896,0.10294
5.9,0.06016
5.904,0.14278
5.908,-0.00811
5.912,0.10607
5.916,0.08202
5.92,0.10184
5.924,0.06199
5.928,0.01891
5.932,0.08069
5.936,0.02701
5.94,0.00336
5.944,0.02264
5.948,0.03154
5.952,-0.0012
5.956,-0.01549
5.96,0.10365
5.964,0.00781
5.968,0.05178
5.972,-0.01522
5.976,0.02534
5.98,-0.09511
5.984,-0.06866
5.988,-0.01816
5.992,0.01771
5.996,-0.01925
6.0,0.00449
6.004,-0.03457
6.008,-0.0016
6.012,-0.02979
6.016,0.01379
6.02,-0.02434
6.024,0.00024
6.028,0.00474
6.032,-0.05675
6.036,-0.16837
6.04,-0.09481
6.044,0.03131
6.048,0.11131
6.052,0.37265
6.056,0.56381
6.06,0.74421
6.064,0.94353
6.068,0.97126
6.072,0.9803
6.076,0.74839
6.08,0.60819
6.084,0.36117
6.088,0.11807
6.092,-0.03728
6.096,-0.10245
6.1,-0.22939
6.104,-0.14838
6.108,-0.19228
6.112,-0.06609
6.116,0.03717
6.12,-0.01225
6.124,-0.01364
6.128,0.01932
6.132,-0.03665
6.136,0.00484
6.14,-0.01969
6.144,0.01178
6.148,0.07496
6.152,-0.02816
6.156,-0.03897
6.16,0.03188
6.164,0.01243
6.168,-0.00971
6.172,-0.02841
6.176,-0.04962
6.18,-0.04749
6.184,0.01818
6.188,0.00465
6.192,-0.08571
6.196,-0.06756
6.2,-0.01289
6.204,-0.02855
6.208,-0.0235
6.212,-0.00481
6.216,-0.06539
6.22,-0.02575
6.224,0.0348
6.228,0.01791
6.232,-0.03076
6.236,-0.00096
6.24,0.01922
6.244,0.04809
6.248,-0.00912
6.252,-0.04268
6.256,-0.02615
6.26,0.02718
6.264,-0.02339
6.268,0.007
6.272,0.07089
6.276,0.06195
6.28,0.12457
6.284,0.09145
6.288,0.01925
6.292,0.07476
6.296,0.12189
6.3,0.10704
6.304,0.1729
6.308,0.10002
6.312,0.16501
6.316,0.14957
6.32,0.17547
6.324,0.15818
6.328,0.17206
6.332,0.25765
6.336,0.16625
6.34,0.14223
6.344,0.15815
6.348,0.19081
6.352,0.28878
6.356,0.20386
6.36,0.18949
6.364,0.17476
6.368,0.19191
6.372,0.17176
6.376,0.18263
6.38,0.16682
6.384,0.1169
6.388,0.13728
6.392,0.19786
6.396,0.13912
6.4,0.06108
6.404,0.09004
6.408,0.06757
6.412,0.06584
6.416,0.08498
6.42,-0.00616
6.424,0.01781
6.428,0.01189
6.432,0.00805
6.436,0.00129
6.44,-0.01866
6.444,0.0358
6.448,-0.06441
6.452,-0.11087
6.456,-0.03653
6.46,-0.02705
6.464,-0.06089
6.468,0.04852
6.472,-0.0483
6.476,-0.00742
6.48,0.07254
6.484,-0.06342
6.488,-0.03905
6.492,-0.03494
6.496,-0.06331
6.5,-0.09693
6.504,-0.09157
6.508,-0.00793
6.512,-0.03414
6.516,-0.11669
6.52,-0.05323
6.524,-0.02403
6.528,0.02155
6.532,-0.06685
6.536,-0.00697
6.54,0.02465
6.544,-0.08101
6.548,0.03891
6.552,-0.03091
6.556,-0.03945
6.56,0.00661
6.564,0.00371
6.568,-0.04297
6.572,0.06159
6.576,0.00633
6.58,-0.0784
6.584,-0.05555
6.588,-0.06033
6.592,0.01068
6.596,0.00346
6.6,-0.06059
6.604,0.04457
6.608,0.0032
6.612,-0.00861
6.616,-0.03368
6.62,0.00131
6.624,-0.04907
6.628,-0.07286
6.632,-0.02896
6.636,-0.05668
6.64,0.05857
6.644,0.00982
6.648,0.02493
6.652,-0.01946
6.656,0.07112
6.66,0.08245
6.664,0.04975
6.668,0.05784
6.672,0.05411
6.676,0.04469
6.68,0.09256
6.684,0.14391
6.688,0.09136
6.692,0.09385
6.696,-0.00163
6.7,0.00988
6.704,0.01183
6.708,0.00059
6.712,-0.03007
6.716,0.0338
6.72,-0.0923
6.724,-0.03743
6.728,0.02073
6.732,-0.01874
6.736,-0.02815
6.74,-0.01358
6.744,0.01148
6.748,-0.00372
6.752,-0.0046
6.756,0.01043
6.76,0.0275
6.764,-0.06341
6.768,-0.0127
6.772,0.02299
6.776,-0.00694
6.78,-0.0533
6.784,-0.02673
6.788,0.01949
6.792,-0.01933
6.796,-0.01441
6.8,-0.04833
6.804,-0.04889
6.808,-0.13208
6.812,-0.10116
6.816,-0.02684
6.82,0.11918
6.824,0.25912
6.828,0.39753
6.832,0.64921
6.836,0.85694
6.84,0.95795
6.844,0.91507
6.848,0.83778
6.852,0.66834
6.856,0.34487
6.86,0.22113
6.864,-0.00585
6.868,-0.20302
6.872,-0.25213
6.876,-0.18585
6.88,-0.15818
6.884,-0.11134
6.888,-0.11237
6.892,-0.05954
6.896,-0.08565
6.9,0.03997
6.904,0.02986
6.908,-0.00496
6.912,-0.0081
6.916,-0.05435
6.92,-0.01952
6.924,-0.01866
6.928,-0.06849
6.932,-0.09289
6.936,-0.03277
6.94,-0.02069
6.944,-0.10972
6.948,-0.04905
6.952,-0.00772
6.956,0.01763
6.96,-0.05302
6.964,-0.04648
6.968,0.00302
6.972,-0.06835
6.976,-0.01535
6.98,0.00699
6.984,0.01103
6.988,0.00662
6.992,0.05742
6.996,0.06137
7.0,0.03267
7.004,0.00406
7.008,0.02319
7.012,0.04552
7.016,0.11903
7.02,0.10181
7.024,0.1135
7.028,0.02089
7.032,0.00241
7.036,-0.01836
7.04,0.00108
7.044,0.09639
7.048,-0.0373
7.052,0.06936
7.056,0.02044
7.06,0.09234
7.064,0.02528
7.068,0.04915
7.072,0.09697
7.076,0.0916
7.08,0.1014
7.084,0.09833
7.088,0.08537
7.092,0.14263
7.096,0.1748
7.1,0.20489
7.104,0.10713
7.108,0.13978
7.112,0.18942
7.116,0.21677
7.12,0.19275
7.124,0.14731
7.128,0.13471
7.132,0.08534
7.136,0.06606
7.14,0.15846
7.144,0.25711
7.148,0.46276
7.152,0.68492
7.156,0.84396
7.16,1.04134
7.164,1.1269
7.168,1.03209
7.172,0.92316
7.176,0.75343
7.18,0.4926
7.184,0.25629
7.188,0.05249
7.192,-0.00963
7.196,-0.11791
7.2,-0.15586
7.204,-0.083
7.208,-0.08961
7.212,-0.0534
7.216,-0.00498
7.22,-0.06606
7.224,-0.05561
7.228,-0.05465
7.232,-0.00938
7.236,-0.05779
7.24,0.02825
7.244,0.06849
7.248,-0.01392
7.252,-0.04331
7.256,0.01974
7.26,-0.08118
7.264,-0.05507
7.268,-0.09556
7.272,0.05122
7.276,0.02895
7.28,0.02487
7.284,0.00049
7.288,-0.03649
7.292,-0.06236
7.296,-0.01315
7.3,-0.06638
7.304,-0.03069
7.308,0.01002
7.312,-0.05126
7.316,-0.04311
7.32,-0.01312
7.324,-0.07499
7.328,-0.02051
7.332,-0.01776
7.336,-0.01962
7.34,-0.00352
7.344,-0.01253
7.348,-0.0355
7.352,-0.03223
7.356,0.00024
7.36,0.02072
7.364,0.00534
7.368,0.0154
7.372,0.03782
7.376,0.05762
7.38,0.08528
7.384,0.08992
7.388,0.04208
7.392,0.10906
7.396,0.14392
7.4,0.16666
7.404,0.16494
7.408,0.24264
7.412,0.2622
7.416,0.24186
7.42,0.18887
7.424,0.19598
7.428,0.25319
7.432,0.31385
7.436,0.2745
7.44,0.25104
7.444,0.2487
7.448,0.29487
7.452,0.25407
7.456,0.22698
7.46,0.17125
7.464,0.19635
7.468,0.16751
7.472,0.14245
7.476,0.17241
7.48,0.1221
7.484,0.12419
7.488,0.11516
7.492,0.14127
7.496,0.12188
7.5,0.05887
7.504,0.06463
7.508,0.04444
7.512,0.02242
7.516,0.03573
7.52,0.04825
7.524,0.00992
7.528,-0.05921
7.532,-0.00144
7.536,0.03033
7.54,-0.02501
7.544,-0.04615
7.548,-0.04518
7.552,-0.0778
7.556,-0.20033
7.56,-0.08176
7.564,0.02747
7.568,0.19305
7.572,0.3872
7.576,0.58645
7.58,0.80146
7.584,0.93542
7.588,0.99893
7.592,0.84876
7.596,0.64398
7.6,0.53854
7.604,0.25904
7.608,0.03331
7.612,-0.09437
7.616,-0.20368
7.62,-0.20021
7.624,-0.23409
7.628,-0.13061
7.632,-0.11117
7.636,-0.07872
7.64,-0.00306
7.644,-0.03839
7.648,-0.02888
7.652,0.00552
7.656,-0.00262
7.66,-0.01396
7.664,-0.08098
7.668,-0.02876
7.672,-0.01044
7.676,0.00315
7.68,-0.06389
7.684,0.0161
7.688,-0.01929
7.692,-0.04232
7.696,0.00252
7.7,-0.01437
7.704,-0.00566
7.708,-0.02405
7.712,-0.014
7.716,-0.01379
7.72,-0.04701
7.724,-0.00124
7.728,-0.03147
7.732,0.02381
7.736,-0.07879
7.74,-0.01766
7.744,0.02574
7.748,-0.04222
7.752,-0.0543
7.756,-0.07139
7.76,2e-05
7.764,-0.04585
7.768,-0.01416
7.772,-0.02981
7.776,-0.02362
7.78,-0.01111
7.784,-0.01252
7.788,0.03241
7.792,0.02027
7.796,-0.02326
7.8,0.12392
7.804,0.0841
7.808,0.04935
7.812,0.06226
7.816,0.103
7.82,0.10861
7.824,0.03066
7.828,0.12614
7.832,0.18255
7.836,0.17231
7.84,0.17864
7.844,0.17625
7.848,0.11876
7.852,0.2106
7.856,0.14821
7.86,0.1687
7.864,0.15651
7.868,0.20863
7.872,0.20274
7.876,0.21726
7.88,0.25007
7.884,0.15526
7.888,0.21934
7.892,0.15636
7.896,0.15251
7.9,0.06326
7.904,0.16123
7.908,0.10198
7.912,0.08915
7.916,0.08269
7.92,0.05173
7.924,0.11662
7.928,0.08455
7.932,0.08028
7.936,0.0345
7.94,0.02209
7.944,-0.00103
7.948,-0.00629
7.952,0.03891
7.956,-0.00162
7.96,0.02312
7.964,0.00519
7.968,-0.01457
7.972,-0.02015
7.976,0.0079
7.98,-0.00651
7.984,0.02416
7.988,0.02008
7.992,0.00025
7.996,0.01018
8.0,-0.01552
8.004,0.03665
8.008,-0.09081
8.012,-0.05276
8.016,-0.08511
8.02,-0.07552
8.024,-0.01258
8.028,-0.01219
8.032,-0.03162
8.036,0.04558
8.04,-0.0204
8.044,-0.06518
8.048,-0.07912
8.052,-0.01093
8.056,0.02256
8.06,-0.0221
8.064,-0.00068
8.068,-0.00622
8.072,0.02871
8.076,-0.06943
8.08,-0.0354
8.084,-0.03835
8.088,-0.01509
8.092,-0.02859
8.096,0.01272
8.1,0.00107
8.104,0.01723
8.108,-0.00309
8.112,-0.07086
8.116,0.02471
8.12,-0.03458
8.124,-0.06636
8.128,0.0191
8.132,-0.03883
8.136,0.02846
8.14,-0.03987
8.144,-0.03944
8.148,-0.04968
8.152,-0.03525
8.156,0.00659
8.16,0.01625
8.164,-0.0715
8.168,0.05684
8.172,-0.01063
8.176,-0.05744
8.18,0.0099
8.184,0.05721
8.188,-0.05315
8.192,-0.0607
8.196,-0.07632
8.2,-0.02
8.204,0.00867
8.208,-0.04309
8.212,-0.03374
8.216,-0.02073
8.22,0.02086
8.224,-0.02155
8.228,-0.00287
8.232,0.06304
8.236,0.03745
8.24,0.05373
8.244,0.1116
8.248,0.09532
8.252,-0.00443
8.256,0.12829
8.26,0.05819
8.264,0.02967
8.268,0.10867
8.272,0.05455
8.276,0.08866
8.28,0.0483
8.284,0.0353
8.288,0.01425
8.292,-0.00689
8.296,0.0652
8.3,-0.03779
8.304,-0.06087
8.308,-0.00526
8.312,0.02227
8.316,-0.01435
8.32,-0.05138
8.324,0.02678
8.328,-0.02448
8.332,0.01483
8.336,-0.06355
8.34,-0.02611
8.344,-0.02688
8.348,0.00317
8.352,0.03005
8.356,0.01392
8.36,-0.01061
8.364,-0.04489
8.368,-0.05679
8.372,-0.06799
8.376,-0.08959
8.38,-0.1412
8.384,-0.10725
8.388,0.02283
8.392,0.19494
8.396,0.3489
8.4,0.60331
8.404,0.73884
8.408,0.94394
8.412,0.92398
8.416,0.87645
8.42,0.73858
8.424,0.52069
8.428,0.30832
8.432,0.08236
8.436,-0.03576
8.44,-0.116
8.444,-0.18512
8.448,-0.15162
8.452,-0.14245
8.456,-0.08617
8.46,-0.09838
8.464,-0.03112
8.468,-0.03844
8.472,0.00596
8.476,-0.04206
8.48,-0.0194
8.484,-0.05704
8.488,0.04217
8.492,0.04433
8.496,-0.02052
8.5,-0.03314
8.504,-0.03583
8.508,0.08426
8.512,-0.04009
8.516,0.0406
8.52,0.06314
8.524,-0.0228
8.528,-0.0089
8.532,-0.00245
8.536,0.00171
8.54,-0.00764
8.544,-0.03396
8.548,-0.04283
8.552,-0.01626
8.556,-0.01072
8.56,-0.01114
8.564,-0.01221
8.568,-0.01951
8.572,-0.05136
8.576,-0.02167
8.58,0.07777
8.584,0.03059
8.588,0.00403
8.592,-0.00501
8.596,0.03048
8.6,-0.08898
8.604,0.0561
8.608,-0.00591
8.612,0.02039
8.616,0.04462
8.62,0.0373
8.624,0.10806
8.628,0.11019
8.632,0.07027
8.636,0.09153
8.64,0.10729
8.644,0.09395
8.648,0.1597
8.652,0.14335
8.656,0.10278
8.66,0.1508
8.664,0.15734
8.668,0.1249
8.672,0.13779
8.676,0.11975
8.68,0.18959
8.684,0.21306
8.688,0.18631
8.692,0.21161
8.696,0.21001
8.7,0.15081
8.704,0.18812
8.708,0.20365
8.712,0.21622
8.716,0.16889
8.72,0.13043
8.724,0.14627
8.728,0.0958
8.732,0.13634
8.736,0.19662
8.74,0.15847
8.744,0.11947
8.748,0.15717
8.752,0.16953
8.756,0.13596
8.76,0.16662
8.764,0.08924
8.768,0.13437
8.772,0.12032
8.776,0.09064
8.78,0.11701
8.784,0.11123
8.788,0.08986
8.792,0.10226
8.796,0.00519
8.8,0.0406
8.804,0.08759
8.808,0.01932
8.812,0.00409
8.816,0.04874
8.82,-0.01299
8.824,-0.04041
8.828,-0.05745
8.832,0.00833
8.836,-0.03744
8.84,0.03197
8.844,-0.0456
8.848,-0.02845
8.852,-0.01739
8.856,0.05304
8.86,0.03639
8.864,-0.03968
8.868,-0.01644
8.872,-0.04435
8.876,0.01021
8.88,-0.04251
8.884,-0.03003
8.888,-0.03118
8.892,-0.05061
8.896,-0.01719
8.9,-0.10215
8.904,-0.06416
8.908,0.00476
8.912,0.14669
8.916,0.30257
8.92,0.46333
8.924,0.73096
8.928,0.85805
8.932,0.99197
8.936,0.96671
8.94,0.87376
8.944,0.63666
8.948,0.41193
8.952,0.1343
8.956,-0.03589
8.96,-0.07151
8.964,-0.19234
8.968,-0.17119
8.972,-0.24328
8.976,-0.11467
8.98,-0.08296
8.984,0.01824
8.988,-0.05138
8.992,0.04663
8.996,-0.00114
9.0,0.00641
9.004,0.04577
9.008,0.08202
9.012,0.02058
9.016,-0.02403
9.02,0.00104
9.024,0.01562
9.028,0.00957
9.032,-0.03749
9.036,-0.08269
9.04,-0.05186
9.044,0.02277
9.048,-0.01015
9.052,0.05952
9.056,0.01884
9.06,-0.04032
9.064,-0.01474
9.068,-0.01279
9.072,-0.00046
9.076,-0.03336
9.08,0.04018
9.084,0.01954
9.088,-0.00265
9.092,-0.08574
9.096,-0.00918
9.1,0.01763
9.104,-0.02538
9.108,0.08461
9.112,-0.02233
9.116,-0.00888
9.12,0.03973
9.124,0.06068
9.128,0.07226
9.132,0.00288
9.136,0.03776
9.14,0.0132
9.144,0.01901
9.148,0.11624
9.152,0.08841
9.156,0.11287
9.16,0.09569
9.164,0.07781
9.168,0.1263
9.172,0.15651
9.176,0.14574
9.18,0.16083
9.184,0.14541
9.188,0.20315
9.192,0.21824
9.196,0.20068
9.2,0.24655
9.204,0.21282
9.208,0.21284
9.212,0.24698
9.216,0.24193
9.22,0.24755
9.224,0.24097
9.228,0.23477
9.232,0.24311
9.236,0.21329
9.24,0.17411
9.244,0.15362
9.248,0.15749
9.252,0.18553
9.256,0.12453
9.26,0.09451
9.264,0.14222
9.268,0.17181
9.272,0.09817
9.276,0.0294
9.28,0.03325
9.284,0.09396
9.288,0.08162
9.292,0.08368
9.296,0.06324
9.3,0.0766
9.304,0.06604
9.308,0.06036
9.312,0.09704
9.316,0.04202
9.32,0.08789
9.324,0.06741
9.328,0.09545
9.332,0.12702
9.336,0.10969
9.34,0.08116
9.344,0.06804
9.348,0.01902
9.352,0.16461
9.356,0.05702
9.36,0.03052
9.364,0.06686
9.368,0.02867
9.372,-0.01868
9.376,0.014
9.38,-0.04134
9.384,-0.07397
9.388,0.04464
9.392,-0.00441
9.396,-0.03981
9.4,-0.00793
9.404,0.02848
9.408,-0.01251
9.412,-0.01206
9.416,0.05612
9.42,0.04652
9.424,0.01054
9.428,-1e-05
9.432,-0.01465
9.436,0.00842
9.44,0.03571
9.444,0.016
9.448,0.02996
9.452,-0.03524
9.456,-0.0352
9.46,-0.11562
9.464,-0.0351
9.468,-0.05022
9.472,0.00967
9.476,0.08571
9.48,0.34626
9.484,0.47169
9.488,0.65757
9.492,0.85392
9.496,1.05875
9.5,1.00823
9.504,0.89831
9.508,0.67192
9.512,0.4653
9.516,0.2549
9.52,0.04845
9.524,-0.09864
9.528,-0.08577
9.532,-0.16295
9.536,-0.11167
9.54,-0.06019
9.544,-0.022
9.548,-0.07635
9.552,0.02919
9.556,-0.01721
9.56,0.03303
9.564,0.03097
9.568,0.07277
9.572,0.01441
9.576,0.0135
9.58,-0.00905
9.584,0.01797
9.588,0.00401
9.592,0.01209
9.596,-0.06841
9.6,0.01181
9.604,0.03611
9.608,0.02417
9.612,0.04386
9.616,-0.01407
9.62,-0.0278
9.624,-0.01567
9.628,0.00808
9.632,0.05071
9.636,0.05121
9.64,0.01258
9.644,0.07075
9.648,0.02612
9.652,0.02554
9.656,0.01903
9.66,0.00722
9.664,0.01025
9.668,0.03781
9.672,0.01423
9.676,0.07304
9.68,0.00726
9.684,0.05189
9.688,0.00458
9.692,0.09933
9.696,0.0644
9.7,0.0687
9.704,0.02988
9.708,0.13676
9.712,0.04925
9.716,0.14133
9.72,0.15283
9.724,0.13046
9.728,0.05448
9.732,0.13419
9.736,0.13229
9.74,0.17262
9.744,0.25583
9.748,0.23558
9.752,0.20147
9.756,0.22148
9.76,0.21349
9.764,0.24358
9.768,0.23246
9.772,0.20136
9.776,0.24772
9.78,0.2176
9.784,0.28182
9.788,0.20091
9.792,0.23138
9.796,0.2047
9.8,0.19083
9.804,0.24312
9.808,0.24268
9.812,0.22016
9.816,0.1218
9.82,0.16694
9.824,0.24729
9.828,0.15181
9.832,0.1388
9.836,0.15658
9.84,0.14907
9.844,0.0662
9.848,0.06425
9.852,0.0767
9.856,0.02317
9.86,-0.00523
9.864,0.11729
9.868,0.04964
9.872,0.01072
9.876,0.00213
9.88,0.04136
9.884,0.0183
9.888,0.05641
9.892,0.04639
9.896,0.03033
9.9,-0.04856
9.904,-0.00948
9.908,-0.08861
9.912,0.00956
9.916,0.03773
9.92,-0.00349
9.924,0.02482
9.928,0.04212
9.932,0.01516
9.936,-0.00292
9.94,0.05616
9.944,0.00088
9.948,0.03108
9.952,-0.03211
9.956,0.01972
9.96,-0.01288
9.964,-0.00566
9.968,0.06906
9.972,0.07328
9.976,0.09797
9.98,0.08154
9.984,0.0313
9.988,-0.0288
9.992,0.00351
9.996,-0.04591
