t_seg,ecg_mV
0.0,0.03352
0.004,0.05383
0.008,0.11958
0.012,0.01302
0.016,0.07028
0.02,-0.01427
0.024,0.03126
0.028,-0.01508
0.032,-0.03187
0.036,-0.01479
0.04,0.02191
0.044,-0.0008
0.048,-0.01979
0.052,-0.00751
0.056,-0.02249
0.06,0.00258
0.064,0.00023
0.068,-0.01824
0.072,-0.0094
0.076,-0.06509
0.08,-0.06129
0.084,-0.10372
0.088,-0.06324
0.092,-0.04681
0.096,0.017
0.1,-0.03268
0.104,-0.0823
0.108,-0.12692
0.112,-0.0369
0.116,-0.11047
0.12,-0.13016
0.124,-0.13021
0.128,-0.05953
0.132,0.10009
0.136,0.27501
0.14,0.42397
0.144,0.65287
0.148,0.81646
0.152,0.96242
0.156,0.95014
0.16,0.84462
0.164,0.65335
0.168,0.43822
0.172,0.19846
0.176,0.02225
0.18,-0.13213
0.184,-0.25941
0.188,-0.19509
0.192,-0.15649
0.196,-0.13387
0.2,-0.08745
0.204,-0.01172
0.208,-0.09423
0.212,-0.02177
0.216,-0.03753
0.22,-0.04855
0.224,-0.06889
0.228,-0.04609
0.232,-0.03438
0.236,0.0309
0.24,-0.03302
0.244,0.01747
0.248,-0.04481
0.252,-0.03632
0.256,-0.02072
0.26,-0.0062
0.264,-0.11195
0.268,-0.05702
0.272,-0.02409
0.276,-0.0215
0.28,-0.05331
0.284,-0.08161
0.288,-0.02184
0.292,-0.06977
0.296,-0.02624
0.3,-0.01662
0.304,0.03035
0.308,-0.02177
0.312,-0.01348
0.316,-0.02965
0.32,-0.06534
0.324,-0.01641
0.328,-0.08292
0.332,-0.04324
0.336,0.01194
0.34,-0.01113
0.344,-0.03655
0.348,0.05182
0.352,0.07072
0.356,-0.0107
0.36,0.06612
0.364,0.03021
0.368,0.0908
0.372,0.01523
0.376,0.08346
0.38,0.05418
0.384,0.12304
0.388,0.03569
0.392,0.0604
0.396,0.11706
0.4,0.15117
0.404,0.16155
0.408,0.17487
0.412,0.16872
0.416,0.1785
0.42,0.227
0.424,0.17982
0.428,0.15042
0.432,0.19189
0.436,0.17964
0.44,0.2192
0.444,0.17401
0.448,0.23568
0.452,0.16637
0.456,0.12152
0.46,0.14057
0.464,0.22036
0.468,0.18545
0.472,0.11516
0.476,0.16381
0.48,0.13198
0.484,0.06436
0.488,0.08135
0.492,0.10162
0.496,0.12514
0.5,0.14581
0.504,0.13766
0.508,0.18916
0.512,0.09169
0.516,0.09196
0.52,0.06827
0.524,0.09765
0.528,0.13573
0.532,0.12791
0.536,0.01656
0.54,0.02426
0.544,0.0047
0.548,-0.00963
0.552,0.01415
0.556,0.03049
0.56,-0.0862
0.564,0.06895
0.568,-0.02819
0.572,-0.00493
0.576,-0.07788
0.58,-0.04542
0.584,0.02539
0.588,-0.04649
0.592,0.00162
0.596,-0.0133
0.6,-0.02125
0.604,-0.02468
0.608,-0.07598
0.612,-0.00959
0.616,-0.01661
0.62,0.00124
0.624,-0.06801
0.628,-0.03721
0.632,-0.05167
0.636,-0.06539
0.64,-0.17152
0.644,-0.19631
0.648,-0.11758
0.652,0.00654
0.656,0.21767
0.66,0.33452
0.664,0.57307
0.668,0.78847
0.672,0.85745
0.676,0.96311
0.68,0.95545
0.684,0.76364
0.688,0.57749
0.692,0.3219
0.696,0.12401
0.7,-0.05816
0.704,-0.20923
0.708,-0.23019
0.712,-0.16274
0.716,-0.1594
0.72,-0.13289
0.724,-0.04147
0.728,-0.00762
0.732,-0.0302
0.736,-0.02119
0.74,-0.0608
0.744,0.0339
0.748,-0.02317
0.752,-0.04668
0.756,-0.02209
0.76,-0.02358
0.764,-0.07524
0.768,-0.00756
0.772,-0.02952
0.776,-0.00356
0.78,-0.01463
0.784,0.05075
0.788,-0.03147
0.792,-0.08279
0.796,-0.03243
0.8,-0.02095
0.804,-0.03511
0.808,-0.06508
0.812,-0.06013
0.816,-0.0187
0.82,0.00744
0.824,-0.08309
0.828,-0.01049
0.832,-0.04151
0.836,0.00529
0.84,0.01674
0.844,-0.00218
0.848,-0.0193
0.852,-0.01192
0.856,0.03342
0.86,-0.03383
0.864,0.05467
0.868,0.06435
0.872,-0.02647
0.876,0.05026
0.88,0.04257
0.884,0.02005
0.888,0.06185
0.892,0.01613
0.896,0.01232
0.9,0.0815
0.904,0.15698
0.908,0.10415
0.912,0.10982
0.916,0.1627
0.92,0.08158
0.924,0.09958
0.928,0.16704
0.932,0.22412
0.936,0.10555
0.94,0.2517
0.944,0.10206
0.948,0.19438
0.952,0.24159
0.956,0.13343
0.96,0.20021
0.964,0.16473
0.968,0.19812
0.972,0.17196
0.976,0.2015
0.98,0.28849
0.984,0.13863
0.988,0.18852
0.992,0.14167
0.996,0.16672
1.0,0.09009
1.004,0.08754
1.008,0.09342
1.012,0.08315
1.016,0.04213
1.02,0.03278
1.024,0.04122
1.028,0.08887
1.032,0.0227
1.036,0.03428
1.04,-0.05667
1.044,0.09002
1.048,0.03909
1.052,0.02192
1.056,-0.04605
1.06,-0.01794
1.064,0.00273
1.068,-0.04909
1.072,-0.02358
1.076,-0.07943
1.08,-0.11114
1.084,-0.01056
1.088,-0.00267
1.092,-0.07817
1.096,-0.0277
1.1,-0.08728
1.104,-0.09119
1.108,-0.06127
1.112,-0.04265
1.116,-0.02491
1.12,0.01888
1.124,-0.0402
1.128,-0.03951
1.132,-0.00074
1.136,-0.08968
1.14,-0.02637
1.144,0.01684
1.148,-0.00038
1.152,0.03532
1.156,0.01211
1.16,0.06425
1.164,0.03894
1.168,0.04556
1.172,0.03632
1.176,0.0196
1.18,0.04446
1.184,0.16312
1.188,0.0712
1.192,0.06401
1.196,0.08877
1.2,0.03563
1.204,0.04291
1.208,0.00746
1.212,0.05021
1.216,-0.02462
1.22,0.02911
1.224,-0.00918
1.228,-0.03345
1.232,-0.02037
1.236,-0.06856
1.24,-0.04384
1.244,-0.08441
1.248,-0.00388
1.252,0.0222
1.256,-0.04357
1.26,-0.00635
1.264,-0.02659
1.268,0.04768
1.272,-0.03236
1.276,-0.00254
1.28,-0.05538
1.284,-0.03767
1.288,0.04123
1.292,-0.01097
1.296,-0.00611
1.3,-0.03474
1.304,-0.06691
1.308,-0.07151
1.312,-0.11107
1.316,-0.11013
1.32,0.03793
1.324,0.18044
1.328,0.39402
1.332,0.52124
1.336,0.8266
1.34,0.89865
1.344,0.98759
1.348,0.88382
1.352,0.76735
1.356,0.58755
1.36,0.35651
1.364,0.07041
1.368,-0.00169
1.372,-0.17009
1.376,-0.16876
1.38,-0.18263
1.384,-0.13377
1.388,-0.14158
1.392,-0.03886
1.396,-0.05117
1.4,-0.02035
1.404,-0.01981
1.408,-0.02041
1.412,-0.01869
1.416,-0.00227
1.42,0.00248
1.424,0.02912
1.428,-0.05818
1.432,-0.05796
1.436,-0.05934
1.44,-0.05997
1.444,-0.01628
1.448,-0.0195
1.452,0.04796
1.456,-0.00875
1.46,-0.02792
1.464,-0.02364
1.468,-0.03344
1.472,-0.10343
1.476,-0.08218
1.48,-0.02848
1.484,0.04894
1.488,-0.07895
1.492,-0.03759
1.496,-0.03153
1.5,-0.03565
1.504,-0.04239
1.508,-0.04298
1.512,-0.04558
1.516,0.00455
1.52,-0.0108
1.524,0.03277
1.528,-0.02041
1.532,-0.00651
1.536,-0.00997
1.54,-0.03795
1.544,0.0052
1.548,0.06314
1.552,0.02275
1.556,0.04596
1.56,0.0272
1.564,0.05207
1.568,0.04036
1.572,0.13285
1.576,0.12411
1.58,0.09024
1.584,0.10224
1.588,0.10209
1.592,0.14158
1.596,0.10759
1.6,0.19744
1.604,0.22271
1.608,0.23535
1.612,0.21819
1.616,0.25747
1.62,0.2374
1.624,0.24109
1.628,0.20804
1.632,0.23069
1.636,0.2082
1.64,0.2207
1.644,0.23468
1.648,0.15774
1.652,0.22366
1.656,0.07806
1.66,0.149
1.664,0.12959
1.668,0.13774
1.672,0.15338
1.676,0.08491
1.68,0.04116
1.684,0.13848
1.688,0.04541
1.692,0.14692
1.696,0.00272
1.7,0.0544
1.704,0.02136
1.708,-0.02858
1.712,0.04362
1.716,-0.01144
1.72,0.10083
1.724,-0.01426
1.728,0.07135
1.732,-0.02587
1.736,0.02842
1.74,-0.07014
1.744,-0.03544
1.748,-0.02737
1.752,-0.05646
1.756,-0.05002
1.76,-0.03945
1.764,-0.0157
1.768,-0.03466
1.772,-0.02641
1.776,-0.06517
1.78,-0.09022
1.784,0.03766
1.788,-0.03954
1.792,0.0064
1.796,0.04044
1.8,0.01715
1.804,0.00902
1.808,0.00362
1.812,-0.06412
1.816,0.02262
1.82,-0.07599
1.824,0.02495
1.828,0.0141
1.832,-0.00537
1.836,0.02021
1.84,0.01745
1.844,-0.04732
1.848,0.03529
1.852,0.04937
1.856,0.00317
1.86,-0.00557
1.864,-0.01266
1.868,-0.00379
1.872,-0.03275
1.876,0.08634
1.88,-0.00079
1.884,0.08132
1.888,0.11164
1.892,0.04666
1.896,0.0281
1.9,0.08295
1.904,0.06284
1.908,0.07231
1.912,0.13436
1.916,0.05835
1.92,0.13203
1.924,0.08333
1.928,-0.01392
1.932,0.03485
1.936,0.04058
1.94,-0.00804
1.944,0.04117
1.948,0.01301
1.952,-0.01659
1.956,-0.00788
1.96,0.01684
1.964,-0.04635
1.968,-0.03596
1.972,0.00553
1.976,-5e-05
1.98,0.03583
1.984,0.00953
1.988,0.01694
1.992,-0.01102
1.996,0.04368
2.0,0.06235
2.004,0.00219
2.008,-0.00456
2.012,0.02124
2.016,-0.00606
2.02,-0.02688
2.024,-0.06036
2.028,-0.06798
2.032,-0.1091
2.036,-0.15701
2.04,-0.01726
2.044,0.06653
2.048,0.24667
2.052,0.51211
2.056,0.69418
2.06,0.85468
2.064,0.98628
2.068,0.98826
2.072,0.83302
2.076,0.68134
2.08,0.46395
2.084,0.20937
2.088,0.02536
2.092,-0.09007
2.096,-0.16269
2.1,-0.10707
2.104,-0.12753
2.108,-0.10083
2.112,-0.09345
2.116,-0.06089
2.12,0.02071
2.124,-0.0114
2.128,0.0011
2.132,0.02533
2.136,-0.03651
2.14,-0.00296
2.144,-2e-05
2.148,0.01322
2.152,-0.00029
2.156,0.00607
2.16,-0.03487
2.164,0.00935
2.168,-0.06083
2.172,-0.02887
2.176,0.02029
2.18,-0.00303
2.184,0.01888
2.188,0.05493
2.192,-0.0475
2.196,-0.02281
2.2,0.01519
2.204,-0.00504
2.208,-0.11145
2.212,0.00392
2.216,-0.04649
2.22,-0.04221
2.224,-0.0108
2.228,0.023
2.232,-0.0315
2.236,-0.01944
2.24,-0.00157
2.244,0.06764
2.248,0.00235
2.252,0.0096
2.256,0.07544
2.26,0.04945
2.264,0.05389
2.268,0.03181
2.272,0.08889
2.276,0.09182
2.28,0.11125
2.284,0.11997
2.288,0.12225
2.292,0.06246
2.296,0.11404
2.3,0.1145
2.304,0.09564
2.308,0.23471
2.312,0.1394
2.316,0.16346
2.32,0.15088
2.324,0.17117
2.328,0.19096
2.332,0.28836
2.336,0.14717
2.34,0.22997
2.344,0.17085
2.348,0.1943
2.352,0.28457
2.356,0.18958
2.36,0.23509
2.364,0.2613
2.368,0.22999
2.372,0.18463
2.376,0.15328
2.38,0.20917
2.384,0.17147
2.388,0.13079
2.392,0.15988
2.396,0.09921
2.4,0.06737
2.404,0.07447
2.408,0.06847
2.412,0.10516
2.416,0.11889
2.42,0.09328
2.424,0.06675
2.428,0.04862
2.432,0.03428
2.436,-0.02617
2.44,0.01707
2.444,0.00024
2.448,0.01007
2.452,0.03004
2.456,0.02243
2.46,0.05318
2.464,0.01384
2.468,0.02886
2.472,0.01824
2.476,0.00223
2.48,0.01237
2.484,0.14902
2.488,0.0722
2.492,0.03557
2.496,0.07493
2.5,0.11364
2.504,0.09526
2.508,0.07694
2.512,0.18086
2.516,0.14118
2.52,0.10078
2.524,0.04916
2.528,0.08019
2.532,0.04456
2.536,0.03741
2.54,0.05191
2.544,0.00125
2.548,0.03161
2.552,0.0278
2.556,0.01518
2.56,0.04136
2.564,0.01693
2.568,-0.01976
2.572,0.00613
2.576,-0.12603
2.58,0.01662
2.584,0.0695
2.588,0.00731
2.592,-0.02871
2.596,-0.00954
2.6,0.01313
2.604,-0.02301
2.608,0.01869
2.612,0.05709
2.616,0.00854
2.62,0.00531
2.624,-0.02432
2.628,-0.06858
2.632,-0.08599
2.636,-0.10388
2.64,-0.03052
2.644,-0.01137
2.648,0.14979
2.652,0.31666
2.656,0.56194
2.66,0.73804
2.664,0.94878
2.668,0.96519
2.672,1.00456
2.676,0.84959
2.68,0.65954
2.684,0.40923
2.688,0.21258
2.692,0.0253
2.696,-0.13575
2.7,-0.1672
2.704,-0.186
2.708,-0.10106
2.712,-0.08914
2.716,0.00214
2.72,-0.0473
2.724,0.04973
2.728,-0.05301
2.732,0.05415
2.736,0.03009
2.74,0.00152
2.744,-0.02159
2.748,0.08561
2.752,0.01506
2.756,0.11286
2.76,-0.00868
2.764,-0.01628
2.768,-0.02862
2.772,0.05153
2.776,0.016
2.78,-0.00631
2.784,0.04308
2.788,0.01106
2.792,0.04043
2.796,-0.00275
2.8,0.02902
2.804,0.09784
2.808,-0.00175
2.812,0.01487
2.816,-0.0014
2.82,0.02666
2.824,0.035
2.828,0.06123
2.832,-0.02333
2.836,0.02313
2.84,0.06927
2.844,0.02597
2.848,0.06863
2.852,0.07546
2.856,0.01872
2.86,0.0631
2.864,0.05404
2.868,0.09329
2.872,0.02828
2.876,0.20522
2.88,0.09516
2.884,0.02694
2.888,0.11323
2.892,0.10538
2.896,0.163
2.9,0.16933
2.904,0.14429
2.908,0.15885
2.912,0.12959
2.916,0.18741
2.92,0.22127
2.924,0.18436
2.928,0.20707
2.932,0.21175
2.936,0.2004
2.94,0.24278
2.944,0.23355
2.948,0.21812
2.952,0.27472
2.956,0.17574
2.96,0.26522
2.964,0.20327
2.968,0.21238
2.972,0.23555
2.976,0.18221
2.98,0.21502
2.984,0.15506
2.988,0.14401
2.992,0.14831
2.996,0.12429
3.0,0.13654
3.004,0.12642
3.008,0.17572
3.012,0.10872
3.016,0.1128
3.02,0.02602
3.024,0.09678
3.028,0.15742
3.032,0.06942
3.036,0.07498
3.04,0.04561
3.044,0.03357
3.048,0.0598
3.052,0.0097
3.056,0.05331
3.06,0.00215
3.064,0.04565
3.068,0.05928
3.072,0.17348
3.076,0.05426
3.08,0.12547
3.084,0.15411
3.088,0.15041
3.092,0.13866
3.096,0.16106
3.1,0.15534
3.104,0.06318
3.108,0.06254
3.112,0.02681
3.116,0.11831
3.12,0.03364
3.124,0.06602
3.128,0.05668
3.132,0.06793
3.136,0.05809
3.14,-0.00776
3.144,0.05514
3.148,0.0148
3.152,0.0657
3.156,-0.03892
3.16,0.03003
3.164,0.04446
3.168,0.03353
3.172,0.00307
3.176,0.01823
3.18,0.0089
3.184,0.06405
3.188,0.00273
3.192,-4e-05
3.196,-0.11687
3.2,0.09255
3.204,-0.01858
3.208,-0.02818
3.212,-0.04056
3.216,-0.09321
3.22,-0.03799
3.224,0.01578
3.228,0.1011
3.232,0.26947
3.236,0.37911
3.24,0.48277
3.244,0.5968
3.248,0.64471
3.252,0.6603
3.256,0.44812
3.26,0.42145
3.264,0.23737
3.268,0.10265
3.272,-0.0723
3.276,-0.16389
3.28,-0.16385
3.284,-0.10145
3.288,-0.09958
3.292,-0.10185
3.296,-0.04761
3.3,0.02678
3.304,0.02136
3.308,0.03115
3.312,0.09893
3.316,0.06399
3.32,0.02218
3.324,0.08325
3.328,0.0224
3.332,0.06646
3.336,0.00563
3.34,0.05906
3.344,0.03103
3.348,0.03909
3.352,0.06887
3.356,0.009
3.36,0.01765
3.364,-0.00407
3.368,0.02126
3.372,0.02645
3.376,0.04676
3.38,0.01845
3.384,0.02835
3.388,0.04626
3.392,0.00917
3.396,0.02526
3.4,0.02272
3.404,0.06562
3.408,0.02974
3.412,0.0773
3.416,0.03019
3.42,0.0327
3.424,0.06235
3.428,0.11635
3.432,0.03848
3.436,0.08561
3.44,0.02661
3.444,0.06788
3.448,0.09192
3.452,0.11248
3.456,0.11037
3.46,0.11589
3.464,0.1175
3.468,0.10865
3.472,0.11866
3.476,0.10194
3.48,0.09967
3.484,0.19027
3.488,0.19122
3.492,0.14324
3.496,0.13452
3.5,0.23623
3.504,0.2499
3.508,0.23913
3.512,0.22861
3.516,0.18744
3.52,0.26125
3.524,0.29982
3.528,0.29257
3.532,0.28955
3.536,0.23659
3.54,0.24569
3.544,0.30658
3.548,0.27852
3.552,0.20902
3.556,0.13746
3.56,0.21659
3.564,0.19567
3.568,0.19333
3.572,0.14146
3.576,0.13471
3.58,0.16954
3.584,0.13262
3.588,0.09219
3.592,0.0553
3.596,0.12636
3.6,0.07923
3.604,0.10426
3.608,0.09707
3.612,0.01023
3.616,0.00763
3.62,0.06749
3.624,0.10233
3.628,0.06591
3.632,0.05618
3.636,0.05376
3.64,0.08842
3.644,0.11499
3.648,0.12963
3.652,0.06628
3.656,0.13532
3.66,0.17367
3.664,0.21208
3.668,0.1407
3.672,0.07139
3.676,0.02572
3.68,0.10086
3.684,0.10992
3.688,0.03329
3.692,0.06066
3.696,0.02877
3.7,0.0555
3.704,0.07483
3.708,0.08115
3.712,0.05817
3.716,0.06162
3.72,-0.01231
3.724,0.02123
3.728,0.08714
3.732,-0.01379
3.736,0.01146
3.74,0.04522
3.744,0.03549
3.748,-0.02823
3.752,0.05305
3.756,0.06106
3.76,0.05803
3.764,0.04679
3.768,0.01089
3.772,0.05471
3.776,0.05383
3.78,-0.00682
3.784,-0.03261
3.788,-0.10058
3.792,-0.06074
3.796,-0.04962
3.8,0.11237
3.804,0.35435
3.808,0.44254
3.812,0.62857
3.816,0.82731
3.82,1.01936
3.824,1.05194
3.828,1.03128
3.832,0.74089
3.836,0.49256
3.84,0.34061
3.844,0.17942
3.848,0.01061
3.852,-0.14515
3.856,-0.15773
3.86,-0.09842
3.864,-0.07836
3.868,0.00531
3.872,0.02633
3.876,0.05845
3.88,0.04418
3.884,-0.04357
3.888,0.03638
3.892,0.05185
3.896,0.03533
3.9,0.02861
3.904,0.01268
3.908,0.03198
3.912,-0.00891
3.916,0.0426
3.92,0.05436
3.924,0.03635
3.928,0.09227
3.932,-0.00418
3.936,0.0454
3.94,0.04736
3.944,0.03042
3.948,0.03972
3.952,0.01559
3.956,-0.03967
3.96,0.07491
3.964,0.03542
3.968,0.01571
3.972,0.03089
3.976,0.01807
3.98,0.01709
3.984,0.07874
3.988,0.07362
3.992,0.02029
3.996,0.08551
4.0,0.08756
4.004,0.12049
4.008,0.0221
4.012,0.08864
4.016,0.15864
4.02,0.1969
4.024,0.15529
4.028,0.18724
4.032,0.19194
4.036,0.16366
4.04,0.18796
4.044,0.18098
4.048,0.17084
4.052,0.21866
4.056,0.19732
4.06,0.24113
4.064,0.18198
4.068,0.27578
4.072,0.19532
4.076,0.26103
4.08,0.27573
4.084,0.23183
4.088,0.26434
4.092,0.24858
4.096,0.26147
4.1,0.29466
4.104,0.26519
4.108,0.2429
4.112,0.22834
4.116,0.20862
4.12,0.24533
4.124,0.26153
4.128,0.20449
4.132,0.20125
4.136,0.19394
4.14,0.0511
4.144,0.1456
4.148,0.12353
4.152,0.03881
4.156,0.05987
4.16,0.132
4.164,0.2598
4.168,0.47269
4.172,0.6308
4.176,0.81123
4.18,1.02085
4.184,1.0542
4.188,1.01788
4.192,0.91224
4.196,0.66292
4.2,0.46711
4.204,0.18271
4.208,0.0422
4.212,-0.11707
4.216,-0.1452
4.22,-0.16379
4.224,-0.13161
4.228,-0.05896
4.232,0.00022
4.236,0.07323
4.24,0.01776
4.244,-0.02861
4.248,0.00391
4.252,0.00141
4.256,0.02347
4.26,0.12372
4.264,0.00654
4.268,0.04344
4.272,-0.04818
4.276,0.04699
4.28,-0.00622
4.284,0.04706
4.288,0.05761
4.292,0.05252
4.296,0.04841
4.3,-0.00623
4.304,0.01357
4.308,-0.01464
4.312,0.02205
4.316,-0.01668
4.32,0.04183
4.324,0.0482
4.328,0.06408
4.332,0.04813
4.336,0.05868
4.34,0.05556
4.344,0.06872
4.348,-0.01699
4.352,0.00353
4.356,0.08605
4.36,0.01353
4.364,0.01369
4.368,0.03224
4.372,0.01985
4.376,0.08079
4.38,0.10327
4.384,0.07567
4.388,0.09413
4.392,0.08273
4.396,0.10154
4.4,0.10516
4.404,0.15999
4.408,0.07046
4.412,0.14415
4.416,0.13805
4.42,0.17268
4.424,0.19708
4.428,0.15921
4.432,0.16936
4.436,0.1895
4.44,0.26318
4.444,0.22598
4.448,0.18954
4.452,0.17703
4.456,0.22169
4.46,0.21738
4.464,0.22651
4.468,0.25148
4.472,0.19094
4.476,0.23913
4.48,0.24914
4.484,0.2704
4.488,0.19144
4.492,0.23509
4.496,0.1995
4.5,0.20545
4.504,0.17897
4.508,0.11998
4.512,0.1249
4.516,0.14661
4.52,0.19816
4.524,0.11838
4.528,0.08918
4.532,0.08642
4.536,0.09719
4.54,0.07013
4.544,0.11127
4.548,0.04356
4.552,0.0688
4.556,0.02588
4.56,0.0493
4.564,0.05602
4.568,0.02934
4.572,0.04256
4.576,0.10121
4.58,0.01158
4.584,0.01359
4.588,0.00332
4.592,0.04376
4.596,0.09653
4.6,0.00509
4.604,0.03708
4.608,-0.02705
4.612,0.02742
4.616,0.03728
4.62,-0.01416
4.624,0.03687
4.628,0.03843
4.632,0.04158
4.636,0.03268
4.64,0.0272
4.644,0.03325
4.648,-0.02264
4.652,0.05155
4.656,-0.01485
4.66,-0.01866
4.664,0.0126
4.668,-0.00647
4.672,0.05411
4.676,0.05547
4.68,-0.06642
4.684,0.0277
4.688,-0.03417
4.692,0.08054
4.696,0.03199
4.7,0.03222
4.704,-0.02964
4.708,0.02614
4.712,0.01889
4.716,0.03436
4.72,-0.01474
4.724,0.02572
4.728,-0.05226
4.732,0.01588
4.736,0.02066
4.74,-0.00457
4.744,0.04398
4.748,0.04284
4.752,0.0438
4.756,-0.01371
4.76,0.01478
4.764,0.0671
4.768,-0.00051
4.772,0.00566
4.776,0.02172
4.78,-0.0016
4.784,0.04691
4.788,-5e-05
4.792,0.04381
4.796,0.01779
4.8,0.03241
4.804,0.02937
4.808,0.05075
4.812,0.01261
4.816,0.011
4.82,-0.01502
4.824,0.03208
4.828,-0.00279
4.832,-0.01682
4.836,0.04134
4.84,0.05452
4.844,0.02942
4.848,0.01468
4.852,0.00921
4.856,0.04412
4.86,0.01842
4.864,0.04558
4.868,0.04944
4.872,0.01853
4.876,-0.00554
4.88,-0.00576
4.884,0.05552
4.888,-0.03436
4.892,0.04536
4.896,-0.02033
4.9,-0.06199
4.904,-0.01278
4.908,-0.03681
4.912,0.00552
4.916,0.02562
4.92,0.02884
4.924,-0.00696
4.928,-0.07262
4.932,0.07104
4.936,-0.01159
4.94,-0.00556
4.944,0.01646
4.948,0.01398
4.952,-0.01354
4.956,-0.00995
4.96,-0.00384
4.964,0.00285
4.968,0.02779
4.972,0.02418
4.976,0.06791
4.98,0.01946
4.984,-0.00406
4.988,0.06776
4.992,0.00465
4.996,0.00361
5.0,0.0525
5.004,0.03903
5.008,-0.05521
5.012,0.04459
5.016,0.07745
5.02,0.00245
5.024,0.02078
5.028,0.05983
5.032,0.0518
5.036,0.05899
5.04,0.10732
5.044,0.04231
5.048,0.07481
5.052,0.05328
5.056,0.10612
5.06,0.15946
5.064,0.11935
5.068,0.10035
5.072,0.13242
5.076,0.04224
5.08,0.01478
5.084,-0.00225
5.088,0.05784
5.092,0.01932
5.096,0.04045
5.1,0.00424
5.104,0.06767
5.108,-0.00986
5.112,-0.00092
5.116,0.00471
5.12,-0.03343
5.124,0.01603
5.128,0.04115
5.132,0.03822
5.136,-0.02309
5.14,-0.03019
5.144,0.01235
5.148,0.02835
5.152,0.06647
5.156,0.04033
5.16,0.03837
5.164,0.01127
5.168,-0.02997
5.172,-0.03538
5.176,-0.08081
5.18,-0.11124
5.184,-0.11265
5.188,-0.05219
5.192,0.12306
5.196,0.20272
5.2,0.39828
5.204,0.66964
5.208,0.85433
5.212,1.03012
5.216,1.05359
5.22,0.98574
5.224,0.7207
5.228,0.50683
5.232,0.23002
5.236,0.13324
5.24,-0.0857
5.244,-0.16442
5.248,-0.11816
5.252,-0.15623
5.256,-0.06435
5.26,-0.02669
5.264,-0.0042
5.268,-0.04213
5.272,0.0626
5.276,-0.00922
5.28,-0.04345
5.284,0.0408
5.288,0.03641
5.292,-0.02896
5.296,-0.03977
5.3,-0.01937
5.304,0.00498
5.308,-0.01485
5.312,0.00296
5.316,0.01302
5.32,-0.00882
5.324,0.06375
5.328,0.01851
5.332,0.006
5.336,0.03616
5.34,-0.0215
5.344,-0.00744
5.348,0.07203
5.352,-0.00817
5.356,0.02941
5.36,-0.02586
5.364,0.05418
5.368,0.02684
5.372,0.02362
5.376,0.00619
5.38,0.0671
5.384,-0.02616
5.388,0.02649
5.392,0.02084
5.396,-0.01489
5.4,0.02867
5.404,-0.02037
5.408,0.03924
5.412,0.06223
5.416,0.02743
5.42,0.02611
5.424,0.10968
5.428,0.0791
5.432,0.07772
5.436,0.09044
5.44,0.10531
5.444,0.14106
5.448,0.14906
5.452,0.11284
5.456,0.10559
5.46,0.17586
5.464,0.16845
5.468,0.25572
5.472,0.19596
5.476,0.22818
5.48,0.21382
5.484,0.18619
5.488,0.2186
5.492,0.26559
5.496,0.16464
5.5,0.14725
5.504,0.20696
5.508,0.24089
5.512,0.19194
5.516,0.16468
5.52,0.20491
5.524,0.18568
5.528,0.2223
5.532,0.15307
5.536,0.1447
5.54,0.14715
5.544,0.10108
5.548,0.10841
5.552,0.06795
5.556,0.11445
5.56,0.11601
5.564,0.10448
5.568,0.04314
5.572,0.09588
5.576,0.0611
5.58,0.02401
5.584,0.02002
5.588,-0.03302
5.592,0.02699
5.596,-0.04178
5.6,-0.0134
5.604,-0.03277
5.608,0.02725
5.612,-0.02441
5.616,0.00229
5.62,0.00099
5.624,0.03621
5.628,0.05063
5.632,-0.00727
5.636,-0.04702
5.64,-0.01174
5.644,-0.0341
5.648,0.00753
5.652,-0.03833
5.656,-0.01262
5.66,0.03852
5.664,-0.05157
5.668,-0.04779
5.672,-0.00701
5.676,-0.02284
5.68,-0.03724
5.684,-0.0883
5.688,-0.03635
5.692,0.00754
5.696,0.06016
5.7,0.03674
5.704,-0.07941
5.708,-0.00693
5.712,-0.03711
5.716,0.00903
5.72,0.00563
5.724,-0.02472
5.728,0.02923
5.732,-0.02517
5.736,-7e-05
5.74,0.05152
5.744,0.00968
5.748,-0.06267
5.752,-0.00118
5.756,0.021
5.76,0.01697
5.764,0.01454
5.768,-0.00469
5.772,-0.05764
5.776,0.02053
5.78,-0.08622
5.784,-0.00224
5.788,0.01428
5.792,-0.05405
5.796,-0.01401
5.8,0.08125
5.804,-0.01375
5.808,-0.02698
5.812,0.00853
5.816,-0.0405
5.82,0.0448
5.824,0.01534
5.828,-0.0451
5.832,-0.00946
5.836,0.00169
5.84,-0.04215
5.844,0.00305
5.848,-0.04799
5.852,-0.01335
5.856,-0.00366
5.86,-0.00703
5.864,-0.05775
5.868,-0.01515
5.872,0.00157
5.876,-0.0655
5.88,-0.00304
5.884,-0.02969
5.888,-0.03349
5.892,-0.04018
5.896,0.02491
5.9,-0.03328
5.904,-0.00995
5.908,0.00806
5.912,-0.05382
5.916,-0.00797
5.92,-0.02891
5.924,-0.04974
5.928,-0.00236
5.932,-0.01103
5.936,0.03949
5.94,0.03675
5.944,-0.02553
5.948,-0.05315
5.952,0.01624
5.956,-0.01275
5.96,-0.02336
5.964,0.02162
5.968,-0.07332
5.972,0.03494
5.976,-0.04496
5.98,0.01215
5.984,-0.04588
5.988,-0.03102
5.992,0.03686
5.996,-0.01798
6.0,-0.03631
6.004,-0.03188
6.008,-0.03791
6.012,0.03521
6.016,0.04004
6.02,-0.01438
6.024,0.03893
6.028,-0.0049
6.032,-0.01301
6.036,0.04096
6.04,0.04031
6.044,0.00492
6.048,0.0457
6.052,0.02453
6.056,0.04501
6.06,0.06685
6.064,0.04932
6.068,0.10288
6.072,0.03788
6.076,0.08378
6.08,0.09846
6.084,0.04609
6.088,0.09555
6.092,0.01677
6.096,-0.01565
6.1,0.01521
6.104,0.07591
6.108,0.02884
6.112,-0.02007
6.116,-0.00242
6.12,-0.02387
6.124,-0.00087
6.128,-0.01139
6.132,-0.03244
6.136,-0.0317
6.14,-0.04628
6.144,-0.03624
6.148,0.01716
6.152,0.04566
6.156,-0.00027
6.16,-0.0282
6.164,-0.05441
6.168,-0.03315
6.172,-0.04341
6.176,-0.05619
6.18,0.00369
6.184,-0.0819
6.188,-0.0603
6.192,-0.0187
6.196,-0.07726
6.2,-0.08833
6.204,-0.15743
6.208,-0.16583
6.212,-0.00528
6.216,0.16908
6.22,0.37592
6.224,0.53031
6.228,0.73933
6.232,0.92772
6.236,0.97434
6.24,0.91975
6.244,0.79664
6.248,0.53717
6.252,0.2944
6.256,0.07812
6.26,-0.1071
6.264,-0.15711
6.268,-0.19758
6.272,-0.21812
6.276,-0.10073
6.28,-0.06716
6.284,-0.05976
6.288,-0.09861
6.292,-0.1271
6.296,-0.086
6.3,-0.05156
6.304,-0.05775
6.308,-0.02588
6.312,-0.0422
6.316,0.0334
6.32,-0.03517
6.324,-0.05481
6.328,-0.01689
6.332,-0.00919
6.336,0.00722
6.34,0.02256
6.344,-0.06944
6.348,0.01227
6.352,-0.05953
6.356,-0.02179
6.36,-0.04749
6.364,-0.0918
6.368,-0.04528
6.372,0.04953
6.376,-0.03929
6.38,-0.074
6.384,-0.02601
6.388,-0.00638
6.392,-0.06833
6.396,0.00937
6.4,-0.01825
6.404,0.02083
6.408,0.03744
6.412,-0.0083
6.416,-0.00726
6.42,-0.07151
6.424,-0.00453
6.428,0.00077
6.432,0.06947
6.436,0.04995
6.44,0.04303
6.444,0.00936
6.448,0.0311
6.452,0.05663
6.456,0.07078
6.46,0.0777
6.464,0.10873
6.468,0.12797
6.472,0.04719
6.476,0.10225
6.48,0.1214
6.484,0.1572
6.488,0.21175
6.492,0.12012
6.496,0.18555
6.5,0.21006
6.504,0.20393
6.508,0.21154
6.512,0.18781
6.516,0.19657
6.52,0.19915
6.524,0.16147
6.528,0.13562
6.532,0.19081
6.536,0.15815
6.54,0.1983
6.544,0.18176
6.548,0.19311
6.552,0.11257
6.556,0.05527
6.56,0.1504
6.564,0.16584
6.568,0.11945
6.572,0.01463
6.576,0.06401
6.58,-0.00092
6.584,0.11362
6.588,0.07867
6.592,0.06032
6.596,-0.00537
6.6,0.01308
6.604,-0.05004
6.608,0.02966
6.612,-0.05183
6.616,0.02253
6.62,-0.00682
6.624,-0.0315
6.628,-0.00977
6.632,-0.07453
6.636,0.03688
6.64,-0.03904
6.644,-0.057
6.648,-0.00395
6.652,-0.03153
6.656,-0.0658
6.66,-0.04243
6.664,0.03306
6.668,-0.06622
6.672,-0.05311
6.676,-0.03734
6.68,-0.06117
6.684,-0.11696
6.688,-0.00749
6.692,-0.01055
6.696,-0.10975
6.7,-0.02938
6.704,-0.0247
6.708,0.00939
6.712,-0.02653
6.716,-0.02665
6.72,0.0228
6.724,-0.00485
6.728,-0.01135
6.732,-0.01491
6.736,-0.0733
6.74,0.02182
6.744,-0.03336
6.748,-0.02652
6.752,-0.0058
6.756,-0.07599
6.76,-0.01138
6.764,-0.0506
6.768,-0.07159
6.772,0.00659
6.776,-0.02921
6.78,0.01982
6.784,-0.06244
6.788,-0.04787
6.792,-0.08365
6.796,0.01841
6.8,-0.036
6.804,-0.00745
6.808,0.005
6.812,-0.02254
6.816,-0.04429
6.82,0.01525
6.824,-0.06397
6.828,-0.05742
6.832,-0.03428
6.836,-0.07274
6.84,0.04292
6.844,-0.04158
6.848,-0.05737
6.852,0.02485
6.856,-0.05063
6.86,-0.07116
6.864,-0.02413
6.868,-0.00371
6.872,-0.05501
6.876,-0.0157
6.88,-0.01893
6.884,-0.08651
6.888,-0.03355
6.892,-0.0621
6.896,-0.01619
6.9,-0.03588
6.904,0.01104
6.908,-0.01329
6.912,-0.0214
6.916,-0.03022
6.92,0.00292
6.924,0.03458
6.928,-0.01452
6.932,0.06007
6.936,0.01089
6.94,0.02836
6.944,0.0634
6.948,0.05064
6.952,0.09013
6.956,0.10768
6.96,0.04675
6.964,0.03587
6.968,0.09202
6.972,0.00461
6.976,-0.00227
6.98,0.0675
6.984,0.07243
6.988,-0.05526
6.992,-0.0786
6.996,0.0149
7.0,-0.07316
7.004,0.0074
7.008,0.00306
7.012,-0.00271
7.016,-0.03099
7.02,-0.05533
7.024,-0.02131
7.028,0.01243
7.032,-0.01586
7.036,-0.06251
7.04,-0.01496
7.044,-0.07186
7.048,-0.03358
7.052,-0.01591
7.056,-0.07549
7.06,-0.00231
7.064,-0.00258
7.068,-0.03394
7.072,-0.04557
7.076,-0.08774
7.08,-0.13977
7.084,-0.16601
7.088,-0.09362
7.092,-0.04439
7.096,0.0252
7.1,0.24753
7.104,0.41064
7.108,0.67951
7.112,0.81887
7.116,0.90905
7.12,0.95777
7.124,0.84931
7.128,0.67311
7.132,0.39362
7.136,0.24989
7.14,-0.00856
7.144,-0.09252
7.148,-0.18259
7.152,-0.11866
7.156,-0.16386
7.16,-0.13801
7.164,-0.09848
7.168,-0.08752
7.172,0.00048
7.176,-0.05347
7.18,-0.06149
7.184,-0.02637
7.188,0.00555
7.192,0.01119
7.196,-0.02682
7.2,0.00947
7.204,-0.04032
7.208,0.03153
7.212,-0.04056
7.216,0.00803
7.22,-0.08275
7.224,0.0469
7.228,-0.06157
7.232,-0.03043
7.236,-0.02723
7.24,-0.05142
7.244,-0.01134
7.248,0.00527
7.252,-0.02291
7.256,-0.0088
7.26,0.00032
7.264,-0.08252
7.268,-0.00784
7.272,-0.06998
7.276,0.04073
7.28,-0.05564
7.284,-0.06455
7.288,-0.04703
7.292,0.01359
7.296,0.03681
7.3,0.02373
7.304,0.01316
7.308,-0.00023
7.312,-0.0114
7.316,-0.04176
7.32,0.0359
7.324,0.01497
7.328,0.0298
7.332,0.0601
7.336,-0.01608
7.34,0.04617
7.344,0.10958
7.348,0.08341
7.352,0.08568
7.356,0.04627
7.36,0.078
7.364,0.18546
7.368,0.17833
7.372,0.19511
7.376,0.20839
7.38,0.17453
7.384,0.22996
7.388,0.18376
7.392,0.17001
7.396,0.16079
7.4,0.24833
7.404,0.22206
7.408,0.194
7.412,0.15724
7.416,0.19701
7.42,0.16671
7.424,0.13805
7.428,0.1908
7.432,0.10524
7.436,0.07096
7.44,0.12145
7.444,0.12621
7.448,0.07282
7.452,0.09118
7.456,0.07826
7.46,0.05216
7.464,0.05894
7.468,-0.02091
7.472,0.05979
7.476,0.00618
7.48,0.01199
7.484,-0.00964
7.488,-0.04436
7.492,-0.00816
7.496,-0.03131
7.5,-0.02299
7.504,-0.07742
7.508,-0.01136
7.512,-0.03721
7.516,-0.14982
7.52,-0.0823
7.524,0.02095
7.528,0.00073
7.532,-0.0549
7.536,0.05291
7.54,-0.0156
7.544,-0.09452
7.548,-0.01042
7.552,-0.08444
7.556,-0.00185
7.56,0.00284
7.564,-0.156
7.568,-0.05385
7.572,-0.08562
7.576,0.03439
7.58,-0.00337
7.584,0.00958
7.588,-0.04481
7.592,-0.05707
7.596,-0.05496
7.6,0.00116
7.604,0.0106
7.608,-0.04123
7.612,-0.02456
7.616,-0.04855
7.62,0.03198
7.624,-0.08862
7.628,-0.0931
7.632,0.00595
7.636,-0.00675
7.64,-0.05869
7.644,-0.00776
7.648,-0.02926
7.652,0.00686
7.656,-0.03721
7.66,0.02629
7.664,-0.00755
7.668,0.00028
7.672,-0.07091
7.676,0.02203
7.68,0.00466
7.684,0.00656
7.688,-0.01704
7.692,-0.0404
7.696,0.0084
7.7,-0.04958
7.704,-0.01469
7.708,-0.06626
7.712,-0.02219
7.716,-0.04063
7.72,-0.07367
7.724,0.01557
7.728,-0.06452
7.732,-0.01673
7.736,0.01723
7.74,0.0778
7.744,3e-05
7.748,-0.00819
7.752,0.0046
7.756,-0.02526
7.76,-0.01321
7.764,-0.06054
7.768,-0.04672
7.772,-0.02926
7.776,-0.02952
7.78,-0.03385
7.784,-0.03668
7.788,-0.01273
7.792,-0.04185
7.796,-0.00206
7.8,-0.0191
7.804,-0.09658
7.808,-0.04237
7.812,0.01805
7.816,-0.00442
7.82,-0.07463
7.824,-0.02109
7.828,0.05245
7.832,0.01814
7.836,0.02626
7.84,0.05739
7.844,0.06458
7.848,0.04441
7.852,0.10332
7.856,0.07458
7.86,0.05887
7.864,0.06304
7.868,-0.00217
7.872,0.05321
7.876,0.07586
7.88,0.00458
7.884,0.03307
7.888,0.03886
7.892,-0.00463
7.896,0.01442
7.9,0.07103
7.904,-0.06741
7.908,-0.03265
7.912,-0.01252
7.916,-0.1269
7.92,-0.11975
7.924,-0.02025
7.928,-0.00699
7.932,-0.03102
7.936,0.0173
7.94,-0.04716
7.944,-0.02566
7.948,-0.02709
7.952,-0.01065
7.956,-0.05188
7.96,0.04494
7.964,0.03728
7.968,-0.04705
7.972,-0.06617
7.976,-0.1011
7.98,-0.08809
7.984,-0.14658
7.988,-0.06132
7.992,0.02992
7.996,0.20808
8.0,0.3929
8.004,0.6259
8.008,0.7745
8.012,0.89764
8.016,0.96579
8.02,0.90143
8.024,0.71589
8.028,0.53455
8.032,0.26597
8.036,0.14742
8.04,-0.11241
8.044,-0.15133
8.048,-0.081
8.052,-0.18063
8.056,-0.06904
8.06,-0.11126
8.064,-0.073
8.068,-0.03945
8.072,-0.01195
8.076,0.02437
8.08,-0.0319
8.084,-0.03126
8.088,0.02612
8.092,0.02053
8.096,0.01807
8.1,-0.00681
8.104,-0.05301
8.108,-0.04865
8.112,-0.01928
8.116,-0.03435
8.12,-0.008
8.124,0.00794
8.128,-0.03977
8.132,0.00123
8.136,-0.0406
8.14,0.01561
8.144,-0.02579
8.148,0.01123
8.152,0.02441
8.156,0.03306
8.16,0.01378
8.164,0.0289
8.168,-0.02042
8.172,-0.04413
8.176,0.09826
8.18,-0.03344
8.184,0.04171
8.188,-0.01912
8.192,-0.00052
8.196,-0.02375
8.2,-0.02004
8.204,0.04475
8.208,0.00267
8.212,0.04706
8.216,0.03156
8.22,0.06398
8.224,0.00296
8.228,0.06529
8.232,0.10357
8.236,0.00441
8.24,0.03124
8.244,0.11032
8.248,0.10513
8.252,0.18317
8.256,0.19816
8.26,0.13579
8.264,0.11014
8.268,0.18966
8.272,0.19336
8.276,0.22755
8.28,0.19417
8.284,0.19048
8.288,0.17816
8.292,0.21266
8.296,0.18764
8.3,0.20857
8.304,0.19236
8.308,0.21064
8.312,0.15783
8.316,0.15177
8.32,0.14648
8.324,0.17997
8.328,0.16157
8.332,0.16578
8.336,0.10239
8.34,0.15019
8.344,0.12066
8.348,0.08215
8.352,0.08742
8.356,0.10878
8.36,0.07011
8.364,0.08141
8.368,0.09584
8.372,0.06847
8.376,0.14763
8.38,0.03988
8.384,0.02001
8.388,0.05899
8.392,-0.00092
8.396,-0.062
8.4,0.00731
8.404,-0.02646
8.408,-0.04598
8.412,-0.00261
8.416,0.03833
8.42,0.0571
8.424,-0.02536
8.428,0.02664
8.432,0.0085
8.436,0.01758
8.44,0.04234
8.444,0.03511
8.448,0.02653
8.452,0.05933
8.456,0.05253
8.46,0.15098
8.464,0.14646
8.468,0.15326
8.472,0.11031
8.476,0.10735
8.48,-0.00684
8.484,0.02031
8.488,0.07239
8.492,0.05598
8.496,0.05309
8.5,-0.05141
8.504,0.05363
8.508,0.04584
8.512,-0.04056
8.516,-0.05932
8.52,0.04425
8.524,0.02257
8.528,-0.03461
8.532,-0.03394
8.536,-0.0577
8.54,-0.03417
8.544,0.01711
8.548,0.06104
8.552,-0.01025
8.556,-0.02721
8.56,-0.05295
8.564,0.02321
8.568,0.01164
8.572,-0.02231
8.576,-0.03008
8.58,-0.01846
8.584,-0.06612
8.588,-0.03295
8.592,-0.077
8.596,-0.07415
8.6,0.01497
8.604,0.09608
8.608,0.28877
8.612,0.57788
8.616,0.76058
8.62,0.87656
8.624,0.98366
8.628,0.91989
8.632,0.76207
8.636,0.58927
8.64,0.39748
8.644,0.13131
8.648,-0.02985
8.652,-0.112
8.656,-0.10369
8.66,-0.18794
8.664,-0.1311
8.668,-0.14356
8.672,-0.01624
8.676,0.03865
8.68,0.00911
8.684,-0.04659
8.688,-0.00639
8.692,0.03216
8.696,-0.02914
8.7,-0.01815
8.704,0.00517
8.708,-0.04945
8.712,-0.00786
8.716,0.01837
8.72,-0.04439
8.724,-0.01242
8.728,0.00011
8.732,-0.00366
8.736,-0.07146
8.74,-0.05012
8.744,0.01995
8.748,0.05709
8.752,0.05511
8.756,-0.02539
8.76,0.01647
8.764,-0.01513
8.768,0.01497
8.772,0.01845
8.776,0.04478
8.78,-0.04809
8.784,0.03219
8.788,-0.06915
8.792,-0.01117
8.796,-0.00118
8.8,-6e-05
8.804,-0.01016
8.808,-0.01434
8.812,0.03174
8.816,0.09504
8.82,0.07101
8.824,0.00606
8.828,0.0447
8.832,0.09404
8.836,0.11308
8.84,0.09709
8.844,0.09105
8.848,0.16411
8.852,0.14078
8.856,0.13485
8.86,0.14761
8.864,0.19091
8.868,0.21343
8.872,0.20709
8.876,0.1993
8.88,0.20735
8.884,0.18806
8.888,0.1308
8.892,0.29178
8.896,0.18842
8.9,0.22567
8.904,0.1654
8.908,0.17331
8.912,0.20874
8.916,0.17537
8.92,0.14861
8.924,0.18707
8.928,0.24736
8.932,0.15487
8.936,0.18537
8.94,0.20446
8.944,0.19945
8.948,0.1321
8.952,0.07622
8.956,0.16326
8.96,0.06859
8.964,0.08365
8.968,0.08304
8.972,0.12507
8.976,0.0391
8.98,0.01502
8.984,0.04871
8.988,-0.00149
8.992,0.05085
8.996,0.09828
9.0,0.04014
9.004,0.0339
9.008,-0.00774
9.012,0.03524
9.016,0.01827
9.02,-0.02317
9.024,0.02946
9.028,-0.02481
9.032,-0.01721
9.036,0.01796
9.04,0.06702
9.044,-0.02805
9.048,0.03716
9.052,-0.01657
9.056,0.02408
9.06,-0.00135
9.064,-0.01188
9.068,-0.01201
9.072,-0.00272
9.076,-0.03821
9.08,-0.03587
9.084,0.04032
9.088,0.01731
9.092,0.07101
9.096,0.00322
9.1,0.05574
9.104,0.06014
9.108,0.04863
9.112,0.00765
9.116,-0.00355
9.12,-0.03206
9.124,0.04679
9.128,0.04752
9.132,-0.00191
9.136,0.03687
9.14,0.02591
9.144,0.04366
9.148,0.08509
9.152,0.03892
9.156,0.0521
9.16,0.06119
9.164,0.03696
9.168,0.04438
9.172,0.1107
9.176,0.16313
9.18,0.10719
9.184,0.09835
9.188,0.07387
9.192,0.12372
9.196,0.0336
9.2,0.10108
9.204,0.07485
9.208,0.04719
9.212,0.07038
9.216,0.05451
9.22,0.00231
9.224,0.05536
9.228,0.03704
9.232,-0.03079
9.236,-0.03304
9.24,-0.00558
9.244,0.03716
9.248,0.084
9.252,0.07678
9.256,0.00472
9.26,-0.01178
9.264,0.00044
9.268,0.02993
9.272,0.00263
9.276,0.11847
9.28,0.02994
9.284,-0.0095
9.288,0.04308
9.292,-0.00092
9.296,-0.08746
9.3,-0.0422
9.304,-0.07655
9.308,-0.13335
9.312,-0.13411
9.316,-0.03501
9.32,0.1186
9.324,0.14401
9.328,0.30651
9.332,0.47548
9.336,0.5722
9.34,0.70101
9.344,0.68995
9.348,0.55502
9.352,0.47646
9.356,0.33942
9.36,0.05643
9.364,-0.04389
9.368,-0.12184
9.372,-0.15886
9.376,-0.16167
9.38,-0.14357
9.384,-0.03858
9.388,-0.03768
9.392,-0.03719
9.396,0.06098
9.4,0.0219
9.404,0.03036
9.408,0.08765
9.412,0.05334
9.416,0.06514
9.42,0.02279
9.424,0.01968
9.428,0.02089
9.432,-0.03695
9.436,-0.00833
9.44,0.06045
9.444,0.02006
9.448,-0.0059
9.452,0.05181
9.456,0.04381
9.46,0.02826
9.464,0.03475
9.468,-0.00437
9.472,-0.004
9.476,0.0183
9.48,-0.00308
9.484,-0.0026
9.488,-0.00449
9.492,-0.03414
9.496,0.07482
9.5,-0.00479
9.504,0.01376
9.508,0.01512
9.512,0.01817
9.516,0.01351
9.52,0.05807
9.524,0.04185
9.528,0.11623
9.532,0.09747
9.536,0.09184
9.54,0.05017
9.544,0.086
9.548,0.04734
9.552,0.09445
9.556,0.13434
9.56,0.04245
9.564,0.0835
9.568,0.08693
9.572,0.15496
9.576,0.14721
9.58,0.18171
9.584,0.2066
9.588,0.18868
9.592,0.25733
9.596,0.18441
9.6,0.22544
9.604,0.18898
9.608,0.23431
9.612,0.22619
9.616,0.1938
9.62,0.26305
9.624,0.26557
9.628,0.19947
9.632,0.28145
9.636,0.20328
9.64,0.25734
9.644,0.20533
9.648,0.24613
9.652,0.22609
9.656,0.1914
9.66,0.17629
9.664,0.22461
9.668,0.13035
9.672,0.15232
9.676,0.15526
9.68,0.13787
9.684,0.10168
9.688,0.09027
9.692,0.08238
9.696,0.10651
9.7,0.146
9.704,0.07498
9.708,0.05874
9.712,0.05338
9.716,0.05624
9.72,-0.02308
9.724,0.04703
9.728,0.01443
9.732,0.02833
9.736,0.09348
9.74,-0.02825
9.744,0.03193
9.748,-0.02304
9.752,0.04532
9.756,-0.00355
9.76,0.06119
9.764,0.03615
9.768,0.01352
9.772,-0.0092
9.776,-0.01724
9.78,0.0439
9.784,-0.00041
9.788,0.01428
9.792,-0.00153
9.796,-0.02168
9.8,0.05652
9.804,0.03776
9.808,0.05978
9.812,0.07726
9.816,-0.01581
9.82,-0.01205
9.824,0.04602
9.828,0.01846
9.832,-0.02873
9.836,-0.03149
9.84,0.03964
9.844,0.02538
9.848,-0.01974
9.852,-0.02054
9.856,0.00827
9.86,0.00285
9.864,0.03365
9.868,0.04876
9.872,0.03702
9.876,0.0164
9.88,0.01615
9.884,0.00453
9.888,-0.00367
9.892,0.03329
9.896,-0.00495
9.9,0.01118
9.904,0.03449
9.908,-0.01011
9.912,0.01935
9.916,0.03728
9.92,0.00835
9.924,0.02798
9.928,0.03398
9.932,0.07124
9.936,0.02538
9.94,0.01628
9.944,0.05939
9.948,0.02658
9.952,0.05561
9.956,-0.02035
9.96,0.02453
9.964,0.03907
9.968,-0.03251
9.972,0.00966
9.976,-0.06338
9.98,-0.02077
9.984,0.01755
9.988,0.02711
9.992,0.03753
9.996,0.08524
