t_seg,ecg_mV
0.0,-0.12576
0.004,-0.14377
0.008,-0.13818
0.012,0.17933
0.016,0.22762
0.02,0.46746
0.024,0.7214
0.028,0.88227
0.032,0.9609
0.036,1.00251
0.04,0.81565
0.044,0.61254
0.048,0.38854
0.052,0.24269
0.056,0.04478
0.06,-0.09819
0.064,-0.17139
0.068,-0.17842
0.072,-0.15458
0.076,-0.06062
0.08,-0.0692
0.084,-0.0066
0.088,-0.01346
0.092,-0.00284
0.096,0.00607
0.1,-0.02356
0.104,-0.04516
0.108,-0.00541
0.112,-0.01786
0.116,-0.04037
0.12,-0.07055
0.124,-0.01261
0.128,-0.02097
0.132,-0.02798
0.136,0.00601
0.14,-0.03167
0.144,0.01914
0.148,-0.02753
0.152,-0.05489
0.156,-0.03277
0.16,-0.01345
0.164,-0.01248
0.168,-0.0347
0.172,-0.02863
0.176,-0.02856
0.18,0.03886
0.184,0.05209
0.188,0.03906
0.192,0.10261
0.196,0.06703
0.2,0.05575
0.204,0.11895
0.208,0.0875
0.212,0.12163
0.216,0.11176
0.22,0.10219
0.224,0.05839
0.228,0.06256
0.232,0.0852
0.236,0.11162
0.24,0.07702
0.244,0.02438
0.248,0.08259
0.252,0.0589
0.256,0.04759
0.26,0.09436
0.264,0.07031
0.268,0.13319
0.272,0.09528
0.276,0.0371
0.28,0.15726
0.284,0.1367
0.288,0.15666
0.292,0.1646
0.296,0.21174
0.3,0.22553
0.304,0.21762
0.308,0.23427
0.312,0.17483
0.316,0.15582
0.32,0.17784
0.324,0.16221
0.328,0.14703
0.332,0.06669
0.336,0.05715
0.34,0.04706
0.344,0.04736
0.348,0.21439
0.352,0.3083
0.356,0.58409
0.36,0.7701
0.364,0.9277
0.368,1.0336
0.372,1.0607
0.376,1.00406
0.38,0.82068
0.384,0.58031
0.388,0.32253
0.392,0.11496
0.396,-0.05495
0.4,-0.11396
0.404,-0.15006
0.408,-0.13193
0.412,-0.11241
0.416,-0.04574
0.42,0.02974
0.424,-0.04203
0.428,0.06215
0.432,-0.031
0.436,0.08072
0.44,0.0448
0.444,0.0835
0.448,0.03571
0.452,0.07864
0.456,0.09179
0.46,0.06353
0.464,0.12643
0.468,0.05373
0.472,0.10932
0.476,0.10305
0.48,0.06331
0.484,-0.0074
0.488,0.06961
0.492,0.07317
0.496,0.04676
0.5,-0.03518
0.504,0.02486
0.508,0.01853
0.512,0.02894
0.516,0.07743
0.52,0.04751
0.524,-0.01206
0.528,-0.00393
0.532,-0.0517
0.536,0.01443
0.54,-0.02793
0.544,0.05796
0.548,0.04512
0.552,0.00932
0.556,0.06266
0.56,-0.05018
0.564,0.03398
0.568,-0.0284
0.572,0.0285
0.576,0.0331
0.58,0.07242
0.584,0.00866
0.588,-0.06617
0.592,-0.06856
0.596,0.04429
0.6,0.25499
0.604,0.43708
0.608,0.67387
0.612,0.88373
0.616,1.0879
0.62,1.13032
0.624,1.15134
0.628,1.06968
0.632,0.84977
0.636,0.60846
0.64,0.39006
0.644,0.21062
0.648,0.16688
0.652,0.01927
0.656,0.10222
0.66,0.00685
0.664,0.1697
0.668,0.13693
0.672,0.20493
0.676,0.14892
0.68,0.13458
0.684,0.17776
0.688,0.14765
0.692,0.13144
0.696,0.17016
0.7,0.12137
0.704,0.11483
0.708,0.13163
0.712,0.07149
0.716,0.11126
0.72,0.10536
0.724,0.08834
0.728,0.03818
0.732,-0.01827
0.736,0.03893
0.74,0.01782
0.744,0.0252
0.748,-0.02633
0.752,0.00593
0.756,-0.0173
0.76,0.03608
0.764,-0.00205
0.768,0.08655
0.772,-0.02846
0.776,0.01109
0.78,-0.0807
0.784,0.00585
0.788,0.06758
0.792,-0.00599
0.796,0.02121
0.8,0.00206
0.804,0.01442
0.808,0.05378
0.812,0.0332
0.816,-0.01448
0.82,0.02152
0.824,0.07551
0.828,0.03227
0.832,0.16191
0.836,0.1167
0.84,0.02278
0.844,0.03937
0.848,0.15155
0.852,0.13412
0.856,0.1447
0.86,0.11542
0.864,0.18565
0.868,0.13091
0.872,0.21973
0.876,0.15139
0.88,0.18705
0.884,0.17706
0.888,0.16458
0.892,0.25498
0.896,0.24524
0.9,0.25594
0.904,0.20977
0.908,0.16064
0.912,0.23837
0.916,0.2407
0.92,0.17409
0.924,0.19917
0.928,0.21745
0.932,0.15474
0.936,0.17437
0.94,0.20672
0.944,0.18842
0.948,0.07686
0.952,0.08224
0.956,0.12216
0.96,0.12905
0.964,0.05257
0.968,-0.01193
0.972,0.08194
0.976,0.09967
0.98,0.08236
0.984,0.06916
0.988,0.03945
0.992,0.05305
0.996,0.08006
1.0,0.10259
1.004,-0.0074
1.008,0.03693
1.012,0.04429
1.016,0.14758
1.02,0.15782
1.024,0.09838
1.028,0.09687
1.032,0.12738
1.036,0.08247
1.04,0.05029
1.044,0.09351
1.048,0.09564
1.052,0.05534
1.056,0.09577
1.06,0.06341
1.064,0.02785
1.068,0.01604
1.072,0.03228
1.076,-0.00751
1.08,-0.03613
1.084,0.02648
1.088,0.0583
1.092,0.04466
1.096,0.02628
1.1,0.02062
1.104,0.01654
1.108,0.01857
1.112,-0.00811
1.116,0.0009
1.12,0.03444
1.124,-0.0273
1.128,0.00926
1.132,-0.05853
1.136,0.00065
1.14,-0.004
1.144,-0.00776
1.148,-0.01806
1.152,-0.10134
1.156,-0.07858
1.16,-0.06984
1.164,0.01363
1.168,0.13711
1.172,0.33629
1.176,0.50033
1.18,0.75025
1.184,0.86018
1.188,0.99492
1.192,1.00117
1.196,0.80933
1.2,0.59678
1.204,0.45343
1.208,0.17751
1.212,0.01984
1.216,-0.10269
1.22,-0.19176
1.224,-0.19163
1.228,-0.2162
1.232,-0.12117
1.236,0.01133
1.24,-0.01335
1.244,-0.00703
1.248,-0.0363
1.252,0.04944
1.256,-0.01785
1.26,-0.04062
1.264,0.04373
1.268,0.01943
1.272,0.04916
1.276,-0.04003
1.28,-0.05871
1.284,0.03186
1.288,-0.03872
1.292,-0.01982
1.296,0.01036
1.3,0.00628
1.304,0.03309
1.308,-0.00592
1.312,0.04432
1.316,0.08097
1.32,0.00274
1.324,0.05851
1.328,-0.02821
1.332,-0.01448
1.336,0.00533
1.34,-0.02119
1.344,0.08424
1.348,0.0207
1.352,0.0395
1.356,0.03452
1.36,0.05275
1.364,0.02073
1.368,-0.01511
1.372,0.03512
1.376,0.05455
1.38,0.02876
1.384,0.0381
1.388,0.04396
1.392,0.08423
1.396,0.08546
1.4,0.13716
1.404,0.07363
1.408,0.07725
1.412,0.10824
1.416,0.16513
1.42,0.18935
1.424,0.11379
1.428,0.17452
1.432,0.17108
1.436,0.1778
1.44,0.23108
1.444,0.24953
1.448,0.217
1.452,0.21634
1.456,0.20732
1.46,0.21672
1.464,0.21335
1.468,0.28722
1.472,0.22401
1.476,0.25532
1.48,0.21914
1.484,0.31715
1.488,0.24514
1.492,0.20564
1.496,0.265
1.5,0.24221
1.504,0.23116
1.508,0.2257
1.512,0.18373
1.516,0.25808
1.52,0.19816
1.524,0.15989
1.528,0.23504
1.532,0.24784
1.536,0.16326
1.54,0.15049
1.544,0.14395
1.548,0.10276
1.552,0.08789
1.556,0.10569
1.56,0.03969
1.564,0.03703
1.568,0.00877
1.572,0.02812
1.576,0.07784
1.58,0.0043
1.584,-0.08495
1.588,-0.02491
1.592,0.03887
1.596,0.00645
1.6,0.00918
1.604,0.02599
1.608,0.0296
1.612,0.07862
1.616,-0.02908
1.62,-0.05237
1.624,0.03853
1.628,0.10006
1.632,-0.00071
1.636,0.04177
1.64,0.00635
1.644,-0.01883
1.648,-0.03461
1.652,-0.02997
1.656,-0.05543
1.66,-0.14098
1.664,-0.03666
1.668,-0.05753
1.672,0.12884
1.676,0.21856
1.68,0.32187
1.684,0.44707
1.688,0.5699
1.692,0.51925
1.696,0.46737
1.7,0.42492
1.704,0.2951
1.708,0.17142
1.712,0.00877
1.716,-0.09258
1.72,-0.1596
1.724,-0.09758
1.728,-0.13724
1.732,-0.07629
1.736,-0.08974
1.74,0.02668
1.744,-0.00574
1.748,-0.00992
1.752,0.0288
1.756,-0.08746
1.76,-0.04412
1.764,0.06641
1.768,0.03949
1.772,0.03919
1.776,-0.02833
1.78,0.00738
1.784,-0.00376
1.788,0.04776
1.792,0.05435
1.796,-0.04381
1.8,0.10178
1.804,0.07002
1.808,0.07221
1.812,-0.04851
1.816,0.0817
1.82,-0.03566
1.824,0.06641
1.828,0.03966
1.832,0.04177
1.836,0.02919
1.84,0.07158
1.844,-0.02434
1.848,0.05465
1.852,0.00834
1.856,0.06539
1.86,0.00441
1.864,0.00186
1.868,-0.01184
1.872,-0.00724
1.876,0.03464
1.88,0.08334
1.884,0.13423
1.888,0.02266
1.892,0.05736
1.896,0.07341
1.9,0.13782
1.904,0.11972
1.908,0.07854
1.912,0.11151
1.916,0.09292
1.92,0.14315
1.924,0.20498
1.928,0.16241
1.932,0.13149
1.936,0.23534
1.94,0.26866
1.944,0.29216
1.948,0.29897
1.952,0.28978
1.956,0.34497
1.96,0.33832
1.964,0.31859
1.968,0.35404
1.972,0.24627
1.976,0.33206
1.98,0.34017
1.984,0.29001
1.988,0.31171
1.992,0.24675
1.996,0.31321
2.0,0.21212
2.004,0.17349
2.008,0.14359
2.012,0.17011
2.016,0.13032
2.02,0.16652
2.024,0.22178
2.028,0.12907
2.032,0.15898
2.036,0.03661
2.04,0.08591
2.044,0.09871
2.048,0.11022
2.052,0.0567
2.056,0.11711
2.06,0.08063
2.064,0.02959
2.068,0.03902
2.072,0.01183
2.076,0.04874
2.08,-0.04145
2.084,-0.05517
2.088,-0.05871
2.092,-0.08688
2.096,-0.0212
2.1,0.05952
2.104,0.232
2.108,0.52449
2.112,0.7237
2.116,0.89113
2.12,0.98041
2.124,1.07669
2.128,0.92621
2.132,0.72521
2.136,0.4858
2.14,0.26078
2.144,0.10994
2.148,0.01979
2.152,-0.05432
2.156,-0.12186
2.16,-0.11624
2.164,-0.10172
2.168,-0.01216
2.172,-0.03561
2.176,0.02523
2.18,0.07775
2.184,0.03106
2.188,0.03162
2.192,0.07156
2.196,0.04817
2.2,0.07566
2.204,0.09251
2.208,-0.00308
2.212,0.04864
2.216,0.02002
2.22,-0.04976
2.224,0.01872
2.228,0.04505
2.232,0.03877
2.236,0.04843
2.24,0.054
2.244,0.00354
2.248,0.04035
2.252,0.10803
2.256,0.06373
2.26,-0.01578
2.264,0.0862
2.268,0.03865
2.272,0.0301
2.276,0.03328
2.28,0.02443
2.284,0.0035
2.288,0.01549
2.292,0.04259
2.296,0.01848
2.3,0.06127
2.304,-0.00029
2.308,-0.03086
2.312,0.09934
2.316,0.07285
2.32,0.14683
2.324,0.11622
2.328,0.08409
2.332,0.07867
2.336,0.08209
2.34,0.17227
2.344,0.10679
2.348,0.13793
2.352,0.17131
2.356,0.13633
2.36,0.19951
2.364,0.20244
2.368,0.2116
2.372,0.16463
2.376,0.21619
2.38,0.22335
2.384,0.22013
2.388,0.21956
2.392,0.236
2.396,0.22657
2.4,0.27767
2.404,0.27547
2.408,0.24534
2.412,0.27001
2.416,0.2992
2.42,0.24915
2.424,0.2384
2.428,0.18538
2.432,0.16598
2.436,0.18913
2.44,0.21528
2.444,0.0773
2.448,0.17661
2.452,0.20832
2.456,0.11963
2.46,0.09263
2.464,0.12076
2.468,0.10623
2.472,0.08375
2.476,0.1181
2.48,0.04287
2.484,0.05519
2.488,0.03351
2.492,0.07453
2.496,0.04808
2.5,0.0211
2.504,0.03797
2.508,0.01393
2.512,0.03009
2.516,0.01701
2.52,0.05104
2.524,0.1342
2.528,0.07311
2.532,0.03125
2.536,0.02312
2.54,0.06561
2.544,0.02611
2.548,0.03424
2.552,0.12447
2.556,-0.00447
2.56,0.07665
2.564,0.05798
2.568,0.13283
2.572,0.02835
2.576,0.02841
2.58,-0.00536
2.584,0.00074
2.588,0.02318
2.592,-0.01365
2.596,-0.00649
2.6,0.08681
2.604,-0.01897
2.608,0.06238
2.612,0.03012
2.616,0.022
2.62,0.02204
2.624,-0.02132
2.628,0.02962
2.632,-0.03265
2.636,0.05653
2.64,0.07046
2.644,0.03632
2.648,0.04742
2.652,0.02045
2.656,0.0758
2.66,0.05625
2.664,0.08846
2.668,0.09064
2.672,0.07131
2.676,0.09413
2.68,0.11474
2.684,0.14682
2.688,0.12425
2.692,0.17152
2.696,0.13421
2.7,0.12673
2.704,0.1115
2.708,0.04065
2.712,0.15105
2.716,0.1042
2.72,0.13207
2.724,0.16877
2.728,0.0921
2.732,0.04416
2.736,-0.03844
2.74,0.02664
2.744,0.0495
2.748,0.00614
2.752,-0.00219
2.756,0.01297
2.76,-0.04469
2.764,0.04389
2.768,0.03893
2.772,0.0342
2.776,0.00285
2.78,0.02825
2.784,0.0209
2.788,0.00459
2.792,-0.03528
2.796,0.05478
2.8,0.02096
2.804,0.03569
2.808,0.06573
2.812,-0.02923
2.816,-0.02449
2.82,-0.02392
2.824,-0.12695
2.828,-0.07556
2.832,0.02604
2.836,0.11673
2.84,0.25508
2.844,0.45096
2.848,0.66027
2.852,0.90076
2.856,1.08883
2.86,1.03488
2.864,0.89932
2.868,0.71704
2.872,0.54418
2.876,0.2764
2.88,0.10076
2.884,-0.0135
2.888,-0.12859
2.892,-0.16114
2.896,-0.13594
2.9,-0.06442
2.904,-0.05634
2.908,0.01598
2.912,0.05152
2.916,-0.01105
2.92,0.09967
2.924,-0.04758
2.928,0.01031
2.932,-0.00476
2.936,0.01781
2.94,0.07861
2.944,0.09605
2.948,0.09408
2.952,0.04894
2.956,-0.00351
2.96,0.05804
2.964,0.07834
2.968,0.00459
2.972,0.05459
2.976,-0.03891
2.98,0.03786
2.984,-0.01465
2.988,0.04969
2.992,0.05671
2.996,0.09265
3.0,0.0621
3.004,0.02056
3.008,-0.00793
3.012,-0.03385
3.016,0.04483
3.02,0.06563
3.024,-0.01447
3.028,0.05682
3.032,0.05619
3.036,0.0387
3.04,0.07045
3.044,0.07071
3.048,0.09145
3.052,0.03493
3.056,0.0315
3.06,0.12856
3.064,0.02721
3.068,0.06062
3.072,0.13281
3.076,0.11901
3.08,0.18007
3.084,0.07782
3.088,0.13025
3.092,0.1676
3.096,0.18599
3.1,0.20647
3.104,0.1868
3.108,0.24883
3.112,0.19781
3.116,0.2194
3.12,0.20228
3.124,0.18143
3.128,0.21025
3.132,0.26017
3.136,0.2097
3.14,0.2507
3.144,0.21562
3.148,0.23593
3.152,0.21018
3.156,0.23212
3.16,0.22447
3.164,0.16646
3.168,0.19523
3.172,0.204
3.176,0.1506
3.18,0.18308
3.184,0.1772
3.188,0.18858
3.192,0.07949
3.196,0.17023
3.2,0.07058
3.204,0.11671
3.208,0.10396
3.212,0.13203
3.216,0.07964
3.22,0.0779
3.224,0.06189
3.228,-0.02316
3.232,-0.02686
3.236,0.05928
3.24,0.03706
3.244,0.04091
3.248,0.02909
3.252,0.0558
3.256,-0.02185
3.26,-0.01158
3.264,0.05111
3.268,0.02461
3.272,0.02479
3.276,0.03293
3.28,0.04337
3.284,0.03102
3.288,0.05128
3.292,0.02549
3.296,0.00896
3.3,0.02713
3.304,0.04546
3.308,0.02481
3.312,0.00785
3.316,0.02052
3.32,0.0669
3.324,0.06342
3.328,0.07505
3.332,0.12971
3.336,0.03592
3.34,0.1371
3.344,0.14141
3.348,0.09015
3.352,0.16524
3.356,0.12851
3.36,0.1361
3.364,0.08222
3.368,0.06638
3.372,0.07078
3.376,0.04074
3.38,0.04401
3.384,0.04543
3.388,0.04301
3.392,0.02351
3.396,0.01002
3.4,0.05248
3.404,0.03652
3.408,-0.01592
3.412,-0.02678
3.416,0.03355
3.42,-0.03846
3.424,0.02864
3.428,0.04787
3.432,-0.05894
3.436,0.0743
3.44,0.03112
3.444,0.04052
3.448,-0.03835
3.452,-0.0026
3.456,0.03922
3.46,0.02957
3.464,-0.03117
3.468,0.01594
3.472,-0.08007
3.476,-0.08548
3.48,-0.09322
3.484,-0.01044
3.488,0.06746
3.492,0.23799
3.496,0.46834
3.5,0.62914
3.504,0.81399
3.508,1.00006
3.512,1.01315
3.516,0.97901
3.52,0.77565
3.524,0.54878
3.528,0.30071
3.532,0.0382
3.536,-0.02305
3.54,-0.17264
3.544,-0.16039
3.548,-0.17805
3.552,-0.10796
3.556,-0.02985
3.56,-0.01024
3.564,-0.00356
3.568,0.01786
3.572,0.02035
3.576,0.00671
3.58,-0.02402
3.584,0.01789
3.588,0.0307
3.592,0.01302
3.596,-0.02263
3.6,0.00292
3.604,-0.01823
3.608,0.02177
3.612,0.00723
3.616,0.01109
3.62,0.04544
3.624,-0.05042
3.628,0.00569
3.632,0.01022
3.636,0.03278
3.64,0.0155
3.644,0.04947
3.648,0.07692
3.652,0.05569
3.656,-0.03839
3.66,0.02948
3.664,0.02502
3.668,0.01429
3.672,0.02769
3.676,0.06077
3.68,0.05434
3.684,0.07134
3.688,0.00162
3.692,0.06794
3.696,-0.0178
3.7,0.05408
3.704,0.07146
3.708,0.05147
3.712,0.05531
3.716,0.07989
3.72,0.06561
3.724,0.05573
3.728,0.09691
3.732,0.19409
3.736,0.10796
3.74,0.12905
3.744,0.09273
3.748,0.1732
3.752,0.15168
3.756,0.16907
3.76,0.18301
3.764,0.21849
3.768,0.16071
3.772,0.19984
3.776,0.22335
3.78,0.21584
3.784,0.21972
3.788,0.26041
3.792,0.18198
3.796,0.26525
3.8,0.2611
3.804,0.16162
3.808,0.26361
3.812,0.20243
3.816,0.20279
3.82,0.20653
3.824,0.1912
3.828,0.15613
3.832,0.1643
3.836,0.07921
3.84,0.14546
3.844,0.10103
3.848,0.15923
3.852,0.09345
3.856,0.12656
3.86,0.10826
3.864,0.07677
3.868,0.01948
3.872,0.10052
3.876,0.09856
3.88,0.09874
3.884,0.06976
3.888,0.12
3.892,0.14251
3.896,0.02872
3.9,0.14126
3.904,0.09274
3.908,0.14492
3.912,0.10182
3.916,0.07673
3.92,0.12385
3.924,0.0392
3.928,0.08123
3.932,0.08488
3.936,0.02205
3.94,0.13692
3.944,0.01696
3.948,0.03209
3.952,0.02506
3.956,0.06621
3.96,-0.07894
3.964,0.02123
3.968,0.01947
3.972,0.03952
3.976,0.01993
3.98,-0.04685
3.984,-0.00736
3.988,0.00218
3.992,0.06679
3.996,-0.01048
4.0,-0.02286
4.004,0.00976
4.008,-0.02386
4.012,0.06013
4.016,0.06762
4.02,0.012
4.024,0.04186
4.028,-0.05226
4.032,-0.05891
4.036,-0.14659
4.04,-0.10555
4.044,-0.02001
4.048,0.12555
4.052,0.1957
4.056,0.47401
4.06,0.59768
4.064,0.91244
4.068,0.92307
4.072,1.02487
4.076,0.96616
4.08,0.7637
4.084,0.51459
4.088,0.37005
4.092,0.10067
4.096,-0.05579
4.1,-0.14405
4.104,-0.16363
4.108,-0.19986
4.112,-0.08066
4.116,-0.06181
4.12,-0.11484
4.124,0.00825
4.128,0.00943
4.132,-0.03002
4.136,0.04864
4.14,-0.01092
4.144,0.06639
4.148,-0.05517
4.152,0.01884
4.156,-0.00209
4.16,0.01508
4.164,-0.02777
4.168,0.03367
4.172,-0.0158
4.176,-0.02454
4.18,-0.00237
4.184,-0.03219
4.188,-0.01475
4.192,-0.11177
4.196,-0.00913
4.2,0.12944
4.204,-0.00029
4.208,-0.0124
4.212,0.02464
4.216,0.03367
4.22,0.00711
4.224,-0.02107
4.228,-0.0242
4.232,-0.06675
4.236,-0.0033
4.24,-0.01722
4.244,0.01834
4.248,0.03564
4.252,0.04181
4.256,0.02055
4.26,-0.04104
4.264,0.0564
4.268,0.08691
4.272,0.04829
4.276,0.10027
4.28,0.05827
4.284,0.11157
4.288,0.05266
4.292,0.08002
4.296,0.15244
4.3,0.13893
4.304,0.09737
4.308,0.10393
4.312,0.16278
4.316,0.13552
4.32,0.12228
4.324,0.17934
4.328,0.20775
4.332,0.21698
4.336,0.19421
4.34,0.23442
4.344,0.1827
4.348,0.24929
4.352,0.29453
4.356,0.25069
4.36,0.22801
4.364,0.20017
4.368,0.19126
4.372,0.14906
4.376,0.16751
4.38,0.16443
4.384,0.15307
4.388,0.11306
4.392,0.22007
4.396,0.13095
4.4,0.11298
4.404,0.09292
4.408,0.1213
4.412,0.1763
4.416,0.0756
4.42,0.02795
4.424,0.0308
4.428,0.06672
4.432,0.07569
4.436,0.07282
4.44,-0.00929
4.444,0.03607
4.448,0.06781
4.452,0.03573
4.456,-0.0048
4.46,0.05009
4.464,0.10004
4.468,0.04768
4.472,0.04378
4.476,-0.01143
4.48,0.02004
4.484,0.05663
4.488,-0.00893
4.492,0.01188
4.496,0.01572
4.5,0.05494
4.504,0.08171
4.508,0.13933
4.512,0.08882
4.516,0.06867
4.52,0.07723
4.524,0.0234
4.528,0.08871
4.532,0.07653
4.536,0.04844
4.54,0.06798
4.544,0.059
4.548,0.01693
4.552,-0.00089
4.556,0.03439
4.56,-6e-05
4.564,-0.02293
4.568,-0.03182
4.572,0.01285
4.576,0.00361
4.58,-0.0806
4.584,0.01659
4.588,0.05312
4.592,0.02915
4.596,-0.02619
4.6,0.01636
4.604,-0.0411
4.608,-0.06436
4.612,-0.08842
4.616,0.02954
4.62,-0.02059
4.624,-0.02252
4.628,0.01128
4.632,-0.09436
4.636,-0.06379
4.64,-0.12571
4.644,-0.09432
4.648,0.0295
4.652,0.11212
4.656,0.26873
4.66,0.58418
4.664,0.73062
4.668,0.91255
4.672,0.92101
4.676,0.92427
4.68,0.77227
4.684,0.61254
4.688,0.37969
4.692,0.21962
4.696,-0.03457
4.7,-0.12149
4.704,-0.14088
4.708,-0.12971
4.712,-0.14483
4.716,-0.03448
4.72,-0.06944
4.724,-0.04532
4.728,-0.03701
4.732,-0.02885
4.736,-0.06063
4.74,0.01846
4.744,-0.04258
4.748,-0.01383
4.752,-0.02839
4.756,0.0324
4.76,-0.03284
4.764,0.01161
4.768,-0.04989
4.772,-0.01703
4.776,-0.07026
4.78,-0.05103
4.784,-0.00201
4.788,-0.02388
4.792,0.00488
4.796,-0.05819
4.8,-0.02206
4.804,-0.04478
4.808,-0.0183
4.812,-0.01263
4.816,-0.02169
4.82,0.00632
4.824,0.03797
4.828,0.00758
4.832,-0.10073
4.836,-0.00695
4.84,0.00187
4.844,0.00559
4.848,-0.01323
4.852,0.02269
4.856,0.02838
4.86,0.01916
4.864,0.02572
4.868,-0.01758
4.872,-0.01119
4.876,0.06807
4.88,0.08794
4.884,0.07622
4.888,0.09976
4.892,0.07515
4.896,0.07881
4.9,0.09094
4.904,0.12828
4.908,0.11501
4.912,0.14123
4.916,0.14841
4.92,0.13696
4.924,0.16612
4.928,0.16253
4.932,0.15792
4.936,0.14475
4.94,0.21912
4.944,0.196
4.948,0.19387
4.952,0.25179
4.956,0.21955
4.96,0.20243
4.964,0.20702
4.968,0.16468
4.972,0.21464
4.976,0.15782
4.98,0.18565
4.984,0.12762
4.988,0.14903
4.992,0.1174
4.996,0.13652
5.0,0.13898
5.004,0.08186
5.008,0.15387
5.012,0.10131
5.016,0.12004
5.02,0.10028
5.024,0.0236
5.028,0.02492
5.032,0.00224
5.036,0.02286
5.04,-0.0318
5.044,0.01963
5.048,0.03733
5.052,-0.03132
5.056,-0.00807
5.06,-0.05263
5.064,-0.0551
5.068,0.02299
5.072,0.00781
5.076,0.00377
5.08,0.00829
5.084,-0.04456
5.088,0.02335
5.092,-0.07929
5.096,-0.01763
5.1,-0.0084
5.104,-0.05236
5.108,-0.04967
5.112,-0.05812
5.116,0.00432
5.12,-0.03094
5.124,-0.03273
5.128,-0.0559
5.132,-0.05639
5.136,-0.00987
5.14,-0.00318
5.144,-0.0127
5.148,-0.05809
5.152,-0.04652
5.156,-0.02311
5.16,-0.03413
5.164,0.03677
5.168,-0.00977
5.172,-0.07782
5.176,-0.02567
5.18,-0.00129
5.184,0.01021
5.188,0.01627
5.192,-0.06806
5.196,-0.08312
5.2,-0.01209
5.204,-0.0632
5.208,-0.02548
5.212,0.07995
5.216,0.02592
5.22,0.0265
5.224,0.03074
5.228,0.02713
5.232,0.00051
5.236,0.02066
5.24,0.00587
5.244,0.02056
5.248,0.00854
5.252,-0.0406
5.256,0.00628
5.26,-0.02756
5.264,0.03029
5.268,0.05358
5.272,0.07619
5.276,0.12573
5.28,0.03745
5.284,0.03965
5.288,0.07139
5.292,0.07035
5.296,0.08707
5.3,-0.00523
5.304,0.07644
5.308,0.03416
5.312,0.00833
5.316,-0.03957
5.32,-0.02586
5.324,-0.03196
5.328,0.04673
5.332,-0.00619
5.336,-0.04464
5.34,-0.02799
5.344,-0.024
5.348,-0.00988
5.352,-0.01853
5.356,-0.09164
5.36,-0.04874
5.364,-0.0898
5.368,-0.03972
5.372,-0.07081
5.376,-0.05678
5.38,-0.01348
5.384,0.00496
5.388,-0.00098
5.392,-0.04241
5.396,-0.02986
5.4,-0.06461
5.404,-0.12372
5.408,-0.11349
5.412,-0.16489
5.416,-0.14333
5.42,0.05135
5.424,0.15503
5.428,0.44268
5.432,0.59267
5.436,0.78306
5.44,0.92413
5.444,0.97657
5.448,0.86303
5.452,0.71897
5.456,0.50825
5.46,0.2898
5.464,0.02665
5.468,-0.13043
5.472,-0.17355
5.476,-0.15253
5.48,-0.15215
5.484,-0.19239
5.488,-0.11799
5.492,-0.09735
5.496,-0.0113
5.5,0.00157
5.504,-0.05795
5.508,-0.01096
5.512,-0.02387
5.516,0.00364
5.52,0.00113
5.524,-0.00602
5.528,-0.0897
5.532,0.00684
5.536,-0.06002
5.54,-0.0966
5.544,-0.00917
5.548,-0.09438
5.552,-0.0465
5.556,0.00503
5.56,-0.08901
5.564,-0.00426
5.568,-0.07365
5.572,-0.01559
5.576,-0.00631
5.58,-0.0125
5.584,-0.06143
5.588,-0.0113
5.592,0.00632
5.596,-0.00125
5.6,-0.09561
5.604,-0.01974
5.608,-0.02707
5.612,0.0581
5.616,-0.08097
5.62,-0.02078
5.624,-0.08202
5.628,-0.00157
5.632,-0.02388
5.636,0.03189
5.64,0.00168
5.644,-0.03322
5.648,0.03503
5.652,0.05209
5.656,0.00479
5.66,0.09106
5.664,0.0203
5.668,0.06783
5.672,0.10083
5.676,0.0935
5.68,0.12698
5.684,0.0688
5.688,0.06696
5.692,0.15786
5.696,0.2054
5.7,0.20987
5.704,0.1877
5.708,0.24658
5.712,0.20638
5.716,0.18698
5.72,0.1762
5.724,0.14436
5.728,0.22794
5.732,0.19865
5.736,0.142
5.74,0.21465
5.744,0.17763
5.748,0.1771
5.752,0.10527
5.756,0.13329
5.76,0.09853
5.764,0.12477
5.768,0.10293
5.772,0.05518
5.776,0.02321
5.78,0.07553
5.784,0.03882
5.788,0.0131
5.792,0.01845
5.796,-0.0034
5.8,0.06193
5.804,-0.01265
5.808,-0.0161
5.812,0.03855
5.816,-0.00843
5.82,-0.00167
5.824,-0.00949
5.828,-0.02044
5.832,-0.00934
5.836,0.03898
5.84,-0.02574
5.844,-0.0307
5.848,-0.07079
5.852,-0.08324
5.856,0.00013
5.86,0.03959
5.864,-0.05596
5.868,-0.03299
5.872,-0.02967
5.876,-0.03837
5.88,-0.00573
5.884,0.0506
5.888,0.04284
5.892,-0.0183
5.896,-0.01917
5.9,-0.01062
5.904,-0.03674
5.908,-0.00878
5.912,-0.03058
5.916,-0.0121
5.92,0.05149
5.924,-0.0595
5.928,-0.05394
5.932,-0.01307
5.936,0.00125
5.94,-0.04824
5.944,0.01656
5.948,-0.0281
5.952,-0.03883
5.956,-0.05844
5.96,-0.00792
5.964,0.02704
5.968,0.0066
5.972,-0.04085
5.976,-0.01167
5.98,-0.06743
5.984,-0.04542
5.988,-0.06977
5.992,0.0645
5.996,-0.08157
6.0,-0.01198
6.004,-0.07821
6.008,0.01344
6.012,-0.09588
6.016,0.01466
6.02,-0.06951
6.024,-0.09553
6.028,0.01117
6.032,-0.02034
6.036,-0.05127
6.04,-0.05764
6.044,0.03452
6.048,-0.01907
6.052,-0.09207
6.056,-0.0423
6.06,-0.03442
6.064,0.02689
6.068,0.05966
6.072,-0.05261
6.076,-0.01275
6.08,-0.07634
6.084,-0.01379
6.088,0.0079
6.092,-0.0351
6.096,-0.0368
6.1,0.01959
6.104,0.02626
6.108,-0.04663
6.112,-0.04368
6.116,-0.05196
6.12,-0.02502
6.124,-0.01236
6.128,-0.02025
6.132,-0.06577
6.136,-0.00606
6.14,-0.04659
6.144,-0.03359
6.148,-0.01035
6.152,0.01198
6.156,-0.08606
6.16,-0.02949
6.164,-0.0572
6.168,-0.01424
6.172,0.05813
6.176,-0.0612
6.18,-0.0546
6.184,-0.0186
6.188,-0.00291
6.192,0.01415
6.196,-0.02566
6.2,0.06848
6.204,-0.03241
6.208,0.00858
6.212,0.02103
6.216,0.03186
6.22,0.04607
6.224,0.01945
6.228,0.02759
6.232,0.0888
6.236,0.12066
6.24,0.08637
6.244,0.0318
6.248,0.08834
6.252,0.08206
6.256,0.06406
6.26,0.00144
6.264,0.04911
6.268,0.03408
6.272,-0.06595
6.276,-0.06856
6.28,0.01654
6.284,-0.10242
6.288,-0.06767
6.292,-0.0107
6.296,-0.0699
6.3,-0.04739
6.304,-0.06192
6.308,-0.04467
6.312,0.0265
6.316,-0.0016
6.32,-0.1148
6.324,-0.00623
6.328,0.02438
6.332,-0.04189
6.336,-0.04384
6.34,-0.05617
6.344,-0.03103
6.348,-0.08035
6.352,-0.11882
6.356,-0.13427
6.36,-0.14764
6.364,-0.10253
6.368,0.0059
6.372,0.18358
6.376,0.33468
6.38,0.51593
6.384,0.71469
6.388,0.91291
6.392,0.93529
6.396,0.92827
6.4,0.79203
6.404,0.55699
6.408,0.36435
6.412,0.10567
6.416,-0.04444
6.42,-0.13291
6.424,-0.21961
6.428,-0.23898
6.432,-0.20919
6.436,-0.08362
6.44,-0.08232
6.444,-0.0412
6.448,-0.01067
6.452,-0.03496
6.456,-0.02036
6.46,-0.02866
6.464,-0.00471
6.468,-0.01158
6.472,-0.04175
6.476,0.00069
6.48,-0.03435
6.484,-0.06698
6.488,-0.01777
6.492,-0.03008
6.496,-0.00095
6.5,-0.05319
6.504,-0.07011
6.508,-0.03971
6.512,-0.02697
6.516,-0.02951
6.52,-0.00777
6.524,0.01295
6.528,-0.04953
6.532,-0.0633
6.536,0.00441
6.54,-0.01768
6.544,-0.03106
6.548,-0.08877
6.552,-0.02015
6.556,-0.03327
6.56,-0.05518
6.564,-0.05546
6.568,0.07201
6.572,0.0097
6.576,-0.00244
6.58,0.00623
6.584,0.01725
6.588,-0.00695
6.592,0.05558
6.596,0.0348
6.6,0.0301
6.604,0.04817
6.608,0.01773
6.612,0.06965
6.616,0.04395
6.62,0.13674
6.624,0.08348
6.628,0.13533
6.632,0.14199
6.636,0.13918
6.64,0.15079
6.644,0.14084
6.648,0.13363
6.652,0.16353
6.656,0.25985
6.66,0.19332
6.664,0.17745
6.668,0.24207
6.672,0.17957
6.676,0.22085
6.68,0.16032
6.684,0.1901
6.688,0.18585
6.692,0.18415
6.696,0.22424
6.7,0.12267
6.704,0.12909
6.708,0.13413
6.712,0.13013
6.716,0.11991
6.72,0.08031
6.724,0.08164
6.728,0.08222
6.732,0.04321
6.736,0.07381
6.74,0.0236
6.744,0.07147
6.748,0.01742
6.752,0.07299
6.756,0.00524
6.76,0.05441
6.764,0.01878
6.768,0.0293
6.772,0.02438
6.776,0.01403
6.78,0.02021
6.784,0.05606
6.788,0.00783
6.792,-0.04384
6.796,-0.02797
6.8,-0.01391
6.804,-0.03522
6.808,-0.01635
6.812,0.01478
6.816,-0.02321
6.82,-0.01964
6.824,-0.05983
6.828,-0.03882
6.832,-0.06877
6.836,-0.05543
6.84,-0.01122
6.844,0.00955
6.848,-0.02202
6.852,-0.04613
6.856,-0.03856
6.86,0.00686
6.864,-0.03686
6.868,-0.01976
6.872,-0.06089
6.876,-0.0964
6.88,-0.03633
6.884,-0.00778
6.888,-0.05729
6.892,-0.03117
6.896,-0.06154
6.9,-0.03663
6.904,-0.04724
6.908,-0.01248
6.912,-0.03617
6.916,-0.07313
6.92,-0.05479
6.924,-0.03672
6.928,0.00015
6.932,0.01327
6.936,-0.01255
6.94,0.00156
6.944,-0.00924
6.948,-0.03735
6.952,-0.04108
6.956,-0.03675
6.96,-0.03359
6.964,-0.00502
6.968,0.02608
6.972,-0.0511
6.976,0.0424
6.98,0.02841
6.984,-0.00097
6.988,-0.00599
6.992,-0.01844
6.996,-0.0591
7.0,-0.02736
7.004,-1e-05
7.008,-0.09351
7.012,0.00817
7.016,-0.02401
7.02,-0.02873
7.024,-0.01513
7.028,0.00941
7.032,-0.03405
7.036,-0.02065
7.04,-0.01543
7.044,0.03307
7.048,0.00733
7.052,0.0279
7.056,0.0013
7.06,-0.00893
7.064,0.06106
7.068,-0.03679
7.072,-0.07825
7.076,-0.01818
7.08,-0.02182
7.084,-0.00505
7.088,0.00263
7.092,-0.06908
7.096,-0.0081
7.1,-0.00372
7.104,-0.06328
7.108,0.02864
7.112,-0.00142
7.116,-0.02175
7.12,0.05742
7.124,-0.03343
7.128,-0.00126
7.132,-0.00799
7.136,-0.06068
7.14,-0.03931
7.144,-0.05072
7.148,-0.03226
7.152,-0.0184
7.156,0.02624
7.16,0.01224
7.164,0.00241
7.168,-0.01109
7.172,0.08323
7.176,-0.01337
7.18,0.03361
7.184,0.0428
7.188,0.00562
7.192,-0.01472
7.196,0.05085
7.2,0.00673
7.204,-0.0063
7.208,0.06163
7.212,0.09406
7.216,0.06006
7.22,0.03484
7.224,0.13905
7.228,0.04684
7.232,0.10576
7.236,0.13604
7.24,0.09732
7.244,0.06371
7.248,0.04357
7.252,0.06235
7.256,0.09101
7.26,0.02109
7.264,0.0092
7.268,0.00226
7.272,0.01874
7.276,-0.04139
7.28,0.0288
7.284,0.02028
7.288,0.01045
7.292,0.04421
7.296,0.02046
7.3,-0.01178
7.304,-0.07885
7.308,-0.03793
7.312,-0.04999
7.316,0.04996
7.32,-0.00418
7.324,-0.04698
7.328,0.02082
7.332,0.03024
7.336,-0.02395
7.34,-0.02912
7.344,0.00941
7.348,-0.06883
7.352,-0.11423
7.356,-0.17296
7.36,-0.15982
7.364,-0.08597
7.368,-0.03366
7.372,0.19028
7.376,0.32767
7.38,0.54913
7.384,0.78557
7.388,0.90709
7.392,0.97708
7.396,0.95336
7.4,0.77994
7.404,0.63068
7.408,0.367
7.412,0.13665
7.416,0.02289
7.42,-0.14648
7.424,-0.22098
7.428,-0.12944
7.432,-0.15876
7.436,-0.05137
7.44,-0.03716
7.444,-0.02582
7.448,-0.01172
7.452,0.03639
7.456,0.06237
7.46,-0.00167
7.464,0.01023
7.468,0.01799
7.472,-0.01476
7.476,-0.03327
7.48,-0.05684
7.484,0.02219
7.488,-0.00763
7.492,0.00122
7.496,-0.07027
7.5,0.02574
7.504,-0.03361
7.508,-0.00233
7.512,-0.05991
7.516,0.01058
7.52,-0.03787
7.524,-0.0356
7.528,-0.01686
7.532,0.01409
7.536,0.02429
7.54,0.01008
7.544,-0.01183
7.548,0.01253
7.552,-0.00695
7.556,-0.00554
7.56,0.00622
7.564,-0.05905
7.568,-0.04778
7.572,0.0645
7.576,0.01264
7.58,0.02296
7.584,0.04494
7.588,0.03496
7.592,0.11729
7.596,0.0043
7.6,0.04877
7.604,0.00011
7.608,0.09832
7.612,0.07633
7.616,0.12764
7.62,0.11038
7.624,0.14941
7.628,0.10625
7.632,0.17688
7.636,0.13638
7.64,0.15096
7.644,0.13597
7.648,0.26306
7.652,0.18005
7.656,0.21783
7.66,0.20239
7.664,0.19867
7.668,0.23013
7.672,0.19078
7.676,0.24971
7.68,0.22226
7.684,0.25184
7.688,0.14626
7.692,0.19752
7.696,0.16516
7.7,0.18049
7.704,0.15615
7.708,0.16213
7.712,0.16917
7.716,0.20358
7.72,0.20133
7.724,0.10308
7.728,0.11059
7.732,0.12427
7.736,0.04041
7.74,0.05776
7.744,0.0686
7.748,0.06436
7.752,7e-05
7.756,0.04753
7.76,0.06513
7.764,0.03656
7.768,-0.01601
7.772,0.04198
7.776,-0.00801
7.78,0.02064
7.784,-0.00526
7.788,0.05394
7.792,0.06798
7.796,-0.00823
7.8,-0.0433
7.804,0.00978
7.808,0.03248
7.812,0.07039
7.816,0.02931
7.82,0.01942
7.824,0.05598
7.828,0.05874
7.832,0.06196
7.836,0.11829
7.84,0.05243
7.844,0.13448
7.848,0.11841
7.852,0.04991
7.856,0.09755
7.86,0.05595
7.864,0.03249
7.868,0.0421
7.872,0.0352
7.876,0.1006
7.88,0.05287
7.884,0.04129
7.888,0.03323
7.892,0.04392
7.896,-0.00184
7.9,0.04211
7.904,-0.07662
7.908,0.08675
7.912,0.03273
7.916,0.01193
7.92,0.05284
7.924,-0.00604
7.928,0.02493
7.932,0.00336
7.936,-0.00389
7.94,-0.01039
7.944,0.03325
7.948,0.01596
7.952,-0.01872
7.956,0.01561
7.96,-0.02367
7.964,-0.04638
7.968,-0.1351
7.972,-0.09037
7.976,-0.13717
7.98,-0.03598
7.984,0.1417
7.988,0.34314
7.992,0.54073
7.996,0.77779
8.0,0.94296
8.004,0.9627
8.008,0.96461
8.012,0.86109
8.016,0.66259
8.02,0.3976
8.024,0.16983
8.028,0.0421
8.032,-0.08775
8.036,-0.13644
8.04,-0.11785
8.044,-0.09858
8.048,-0.07939
8.052,-0.0089
8.056,0.01899
8.06,0.02967
8.064,0.04561
8.068,0.0416
8.072,0.09649
8.076,0.08605
8.08,0.06116
8.084,0.11421
8.088,0.11987
8.092,0.13711
8.096,0.14188
8.1,0.10412
8.104,0.09339
8.108,0.05764
8.112,0.17513
8.116,0.11932
8.12,0.07712
8.124,0.03429
8.128,0.08298
8.132,-0.02042
8.136,0.04432
8.14,0.03538
8.144,0.01412
8.148,0.01034
8.152,0.0503
8.156,-0.0367
8.16,-0.0259
8.164,0.05407
8.168,-0.00543
8.172,-0.01423
8.176,0.07442
8.18,0.01174
8.184,0.05109
8.188,0.00726
8.192,0.02696
8.196,0.05473
8.2,0.01742
8.204,0.06921
8.208,0.08111
8.212,0.01654
8.216,0.01137
8.22,-0.01466
8.224,0.00182
8.228,0.0538
8.232,0.22723
8.236,0.39053
8.24,0.55116
8.244,0.86153
8.248,0.99285
8.252,1.2388
8.256,1.17445
8.26,1.08867
8.264,0.97755
8.268,0.76372
8.272,0.55259
8.276,0.30185
8.28,0.25324
8.284,0.14718
8.288,0.06625
8.292,0.05027
8.296,0.14591
8.3,0.1365
8.304,0.24081
8.308,0.16295
8.312,0.16293
8.316,0.20262
8.32,0.19142
8.324,0.12922
8.328,0.17751
8.332,0.19388
8.336,0.13316
8.34,0.06556
8.344,0.15704
8.348,0.11653
8.352,0.08093
8.356,0.07439
8.36,0.05466
8.364,0.05553
8.368,0.08177
8.372,0.05915
8.376,0.02095
8.38,0.01616
8.384,0.04455
8.388,0.09558
8.392,-0.0159
8.396,0.09392
8.4,0.08202
8.404,0.0787
8.408,0.06223
8.412,0.05388
8.416,0.0338
8.42,0.00204
8.424,0.05286
8.428,0.04766
8.432,0.07043
8.436,0.06372
8.44,0.06136
8.444,0.01778
8.448,0.00344
8.452,0.02988
8.456,0.0586
8.46,0.06386
8.464,0.10695
8.468,0.11294
8.472,0.07386
8.476,0.11759
8.48,0.1232
8.484,0.1252
8.488,0.17002
8.492,0.15642
8.496,0.24295
8.5,0.15617
8.504,0.19036
8.508,0.21553
8.512,0.16625
8.516,0.19247
8.52,0.18674
8.524,0.20773
8.528,0.25704
8.532,0.19747
8.536,0.22347
8.54,0.24907
8.544,0.29893
8.548,0.22571
8.552,0.26085
8.556,0.15986
8.56,0.24526
8.564,0.2328
8.568,0.18794
8.572,0.23041
8.576,0.16335
8.58,0.13804
8.584,0.13511
8.588,0.13705
8.592,0.1336
8.596,0.12848
8.6,0.11179
8.604,0.09271
8.608,0.04656
8.612,0.05724
8.616,0.12417
8.62,0.04643
8.624,0.00261
8.628,0.07696
8.632,0.06319
8.636,0.01842
8.64,-0.0254
8.644,0.06724
8.648,0.07065
8.652,0.03836
8.656,0.01994
8.66,0.01389
8.664,0.05493
8.668,0.06435
8.672,0.07797
8.676,0.04479
8.68,0.02261
8.684,0.0069
8.688,0.00243
8.692,-0.00193
8.696,0.03133
8.7,0.0098
8.704,0.03443
8.708,-0.0222
8.712,0.03498
8.716,0.0694
8.72,0.08256
8.724,0.00968
8.728,0.00665
8.732,-0.01584
8.736,0.05106
8.74,0.05948
8.744,-0.00922
8.748,0.02413
8.752,0.05039
8.756,0.0351
8.76,0.04163
8.764,0.0827
8.768,0.0855
8.772,0.09397
8.776,0.02286
8.78,0.1296
8.784,0.17595
8.788,0.19952
8.792,0.12013
8.796,0.15969
8.8,0.14707
8.804,0.08732
8.808,0.10865
8.812,0.1569
8.816,0.12053
8.82,0.06136
8.824,0.105
8.828,0.0865
8.832,0.07038
8.836,0.0316
8.84,0.03027
8.844,0.0229
8.848,0.04274
8.852,0.09146
8.856,0.02585
8.86,0.01424
8.864,0.12175
8.868,0.06425
8.872,0.03041
8.876,-0.01471
8.88,0.05046
8.884,0.06193
8.888,0.02064
8.892,0.07912
8.896,0.04869
8.9,0.04237
8.904,0.0375
8.908,0.00109
8.912,-0.03002
8.916,-0.07185
8.92,-0.02413
8.924,-0.02302
8.928,-0.02764
8.932,0.11435
8.936,0.22358
8.94,0.42147
8.944,0.74217
8.948,0.97187
8.952,1.02156
8.956,1.01578
8.96,0.92833
8.964,0.77089
8.968,0.55443
8.972,0.3026
8.976,0.0729
8.98,-0.05578
8.984,-0.10673
8.988,-0.15296
8.992,-0.18784
8.996,-0.12003
9.0,-0.00906
9.004,-0.08417
9.008,0.03728
9.012,0.00596
9.016,-0.01
9.02,0.0234
9.024,0.02617
9.028,0.01768
9.032,0.00799
9.036,0.05407
9.04,0.05914
9.044,0.05575
9.048,0.09553
9.052,0.04907
9.056,0.04451
9.06,0.01254
9.064,0.03598
9.068,-0.00203
9.072,0.04175
9.076,0.04024
9.08,0.09078
9.084,0.09516
9.088,-0.00107
9.092,-0.01492
9.096,0.00567
9.1,0.06313
9.104,0.0119
9.108,0.0236
9.112,0.00253
9.116,-0.03303
9.12,0.04888
9.124,-0.02913
9.128,0.0582
9.132,0.05856
9.136,0.06548
9.14,0.03568
9.144,0.0077
9.148,0.09039
9.152,0.05395
9.156,0.05914
9.16,0.06003
9.164,0.05713
9.168,0.12814
9.172,0.16954
9.176,0.14325
9.18,0.15292
9.184,0.13226
9.188,0.21407
9.192,0.14045
9.196,0.23335
9.2,0.2707
9.204,0.159
9.208,0.22153
9.212,0.16774
9.216,0.25729
9.22,0.24267
9.224,0.23483
9.228,0.2222
9.232,0.22675
9.236,0.24484
9.24,0.19957
9.244,0.25078
9.248,0.24643
9.252,0.19259
9.256,0.24811
9.26,0.25753
9.264,0.15843
9.268,0.2222
9.272,0.13226
9.276,0.20414
9.28,0.19753
9.284,0.17739
9.288,0.18287
9.292,0.13455
9.296,0.12584
9.3,0.16388
9.304,0.06228
9.308,0.10098
9.312,0.14796
9.316,0.02277
9.32,0.00315
9.324,0.03324
9.328,0.08642
9.332,0.10633
9.336,0.12965
9.34,0.0568
9.344,0.05122
9.348,0.07419
9.352,0.07036
9.356,0.04054
9.36,0.07479
9.364,0.08422
9.368,0.13628
9.372,0.13421
9.376,0.13452
9.38,0.12664
9.384,0.18174
9.388,0.08361
9.392,0.04175
9.396,0.16671
9.4,0.118
9.404,0.07044
9.408,0.09032
9.412,0.1002
9.416,0.02886
9.42,0.06833
9.424,0.05898
9.428,0.09746
9.432,0.06667
9.436,0.06267
9.44,0.06083
9.444,-0.00242
9.448,-0.00773
9.452,0.04945
9.456,0.09024
9.46,0.04927
9.464,-0.0083
9.468,0.04788
9.472,0.064
9.476,0.00979
9.48,0.0436
9.484,0.04976
9.488,0.00276
9.492,0.04618
9.496,0.05124
9.5,-0.00266
9.504,-0.04988
9.508,-0.11303
9.512,-0.11361
9.516,-0.04899
9.52,-0.00787
9.524,0.23071
9.528,0.34655
9.532,0.58251
9.536,0.86452
9.54,0.8602
9.544,1.04456
9.548,1.02205
9.552,0.85884
9.556,0.63068
9.56,0.33073
9.564,0.11188
9.568,-0.02096
9.572,-0.06055
9.576,-0.10818
9.58,-0.1447
9.584,-0.04648
9.588,-0.0222
9.592,-0.04999
9.596,0.03961
9.6,0.04398
9.604,0.03436
9.608,0.028
9.612,0.01912
9.616,-0.01282
9.62,0.02882
9.624,0.01777
9.628,0.06557
9.632,-0.01663
9.636,0.01659
9.64,0.0433
9.644,0.01966
9.648,0.05621
9.652,0.07172
9.656,0.01908
9.66,-0.02748
9.664,0.03253
9.668,0.02796
9.672,0.01648
9.676,0.06661
9.68,-0.06024
9.684,0.06361
9.688,-0.02217
9.692,0.06161
9.696,0.0264
9.7,-0.01546
9.704,0.13684
9.708,0.04645
9.712,-0.02482
9.716,0.02543
9.72,0.01124
9.724,0.01935
9.728,0.0492
9.732,0.07724
9.736,0.04649
9.74,0.06182
9.744,0.13765
9.748,0.02448
9.752,0.06586
9.756,0.11096
9.76,0.09273
9.764,0.08977
9.768,0.17946
9.772,0.16061
9.776,0.13289
9.78,0.19406
9.784,0.19567
9.788,0.23629
9.792,0.18964
9.796,0.20058
9.8,0.22029
9.804,0.20767
9.808,0.18461
9.812,0.1989
9.816,0.24884
9.82,0.24853
9.824,0.29183
9.828,0.2582
9.832,0.26819
9.836,0.23881
9.84,0.23278
9.844,0.26753
9.848,0.17185
9.852,0.21148
9.856,0.22454
9.86,0.22381
9.864,0.19994
9.868,0.13303
9.872,0.20484
9.876,0.12844
9.88,0.13112
9.884,0.08016
9.888,0.0843
9.892,0.14592
9.896,0.10439
9.9,0.12201
9.904,0.05767
9.908,0.07865
9.912,0.03246
9.916,0.03918
9.92,0.02939
9.924,0.05297
9.928,0.02545
9.932,0.01848
9.936,0.0542
9.94,0.0588
9.944,-0.02399
9.948,0.01779
9.952,0.00431
9.956,0.04262
9.96,0.02515
9.964,0.02525
9.968,-0.02546
9.972,0.06014
9.976,-0.01151
9.98,0.02801
9.984,0.04407
9.988,0.05593
9.992,0.03297
9.996,0.06468
