t_seg,ecg_mV
0.0,0.01024
0.004,0.00823
0.008,0.0229
0.012,0.03888
0.016,0.06546
0.02,0.05203
0.024,0.02724
0.028,0.0845
0.032,0.00481
0.036,0.0091
0.04,-0.00512
0.044,0.07021
0.048,0.00042
0.052,0.04228
0.056,-0.03624
0.06,0.05171
0.064,0.01466
0.068,-0.02644
0.072,0.07681
0.076,-0.00085
0.08,0.04683
0.084,-0.02084
0.088,-0.07326
0.092,-0.05166
0.096,-0.14772
0.1,-0.04692
0.104,0.0803
0.108,0.32797
0.112,0.41998
0.116,0.62253
0.12,0.82774
0.124,0.98418
0.128,1.02046
0.132,0.94545
0.136,0.7849
0.14,0.48667
0.144,0.23236
0.148,0.07627
0.152,-0.01911
0.156,-0.13649
0.16,-0.14164
0.164,-0.0498
0.168,-0.09928
0.172,0.00853
0.176,0.0205
0.18,0.008
0.184,0.02826
0.188,-0.03148
0.192,-0.00294
0.196,-0.0416
0.2,0.04122
0.204,0.00693
0.208,0.08356
0.212,-0.02255
0.216,0.00034
0.22,-0.02929
0.224,-0.04238
0.228,0.01233
0.232,0.01718
0.236,0.03475
0.24,0.03524
0.244,-0.00226
0.248,-0.00068
0.252,-0.02751
0.256,0.10156
0.26,0.04921
0.264,-0.03571
0.268,-0.00722
0.272,0.0211
0.276,0.00238
0.28,0.04411
0.284,0.08071
0.288,-0.03001
0.292,0.01135
0.296,0.06291
0.3,0.0528
0.304,0.00517
0.308,0.05237
0.312,0.07337
0.316,0.04381
0.32,0.08638
0.324,0.05684
0.328,0.06877
0.332,0.07086
0.336,0.05919
0.34,0.11782
0.344,0.09807
0.348,0.14513
0.352,0.14609
0.356,0.08014
0.36,0.18102
0.364,0.17105
0.368,0.15332
0.372,0.17855
0.376,0.1977
0.38,0.21384
0.384,0.21973
0.388,0.19423
0.392,0.16471
0.396,0.19425
0.4,0.23384
0.404,0.29951
0.408,0.29279
0.412,0.24661
0.416,0.22859
0.42,0.22765
0.424,0.28418
0.428,0.25138
0.432,0.17942
0.436,0.23717
0.44,0.24121
0.444,0.13587
0.448,0.24877
0.452,0.17425
0.456,0.11703
0.46,0.15379
0.464,0.09466
0.468,0.11237
0.472,0.08381
0.476,0.06305
0.48,0.07686
0.484,0.08505
0.488,0.02674
0.492,0.08444
0.496,0.07177
0.5,0.01719
0.504,0.06778
0.508,0.05555
0.512,0.08208
0.516,0.1021
0.52,0.03656
0.524,0.069
0.528,0.0049
0.532,0.05222
0.536,-0.01831
0.54,0.01659
0.544,0.05617
0.548,0.04095
0.552,0.03702
0.556,0.00747
0.56,0.05472
0.564,0.06141
0.568,0.03417
0.572,0.04673
0.576,0.08318
0.58,0.04341
0.584,0.1137
0.588,-0.00545
0.592,0.02275
0.596,-0.03409
0.6,0.05864
0.604,0.06243
0.608,0.03801
0.612,0.0302
0.616,-0.00648
0.62,-0.04425
0.624,-0.02918
0.628,-0.00238
0.632,0.05574
0.636,0.03128
0.64,0.09062
0.644,0.03693
0.648,-0.00762
0.652,0.03929
0.656,0.01515
0.66,0.01577
0.664,0.05638
0.668,0.0775
0.672,0.01027
0.676,0.01454
0.68,0.00779
0.684,0.0033
0.688,0.0143
0.692,0.02237
0.696,0.02122
0.7,0.0296
0.704,-0.0114
0.708,-0.03635
0.712,0.02029
0.716,0.06718
0.72,0.02762
0.724,0.00044
0.728,0.11873
0.732,0.10547
0.736,0.11833
0.74,0.2084
0.744,0.06775
0.748,0.10797
0.752,0.1341
0.756,0.12298
0.76,0.11119
0.764,0.10279
0.768,0.08267
0.772,0.08647
0.776,0.01422
0.78,0.07443
0.784,0.05328
0.788,0.03324
0.792,0.09485
0.796,0.01673
0.8,0.06107
0.804,0.01889
0.808,-0.00383
0.812,-0.03831
0.816,0.03039
0.82,0.03457
0.824,0.09802
0.828,0.02011
0.832,-0.01068
0.836,0.03923
0.84,0.00035
0.844,0.05607
0.848,-0.01291
0.852,0.03055
0.856,0.03851
0.86,0.01444
0.864,-0.01692
0.868,0.02018
0.872,-0.1242
0.876,-0.04537
0.88,0.00462
0.884,0.10098
0.888,0.19153
0.892,0.44119
0.896,0.6492
0.9,0.79713
0.904,0.95932
0.908,1.03523
0.912,0.95942
0.916,0.73351
0.92,0.57189
0.924,0.28017
0.928,0.15175
0.932,0.00279
0.936,-0.16709
0.94,-0.15145
0.944,-0.10308
0.948,-0.12075
0.952,0.00094
0.956,-0.03797
0.96,0.01176
0.964,-0.01352
0.968,0.02759
0.972,0.04217
0.976,-0.04203
0.98,-0.01585
0.984,0.04523
0.988,-0.02029
0.992,0.04529
0.996,0.03715
1.0,-0.01382
1.004,0.04928
1.008,0.065
1.012,0.01036
1.016,0.02987
1.02,0.04261
1.024,0.02399
1.028,0.0975
1.032,-0.00662
1.036,0.01957
1.04,0.02121
1.044,-0.02966
1.048,0.05708
1.052,0.0055
1.056,0.00855
1.06,0.08188
1.064,0.07375
1.068,0.04607
1.072,0.07694
1.076,0.05752
1.08,0.06482
1.084,0.04418
1.088,0.09528
1.092,0.00014
1.096,0.05465
1.1,0.02762
1.104,0.05587
1.108,0.09725
1.112,0.08465
1.116,0.09622
1.12,0.13459
1.124,0.12219
1.128,0.0676
1.132,0.10073
1.136,0.15549
1.14,0.18105
1.144,0.14082
1.148,0.19983
1.152,0.20604
1.156,0.21231
1.16,0.25142
1.164,0.2402
1.168,0.28735
1.172,0.19205
1.176,0.29012
1.18,0.23204
1.184,0.22022
1.188,0.19603
1.192,0.19003
1.196,0.27323
1.2,0.2089
1.204,0.23812
1.208,0.26062
1.212,0.19913
1.216,0.25425
1.22,0.18364
1.224,0.19218
1.228,0.18958
1.232,0.1691
1.236,0.14594
1.24,0.18481
1.244,0.12789
1.248,0.18618
1.252,0.13277
1.256,0.17062
1.26,0.19262
1.264,0.07287
1.268,0.16332
1.272,0.13582
1.276,0.20433
1.28,0.14106
1.284,0.19253
1.288,0.17634
1.292,0.19775
1.296,0.10341
1.3,0.06789
1.304,-0.02799
1.308,0.07514
1.312,0.01925
1.316,0.03158
1.32,0.06313
1.324,0.13833
1.328,-0.01346
1.332,0.00721
1.336,-0.06337
1.34,-0.00974
1.344,-0.00159
1.348,0.06667
1.352,0.00656
1.356,0.05408
1.36,0.06293
1.364,0.06463
1.368,-0.01264
1.372,0.01253
1.376,0.05736
1.38,-0.0099
1.384,0.05363
1.388,0.03029
1.392,-0.0203
1.396,-0.09517
1.4,-0.14279
1.404,-0.05782
1.408,-0.09136
1.412,0.08928
1.416,0.24525
1.42,0.44476
1.424,0.64179
1.428,0.84622
1.432,0.99106
1.436,1.07424
1.44,0.98832
1.444,0.78243
1.448,0.56364
1.452,0.34296
1.456,0.05103
1.46,0.02224
1.464,-0.10444
1.468,-0.19272
1.472,-0.10473
1.476,-0.05363
1.48,-0.08548
1.484,-0.00252
1.488,0.01322
1.492,-0.01321
1.496,0.00705
1.5,0.04334
1.504,0.06153
1.508,-0.00747
1.512,-0.00714
1.516,-0.06359
1.52,0.01942
1.524,0.04209
1.528,0.04004
1.532,0.01729
1.536,0.0281
1.54,0.05824
1.544,-0.02041
1.548,-0.00206
1.552,0.00636
1.556,0.02832
1.56,-0.03797
1.564,0.03488
1.568,0.03621
1.572,0.06207
1.576,0.03739
1.58,0.04417
1.584,0.03474
1.588,0.07253
1.592,0.06104
1.596,-0.02032
1.6,0.05459
1.604,-0.00703
1.608,-0.00926
1.612,0.02346
1.616,-0.00218
1.62,0.06988
1.624,0.03511
1.628,0.05191
1.632,0.07783
1.636,0.10124
1.64,0.10398
1.644,0.13168
1.648,0.14352
1.652,0.09813
1.656,0.13461
1.66,0.13599
1.664,0.13419
1.668,0.1097
1.672,0.21169
1.676,0.14815
1.68,0.21206
1.684,0.18925
1.688,0.20845
1.692,0.14691
1.696,0.21312
1.7,0.1611
1.704,0.23299
1.708,0.22663
1.712,0.24502
1.716,0.25672
1.72,0.27648
1.724,0.33053
1.728,0.17376
1.732,0.2121
1.736,0.20773
1.74,0.18794
1.744,0.19893
1.748,0.1745
1.752,0.15746
1.756,0.19656
1.76,0.18655
1.764,0.1488
1.768,0.13553
1.772,0.11452
1.776,0.03962
1.78,0.16985
1.784,0.12017
1.788,0.05145
1.792,0.05077
1.796,0.06244
1.8,0.08767
1.804,0.08184
1.808,0.03292
1.812,0.06304
1.816,0.09194
1.82,0.02817
1.824,0.07324
1.828,0.07597
1.832,-0.00519
1.836,0.00055
1.84,0.04898
1.844,-0.02326
1.848,0.00306
1.852,0.08765
1.856,0.02304
1.86,0.01616
1.864,0.02103
1.868,0.03665
1.872,0.08002
1.876,0.0574
1.88,0.0283
1.884,0.052
1.888,0.0573
1.892,0.02437
1.896,0.0553
1.9,0.0901
1.904,-0.01625
1.908,0.00464
1.912,0.12379
1.916,0.06653
1.92,0.07204
1.924,0.15101
1.928,0.10683
1.932,0.04394
1.936,0.12831
1.94,0.12113
1.944,0.09518
1.948,0.08225
1.952,0.03334
1.956,0.10118
1.96,0.10286
1.964,0.08302
1.968,0.13442
1.972,0.0533
1.976,0.01478
1.98,-0.00342
1.984,0.08773
1.988,0.06307
1.992,0.07784
1.996,-0.02144
2.0,0.00368
2.004,0.06018
2.008,-0.01765
2.012,0.01691
2.016,0.01462
2.02,-0.02821
2.024,-0.00126
2.028,-0.04081
2.032,0.0205
2.036,0.05618
2.04,0.0152
2.044,0.01436
2.048,0.04786
2.052,0.03923
2.056,-0.05261
2.06,0.03461
2.064,-0.06234
2.068,-0.11883
2.072,-0.03573
2.076,0.12014
2.08,0.19719
2.084,0.40542
2.088,0.66494
2.092,0.88955
2.096,1.01584
2.1,0.99574
2.104,0.90582
2.108,0.69527
2.112,0.56139
2.116,0.28443
2.12,0.09785
2.124,-0.00857
2.128,-0.13919
2.132,-0.11836
2.136,-0.17388
2.14,-0.046
2.144,-0.05617
2.148,-0.01285
2.152,-0.05546
2.156,0.04178
2.16,0.05058
2.164,0.00162
2.168,-0.02097
2.172,0.01454
2.176,0.04763
2.18,0.02998
2.184,-0.01928
2.188,0.05462
2.192,0.02022
2.196,0.09647
2.2,0.0371
2.204,-0.02805
2.208,-0.00197
2.212,0.02663
2.216,0.03957
2.22,-0.02494
2.224,0.028
2.228,0.00812
2.232,0.08956
2.236,0.14557
2.24,-0.0445
2.244,0.09399
2.248,0.10533
2.252,0.0993
2.256,0.11807
2.26,0.13703
2.264,0.15653
2.268,0.08878
2.272,0.08429
2.276,0.14938
2.28,0.0578
2.284,0.10622
2.288,0.1241
2.292,0.14341
2.296,0.07559
2.3,0.06101
2.304,0.11758
2.308,0.06178
2.312,0.12288
2.316,0.1223
2.32,0.13828
2.324,0.15778
2.328,0.12288
2.332,0.11455
2.336,0.19345
2.34,0.17551
2.344,0.19432
2.348,0.20385
2.352,0.23609
2.356,0.22404
2.36,0.27946
2.364,0.24031
2.368,0.21333
2.372,0.25422
2.376,0.22891
2.38,0.27351
2.384,0.17551
2.388,0.15213
2.392,0.11961
2.396,0.08661
2.4,0.15924
2.404,0.28947
2.408,0.38718
2.412,0.57896
2.416,0.85958
2.42,0.97021
2.424,1.06514
2.428,1.12912
2.432,1.00215
2.436,0.87537
2.44,0.62966
2.444,0.36104
2.448,0.21589
2.452,0.01152
2.456,-0.05196
2.46,-0.09662
2.464,-0.08926
2.468,-0.10603
2.472,-0.06975
2.476,0.03365
2.48,0.05719
2.484,0.03225
2.488,0.03272
2.492,0.04114
2.496,0.05876
2.5,0.0183
2.504,-0.02297
2.508,0.00276
2.512,0.01702
2.516,0.08308
2.52,0.00357
2.524,-0.01223
2.528,-0.03676
2.532,0.04309
2.536,0.01209
2.54,0.03176
2.544,-0.00492
2.548,0.04591
2.552,0.05628
2.556,0.04477
2.56,-0.0629
2.564,0.00153
2.568,0.00913
2.572,0.02679
2.576,0.03231
2.58,-0.02087
2.584,0.02
2.588,0.02549
2.592,0.05888
2.596,-0.01066
2.6,-0.03193
2.604,0.02985
2.608,0.01784
2.612,0.03595
2.616,0.04073
2.62,0.008
2.624,-0.00362
2.628,0.00343
2.632,0.07064
2.636,0.15334
2.64,0.13438
2.644,0.04253
2.648,0.12075
2.652,0.04288
2.656,0.18615
2.66,0.17497
2.664,0.13692
2.668,0.19036
2.672,0.18761
2.676,0.14357
2.68,0.15355
2.684,0.19036
2.688,0.19817
2.692,0.28004
2.696,0.2124
2.7,0.2055
2.704,0.25539
2.708,0.24127
2.712,0.25969
2.716,0.20211
2.72,0.23451
2.724,0.22293
2.728,0.29545
2.732,0.2164
2.736,0.19948
2.74,0.20334
2.744,0.10917
2.748,0.17967
2.752,0.14386
2.756,0.12218
2.76,0.11725
2.764,0.0771
2.768,0.11553
2.772,0.10801
2.776,0.03393
2.78,0.03192
2.784,0.10827
2.788,0.07576
2.792,0.00879
2.796,0.02048
2.8,-0.02746
2.804,0.02091
2.808,-0.00822
2.812,0.01626
2.816,0.07733
2.82,0.03938
2.824,0.00915
2.828,-0.00049
2.832,-0.04742
2.836,0.03268
2.84,0.0475
2.844,0.08327
2.848,-0.00244
2.852,-0.01277
2.856,0.02667
2.86,0.00346
2.864,0.002
2.868,-0.0067
2.872,-0.02434
2.876,0.07336
2.88,-0.051
2.884,0.00667
2.888,0.02818
2.892,0.02297
2.896,-0.02916
2.9,-0.03642
2.904,0.02711
2.908,0.03252
2.912,0.0133
2.916,-0.02848
2.92,-0.004
2.924,-0.02914
2.928,-0.0173
2.932,0.02365
2.936,-0.02026
2.94,-0.02694
2.944,0.01963
2.948,-0.04388
2.952,0.00122
2.956,-0.01443
2.96,0.03044
2.964,0.00651
2.968,0.01086
2.972,0.01214
2.976,0.04059
2.98,0.01378
2.984,0.0145
2.988,-0.0083
2.992,0.00936
2.996,0.00647
3.0,0.04469
3.004,0.00726
3.008,0.00242
3.012,-0.04519
3.016,-0.03342
3.02,-0.0384
3.024,0.00859
3.028,0.04888
3.032,0.02793
3.036,0.07975
3.04,0.08861
3.044,0.05847
3.048,0.07678
3.052,0.1014
3.056,0.06737
3.06,0.11428
3.064,0.09067
3.068,0.11029
3.072,0.08392
3.076,0.1042
3.08,0.07839
3.084,0.04072
3.088,0.03502
3.092,0.04116
3.096,0.03619
3.1,0.01796
3.104,0.00654
3.108,0.02646
3.112,0.00247
3.116,0.03782
3.12,0.01364
3.124,0.01305
3.128,0.01939
3.132,-0.05299
3.136,-0.02632
3.14,0.03317
3.144,0.05162
3.148,-0.01053
3.152,-0.03518
3.156,-0.02207
3.16,0.0155
3.164,-0.0175
3.168,-0.0102
3.172,0.04471
3.176,-0.06395
3.18,-0.05354
3.184,-0.10212
3.188,-0.1448
3.192,-0.03977
3.196,0.13438
3.2,0.26733
3.204,0.42862
3.208,0.67244
3.212,0.80101
3.216,0.95286
3.22,1.02862
3.224,0.86743
3.228,0.76466
3.232,0.50105
3.236,0.29686
3.24,0.04834
3.244,-0.10574
3.248,-0.13345
3.252,-0.19942
3.256,-0.18248
3.26,-0.10799
3.264,-0.08212
3.268,-0.09749
3.272,0.02092
3.276,0.04053
3.28,-0.02532
3.284,-0.01721
3.288,-0.04541
3.292,-0.00386
3.296,0.00071
3.3,-0.00778
3.304,0.02837
3.308,0.00192
3.312,0.01522
3.316,-0.04594
3.32,-0.06138
3.324,-0.02032
3.328,0.00278
3.332,-0.00876
3.336,0.05001
3.34,0.03156
3.344,-0.05106
3.348,0.07844
3.352,0.06842
3.356,-0.05305
3.36,-0.12134
3.364,-0.03057
3.368,-0.05962
3.372,-0.02006
3.376,0.03885
3.38,0.02055
3.384,-0.04519
3.388,-0.03148
3.392,-0.06718
3.396,0.05784
3.4,-0.00611
3.404,-0.05277
3.408,0.04165
3.412,0.00186
3.416,0.01857
3.42,0.06598
3.424,0.03989
3.428,0.06113
3.432,0.10157
3.436,0.10757
3.44,0.13366
3.444,0.05773
3.448,0.05478
3.452,0.09405
3.456,0.16203
3.46,0.15262
3.464,0.1898
3.468,0.19129
3.472,0.20837
3.476,0.2045
3.48,0.31124
3.484,0.26737
3.488,0.27947
3.492,0.32178
3.496,0.24722
3.5,0.32261
3.504,0.27662
3.508,0.31617
3.512,0.23976
3.516,0.31752
3.52,0.26621
3.524,0.13101
3.528,0.16307
3.532,0.20517
3.536,0.1852
3.54,0.16465
3.544,0.09842
3.548,0.13663
3.552,0.15262
3.556,0.10397
3.56,0.01694
3.564,0.0805
3.568,0.03514
3.572,0.00983
3.576,0.03653
3.58,0.03456
3.584,0.04822
3.588,0.05436
3.592,0.02594
3.596,0.022
3.6,0.03254
3.604,0.00153
3.608,-0.04791
3.612,-0.1019
3.616,-0.01888
3.62,-0.01336
3.624,-0.08026
3.628,-0.16327
3.632,-0.14752
3.636,-0.07092
3.64,-0.00076
3.644,0.11792
3.648,0.33354
3.652,0.43372
3.656,0.5836
3.66,0.66613
3.664,0.61452
3.668,0.61375
3.672,0.49638
3.676,0.39122
3.68,0.1361
3.684,-0.05391
3.688,-0.13842
3.692,-0.21477
3.696,-0.17702
3.7,-0.12287
3.704,-0.08782
3.708,-0.10482
3.712,-0.05615
3.716,-0.04296
3.72,0.01692
3.724,-0.036
3.728,-0.08136
3.732,-0.07489
3.736,-0.04097
3.74,0.04848
3.744,-0.03861
3.748,-0.03775
3.752,0.00677
3.756,-0.04182
3.76,-0.03517
3.764,-0.03829
3.768,-0.01696
3.772,-0.00483
3.776,-0.01423
3.78,-0.03093
3.784,-0.04199
3.788,-0.03427
3.792,0.0086
3.796,-0.02312
3.8,-0.07159
3.804,0.0351
3.808,-0.04181
3.812,0.01699
3.816,-0.00593
3.82,-0.0375
3.824,-0.05426
3.828,0.03239
3.832,-0.00015
3.836,0.01648
3.84,-0.00489
3.844,0.01528
3.848,0.03027
3.852,-0.02259
3.856,-0.00237
3.86,-0.00536
3.864,0.01769
3.868,0.02539
3.872,0.02937
3.876,0.07696
3.88,0.05623
3.884,0.06366
3.888,0.01726
3.892,0.16257
3.896,0.09009
3.9,0.10597
3.904,0.11127
3.908,0.14904
3.912,0.06398
3.916,0.18501
3.92,0.21376
3.924,0.18352
3.928,0.10827
3.932,0.2354
3.936,0.23575
3.94,0.14939
3.944,0.16572
3.948,0.22124
3.952,0.24518
3.956,0.19205
3.96,0.19025
3.964,0.15418
3.968,0.14726
3.972,0.17633
3.976,0.19977
3.98,0.17009
3.984,0.07448
3.988,0.07624
3.992,0.06996
3.996,0.18014
4.0,0.05612
4.004,0.10157
4.008,0.06001
4.012,0.03037
4.016,0.03094
4.02,0.0115
4.024,0.03358
4.028,-0.02078
4.032,-0.00205
4.036,-0.02965
4.04,-0.00067
4.044,-0.0105
4.048,-0.02932
4.052,-0.0099
4.056,0.00665
4.06,-0.03726
4.064,-0.05723
4.068,-0.039
4.072,-0.04088
4.076,0.03027
4.08,-0.01626
4.084,-0.01657
4.088,-0.02767
4.092,-0.02472
4.096,-0.02539
4.1,0.01288
4.104,-0.14172
4.108,-0.02321
4.112,-0.06687
4.116,0.00562
4.12,-0.04
4.124,0.01116
4.128,-0.06563
4.132,-0.02229
4.136,-0.03218
4.14,-0.00597
4.144,-0.05996
4.148,-0.02242
4.152,-0.04157
4.156,-0.09994
4.16,-0.0453
4.164,-6e-05
4.168,-0.04752
4.172,-0.08642
4.176,-0.01049
4.18,-0.04936
4.184,0.00035
4.188,-0.0261
4.192,0.04803
4.196,-0.05606
4.2,0.0444
4.204,-0.05119
4.208,-0.06462
4.212,-0.02663
4.216,0.00077
4.22,-0.01495
4.224,-0.1116
4.228,0.02062
4.232,-0.01425
4.236,0.01211
4.24,-0.06246
4.244,-0.01554
4.248,-0.0269
4.252,0.00949
4.256,-0.00768
4.26,-0.01877
4.264,-0.03064
4.268,-0.04624
4.272,-0.0203
4.276,0.03321
4.28,0.05059
4.284,0.0779
4.288,0.02912
4.292,0.08348
4.296,0.04061
4.3,0.09523
4.304,0.09266
4.308,0.04889
4.312,0.05825
4.316,0.08593
4.32,0.02073
4.324,0.0484
4.328,-0.02319
4.332,0.04388
4.336,-0.01016
4.34,-0.03496
4.344,-0.04644
4.348,0.01972
4.352,-0.00473
4.356,-0.03776
4.36,0.04784
4.364,-0.02718
4.368,-0.08685
4.372,-0.03438
4.376,-0.07454
4.38,-0.00182
4.384,-0.04868
4.388,-0.14798
4.392,-0.05658
4.396,-0.05088
4.4,-0.02095
4.404,0.04164
4.408,-0.03731
4.412,0.00497
4.416,-0.11896
4.42,-0.05071
4.424,-0.073
4.428,-0.11761
4.432,-0.11514
4.436,-0.09788
4.44,0.04585
4.444,0.21777
4.448,0.49666
4.452,0.7315
4.456,0.89324
4.46,1.00431
4.464,0.95703
4.468,0.84105
4.472,0.60007
4.476,0.39389
4.48,0.19071
4.484,-0.02341
4.488,-0.05977
4.492,-0.20211
4.496,-0.21189
4.5,-0.27191
4.504,-0.1238
4.508,-0.11284
4.512,-0.08068
4.516,-0.07624
4.52,-0.11396
4.524,-0.03453
4.528,-0.03664
4.532,-0.04501
4.536,0.04808
4.54,0.02516
4.544,-0.04205
4.548,-0.04081
4.552,-0.02572
4.556,0.00547
4.56,-0.00241
4.564,0.01334
4.568,-0.11758
4.572,-0.04532
4.576,0.00305
4.58,-0.06545
4.584,-0.05569
4.588,-0.0785
4.592,-0.02668
4.596,-0.02985
4.6,-0.05023
4.604,-0.00637
4.608,-0.00257
4.612,-0.09163
4.616,0.01181
4.62,-0.02251
4.624,-0.00146
4.628,0.02923
4.632,-0.0031
4.636,-0.03497
4.64,0.07395
4.644,-0.00514
4.648,-0.0215
4.652,0.01215
4.656,-0.01602
4.66,0.06791
4.664,-0.04296
4.668,-0.0029
4.672,0.05963
4.676,0.02426
4.68,0.03073
4.684,0.07883
4.688,0.04765
4.692,0.22318
4.696,0.03059
4.7,0.12303
4.704,0.17266
4.708,0.14977
4.712,0.2076
4.716,0.14941
4.72,0.18495
4.724,0.18034
4.728,0.16675
4.732,0.15777
4.736,0.17348
4.74,0.20221
4.744,0.18097
4.748,0.19165
4.752,0.19089
4.756,0.08538
4.76,0.16594
4.764,0.19462
4.768,0.10363
4.772,0.13463
4.776,0.11697
4.78,0.11973
4.784,0.12773
4.788,0.14633
4.792,0.07064
4.796,0.10995
4.8,0.05583
4.804,0.03108
4.808,0.03393
4.812,0.06255
4.816,0.02418
4.82,-0.02164
4.824,0.05454
4.828,0.01427
4.832,0.0446
4.836,-0.00988
4.84,-0.05617
4.844,-0.02953
4.848,-0.01941
4.852,-0.04314
4.856,0.03019
4.86,-0.01899
4.864,-0.02025
4.868,-0.018
4.872,0.01814
4.876,0.00695
4.88,-0.05238
4.884,-0.02289
4.888,-0.01837
4.892,-0.02886
4.896,-0.04558
4.9,-0.06588
4.904,-0.06511
4.908,0.04012
4.912,0.01159
4.916,-0.0391
4.92,-0.02632
4.924,-0.10299
4.928,-0.05743
4.932,-0.03976
4.936,-0.00312
4.94,-0.03379
4.944,-0.00384
4.948,0.04045
4.952,-0.00938
4.956,-0.05273
4.96,-0.04087
4.964,-0.00684
4.968,0.01364
4.972,-0.08936
4.976,0.01649
4.98,0.01824
4.984,-0.0173
4.988,0.05073
4.992,-0.0167
4.996,0.0238
5.0,0.02856
5.004,0.01875
5.008,0.06062
5.012,0.08479
5.016,0.09244
5.02,0.06094
5.024,0.07639
5.028,0.02187
5.032,0.05136
5.036,0.02712
5.04,0.1228
5.044,0.01458
5.048,-0.02695
5.052,0.07801
5.056,-0.00072
5.06,-0.01223
5.064,-0.01619
5.068,-0.02542
5.072,-0.03952
5.076,0.00737
5.08,-0.00572
5.084,-0.05632
5.088,-0.06458
5.092,0.03405
5.096,-0.00911
5.1,0.05334
5.104,-0.01586
5.108,-0.02141
5.112,-0.00224
5.116,0.03542
5.12,-0.01458
5.124,-0.02402
5.128,-0.0277
5.132,0.01058
5.136,0.06578
5.14,-0.09546
5.144,-0.06495
5.148,-0.11706
5.152,-0.17022
5.156,-0.12331
5.16,-0.05183
5.164,0.09307
5.168,0.2755
5.172,0.44833
5.176,0.69789
5.18,0.82598
5.184,0.89135
5.188,0.9543
5.192,0.83594
5.196,0.61628
5.2,0.42785
5.204,0.25115
5.208,-0.02118
5.212,-0.1437
5.216,-0.14579
5.22,-0.1998
5.224,-0.1444
5.228,-0.0986
5.232,-0.05961
5.236,-0.04109
5.24,-0.05433
5.244,0.06971
5.248,-0.05083
5.252,0.01389
5.256,0.02065
5.26,-0.02788
5.264,0.02631
5.268,-0.0089
5.272,0.00055
5.276,0.00775
5.28,-0.07037
5.284,-0.08923
5.288,-0.03784
5.292,0.00349
5.296,0.02262
5.3,-0.06186
5.304,-0.03599
5.308,-0.0428
5.312,-0.01814
5.316,-0.01241
5.32,0.02202
5.324,-0.07152
5.328,-0.05989
5.332,0.02133
5.336,-0.00607
5.34,-0.00541
5.344,-0.00401
5.348,-0.01022
5.352,0.0167
5.356,-0.04185
5.36,-0.05347
5.364,-0.00481
5.368,-0.00605
5.372,0.01533
5.376,0.02776
5.38,-0.02565
5.384,0.04268
5.388,-0.00092
5.392,0.02669
5.396,0.03379
5.4,0.13196
5.404,0.02555
5.408,0.09305
5.412,0.09315
5.416,0.13049
5.42,0.1283
5.424,0.18505
5.428,0.12254
5.432,0.21507
5.436,0.19951
5.44,0.20003
5.444,0.1102
5.448,0.11125
5.452,0.23924
5.456,0.22199
5.46,0.13758
5.464,0.24373
5.468,0.1691
5.472,0.2222
5.476,0.24555
5.48,0.1931
5.484,0.2116
5.488,0.11388
5.492,0.15675
5.496,0.17766
5.5,0.05952
5.504,0.09926
5.508,0.16412
5.512,0.13654
5.516,0.10228
5.52,0.01127
5.524,0.06282
5.528,0.0402
5.532,0.04914
5.536,0.00053
5.54,0.08369
5.544,0.02235
5.548,0.0379
5.552,0.02997
5.556,0.03134
5.56,-0.02911
5.564,-0.01797
5.568,0.02688
5.572,0.00221
5.576,0.00037
5.58,-0.01561
5.584,0.03323
5.588,0.05623
5.592,-0.0621
5.596,0.019
5.6,-0.01246
5.604,-0.02956
5.608,0.03245
5.612,-0.01973
5.616,0.02532
5.62,-0.00604
5.624,-0.01396
5.628,-0.0487
5.632,0.00365
5.636,0.0305
5.64,-0.04496
5.644,-0.04988
5.648,0.02042
5.652,-0.01292
5.656,0.00239
5.66,-0.00932
5.664,-0.0828
5.668,-0.02929
5.672,-0.05972
5.676,-0.03134
5.68,-0.05801
5.684,0.00234
5.688,-0.079
5.692,0.01755
5.696,-0.01851
5.7,-0.00815
5.704,0.03
5.708,-0.0366
5.712,-0.04633
5.716,-0.00513
5.72,0.00457
5.724,0.02822
5.728,-0.00143
5.732,-0.02306
5.736,-0.06268
5.74,0.01258
5.744,-0.01562
5.748,-0.03732
5.752,0.0486
5.756,-0.0655
5.76,-0.03966
5.764,0.00544
5.768,0.00673
5.772,0.02437
5.776,-0.01128
5.78,0.02144
5.784,-0.02517
5.788,0.00297
5.792,-0.04559
5.796,0.0004
5.8,-0.03908
5.804,-0.02582
5.808,-0.00338
5.812,-0.08119
5.816,-0.04722
5.82,-0.06893
5.824,0.00054
5.828,0.01861
5.832,0.00658
5.836,-0.04872
5.84,0.00646
5.844,-0.07188
5.848,0.06593
5.852,-0.02196
5.856,-0.06157
5.86,-0.0654
5.864,0.06812
5.868,-0.04971
5.872,0.00745
5.876,-0.04853
5.88,-0.02607
5.884,-0.06288
5.888,0.03756
5.892,-0.00549
5.896,-0.01407
5.9,0.06353
5.904,-0.01127
5.908,0.01611
5.912,-0.06508
5.916,-0.03428
5.92,0.03502
5.924,0.02099
5.928,-0.01386
5.932,-0.03779
5.936,-0.01583
5.94,-0.03264
5.944,0.05189
5.948,0.01155
5.952,-0.03574
5.956,-0.08381
5.96,-0.02398
5.964,-0.00734
5.968,-0.00385
5.972,-0.06714
5.976,0.01117
5.98,0.00251
5.984,0.04624
5.988,0.02351
5.992,0.02656
5.996,0.00281
6.0,0.00774
6.004,0.02095
6.008,0.03606
6.012,0.00712
6.016,0.03338
6.02,-0.08446
6.024,-0.00748
6.028,-0.00016
6.032,-0.00117
6.036,0.00326
6.04,-0.02808
6.044,-0.0369
6.048,0.04007
6.052,-0.00115
6.056,-0.03378
6.06,-0.00257
6.064,-0.02583
6.068,-0.0262
6.072,-0.0069
6.076,0.03604
6.08,0.02522
6.084,0.01201
6.088,0.04298
6.092,0.03092
6.096,0.14792
6.1,0.02419
6.104,0.08814
6.108,0.11867
6.112,0.03915
6.116,0.05942
6.12,0.1527
6.124,0.07579
6.128,0.02565
6.132,0.00609
6.136,0.00757
6.14,0.01272
6.144,0.00978
6.148,0.01107
6.152,0.07937
6.156,-0.02891
6.16,0.03921
6.164,-0.04722
6.168,-0.03095
6.172,-0.0189
6.176,-0.00992
6.18,0.00165
6.184,-0.05288
6.188,0.01037
6.192,0.02086
6.196,-0.01002
6.2,0.02314
6.204,0.01917
6.208,-0.03365
6.212,0.00388
6.216,0.07523
6.22,-0.0235
6.224,-0.01574
6.228,-0.07509
6.232,-0.13092
6.236,-0.06972
6.24,-0.02673
6.244,0.0369
6.248,0.25715
6.252,0.47585
6.256,0.6638
6.26,0.93775
6.264,1.02267
6.268,1.03558
6.272,1.00091
6.276,0.73756
6.28,0.51781
6.284,0.3096
6.288,0.07588
6.292,-0.05164
6.296,-0.15157
6.3,-0.21513
6.304,-0.18139
6.308,-0.06424
6.312,-0.06029
6.316,-0.07132
6.32,0.0091
6.324,0.00049
6.328,0.02035
6.332,-0.01029
6.336,-0.02149
6.34,0.00571
6.344,0.07913
6.348,0.00203
6.352,0.039
6.356,0.05296
6.36,-0.01714
6.364,0.02569
6.368,-0.02429
6.372,0.0751
6.376,0.01737
6.38,0.01476
6.384,0.02712
6.388,-0.03404
6.392,0.06658
6.396,0.07854
6.4,-0.01888
6.404,-0.023
6.408,0.0161
6.412,-0.00296
6.416,0.03213
6.42,0.01298
6.424,0.0049
6.428,-0.00126
6.432,-0.07827
6.436,0.02947
6.44,0.05388
6.444,0.00575
6.448,0.01092
6.452,0.05742
6.456,0.02159
6.46,0.02779
6.464,0.02392
6.468,0.05618
6.472,0.01705
6.476,0.09854
6.48,0.1056
6.484,0.11274
6.488,0.04673
6.492,0.10881
6.496,0.10357
6.5,0.16381
6.504,0.12737
6.508,0.12377
6.512,0.1818
6.516,0.19675
6.52,0.22763
6.524,0.23845
6.528,0.22841
6.532,0.26037
6.536,0.31507
6.54,0.29811
6.544,0.32863
6.548,0.28678
6.552,0.29766
6.556,0.38079
6.56,0.24885
6.564,0.29196
6.568,0.26735
6.572,0.28905
6.576,0.31279
6.58,0.24915
6.584,0.21044
6.588,0.15019
6.592,0.11153
6.596,0.16841
6.6,0.13416
6.604,0.14408
6.608,0.06751
6.612,0.08529
6.616,0.10351
6.62,0.07086
6.624,0.03626
6.628,0.12783
6.632,0.02577
6.636,0.06125
6.64,0.02257
6.644,0.03499
6.648,0.03983
6.652,0.08297
6.656,0.05865
6.66,0.019
6.664,0.03382
6.668,-0.00105
6.672,0.00164
6.676,-0.02203
6.68,-0.0362
6.684,-0.1518
6.688,-0.08963
6.692,-0.05083
6.696,0.06418
6.7,0.27452
6.704,0.46231
6.708,0.60524
6.712,0.85446
6.716,1.03317
6.72,0.99864
6.724,0.93541
6.728,0.76173
6.732,0.48017
6.736,0.24545
6.74,0.08374
6.744,0.00091
6.748,-0.15143
6.752,-0.13377
6.756,-0.13022
6.76,-0.07266
6.764,-0.04283
6.768,-0.08625
6.772,-0.04381
6.776,0.03266
6.78,-0.04889
6.784,0.01471
6.788,-0.00426
6.792,0.03197
6.796,-0.01717
6.8,-0.01313
6.804,0.0926
6.808,0.01458
6.812,-0.03999
6.816,0.01743
6.82,-0.04112
6.824,-0.00335
6.828,0.01446
6.832,-0.02046
6.836,0.00091
6.84,0.03992
6.844,-0.01008
6.848,-0.06847
6.852,0.02229
6.856,0.08341
6.86,0.07028
6.864,-0.0004
6.868,0.00169
6.872,0.03196
6.876,0.01634
6.88,0.03631
6.884,0.0335
6.888,0.01055
6.892,0.00787
6.896,0.06211
6.9,0.01445
6.904,0.09581
6.908,0.04896
6.912,0.10279
6.916,0.02832
6.92,0.07504
6.924,0.07055
6.928,0.0589
6.932,0.11042
6.936,0.11807
6.94,0.08461
6.944,0.18472
6.948,0.14383
6.952,0.14426
6.956,0.16643
6.96,0.19661
6.964,0.19556
6.968,0.16778
6.972,0.16269
6.976,0.25329
6.98,0.21616
6.984,0.15337
6.988,0.21336
6.992,0.18861
6.996,0.30605
7.0,0.23063
7.004,0.2189
7.008,0.25427
7.012,0.20698
7.016,0.23853
7.02,0.17812
7.024,0.28634
7.028,0.20588
7.032,0.16238
7.036,0.155
7.04,0.16777
7.044,0.17384
7.048,0.13242
7.052,0.07175
7.056,0.08431
7.06,0.06018
7.064,0.08295
7.068,0.07983
7.072,0.02176
7.076,0.06149
7.08,0.08874
7.084,0.0218
7.088,0.06837
7.092,0.11417
7.096,0.06471
7.1,0.00375
7.104,0.03696
7.108,0.02643
7.112,0.06152
7.116,0.06314
7.12,0.01312
7.124,0.06176
7.128,0.04637
7.132,0.02659
7.136,-0.01384
7.14,0.00519
7.144,0.02225
7.148,0.03
7.152,-0.04697
7.156,0.00978
7.16,0.05569
7.164,0.00431
7.168,-0.02164
7.172,0.09157
7.176,0.10552
7.18,-0.02146
7.184,0.00214
7.188,0.04905
7.192,-0.04599
7.196,0.01574
7.2,0.02827
7.204,-0.0255
7.208,0.03172
7.212,0.01092
7.216,0.01527
7.22,0.03171
7.224,-0.00263
7.228,0.07182
7.232,0.05817
7.236,-0.02253
7.24,0.06077
7.244,0.0856
7.248,-0.06558
7.252,0.01764
7.256,0.00998
7.26,0.02425
7.264,0.02082
7.268,0.0004
7.272,-0.00255
7.276,0.06287
7.28,0.03164
7.284,0.03679
7.288,0.02986
7.292,0.0577
7.296,-0.01179
7.3,0.06845
7.304,0.02045
7.308,0.0454
7.312,0.04804
7.316,-0.01195
7.32,0.00832
7.324,0.02089
7.328,-0.00248
7.332,0.05796
7.336,0.03382
7.34,-0.02092
7.344,0.06931
7.348,0.02622
7.352,0.04006
7.356,0.01992
7.36,0.08475
7.364,-0.01855
7.368,0.03154
7.372,0.02704
7.376,-0.00405
7.38,-0.0172
7.384,0.0366
7.388,-0.0008
7.392,0.00978
7.396,-0.00318
7.4,0.07338
7.404,0.03749
7.408,-0.01065
7.412,0.01992
7.416,0.01012
7.42,0.0033
7.424,0.0033
7.428,0.02217
7.432,0.08935
7.436,0.05586
7.44,-0.00154
7.444,0.07322
7.448,0.05738
7.452,0.03027
7.456,0.06473
7.46,0.11971
7.464,0.08364
7.468,0.1418
7.472,0.13319
7.476,0.08511
7.48,0.13405
7.484,0.09498
7.488,0.11373
7.492,0.12965
7.496,0.14062
7.5,0.11196
7.504,0.08104
7.508,0.06076
7.512,0.03843
7.516,0.08059
7.52,0.0577
7.524,0.04436
7.528,-0.00657
7.532,0.02918
7.536,0.04124
7.54,0.02975
7.544,0.03089
7.548,0.03074
7.552,-0.00987
7.556,0.03536
7.56,0.01388
7.564,0.03801
7.568,-0.02773
7.572,0.07465
7.576,0.04724
7.58,0.017
7.584,0.07517
7.588,0.01636
7.592,0.01647
7.596,-0.00114
7.6,0.03375
7.604,-0.03526
7.608,-0.03909
7.612,-0.12422
7.616,-0.10879
7.62,-0.04871
7.624,0.03357
7.628,0.29102
7.632,0.40649
7.636,0.54319
7.64,0.87183
7.644,0.96767
7.648,1.07016
7.652,1.02956
7.656,0.80658
7.66,0.52631
7.664,0.33962
7.668,0.1801
7.672,-0.01144
7.676,-0.12567
7.68,-0.1249
7.684,-0.125
7.688,-0.07731
7.692,-0.06187
7.696,0.0081
7.7,0.05458
7.704,0.04383
7.708,-0.04491
7.712,0.03149
7.716,-0.01265
7.72,0.05687
7.724,-0.00378
7.728,0.12178
7.732,0.0385
7.736,-0.0047
7.74,0.02317
7.744,-0.01976
7.748,0.01862
7.752,-0.018
7.756,-0.02335
7.76,0.02282
7.764,0.04615
7.768,0.06087
7.772,0.03258
7.776,-0.02409
7.78,0.00086
7.784,0.01443
7.788,0.02109
7.792,-0.02669
7.796,0.01666
7.8,0.08025
7.804,0.01451
7.808,-0.01184
7.812,0.00022
7.816,0.06249
7.82,0.06307
7.824,-0.01197
7.828,0.04351
7.832,0.06366
7.836,0.11215
7.84,0.05094
7.844,0.0509
7.848,0.04131
7.852,0.04336
7.856,0.10735
7.86,0.13981
7.864,0.14235
7.868,0.10206
7.872,0.10231
7.876,0.12808
7.88,0.1638
7.884,0.1477
7.888,0.16834
7.892,0.10853
7.896,0.202
7.9,0.2809
7.904,0.24189
7.908,0.25771
7.912,0.27988
7.916,0.20625
7.92,0.20562
7.924,0.23875
7.928,0.25318
7.932,0.23321
7.936,0.26188
7.94,0.22201
7.944,0.19681
7.948,0.23193
7.952,0.18045
7.956,0.26595
7.96,0.19891
7.964,0.14325
7.968,0.11526
7.972,0.13821
7.976,0.17007
7.98,0.06427
7.984,0.095
7.988,0.13765
7.992,0.14719
7.996,0.12587
8.0,0.10666
8.004,0.101
8.008,0.04491
8.012,0.09956
8.016,0.04071
8.02,0.09499
8.024,0.07682
8.028,0.08524
8.032,0.0525
8.036,0.01986
8.04,0.02268
8.044,0.10134
8.048,0.06287
8.052,0.07281
8.056,0.10354
8.06,0.07141
8.064,0.05155
8.068,0.17852
8.072,0.05748
8.076,0.18403
8.08,0.11208
8.084,0.14242
8.088,0.13907
8.092,0.1262
8.096,0.15483
8.1,0.14624
8.104,0.12596
8.108,0.09638
8.112,0.12217
8.116,0.0063
8.12,0.00919
8.124,0.05061
8.128,0.09577
8.132,0.03585
8.136,0.03924
8.14,0.03321
8.144,0.05632
8.148,-0.03243
8.152,-0.04967
8.156,-0.01467
8.16,-0.02963
8.164,0.05774
8.168,-0.0478
8.172,0.00381
8.176,0.05383
8.18,0.09762
8.184,-0.02197
8.188,0.04355
8.192,0.00705
8.196,-0.01143
8.2,0.04689
8.204,-0.01945
8.208,-0.05826
8.212,-0.01745
8.216,-0.11965
8.22,-0.08441
8.224,0.16977
8.228,0.36168
8.232,0.49208
8.236,0.73226
8.24,0.97066
8.244,0.97075
8.248,0.9408
8.252,0.85477
8.256,0.68671
8.26,0.423
8.264,0.19042
8.268,0.04337
8.272,-0.08357
8.276,-0.16857
8.28,-0.06938
8.284,-0.1138
8.288,-0.04111
8.292,-0.00015
8.296,-0.01069
8.3,0.02724
8.304,0.0594
8.308,0.02869
8.312,0.03531
8.316,0.02065
8.32,0.03598
8.324,0.04375
8.328,0.05468
8.332,0.08489
8.336,0.01897
8.34,0.0386
8.344,-0.03238
8.348,0.04557
8.352,0.03108
8.356,0.0392
8.36,1e-05
8.364,0.00594
8.368,-0.03279
8.372,0.03032
8.376,0.02584
8.38,0.05233
8.384,-0.00619
8.388,0.01322
8.392,0.04644
8.396,0.06217
8.4,0.0324
8.404,0.0902
8.408,0.12605
8.412,0.00649
8.416,0.0127
8.42,0.0756
8.424,0.03808
8.428,0.00281
8.432,0.04201
8.436,0.07036
8.44,0.12075
8.444,0.10733
8.448,0.05987
8.452,0.06676
8.456,0.04798
8.46,0.06109
8.464,0.11493
8.468,0.1266
8.472,0.12229
8.476,0.18626
8.48,0.113
8.484,0.15761
8.488,0.24624
8.492,0.23078
8.496,0.18688
8.5,0.14276
8.504,0.18955
8.508,0.2333
8.512,0.14247
8.516,0.19908
8.52,0.2293
8.524,0.20089
8.528,0.26053
8.532,0.27724
8.536,0.28296
8.54,0.26747
8.544,0.23763
8.548,0.26199
8.552,0.1988
8.556,0.2044
8.56,0.14855
8.564,0.17746
8.568,0.12781
8.572,0.16227
8.576,0.09157
8.58,0.17826
8.584,0.10028
8.588,0.13831
8.592,0.15645
8.596,0.02128
8.6,0.08896
8.604,0.11848
8.608,0.10726
8.612,0.05404
8.616,0.06968
8.62,0.02496
8.624,0.11063
8.628,0.01579
8.632,-0.00885
8.636,0.03018
8.64,0.0016
8.644,0.01374
8.648,0.04905
8.652,-0.03315
8.656,0.07957
8.66,-0.01932
8.664,0.01617
8.668,0.02908
8.672,0.01198
8.676,0.00413
8.68,0.03998
8.684,0.05901
8.688,-0.0167
8.692,0.08051
8.696,-0.0301
8.7,0.05067
8.704,0.01864
8.708,0.04211
8.712,-0.0045
8.716,-0.01207
8.72,0.01928
8.724,0.06462
8.728,0.03853
8.732,0.11185
8.736,0.08732
8.74,0.05279
8.744,0.02252
8.748,0.00565
8.752,0.04546
8.756,0.00893
8.76,0.06858
8.764,0.06585
8.768,-0.00698
8.772,0.00265
8.776,-0.02353
8.78,0.00875
8.784,0.03744
8.788,0.01131
8.792,0.04627
8.796,0.02081
8.8,0.01168
8.804,0.03494
8.808,-0.00166
8.812,0.00262
8.816,0.04809
8.82,0.00965
8.824,-0.00862
8.828,-0.02359
8.832,-0.01245
8.836,0.09043
8.84,0.03436
8.844,0.05469
8.848,-0.03552
8.852,-0.03712
8.856,-0.00373
8.86,0.02033
8.864,0.04282
8.868,0.06824
8.872,0.04775
8.876,0.10205
8.88,0.1007
8.884,0.09496
8.888,0.13345
8.892,0.08441
8.896,0.08755
8.9,0.11994
8.904,0.11864
8.908,0.14495
8.912,0.09472
8.916,0.09137
8.92,0.1134
8.924,0.0042
8.928,0.01223
8.932,0.0816
8.936,0.00167
8.94,0.02699
8.944,-0.00209
8.948,0.04507
8.952,0.07485
8.956,0.04964
8.96,0.03125
8.964,0.02406
8.968,0.03688
8.972,-0.00587
8.976,-0.01064
8.98,-0.07521
8.984,0.02558
8.988,0.05472
8.992,0.06678
8.996,-0.01019
9.0,-0.04627
9.004,0.02345
9.008,0.01936
9.012,0.07617
9.016,0.01339
9.02,-0.06656
9.024,-0.08184
9.028,-0.0793
9.032,-0.00562
9.036,0.12627
9.04,0.23422
9.044,0.51023
9.048,0.6786
9.052,0.93677
9.056,0.92698
9.06,1.01996
9.064,0.81121
9.068,0.73561
9.072,0.49293
9.076,0.1862
9.08,0.07594
9.084,-0.08467
9.088,-0.20574
9.092,-0.07933
9.096,-0.10866
9.1,-0.09803
9.104,-0.07269
9.108,-0.01515
9.112,0.00199
9.116,-0.01489
9.12,0.01046
9.124,0.02322
9.128,-0.01072
9.132,0.02563
9.136,0.083
9.14,0.08237
9.144,-0.02723
9.148,-0.00869
9.152,-0.00745
9.156,0.04794
9.16,-0.01463
9.164,0.05093
9.168,0.0017
9.172,0.07113
9.176,0.01424
9.18,-0.03324
9.184,-0.0198
9.188,0.0068
9.192,0.01657
9.196,-0.00037
9.2,0.08375
9.204,-0.03096
9.208,-0.01239
9.212,0.03239
9.216,0.02797
9.22,0.02203
9.224,-0.02693
9.228,0.02732
9.232,0.04056
9.236,0.0321
9.24,0.04969
9.244,0.02537
9.248,0.02214
9.252,0.00845
9.256,-0.00466
9.26,0.09397
9.264,0.0263
9.268,0.02747
9.272,0.08168
9.276,0.05725
9.28,0.06103
9.284,0.1495
9.288,0.15132
9.292,0.21171
9.296,0.18127
9.3,0.16135
9.304,0.18379
9.308,0.23985
9.312,0.17329
9.316,0.25119
9.32,0.31031
9.324,0.31911
9.328,0.31826
9.332,0.33067
9.336,0.37333
9.34,0.38637
9.344,0.33059
9.348,0.26759
9.352,0.29067
9.356,0.25774
9.36,0.28606
9.364,0.2251
9.368,0.22513
9.372,0.19454
9.376,0.2379
9.38,0.17249
9.384,0.13611
9.388,0.11886
9.392,0.14693
9.396,0.08119
9.4,0.09725
9.404,0.0846
9.408,0.07956
9.412,0.06137
9.416,0.07476
9.42,0.08479
9.424,0.03774
9.428,0.05374
9.432,0.02024
9.436,0.02361
9.44,0.07005
9.444,0.03172
9.448,-0.05055
9.452,0.07336
9.456,-0.04796
9.46,-0.10647
9.464,-0.07396
9.468,-0.12714
9.472,-0.09711
9.476,0.06115
9.48,0.18108
9.484,0.33591
9.488,0.63877
9.492,0.74029
9.496,0.8904
9.5,0.98245
9.504,0.97419
9.508,0.81324
9.512,0.57817
9.516,0.40727
9.52,0.12085
9.524,0.07399
9.528,-0.16613
9.532,-0.09335
9.536,-0.11675
9.54,-0.09825
9.544,-0.07213
9.548,-0.10735
9.552,-0.04774
9.556,-0.01138
9.56,0.01082
9.564,0.06726
9.568,0.04838
9.572,0.00407
9.576,0.04257
9.58,0.01569
9.584,0.04962
9.588,0.04957
9.592,-0.01996
9.596,0.0123
9.6,-0.02677
9.604,-0.02671
9.608,-0.0457
9.612,-0.02052
9.616,0.01859
9.62,-0.04635
9.624,0.01458
9.628,-0.0313
9.632,4e-05
9.636,-0.01968
9.64,0.02374
9.644,-0.00285
9.648,0.00354
9.652,0.06841
9.656,0.00237
9.66,0.04869
9.664,-0.0284
9.668,0.00704
9.672,0.02883
9.676,0.02278
9.68,0.01919
9.684,0.06602
9.688,0.04538
9.692,0.04607
9.696,0.04941
9.7,0.03651
9.704,0.08457
9.708,-0.01687
9.712,0.05157
9.716,0.10111
9.72,0.03293
9.724,0.08254
9.728,0.09235
9.732,0.09765
9.736,0.13521
9.74,0.12186
9.744,0.18149
9.748,0.10342
9.752,0.16187
9.756,0.25651
9.76,0.23573
9.764,0.14018
9.768,0.15768
9.772,0.17662
9.776,0.31846
9.78,0.23837
9.784,0.18919
9.788,0.16685
9.792,0.22727
9.796,0.17804
9.8,0.21748
9.804,0.16842
9.808,0.1491
9.812,0.13382
9.816,0.16645
9.82,0.12868
9.824,0.21569
9.828,0.1335
9.832,0.10751
9.836,0.08409
9.84,0.10044
9.844,0.0452
9.848,0.04531
9.852,0.04105
9.856,0.01104
9.86,0.05398
9.864,0.0636
9.868,-0.01558
9.872,0.02576
9.876,-0.04749
9.88,0.04372
9.884,0.04136
9.888,0.00837
9.892,0.04586
9.896,-0.07248
9.9,-0.03866
9.904,-0.06426
9.908,0.02369
9.912,-0.0387
9.916,-0.05331
9.92,0.05017
9.924,0.03846
9.928,-0.01664
9.932,-0.06288
9.936,0.05239
9.94,-0.04777
9.944,0.00437
9.948,0.01634
9.952,0.00678
9.956,-0.01703
9.96,-0.10249
9.964,-0.07873
9.968,0.02719
9.972,-0.05656
9.976,0.01227
9.98,-0.00265
9.984,-0.04097
9.988,0.00054
9.992,-0.04597
9.996,0.0299
