t_seg,ecg_mV
0.0,-0.02812
0.004,-0.00018
0.008,0.00523
0.012,-0.01598
0.016,0.02068
0.02,-0.00312
0.024,0.0098
0.028,0.00234
0.032,0.01037
0.036,0.01113
0.04,-0.01003
0.044,0.01659
0.048,-0.00934
0.052,0.0068
0.056,0.00176
0.06,-0.05217
0.064,-0.01492
0.068,-0.01881
0.072,-0.00799
0.076,0.00275
0.08,-0.00334
0.084,-0.00622
0.088,0.00672
0.092,0.01194
0.096,-0.01194
0.1,-0.00399
0.104,0.0186
0.108,-0.01823
0.112,0.0107
0.116,-0.0222
0.12,-0.02675
0.124,0.00739
0.128,0.00915
0.132,-0.00247
0.136,0.01401
0.14,0.01868
0.144,-0.02929
0.148,-0.00821
0.152,0.02294
0.156,0.02729
0.16,-0.01303
0.164,0.01319
0.168,-0.00033
0.172,-0.01492
0.176,-0.00398
0.18,-0.03189
0.184,0.01166
0.188,-0.00245
0.192,0.00725
0.196,-0.01554
0.2,0.02021
0.204,0.02736
0.208,-0.01787
0.212,-0.00593
0.216,0.0025
0.22,-0.00614
0.224,0.00117
0.228,-0.01836
0.232,0.02819
0.236,0.00094
0.24,-0.00237
0.244,0.00891
0.248,-0.00826
0.252,0.0181
0.256,0.00199
0.26,-0.02006
0.264,0.0022
0.268,-0.00737
0.272,0.04591
0.276,0.0359
0.28,0.04752
0.284,0.08372
0.288,0.08945
0.292,0.07897
0.296,0.0851
0.3,0.092
0.304,0.06755
0.308,0.09335
0.312,0.05148
0.316,0.08956
0.32,0.07089
0.324,0.04041
0.328,0.03879
0.332,-0.00571
0.336,-0.01422
0.34,0.00608
0.344,0.02806
0.348,-0.0073
0.352,0.00514
0.356,0.01701
0.36,-0.01566
0.364,-0.02211
0.368,-0.01925
0.372,-0.01721
0.376,0.01611
0.38,-0.00204
0.384,-0.01305
0.388,-0.01128
0.392,-0.0113
0.396,0.00596
0.4,-0.03126
0.404,-0.00856
0.408,-0.01093
0.412,-0.02381
0.416,-0.04939
0.42,-0.06212
0.424,-0.08996
0.428,-0.11809
0.432,-0.07269
0.436,0.04077
0.44,0.19344
0.444,0.41253
0.448,0.6193
0.452,0.8277
0.456,0.95035
0.46,0.98281
0.464,0.918
0.468,0.71198
0.472,0.51743
0.476,0.273
0.48,0.07701
0.484,-0.04639
0.488,-0.14445
0.492,-0.16308
0.496,-0.14315
0.5,-0.11524
0.504,-0.09305
0.508,-0.07202
0.512,-0.0307
0.516,-0.02003
0.52,-0.02412
0.524,-0.01933
0.528,0.01426
0.532,-0.00271
0.536,-0.00256
0.54,-0.02344
0.544,-0.0326
0.548,-0.01435
0.552,-0.03716
0.556,-0.01177
0.56,-0.0125
0.564,-0.00235
0.568,-0.02639
0.572,-0.02922
0.576,-0.01547
0.58,-0.00885
0.584,-0.01799
0.588,0.01561
0.592,-0.02362
0.596,-0.02026
0.6,-0.0095
0.604,-0.02539
0.608,-0.01368
0.612,0.0003
0.616,-0.00766
0.62,0.00579
0.624,-0.01071
0.628,0.0011
0.632,-0.02568
0.636,0.02039
0.64,0.01922
0.644,0.02885
0.648,0.00535
0.652,0.00663
0.656,0.017
0.66,0.03372
0.664,0.03228
0.668,0.04679
0.672,0.04849
0.676,0.05674
0.68,0.08304
0.684,0.11551
0.688,0.09912
0.692,0.09688
0.696,0.11275
0.7,0.13376
0.704,0.14127
0.708,0.17492
0.712,0.16702
0.716,0.15918
0.72,0.14228
0.724,0.18712
0.728,0.19902
0.732,0.20493
0.736,0.20082
0.74,0.18869
0.744,0.20521
0.748,0.22922
0.752,0.18986
0.756,0.20671
0.76,0.1918
0.764,0.11756
0.768,0.16194
0.772,0.13297
0.776,0.12129
0.78,0.07924
0.784,0.12774
0.788,0.08926
0.792,0.10301
0.796,0.07833
0.8,0.05485
0.804,0.04949
0.808,0.06634
0.812,0.03165
0.816,0.01313
0.82,0.02168
0.824,0.02029
0.828,0.0229
0.832,0.00213
0.836,-0.00364
0.84,-0.00532
0.844,0.01478
0.848,-0.01958
0.852,0.00181
0.856,0.00435
0.86,-0.02818
0.864,-0.00932
0.868,-0.03483
0.872,-0.03076
0.876,-0.01935
0.88,-0.04441
0.884,-0.0075
0.888,-0.02179
0.892,-0.0082
0.896,-0.00901
0.9,-0.01391
0.904,-0.02277
0.908,-0.0155
0.912,0.00069
0.916,-0.00858
0.92,-0.01217
0.924,-0.0132
0.928,0.02976
0.932,0.04149
0.936,0.04202
0.94,0.06795
0.944,0.03808
0.948,0.08959
0.952,0.05445
0.956,0.06781
0.96,0.09677
0.964,0.05591
0.968,0.06488
0.972,0.07554
0.976,0.01893
0.98,0.03787
0.984,0.02268
0.988,-0.01193
0.992,-0.02191
0.996,-0.00304
1.0,-0.01484
1.004,-0.0306
1.008,-0.01992
1.012,-0.02695
1.016,-0.02882
1.02,-0.05528
1.024,-0.00107
1.028,-0.00706
1.032,-0.04523
1.036,-0.04344
1.04,-0.05303
1.044,-0.00883
1.048,-0.01062
1.052,-0.04123
1.056,-0.03528
1.06,-0.01648
1.064,-0.0473
1.068,-0.02595
1.072,-0.07952
1.076,-0.09983
1.08,-0.15115
1.084,-0.1145
1.088,-0.09282
1.092,0.05476
1.096,0.20053
1.1,0.42406
1.104,0.62129
1.108,0.8408
1.112,0.95349
1.116,0.93849
1.12,0.90248
1.124,0.70291
1.128,0.48286
1.132,0.21912
1.136,0.04244
1.14,-0.06837
1.144,-0.14397
1.148,-0.2066
1.152,-0.17079
1.156,-0.15159
1.16,-0.08435
1.164,-0.06942
1.168,-0.04184
1.172,-0.01563
1.176,-0.03608
1.18,-0.01171
1.184,-0.04452
1.188,-0.01334
1.192,-0.04287
1.196,-0.01637
1.2,-0.01579
1.204,-0.03436
1.208,-0.01894
1.212,-0.00309
1.216,-0.04157
1.22,-0.04708
1.224,-0.02811
1.228,-0.02912
1.232,-0.02476
1.236,-0.05072
1.24,-0.04155
1.244,-0.04794
1.248,-0.05165
1.252,-0.03191
1.256,-0.02488
1.26,-0.02504
1.264,-0.02988
1.268,-0.04433
1.272,-0.0353
1.276,-0.02876
1.28,-0.038
1.284,-0.034
1.288,-0.01808
1.292,0.00999
1.296,0.00763
1.3,0.01002
1.304,-0.0193
1.308,0.0229
1.312,-0.00358
1.316,0.01597
1.32,0.00773
1.324,0.03745
1.328,0.05074
1.332,0.07648
1.336,0.07005
1.34,0.07
1.344,0.07634
1.348,0.09221
1.352,0.11724
1.356,0.14779
1.36,0.12745
1.364,0.13596
1.368,0.14971
1.372,0.1472
1.376,0.19958
1.38,0.17353
1.384,0.16585
1.388,0.17981
1.392,0.20976
1.396,0.1763
1.4,0.19724
1.404,0.18461
1.408,0.18826
1.412,0.1776
1.416,0.1754
1.42,0.17633
1.424,0.14831
1.428,0.14921
1.432,0.13788
1.436,0.1225
1.44,0.09414
1.444,0.09662
1.448,0.07736
1.452,0.0851
1.456,0.04729
1.46,0.03645
1.464,0.03505
1.468,0.05664
1.472,0.01384
1.476,0.02108
1.48,0.02731
1.484,-0.00981
1.488,-0.03073
1.492,0.00462
1.496,-0.01189
1.5,-0.03036
1.504,-0.0277
1.508,-0.04188
1.512,-0.0064
1.516,-0.01997
1.52,-0.0293
1.524,-0.02613
1.528,-0.0164
1.532,-0.0238
1.536,-0.04357
1.54,-0.02386
1.544,-0.02345
1.548,-0.02973
1.552,-0.03358
1.556,-0.027
1.56,-0.02501
1.564,-0.03142
1.568,-0.03473
1.572,-0.0212
1.576,-0.02074
1.58,-0.02939
1.584,-0.04965
1.588,-0.01504
1.592,-0.01493
1.596,-0.04966
1.6,-0.02092
1.604,-0.03667
1.608,-0.02109
1.612,-0.03746
1.616,-0.02818
1.62,-0.0548
1.624,-0.0391
1.628,-0.02029
1.632,-0.03836
1.636,-0.02646
1.64,-0.0144
1.644,-0.02986
1.648,-0.00703
1.652,-0.03635
1.656,-0.04837
1.66,-0.04289
1.664,-0.03182
1.668,-0.02448
1.672,-0.02775
1.676,-0.03152
1.68,-0.05759
1.684,-0.01425
1.688,0.00349
1.692,-0.02693
1.696,-0.03102
1.7,-0.01356
1.704,-0.00975
1.708,-0.04984
1.712,-0.06988
1.716,-0.03141
1.72,-0.01296
1.724,-0.02268
1.728,-0.02299
1.732,-0.02272
1.736,-0.03798
1.74,-0.02449
1.744,0.01788
1.748,0.00814
1.752,0.03738
1.756,0.02965
1.76,0.04487
1.764,0.08832
1.768,0.09636
1.772,0.0857
1.776,0.07368
1.78,0.06088
1.784,0.03417
1.788,0.03593
1.792,0.02559
1.796,0.03529
1.8,0.00171
1.804,-0.00722
1.808,-0.00928
1.812,-0.00723
1.816,-0.02521
1.82,-0.01805
1.824,-0.01563
1.828,-0.01663
1.832,-0.03532
1.836,-0.02167
1.84,-0.01916
1.844,-0.05615
1.848,-0.03959
1.852,-0.02134
1.856,-0.02301
1.86,-0.02725
1.864,-0.02982
1.868,-0.02096
1.872,-0.02386
1.876,-0.00796
1.88,-0.02348
1.884,-0.02878
1.888,-0.06195
1.892,-0.1026
1.896,-0.13571
1.9,-0.14819
1.904,-0.07165
1.908,0.03677
1.912,0.20391
1.916,0.39868
1.92,0.6117
1.924,0.82098
1.928,0.94106
1.932,0.96284
1.936,0.90231
1.94,0.6934
1.944,0.45864
1.948,0.24757
1.952,0.04238
1.956,-0.0915
1.96,-0.18454
1.964,-0.19902
1.968,-0.17216
1.972,-0.14779
1.976,-0.08469
1.98,-0.07563
1.984,-0.03883
1.988,-0.01559
1.992,-0.04618
1.996,-0.02064
2.0,-0.02119
2.004,-0.0051
2.008,-0.00598
2.012,-0.03208
2.016,-0.04188
2.02,-0.01697
2.024,-0.01883
2.028,-0.02343
2.032,0.00113
2.036,-0.01602
2.04,-0.02106
2.044,-0.04769
2.048,-0.02861
2.052,-0.02653
2.056,-0.02649
2.06,-0.05586
2.064,-0.01776
2.068,-0.04579
2.072,-0.02696
2.076,-0.01928
2.08,0.0062
2.084,-0.02584
2.088,-0.05749
2.092,0.00299
2.096,-0.02173
2.1,0.01582
2.104,0.00377
2.108,0.00346
2.112,0.00032
2.116,-0.03068
2.12,0.00187
2.124,0.03883
2.128,0.01347
2.132,-0.0055
2.136,0.02657
2.14,0.02324
2.144,0.04382
2.148,0.0906
2.152,0.02443
2.156,0.06215
2.16,0.10527
2.164,0.1397
2.168,0.11541
2.172,0.13827
2.176,0.17755
2.18,0.14881
2.184,0.1623
2.188,0.1744
2.192,0.18473
2.196,0.15406
2.2,0.1829
2.204,0.18975
2.208,0.201
2.212,0.19153
2.216,0.17189
2.22,0.18408
2.224,0.1931
2.228,0.16789
2.232,0.1557
2.236,0.18806
2.24,0.15922
2.244,0.16079
2.248,0.13843
2.252,0.09333
2.256,0.11507
2.26,0.09247
2.264,0.05847
2.268,0.04239
2.272,0.06578
2.276,0.06022
2.28,0.03367
2.284,0.03054
2.288,0.00073
2.292,0.00824
2.296,0.00697
2.3,0.00806
2.304,-0.02059
2.308,0.00819
2.312,-0.02816
2.316,-0.01743
2.32,0.01542
2.324,-0.00023
2.328,-0.02277
2.332,-0.03142
2.336,-0.02649
2.34,-0.01179
2.344,-0.02672
2.348,-0.02903
2.352,-0.01951
2.356,-0.05399
2.36,0.00257
2.364,-0.01068
2.368,-0.03088
2.372,-0.02078
2.376,-0.06065
2.38,-0.0159
2.384,-0.0121
2.388,-0.04285
2.392,-0.00955
2.396,-0.01725
2.4,-0.01382
2.404,-0.00847
2.408,-0.03298
2.412,-0.04506
2.416,-0.01221
2.42,-0.01868
2.424,-0.00825
2.428,-0.0266
2.432,-0.02203
2.436,-0.02248
2.44,-0.01131
2.444,-0.04725
2.448,-0.01593
2.452,-0.02375
2.456,-0.01593
2.46,-0.01405
2.464,-0.02782
2.468,-0.0262
2.472,-0.00421
2.476,-0.00818
2.48,-0.03233
2.484,-0.02312
2.488,-0.03172
2.492,-0.00863
2.496,-0.01595
2.5,-0.00664
2.504,-0.02956
2.508,-0.03818
2.512,-0.04125
2.516,0.01352
2.52,0.00673
2.524,-0.01907
2.528,-0.02339
2.532,-0.02846
2.536,-0.02325
2.54,-0.01602
2.544,-0.01985
2.548,-0.00433
2.552,0.00657
2.556,-0.02086
2.56,-0.0272
2.564,-0.05139
2.568,-0.04659
2.572,-0.04398
2.576,-0.02261
2.58,-0.00877
2.584,-0.04845
2.588,-0.01656
2.592,-0.02759
2.596,-0.03441
2.6,0.02503
2.604,-0.01637
2.608,-0.01914
2.612,-0.01544
2.616,-0.03627
2.62,-0.01018
2.624,-0.01918
2.628,-0.00174
2.632,0.01042
2.636,-0.04138
2.64,-0.03029
2.644,-0.01746
2.648,-0.02614
2.652,-0.00562
2.656,-0.01027
2.66,-0.02202
2.664,-0.01394
2.668,-0.02275
2.672,-0.02215
2.676,-0.02747
2.68,-0.03908
2.684,-0.01307
2.688,-0.02505
2.692,-0.03293
2.696,-0.01219
2.7,-0.02228
2.704,-0.00325
2.708,-0.02265
2.712,0.01835
2.716,-0.03157
2.72,0.02845
2.724,0.01524
2.728,0.0096
2.732,0.0147
2.736,0.0306
2.74,0.08229
2.744,0.08269
2.748,0.04598
2.752,0.07319
2.756,0.09064
2.76,0.08165
2.764,0.07621
2.768,0.09552
2.772,0.05037
2.776,0.03858
2.78,0.03639
2.784,0.0248
2.788,-0.01771
2.792,0.00425
2.796,-0.01526
2.8,-0.01585
2.804,-0.01362
2.808,0.00982
2.812,0.00577
2.816,-0.02266
2.82,-0.01423
2.824,-0.04429
2.828,-0.00758
2.832,-0.02631
2.836,-0.018
2.84,-0.00841
2.844,-0.01555
2.848,-0.00659
2.852,-0.01518
2.856,0.01316
2.86,-0.02488
2.864,-0.01213
2.868,-0.0294
2.872,-0.06812
2.876,-0.08356
2.88,-0.11339
2.884,-0.13823
2.888,-0.08333
2.892,0.04656
2.896,0.19495
2.9,0.42434
2.904,0.60035
2.908,0.82528
2.912,0.92775
2.916,1.00276
2.92,0.8694
2.924,0.73438
2.928,0.51373
2.932,0.28407
2.936,0.08396
2.94,-0.06416
2.944,-0.16362
2.948,-0.17722
2.952,-0.12485
2.956,-0.1132
2.96,-0.10718
2.964,-0.02847
2.968,2e-05
2.972,-0.02588
2.976,0.01321
2.98,-0.01849
2.984,0.00404
2.988,-0.00991
2.992,-0.00671
2.996,-0.01523
3.0,-0.01362
3.004,-0.00064
3.008,-0.02636
3.012,-0.00207
3.016,0.0071
3.02,0.00561
3.024,-0.01557
3.028,-0.02552
3.032,0.01705
3.036,-0.00857
3.04,-0.00585
3.044,-0.01154
3.048,-0.02179
3.052,-0.03402
3.056,-0.01413
3.06,-0.01239
3.064,-0.00275
3.068,0.02226
3.072,-0.0061
3.076,-0.01338
3.08,-0.01645
3.084,0.01424
3.088,0.0071
3.092,-0.00117
3.096,0.00887
3.1,-0.00726
3.104,0.01963
3.108,-0.00279
3.112,0.04209
3.116,0.04119
3.12,0.02758
3.124,0.03668
3.128,0.05975
3.132,0.10342
3.136,0.08279
3.14,0.08048
3.144,0.11388
3.148,0.10433
3.152,0.13447
3.156,0.1562
3.16,0.12645
3.164,0.17406
3.168,0.14543
3.172,0.16223
3.176,0.1934
3.18,0.19822
3.184,0.19262
3.188,0.21143
3.192,0.22278
3.196,0.23293
3.2,0.20197
3.204,0.23335
3.208,0.21345
3.212,0.21588
3.216,0.1923
3.22,0.17884
3.224,0.15708
3.228,0.17058
3.232,0.1547
3.236,0.14305
3.24,0.14606
3.244,0.11385
3.248,0.11649
3.252,0.10492
3.256,0.07537
3.26,0.08041
3.264,0.07435
3.268,0.08291
3.272,0.06496
3.276,0.04583
3.28,0.03406
3.284,0.01501
3.288,0.02127
3.292,0.02065
3.296,-0.00769
3.3,0.01285
3.304,0.02835
3.308,0.01571
3.312,0.02832
3.316,0.03482
3.32,0.01495
3.324,-0.01483
3.328,0.01976
3.332,-0.01086
3.336,-0.03523
3.34,0.00556
3.344,0.00379
3.348,0.00299
3.352,0.00239
3.356,0.02057
3.36,0.00713
3.364,0.00349
3.368,0.02738
3.372,0.00028
3.376,0.01322
3.38,0.02143
3.384,-0.00997
3.388,0.01275
3.392,-0.00734
3.396,0.00415
3.4,0.00388
3.404,-0.00168
3.408,-0.00209
3.412,0.01233
3.416,-0.00709
3.42,-0.02011
3.424,0.00896
3.428,-0.0038
3.432,-0.00736
3.436,0.00134
3.44,-0.00673
3.444,2e-05
3.448,0.00124
3.452,0.01788
3.456,0.01131
3.46,0.00374
3.464,-0.00605
3.468,0.01573
3.472,-0.00322
3.476,-0.00744
3.48,-0.01183
3.484,0.02714
3.488,-0.00559
3.492,0.00035
3.496,0.02156
3.5,0.00454
3.504,-0.00428
3.508,0.01288
3.512,-0.00323
3.516,-0.01015
3.52,0.01228
3.524,0.03474
3.528,0.02196
3.532,0.02694
3.536,0.04675
3.54,0.0415
3.544,0.06204
3.548,0.06041
3.552,0.0899
3.556,0.08762
3.56,0.09901
3.564,0.11352
3.568,0.08897
3.572,0.12297
3.576,0.09733
3.58,0.0778
3.584,0.09349
3.588,0.03955
3.592,0.04837
3.596,0.02343
3.6,0.03809
3.604,0.02376
3.608,0.03403
3.612,0.02097
3.616,-0.00735
3.62,-0.01149
3.624,0.02132
3.628,0.02451
3.632,-0.00528
3.636,0.01099
3.64,0.01805
3.644,0.00291
3.648,0.00316
3.652,-0.00342
3.656,-0.01094
3.66,-0.00218
3.664,0.02953
3.668,0.0414
3.672,-0.00308
3.676,0.01179
3.68,-0.0132
3.684,-0.02296
3.688,-0.06178
3.692,-0.08251
3.696,-0.10228
3.7,-0.05967
3.704,0.00351
3.708,0.19314
3.712,0.43317
3.716,0.61023
3.72,0.80409
3.724,0.93008
3.728,1.00023
3.732,0.94534
3.736,0.79018
3.74,0.58984
3.744,0.35475
3.748,0.14789
3.752,-0.00677
3.756,-0.11891
3.76,-0.13156
3.764,-0.13319
3.768,-0.11658
3.772,-0.03203
3.776,-0.02415
3.78,-0.02654
3.784,0.01073
3.788,0.01501
3.792,0.01445
3.796,0.00202
3.8,-0.01317
3.804,0.02633
3.808,0.0041
3.812,0.0187
3.816,0.01921
3.82,0.03949
3.824,0.03058
3.828,0.03057
3.832,0.02862
3.836,0.03218
3.84,0.00583
3.844,-0.00393
3.848,0.01332
3.852,0.02255
3.856,0.0105
3.86,-0.01752
3.864,-0.00117
3.868,0.00327
3.872,0.07079
3.876,0.02499
3.88,0.02881
3.884,0.01652
3.888,0.01484
3.892,0.03605
3.896,-0.00517
3.9,0.02905
3.904,0.05202
3.908,0.06723
3.912,0.04096
3.916,0.04925
3.92,0.08729
3.924,0.04122
3.928,0.07682
3.932,0.08481
3.936,0.0789
3.94,0.05696
3.944,0.11714
3.948,0.08241
3.952,0.10631
3.956,0.1417
3.96,0.16062
3.964,0.17068
3.968,0.17201
3.972,0.19492
3.976,0.20324
3.98,0.22624
3.984,0.21943
3.988,0.22105
3.992,0.22736
3.996,0.20967
4.0,0.23917
4.004,0.20928
4.008,0.23242
4.012,0.22249
4.016,0.22426
4.02,0.22014
4.024,0.23406
4.028,0.23494
4.032,0.19196
4.036,0.19138
4.04,0.17525
4.044,0.15471
4.048,0.15577
4.052,0.12854
4.056,0.12526
4.06,0.12754
4.064,0.11305
4.068,0.12916
4.072,0.10593
4.076,0.05146
4.08,0.08108
4.084,0.06373
4.088,0.08754
4.092,0.04929
4.096,0.0614
4.1,0.04543
4.104,0.03399
4.108,0.01636
4.112,0.03784
4.116,0.03672
4.12,0.02774
4.124,0.01713
4.128,0.02536
4.132,-0.00141
4.136,0.03847
4.14,0.02436
4.144,0.01403
4.148,0.03143
4.152,0.01969
4.156,0.02655
4.16,0.00025
4.164,0.00094
4.168,0.03321
4.172,0.02881
4.176,0.00822
4.18,-0.01304
4.184,0.06711
4.188,0.03231
4.192,0.02064
4.196,0.03006
4.2,0.03517
4.204,0.04084
4.208,0.02228
4.212,0.03373
4.216,0.03598
4.22,0.01093
4.224,0.055
4.228,0.02914
4.232,0.02431
4.236,0.08432
4.24,0.04373
4.244,0.06384
4.248,0.07536
4.252,0.08944
4.256,0.08212
4.26,0.10375
4.264,0.10894
4.268,0.08761
4.272,0.11984
4.276,0.14404
4.28,0.12771
4.284,0.1199
4.288,0.08411
4.292,0.09474
4.296,0.06468
4.3,0.04532
4.304,0.06083
4.308,0.03998
4.312,0.04916
4.316,0.02286
4.32,0.01749
4.324,0.02145
4.328,0.00425
4.332,0.01969
4.336,0.03247
4.34,0.04864
4.344,0.0187
4.348,-0.01635
4.352,0.03367
4.356,0.02566
4.36,0.02596
4.364,0.03357
4.368,0.01314
4.372,0.02041
4.376,0.0213
4.38,0.03291
4.384,-0.0043
4.388,0.01101
4.392,-0.01729
4.396,-0.06437
4.4,-0.0992
4.404,-0.04364
4.408,0.034
4.412,0.18741
4.416,0.39762
4.42,0.6025
4.424,0.80804
4.428,0.95042
4.432,1.04197
4.436,0.96726
4.44,0.81565
4.444,0.6037
4.448,0.37089
4.452,0.17435
4.456,0.02552
4.46,-0.11479
4.464,-0.11595
4.468,-0.15237
4.472,-0.08943
4.476,-0.04718
4.48,-0.01022
4.484,0.00561
4.488,0.0173
4.492,0.03919
4.496,0.01081
4.5,0.02563
4.504,0.01787
4.508,0.03907
4.512,0.01266
4.516,0.01256
4.52,0.03496
4.524,0.02594
4.528,0.0344
4.532,0.03913
4.536,0.02438
4.54,0.02932
4.544,0.0208
4.548,-0.0047
4.552,0.03787
4.556,0.03308
4.56,0.02604
4.564,0.02359
4.568,0.02146
4.572,0.01308
4.576,0.02511
4.58,0.05951
4.584,0.07291
4.588,0.03727
4.592,0.02328
4.596,-0.0003
4.6,0.03272
4.604,0.00632
4.608,0.05002
4.612,0.02024
4.616,0.06421
4.62,0.04413
4.624,0.06251
4.628,0.07078
4.632,0.06637
4.636,0.07274
4.64,0.09762
4.644,0.11805
4.648,0.12199
4.652,0.13186
4.656,0.14521
4.66,0.13717
4.664,0.16793
4.668,0.17584
4.672,0.16574
4.676,0.20419
4.68,0.18851
4.684,0.20497
4.688,0.20498
4.692,0.23446
4.696,0.22789
4.7,0.24209
4.704,0.25573
4.708,0.24248
4.712,0.25119
4.716,0.23745
4.72,0.24499
4.724,0.21991
4.728,0.21889
4.732,0.23233
4.736,0.19117
4.74,0.23137
4.744,0.20529
4.748,0.19063
4.752,0.15285
4.756,0.16828
4.76,0.17428
4.764,0.11864
4.768,0.12531
4.772,0.08811
4.776,0.09058
4.78,0.10943
4.784,0.09052
4.788,0.1127
4.792,0.08544
4.796,0.05703
4.8,0.05314
4.804,0.05443
4.808,0.0802
4.812,0.03535
4.816,0.03225
4.82,0.02189
4.824,0.04081
4.828,0.03097
4.832,0.05079
4.836,0.03969
4.84,0.00821
4.844,0.03581
4.848,0.06073
4.852,0.04359
4.856,0.03539
4.86,0.02825
4.864,0.03649
4.868,0.05309
4.872,0.03951
4.876,0.04357
4.88,0.03437
4.884,0.01609
4.888,0.02933
4.892,0.03543
4.896,0.01843
4.9,0.0088
4.904,0.0346
4.908,0.01885
4.912,0.02444
4.916,0.05972
4.92,0.02881
4.924,0.05042
4.928,0.01363
4.932,0.02958
4.936,0.00901
4.94,0.01756
4.944,0.02018
4.948,0.02211
4.952,0.01546
4.956,0.0469
4.96,0.00782
4.964,0.04622
4.968,0.0453
4.972,0.01658
4.976,0.04349
4.98,0.01729
4.984,0.03935
4.988,0.00921
4.992,0.02481
4.996,0.03624
5.0,0.02551
5.004,0.04134
5.008,0.01605
5.012,0.01646
5.016,0.02807
5.02,0.05169
5.024,0.02414
5.028,0.02993
5.032,0.03542
5.036,0.02119
5.04,0.02675
5.044,0.02908
5.048,0.01855
5.052,0.04451
5.056,0.04637
5.06,0.02194
5.064,0.02467
5.068,0.02253
5.072,0.04617
5.076,0.00662
5.08,0.00801
5.084,0.03705
5.088,0.05286
5.092,0.04652
5.096,0.00997
5.1,0.02434
5.104,0.03336
5.108,0.04406
5.112,0.04004
5.116,0.05294
5.12,0.01345
5.124,0.03211
5.128,0.05544
5.132,0.04358
5.136,0.02625
5.14,0.02818
5.144,0.05538
5.148,0.04988
5.152,0.04169
5.156,0.02047
5.16,0.04513
5.164,0.04788
5.168,0.07979
5.172,0.08043
5.176,0.10452
5.18,0.08999
5.184,0.12616
5.188,0.12247
5.192,0.13075
5.196,0.12267
5.2,0.13305
5.204,0.12009
5.208,0.12099
5.212,0.08884
5.216,0.09914
5.22,0.07018
5.224,0.06816
5.228,0.05548
5.232,0.06441
5.236,0.04867
5.24,0.05758
5.244,0.04199
5.248,0.03104
5.252,0.02828
5.256,0.02103
5.26,0.01903
5.264,0.0281
5.268,0.01973
5.272,0.02746
5.276,0.02414
5.28,0.01765
5.284,0.0278
5.288,0.02911
5.292,0.04113
5.296,0.06047
5.3,0.03646
5.304,0.05754
5.308,0.02226
5.312,-0.02229
5.316,-0.01007
5.32,-0.08646
5.324,-0.09138
5.328,-0.02524
5.332,0.08193
5.336,0.23873
5.34,0.43332
5.344,0.67214
5.348,0.85073
5.352,0.97577
5.356,1.0192
5.36,0.96655
5.364,0.79621
5.368,0.56047
5.372,0.33747
5.376,0.11685
5.38,-0.01597
5.384,-0.10922
5.388,-0.14926
5.392,-0.10765
5.396,-0.08567
5.4,-0.03173
5.404,-0.00805
5.408,0.00348
5.412,0.02912
5.416,0.04399
5.42,0.01153
5.424,0.0437
5.428,0.04152
5.432,0.02941
5.436,0.01115
5.44,0.03694
5.444,0.04591
5.448,0.0335
5.452,0.0111
5.456,0.01467
5.46,-0.00879
5.464,0.01278
5.468,0.03965
5.472,0.03413
5.476,0.04571
5.48,0.04898
5.484,0.01701
5.488,0.05579
5.492,0.03861
5.496,0.01979
5.5,0.01
5.504,0.05012
5.508,0.01447
5.512,0.00666
5.516,0.03718
5.52,0.04826
5.524,0.04884
5.528,0.02185
5.532,0.03248
5.536,0.02562
5.54,0.03483
5.544,0.05439
5.548,0.06366
5.552,0.0589
5.556,0.08807
5.56,0.09008
5.564,0.0693
5.568,0.08342
5.572,0.10595
5.576,0.11091
5.58,0.12404
5.584,0.1274
5.588,0.13788
5.592,0.17063
5.596,0.15322
5.6,0.19468
5.604,0.20707
5.608,0.22362
5.612,0.2198
5.616,0.22539
5.62,0.23343
5.624,0.24302
5.628,0.25376
5.632,0.23371
5.636,0.23318
5.64,0.23168
5.644,0.22838
5.648,0.23235
5.652,0.21706
5.656,0.20991
5.66,0.21864
5.664,0.18617
5.668,0.2032
5.672,0.18318
5.676,0.15181
5.68,0.15874
5.684,0.13452
5.688,0.11437
5.692,0.11407
5.696,0.08523
5.7,0.08079
5.704,0.07829
5.708,0.08972
5.712,0.09013
5.716,0.06893
5.72,0.06043
5.724,0.06612
5.728,0.049
5.732,0.03777
5.736,0.03189
5.74,0.03487
5.744,0.02978
5.748,0.00868
5.752,0.01624
5.756,0.01467
5.76,0.04497
5.764,0.02221
5.768,0.04335
5.772,0.046
5.776,0.02814
5.78,0.0479
5.784,0.03797
5.788,0.02052
5.792,0.037
5.796,-0.00092
5.8,-0.01366
5.804,0.02492
5.808,0.02303
5.812,0.03521
5.816,0.00649
5.82,0.01218
5.824,0.03033
5.828,0.02218
5.832,0.0264
5.836,0.01936
5.84,0.02926
5.844,0.04166
5.848,0.01192
5.852,-0.02237
5.856,-0.02121
5.86,0.02465
5.864,0.02881
5.868,-0.00759
5.872,0.02536
5.876,0.00569
5.88,0.01906
5.884,0.03992
5.888,0.01647
5.892,0.02772
5.896,0.03155
5.9,0.01869
5.904,0.01088
5.908,0.04265
5.912,0.035
5.916,0.04958
5.92,0.02029
5.924,0.00805
5.928,-0.01202
5.932,0.02064
5.936,0.02166
5.94,0.00856
5.944,0.03096
5.948,0.03014
5.952,0.02321
5.956,0.01333
5.96,0.03478
5.964,0.02067
5.968,0.01764
5.972,0.01886
5.976,0.01135
5.98,0.00849
5.984,0.01709
5.988,-0.01109
5.992,0.021
5.996,0.00214
6.0,0.01562
6.004,0.04237
6.008,-0.00973
6.012,0.02916
6.016,0.02758
6.02,-0.01692
6.024,-0.00131
6.028,0.01157
6.032,0.01368
6.036,0.03394
6.04,0.03166
6.044,-0.00482
6.048,0.01864
6.052,0.02037
6.056,0.0198
6.06,0.00405
6.064,0.03594
6.068,0.02633
6.072,0.04035
6.076,0.01807
6.08,0.0181
6.084,0.01095
6.088,0.02963
6.092,0.03001
6.096,0.01419
6.1,0.01661
6.104,0.01245
6.108,0.05383
6.112,0.04548
6.116,0.04918
6.12,0.06824
6.124,0.05862
6.128,0.09374
6.132,0.08431
6.136,0.13588
6.14,0.11516
6.144,0.13771
6.148,0.10458
6.152,0.10124
6.156,0.09165
6.16,0.0815
6.164,0.08229
6.168,0.08719
6.172,0.05327
6.176,0.00451
6.18,0.03979
6.184,0.04645
6.188,0.03017
6.192,0.02752
6.196,0.03231
6.2,0.01038
6.204,0.03952
6.208,0.01731
6.212,0.00528
6.216,0.02937
6.22,0.01122
6.224,0.04042
6.228,0.0124
6.232,0.00417
6.236,0.01217
6.24,-0.01028
6.244,0.00248
6.248,0.02016
6.252,-0.00709
6.256,0.00619
6.26,-0.0213
6.264,-0.06007
6.268,-0.10283
6.272,-0.10134
6.276,-0.07041
6.28,0.03464
6.284,0.21859
6.288,0.43324
6.292,0.62487
6.296,0.81292
6.3,0.96854
6.304,0.99131
6.308,0.96624
6.312,0.74791
6.316,0.54767
6.32,0.31763
6.324,0.12263
6.328,-0.0436
6.332,-0.14672
6.336,-0.17473
6.34,-0.16387
6.344,-0.0895
6.348,-0.0379
6.352,-0.02887
6.356,-0.01006
6.36,0.0057
6.364,0.02851
6.368,0.00542
6.372,0.00468
6.376,0.00681
6.38,0.00263
6.384,-0.00958
6.388,0.02016
6.392,0.01735
6.396,0.00192
6.4,0.00519
6.404,0.0082
6.408,-0.02035
6.412,0.02615
6.416,0.02126
6.42,-0.01322
6.424,0.01632
6.428,0.01854
6.432,0.00111
6.436,0.01231
6.44,0.02154
6.444,0.00159
6.448,0.00456
6.452,0.02091
6.456,-0.00259
6.46,0.0193
6.464,0.02482
6.468,-0.00276
6.472,0.02054
6.476,0.02922
6.48,0.00181
6.484,0.02493
6.488,0.04065
6.492,0.0314
6.496,0.02592
6.5,0.02026
6.504,0.05403
6.508,0.04325
6.512,0.05775
6.516,0.07635
6.52,0.09193
6.524,0.07597
6.528,0.10879
6.532,0.11397
6.536,0.15702
6.54,0.14294
6.544,0.15138
6.548,0.14507
6.552,0.16711
6.556,0.19625
6.56,0.19992
6.564,0.19851
6.568,0.1944
6.572,0.22371
6.576,0.21408
6.58,0.20757
6.584,0.20386
6.588,0.22348
6.592,0.22287
6.596,0.22093
6.6,0.21867
6.604,0.19358
6.608,0.19436
6.612,0.16585
6.616,0.17574
6.62,0.12633
6.624,0.14396
6.628,0.14354
6.632,0.09067
6.636,0.11151
6.64,0.10523
6.644,0.10415
6.648,0.06293
6.652,0.03612
6.656,0.04431
6.66,0.04249
6.664,0.04483
6.668,0.04597
6.672,0.03524
6.676,0.02854
6.68,0.00372
6.684,0.0249
6.688,0.00069
6.692,-0.00523
6.696,0.00053
6.7,-0.00406
6.704,0.00548
6.708,0.0131
6.712,-0.00825
6.716,-0.01629
6.72,-0.00465
6.724,-0.00343
6.728,-0.02363
6.732,0.00875
6.736,0.01106
6.74,0.00063
6.744,-0.0055
6.748,-0.01599
6.752,-0.00159
6.756,0.02757
6.76,-0.00228
6.764,-0.00362
6.768,0.00676
6.772,0.02596
6.776,-0.01666
6.78,0.00093
6.784,0.01206
6.788,-0.02709
6.792,0.00259
6.796,0.00197
6.8,-0.02152
6.804,-0.01028
6.808,-0.01416
6.812,-0.01219
6.816,-0.00354
6.82,-0.00705
6.824,-0.00254
6.828,-0.03486
6.832,-0.01956
6.836,0.00195
6.84,-0.0084
6.844,-0.00632
6.848,0.00172
6.852,-0.00737
6.856,0.00572
6.86,-0.01834
6.864,-0.01632
6.868,-0.00569
6.872,-0.00356
6.876,-0.01151
6.88,-0.00756
6.884,-0.01789
6.888,-0.00508
6.892,-0.01832
6.896,-0.01301
6.9,-0.00447
6.904,-0.01151
6.908,-0.00557
6.912,-0.02954
6.916,0.03238
6.92,-0.01263
6.924,-0.00274
6.928,-0.01526
6.932,-0.00603
6.936,-0.02225
6.94,-0.00265
6.944,-0.00747
6.948,-0.00677
6.952,-0.00697
6.956,0.00794
6.96,0.01062
6.964,0.0093
6.968,0.00393
6.972,0.00485
6.976,-0.00485
6.98,0.01275
6.984,-0.01718
6.988,0.00373
6.992,-0.00946
6.996,0.02519
7.0,-0.01049
7.004,0.00448
7.008,-0.01845
7.012,-0.02449
7.016,0.00728
7.02,-0.01247
7.024,-0.03381
7.028,0.0202
7.032,-0.00257
7.036,-0.00216
7.04,0.01682
7.044,-0.01934
7.048,-0.00349
7.052,-0.01394
7.056,-0.02123
7.06,-0.00904
7.064,-0.00167
7.068,-0.03559
7.072,-0.00345
7.076,-0.00569
7.08,-0.00482
7.084,0.00417
7.088,-0.02849
7.092,6e-05
7.096,-0.01304
7.1,0.01044
7.104,-0.0272
7.108,-0.02543
7.112,0.00385
7.116,-0.02143
7.12,-0.02411
7.124,-0.04056
7.128,-0.03053
7.132,-0.01288
7.136,-0.02099
7.14,-0.02154
7.144,-0.01665
7.148,0.00978
7.152,-0.00477
7.156,-0.0145
7.16,-0.01669
7.164,-0.0263
7.168,-0.04095
7.172,-0.02755
7.176,-0.00277
7.18,-0.01291
7.184,0.02912
7.188,-0.03
7.192,-0.00854
7.196,-0.02201
7.2,-0.00493
7.204,-0.02187
7.208,0.01517
7.212,-0.00581
7.216,-0.03708
7.22,-0.01051
7.224,-0.01756
7.228,-0.01983
7.232,-0.01929
7.236,-0.02418
7.24,-0.03465
7.244,-0.01361
7.248,-0.04884
7.252,-0.02459
7.256,-0.0072
7.26,-0.00175
7.264,-0.00693
7.268,-0.01665
7.272,0.00938
7.276,0.01376
7.28,0.01352
7.284,0.03942
7.288,0.04076
7.292,0.07427
7.296,0.08506
7.3,0.09539
7.304,0.07453
7.308,0.07651
7.312,0.0846
7.316,0.06549
7.32,0.03939
7.324,0.03359
7.328,0.01833
7.332,0.02538
7.336,-0.00467
7.34,-0.01054
7.344,-0.04069
7.348,0.00595
7.352,-0.01503
7.356,-0.00613
7.36,-0.01109
7.364,-0.02964
7.368,-0.00821
7.372,-0.02666
7.376,-0.03881
7.38,-0.01245
7.384,-0.01188
7.388,-0.00143
7.392,-0.02616
7.396,-0.05712
7.4,-0.0139
7.404,-0.02927
7.408,-0.0211
7.412,-0.02412
7.416,-0.05982
7.42,-0.06112
7.424,-0.12012
7.428,-0.13602
7.432,-0.09783
7.436,-0.04011
7.44,0.06166
7.444,0.26133
7.448,0.4582
7.452,0.69621
7.456,0.87207
7.46,0.9657
7.464,0.96069
7.468,0.85927
7.472,0.61346
7.476,0.4182
7.48,0.21789
7.484,0.0223
7.488,-0.10971
7.492,-0.20215
7.496,-0.17406
7.5,-0.18234
7.504,-0.1018
7.508,-0.07118
7.512,-0.03218
7.516,-0.0431
7.52,-0.0291
7.524,-0.03105
7.528,-0.02156
7.532,-0.01851
7.536,-0.02622
7.54,-0.0127
7.544,-0.02697
7.548,-0.0046
7.552,-0.00844
7.556,-0.0344
7.56,-0.02399
7.564,-0.0357
7.568,-0.03475
7.572,-0.01842
7.576,-0.02374
7.58,-0.0431
7.584,-0.03853
7.588,-0.04295
7.592,-0.03584
7.596,-0.02243
7.6,-0.02146
7.604,-0.02797
7.608,-0.01169
7.612,-0.05037
7.616,0.0173
7.62,-0.03326
7.624,-0.03822
7.628,-0.03239
7.632,-0.02566
7.636,-0.01642
7.64,-0.04433
7.644,-0.00441
7.648,0.02333
7.652,0.00279
7.656,0.01809
7.66,0.00965
7.664,0.03898
7.668,0.0341
7.672,0.03292
7.676,0.07105
7.68,0.06277
7.684,0.06664
7.688,0.09747
7.692,0.10852
7.696,0.08394
7.7,0.11486
7.704,0.11941
7.708,0.14463
7.712,0.16513
7.716,0.14082
7.72,0.17527
7.724,0.18854
7.728,0.17791
7.732,0.20333
7.736,0.19695
7.74,0.17513
7.744,0.18842
7.748,0.16924
7.752,0.20901
7.756,0.18421
7.76,0.1824
7.764,0.16244
7.768,0.14551
7.772,0.12978
7.776,0.13671
7.78,0.14115
7.784,0.10959
7.788,0.10545
7.792,0.116
7.796,0.08679
7.8,0.1073
7.804,0.06073
7.808,0.05309
7.812,0.03579
7.816,0.03357
7.82,0.01808
7.824,0.0139
7.828,0.01849
7.832,0.00591
7.836,-0.00162
7.84,-0.02208
7.844,-0.02455
7.848,-0.00691
7.852,-0.00807
7.856,0.00756
7.86,0.00382
7.864,-0.03191
7.868,-0.03361
7.872,-0.02687
7.876,-0.04242
7.88,-0.02922
7.884,-0.0135
7.888,-0.03639
7.892,-0.03369
7.896,-0.02696
7.9,-0.0231
7.904,-0.05531
7.908,-0.02444
7.912,-0.04105
7.916,-0.01392
7.92,-0.02575
7.924,-0.0397
7.928,-0.01653
7.932,-0.03549
7.936,-0.00641
7.94,-0.03109
7.944,-0.04744
7.948,-0.04832
7.952,-0.03463
7.956,-0.04854
7.96,-0.04621
7.964,-0.03725
7.968,-0.02687
7.972,-0.04983
7.976,-0.02061
7.98,-0.0611
7.984,-0.03061
7.988,-0.00879
7.992,-0.02405
7.996,-0.02171
8.0,-0.05347
8.004,-0.04349
8.008,-0.00518
8.012,-0.01454
8.016,-0.05911
8.02,-0.03817
8.024,-0.03946
8.028,-0.01626
8.032,-0.0079
8.036,-0.02852
8.04,-0.05337
8.044,-0.03689
8.048,-0.03946
8.052,-0.03984
8.056,-0.02962
8.06,-0.02561
8.064,-0.02989
8.068,-0.04446
8.072,-0.04397
8.076,-0.0383
8.08,-0.00519
8.084,-0.03672
8.088,-0.00898
8.092,-0.02134
8.096,-0.03936
8.1,-0.03352
8.104,-0.01762
8.108,-0.0152
8.112,-0.0585
8.116,-0.05487
8.12,-0.03784
8.124,-0.04108
8.128,-0.01395
8.132,-0.01581
8.136,-0.04434
8.14,-0.02675
8.144,-0.01379
8.148,-0.02076
8.152,-0.02157
8.156,-0.05859
8.16,-0.00797
8.164,-0.0219
8.168,-0.03314
8.172,-0.05676
8.176,-0.03869
8.18,-0.05805
8.184,-0.02719
8.188,-0.02567
8.192,-0.05184
8.196,-0.03422
8.2,-0.03779
8.204,-0.00357
8.208,-0.04777
8.212,-0.06789
8.216,-0.02828
8.22,-0.02794
8.224,-0.02928
8.228,-0.03599
8.232,-0.01187
8.236,0.00018
8.24,0.02587
8.244,0.02115
8.248,0.01162
8.252,0.03106
8.256,0.04293
8.26,0.03852
8.264,0.06746
8.268,0.09245
8.272,0.05678
8.276,0.08751
8.28,0.05862
8.284,0.06782
8.288,0.03434
8.292,0.00768
8.296,0.01619
8.3,0.00438
8.304,0.00913
8.308,-0.01573
8.312,-0.033
8.316,-0.0545
8.32,-0.03015
8.324,-0.05001
8.328,-0.04019
8.332,-0.00966
8.336,-0.03489
8.34,-0.05965
8.344,-0.01554
8.348,-0.04394
8.352,-0.06184
8.356,-0.04474
8.36,-0.02683
8.364,-0.029
8.368,-0.03026
8.372,-0.02997
8.376,-0.02808
8.38,-0.04767
8.384,-0.02427
8.388,-0.07055
8.392,-0.10128
8.396,-0.14096
8.4,-0.15337
8.404,-0.08101
8.408,0.02018
8.412,0.17931
8.416,0.39388
8.42,0.62318
8.424,0.83732
8.428,0.93974
8.432,0.95036
8.436,0.88153
8.44,0.68939
8.444,0.46454
8.448,0.24441
8.452,0.06797
8.456,-0.09565
8.46,-0.19802
8.464,-0.20254
8.468,-0.18783
8.472,-0.08489
8.476,-0.09586
8.48,-0.03921
8.484,-0.04989
8.488,-0.04224
8.492,-0.01503
8.496,-0.05042
8.5,-0.02521
8.504,-0.05732
8.508,-0.03201
8.512,-0.02186
8.516,-0.04174
8.52,-0.0491
8.524,-0.04738
8.528,-0.03796
8.532,-0.05303
8.536,-0.04172
8.54,-0.05901
8.544,-0.01812
8.548,-0.02016
8.552,-0.02444
8.556,-0.04825
8.56,-0.05786
8.564,-0.00285
8.568,-0.02608
8.572,-0.04264
8.576,-0.03218
8.58,-0.02253
8.584,-0.02429
8.588,-0.04304
8.592,-0.02165
8.596,-0.02275
8.6,-0.00584
8.604,-0.01943
8.608,-0.01727
8.612,-0.00042
8.616,-0.00996
8.62,-0.02373
8.624,-0.00153
8.628,-0.00035
8.632,0.03294
8.636,0.04691
8.64,0.03133
8.644,0.05682
8.648,0.04693
8.652,0.09434
8.656,0.07811
8.66,0.07976
8.664,0.10567
8.668,0.11702
8.672,0.11904
8.676,0.13451
8.68,0.13619
8.684,0.15879
8.688,0.15869
8.692,0.18302
8.696,0.18676
8.7,0.2059
8.704,0.18492
8.708,0.20563
8.712,0.19185
8.716,0.18985
8.72,0.18397
8.724,0.14822
8.728,0.18098
8.732,0.18706
8.736,0.17305
8.74,0.14083
8.744,0.14523
8.748,0.15164
8.752,0.11225
8.756,0.10826
8.76,0.11125
8.764,0.05957
8.768,0.0476
8.772,0.06874
8.776,0.05014
8.78,0.03105
8.784,0.04541
8.788,0.03557
8.792,0.02375
8.796,0.03289
8.8,-0.00912
8.804,-0.00602
8.808,-0.00569
8.812,0.0006
8.816,-0.04311
8.82,-0.0145
8.824,-0.06014
8.828,-0.02027
8.832,0.00747
8.836,-0.01952
8.84,-0.02747
8.844,-0.03481
8.848,-0.0205
8.852,-0.05762
8.856,-0.00254
8.86,-0.04908
8.864,0.00663
8.868,-0.03673
8.872,-0.03121
8.876,-0.02671
8.88,-0.02987
8.884,0.002
8.888,-0.02
8.892,-0.02038
8.896,-0.00427
8.9,-0.03372
8.904,-0.00854
8.908,-0.03266
8.912,-0.01782
8.916,-0.03892
8.92,-0.03635
8.924,-0.02549
8.928,-0.01075
8.932,-0.01376
8.936,-0.01959
8.94,-0.02568
8.944,0.00178
8.948,-0.032
8.952,-0.00136
8.956,-0.02152
8.96,-0.04903
8.964,-0.01888
8.968,-0.05595
8.972,-0.01759
8.976,-0.0348
8.98,-0.03698
8.984,-0.01427
8.988,-0.0382
8.992,-0.00023
8.996,-0.01709
9.0,-0.02621
9.004,-0.03053
9.008,-0.04739
9.012,-0.00705
9.016,-0.01027
9.02,-0.03566
9.024,-0.03792
9.028,-0.01555
9.032,-0.02281
9.036,-0.03321
9.04,-0.01663
9.044,-0.02267
9.048,-0.03427
9.052,-0.00345
9.056,-0.03758
9.06,-0.01696
9.064,0.0024
9.068,-0.00329
9.072,-0.04836
9.076,-0.01395
9.08,-0.05659
9.084,-0.02347
9.088,-0.01264
9.092,-0.01177
9.096,-0.02595
9.1,-0.02199
9.104,-0.02965
9.108,-0.01784
9.112,-0.01005
9.116,0.0088
9.12,-0.00566
9.124,-0.02853
9.128,-0.00738
9.132,-0.03363
9.136,-0.05316
9.14,-0.01464
9.144,-0.04013
9.148,-0.01374
9.152,-0.03501
9.156,-0.00729
9.16,-0.04168
9.164,-0.01436
9.168,-0.03842
9.172,0.00047
9.176,-0.01355
9.18,-0.03085
9.184,-0.05269
9.188,-0.01407
9.192,-0.03449
9.196,-0.01242
9.2,-0.01536
9.204,-0.03982
9.208,-0.01992
9.212,-0.03213
9.216,-0.01964
9.22,-0.01172
9.224,-0.02584
9.228,-0.00568
9.232,-0.01042
9.236,-0.02998
9.24,0.0003
9.244,-0.01222
9.248,-0.03277
9.252,-0.01184
9.256,0.00877
9.26,-0.01389
9.264,0.00076
9.268,-0.00108
9.272,0.00557
9.276,0.01679
9.28,0.02178
9.284,0.04367
9.288,0.06972
9.292,0.04375
9.296,0.04842
9.3,0.06735
9.304,0.07542
9.308,0.0584
9.312,0.08396
9.316,0.07136
9.32,0.08258
9.324,0.05237
9.328,0.06448
9.332,0.00414
9.336,0.00898
9.34,0.00246
9.344,0.00464
9.348,0.00056
9.352,0.00114
9.356,0.00441
9.36,-0.01048
9.364,-0.01706
9.368,0.01198
9.372,0.00492
9.376,-0.00225
9.38,-0.01434
9.384,-0.0056
9.388,-0.00884
9.392,-0.02016
9.396,-0.00201
9.4,-0.03536
9.404,-0.00932
9.408,-0.0045
9.412,-0.01685
9.416,0.00398
9.42,-0.01175
9.424,-0.0579
9.428,-0.10085
9.432,-0.13409
9.436,-0.106
9.44,-0.03272
9.444,0.08761
9.448,0.24943
9.452,0.47414
9.456,0.6853
9.46,0.872
9.464,0.97159
9.468,0.93869
9.472,0.85173
9.476,0.65988
9.48,0.44487
9.484,0.21343
9.488,0.03237
9.492,-0.11703
9.496,-0.16648
9.5,-0.14886
9.504,-0.14235
9.508,-0.09532
9.512,-0.07184
9.516,-0.03697
9.52,-0.03628
9.524,-0.02978
9.528,-0.03883
9.532,-0.01189
9.536,-0.01852
9.54,-0.01036
9.544,-0.0199
9.548,-0.01785
9.552,-0.02278
9.556,0.00542
9.56,-0.01595
9.564,0.00297
9.568,-0.03179
9.572,-0.00259
9.576,-0.01991
9.58,-0.02231
9.584,-0.01391
9.588,-0.03584
9.592,-0.01837
9.596,-0.01593
9.6,-8e-05
9.604,-0.00997
9.608,0.00369
9.612,-0.00821
9.616,-0.00016
9.62,0.02224
9.624,0.00418
9.628,-0.0032
9.632,0.00606
9.636,-0.0145
9.64,-0.00595
9.644,0.02381
9.648,-0.01147
9.652,0.02425
9.656,0.01166
9.66,0.05015
9.664,0.01463
9.668,0.01965
9.672,0.02091
9.676,0.04567
9.68,0.08235
9.684,0.0616
9.688,0.09585
9.692,0.08817
9.696,0.11954
9.7,0.12837
9.704,0.12712
9.708,0.17364
9.712,0.16016
9.716,0.16563
9.72,0.19693
9.724,0.16996
9.728,0.20062
9.732,0.22265
9.736,0.20625
9.74,0.22096
9.744,0.1994
9.748,0.21574
9.752,0.20658
9.756,0.22527
9.76,0.20148
9.764,0.18805
9.768,0.20688
9.772,0.18557
9.776,0.18024
9.78,0.17201
9.784,0.15399
9.788,0.15986
9.792,0.12346
9.796,0.09723
9.8,0.11129
9.804,0.1205
9.808,0.07621
9.812,0.09084
9.816,0.07351
9.82,0.06075
9.824,0.0362
9.828,0.04336
9.832,0.03346
9.836,0.02263
9.84,0.00603
9.844,0.02564
9.848,0.00855
9.852,0.01035
9.856,0.03359
9.86,0.00663
9.864,0.01336
9.868,-0.00238
9.872,0.02729
9.876,-0.01767
9.88,0.00593
9.884,0.00463
9.888,-0.025
9.892,0.00685
9.896,0.00136
9.9,-0.01761
9.904,-0.01472
9.908,0.00437
9.912,0.02401
9.916,-0.02194
9.92,0.00403
9.924,-0.01629
9.928,-0.00619
9.932,-0.01292
9.936,-0.01145
9.94,-0.00811
9.944,-0.02159
9.948,-9e-05
9.952,0.00961
9.956,0.00904
9.96,-0.00735
9.964,-0.0061
9.968,-0.00176
9.972,0.0225
9.976,-0.01838
9.98,-0.00672
9.984,0.00154
9.988,-0.02385
9.992,-0.02349
9.996,-0.02599
