t_seg,ecg_mV
0.0,0.02838
0.004,0.00698
0.008,0.01593
0.012,0.00956
0.016,0.01435
0.02,-0.01853
0.024,0.02324
0.028,0.00782
0.032,0.01392
0.036,0.00875
0.04,-0.00897
0.044,0.02164
0.048,0.02176
0.052,0.01881
0.056,0.00642
0.06,0.01299
0.064,0.00509
0.068,0.00638
0.072,-0.0107
0.076,0.00868
0.08,0.01147
0.084,0.01665
0.088,0.01227
0.092,0.03532
0.096,-0.00468
0.1,-0.00352
0.104,0.00466
0.108,-0.00563
0.112,0.0006
0.116,0.0089
0.12,0.02141
0.124,-0.01091
0.128,0.01842
0.132,0.01727
0.136,0.00061
0.14,0.02364
0.144,0.019
0.148,0.0177
0.152,-0.01264
0.156,0.00968
0.16,0.02854
0.164,0.02496
0.168,0.01642
0.172,0.00585
0.176,0.03061
0.18,0.00497
0.184,0.00605
0.188,-0.00948
0.192,-0.0053
0.196,0.04019
0.2,0.01867
0.204,-0.01516
0.208,0.03002
0.212,0.00402
0.216,0.00439
0.22,0.025
0.224,0.01494
0.228,0.03485
0.232,-0.0107
0.236,0.02017
0.24,-0.00298
0.244,0.04158
0.248,0.01075
0.252,0.04487
0.256,-0.00536
0.26,0.01805
0.264,0.01561
0.268,0.03904
0.272,0.00803
0.276,0.05423
0.28,0.01874
0.284,-0.00463
0.288,0.011
0.292,0.00531
0.296,0.02627
0.3,-0.00029
0.304,0.02222
0.308,0.02144
0.312,0.00788
0.316,0.00917
0.32,0.00608
0.324,0.02381
0.328,0.01991
0.332,0.0247
0.336,0.00151
0.34,0.02628
0.344,0.02516
0.348,-0.00735
0.352,0.03403
0.356,-0.00126
0.36,0.03529
0.364,0.03211
0.368,0.00596
0.372,-0.003
0.376,0.02002
0.38,0.03013
0.384,0.01742
0.388,0.00837
0.392,0.02395
0.396,0.01178
0.4,0.01811
0.404,0.01286
0.408,0.02507
0.412,0.02364
0.416,0.00273
0.42,0.0135
0.424,0.01012
0.428,0.04418
0.432,-0.02091
0.436,0.01241
0.44,0.00621
0.444,0.0191
0.448,0.01582
0.452,0.00421
0.456,0.03081
0.46,0.00627
0.464,0.02176
0.468,0.04537
0.472,0.02398
0.476,0.02171
0.48,0.02034
0.484,0.03694
0.488,-0.00987
0.492,0.03479
0.496,0.0146
0.5,0.03295
0.504,0.03142
0.508,0.01643
0.512,0.05067
0.516,0.04098
0.52,0.01426
0.524,0.02302
0.528,0.02262
0.532,0.01366
0.536,0.01601
0.54,0.02246
0.544,0.05288
0.548,0.01314
0.552,0.00353
0.556,0.04524
0.56,0.02301
0.564,0.05079
0.568,0.01187
0.572,0.06678
0.576,0.00719
0.58,0.01848
0.584,0.05138
0.588,0.07831
0.592,0.07415
0.596,0.09078
0.6,0.07838
0.604,0.08536
0.608,0.1279
0.612,0.13471
0.616,0.14263
0.62,0.13858
0.624,0.12188
0.628,0.07381
0.632,0.09773
0.636,0.10021
0.64,0.04356
0.644,0.03361
0.648,0.04637
0.652,0.05348
0.656,0.04973
0.66,0.00997
0.664,0.03629
0.668,0.01198
0.672,0.00857
0.676,0.04237
0.68,0.04079
0.684,0.04017
0.688,0.0454
0.692,0.01716
0.696,0.01697
0.7,0.06364
0.704,0.03042
0.708,0.03027
0.712,0.01147
0.716,0.02688
0.72,0.03536
0.724,0.03556
0.728,0.01262
0.732,-0.00795
0.736,-0.02507
0.74,-0.07056
0.744,-0.08823
0.748,-0.06573
0.752,0.03531
0.756,0.21719
0.76,0.40596
0.764,0.60804
0.768,0.81563
0.772,0.96538
0.776,1.03316
0.78,0.97018
0.784,0.82122
0.788,0.59716
0.792,0.38223
0.796,0.17113
0.8,-0.00653
0.804,-0.10187
0.808,-0.12994
0.812,-0.13567
0.816,-0.07686
0.82,-0.1017
0.824,-0.01865
0.828,-0.00368
0.832,0.03381
0.836,0.02187
0.84,0.02363
0.844,0.02009
0.848,0.01712
0.852,0.02922
0.856,0.0476
0.86,0.04009
0.864,0.01921
0.868,0.04033
0.872,0.03283
0.876,0.0557
0.88,0.02673
0.884,0.04268
0.888,0.01184
0.892,0.01306
0.896,0.04761
0.9,0.03126
0.904,0.02022
0.908,0.04462
0.912,0.04068
0.916,0.02512
0.92,0.02065
0.924,0.04908
0.928,0.03421
0.932,0.01604
0.936,0.03393
0.94,0.00856
0.944,0.02796
0.948,0.03015
0.952,0.04491
0.956,0.06309
0.96,0.05073
0.964,0.05584
0.968,0.04167
0.972,0.04651
0.976,0.07404
0.98,0.07059
0.984,0.10382
0.988,0.08129
0.992,0.09636
0.996,0.12352
1.0,0.1359
1.004,0.15385
1.008,0.13183
1.012,0.14566
1.016,0.17098
1.02,0.16426
1.024,0.19661
1.028,0.21558
1.032,0.2049
1.036,0.23917
1.04,0.23119
1.044,0.24373
1.048,0.24447
1.052,0.24454
1.056,0.2515
1.06,0.26982
1.064,0.20989
1.068,0.24941
1.072,0.21979
1.076,0.24254
1.08,0.24089
1.084,0.20415
1.088,0.2081
1.092,0.19436
1.096,0.16134
1.1,0.1564
1.104,0.14342
1.108,0.14781
1.112,0.10923
1.116,0.10621
1.12,0.10537
1.124,0.09759
1.128,0.09546
1.132,0.11014
1.136,0.1036
1.14,0.10885
1.144,0.07344
1.148,0.05109
1.152,0.03457
1.156,0.02363
1.16,0.02016
1.164,0.05861
1.168,0.04133
1.172,0.05965
1.176,0.06778
1.18,0.03018
1.184,0.02809
1.188,0.03952
1.192,0.02456
1.196,0.03468
1.2,0.00721
1.204,0.01531
1.208,0.0366
1.212,0.0365
1.216,0.00809
1.22,0.0193
1.224,0.03182
1.228,0.01418
1.232,0.03448
1.236,0.06282
1.24,0.0324
1.244,0.02895
1.248,0.02044
1.252,0.03557
1.256,0.02142
1.26,0.03048
1.264,0.0307
1.268,0.05108
1.272,0.06192
1.276,0.01487
1.28,0.03029
1.284,0.02414
1.288,0.01856
1.292,0.03666
1.296,0.05172
1.3,0.05053
1.304,0.0281
1.308,0.0287
1.312,0.03662
1.316,0.05676
1.32,0.03318
1.324,0.01909
1.328,0.03873
1.332,0.02726
1.336,0.03232
1.34,0.02132
1.344,0.01764
1.348,0.00932
1.352,0.05956
1.356,0.00624
1.36,0.01904
1.364,-0.0088
1.368,0.04913
1.372,0.04328
1.376,0.03191
1.38,0.02702
1.384,0.03084
1.388,0.02424
1.392,0.05144
1.396,0.02631
1.4,0.03251
1.404,0.00339
1.408,0.00502
1.412,0.03816
1.416,0.04192
1.42,0.03438
1.424,0.02396
1.428,0.02166
1.432,0.0444
1.436,0.02654
1.44,0.05229
1.444,0.0312
1.448,0.02107
1.452,0.02795
1.456,0.04444
1.46,0.03663
1.464,0.04083
1.468,0.05605
1.472,0.01934
1.476,0.00973
1.48,0.03269
1.484,0.03254
1.488,0.02582
1.492,0.03509
1.496,0.02234
1.5,0.03394
1.504,0.01641
1.508,0.01603
1.512,0.02288
1.516,0.02235
1.52,0.0414
1.524,0.03939
1.528,0.03284
1.532,0.03514
1.536,0.04805
1.54,0.03977
1.544,0.05748
1.548,0.02717
1.552,0.04407
1.556,0.05608
1.56,0.0489
1.564,0.06772
1.568,0.06536
1.572,0.07828
1.576,0.11291
1.58,0.07564
1.584,0.12028
1.588,0.11595
1.592,0.13177
1.596,0.11532
1.6,0.15368
1.604,0.12653
1.608,0.12176
1.612,0.11827
1.616,0.10627
1.62,0.06405
1.624,0.08529
1.628,0.05642
1.632,0.04666
1.636,0.07545
1.64,0.03788
1.644,0.02047
1.648,0.02948
1.652,0.01891
1.656,0.0354
1.66,0.0218
1.664,0.01172
1.668,0.02169
1.672,0.01519
1.676,0.00924
1.68,0.04114
1.684,0.00888
1.688,0.04048
1.692,0.01943
1.696,0.02785
1.7,0.04435
1.704,0.0069
1.708,0.03585
1.712,-0.01153
1.716,-0.04177
1.72,-0.08625
1.724,-0.07658
1.728,-0.07684
1.732,0.00578
1.736,0.1367
1.74,0.31741
1.744,0.52771
1.748,0.75624
1.752,0.93896
1.756,0.99317
1.76,1.01327
1.764,0.87858
1.768,0.67163
1.772,0.45693
1.776,0.24543
1.78,0.05524
1.784,-0.09078
1.788,-0.12845
1.792,-0.13817
1.796,-0.11135
1.8,-0.06716
1.804,-0.01462
1.808,-0.00518
1.812,0.01267
1.816,0.03658
1.82,0.01302
1.824,0.02337
1.828,0.03102
1.832,0.02779
1.836,0.03052
1.84,0.0336
1.844,0.02402
1.848,0.03494
1.852,0.02379
1.856,0.03927
1.86,-0.02056
1.864,0.02456
1.868,0.01238
1.872,0.04248
1.876,0.02638
1.88,0.03845
1.884,0.02373
1.888,-0.0009
1.892,0.04875
1.896,0.03478
1.9,0.018
1.904,0.0435
1.908,0.04681
1.912,-0.00026
1.916,0.01294
1.92,0.05095
1.924,0.02296
1.928,0.03884
1.932,0.04949
1.936,0.03899
1.94,0.05478
1.944,0.06642
1.948,0.05515
1.952,0.05743
1.956,0.07315
1.96,0.07181
1.964,0.10322
1.968,0.09356
1.972,0.0915
1.976,0.1381
1.98,0.12058
1.984,0.14036
1.988,0.1726
1.992,0.16735
1.996,0.15748
2.0,0.20064
2.004,0.18336
2.008,0.19605
2.012,0.18665
2.016,0.22259
2.02,0.2463
2.024,0.25103
2.028,0.26741
2.032,0.26354
2.036,0.22897
2.04,0.22135
2.044,0.23138
2.048,0.23941
2.052,0.23409
2.056,0.2348
2.06,0.21355
2.064,0.23036
2.068,0.20598
2.072,0.19801
2.076,0.1496
2.08,0.16673
2.084,0.16622
2.088,0.11182
2.092,0.13082
2.096,0.13633
2.1,0.11794
2.104,0.07981
2.108,0.0774
2.112,0.11282
2.116,0.06379
2.12,0.05914
2.124,0.028
2.128,0.08242
2.132,0.03714
2.136,0.04863
2.14,0.03603
2.144,0.03646
2.148,0.02945
2.152,0.01354
2.156,0.02878
2.16,0.02619
2.164,0.04674
2.168,0.01824
2.172,0.01929
2.176,-0.00191
2.18,0.04216
2.184,0.01533
2.188,0.03251
2.192,0.02401
2.196,0.01004
2.2,0.01901
2.204,0.01775
2.208,0.00519
2.212,0.0127
2.216,0.03175
2.22,0.02133
2.224,0.03051
2.228,0.02184
2.232,-0.00436
2.236,0.01456
2.24,0.02147
2.244,-0.00083
2.248,0.02806
2.252,0.02722
2.256,0.02192
2.26,0.0256
2.264,0.03502
2.268,0.03194
2.272,0.02062
2.276,0.00873
2.28,0.00235
2.284,0.01289
2.288,0.03725
2.292,0.03855
2.296,0.02906
2.3,0.03993
2.304,-0.00832
2.308,0.04753
2.312,0.00098
2.316,0.00444
2.32,0.02113
2.324,0.00529
2.328,0.05181
2.332,0.02696
2.336,-0.00284
2.34,0.04095
2.344,0.01726
2.348,0.03574
2.352,0.01998
2.356,0.03855
2.36,0.03517
2.364,0.01664
2.368,-0.00226
2.372,0.03136
2.376,0.00461
2.38,0.00418
2.384,0.0164
2.388,0.01555
2.392,0.03185
2.396,0.02096
2.4,0.00675
2.404,0.04042
2.408,0.00751
2.412,0.04245
2.416,0.01053
2.42,0.00769
2.424,0.02685
2.428,0.00487
2.432,0.02955
2.436,0.03644
2.44,0.05172
2.444,0.07295
2.448,0.07333
2.452,0.09262
2.456,0.1152
2.46,0.10477
2.464,0.10209
2.468,0.12338
2.472,0.10059
2.476,0.10585
2.48,0.12851
2.484,0.09081
2.488,0.06971
2.492,0.06718
2.496,0.05441
2.5,0.03957
2.504,0.05471
2.508,0.04087
2.512,0.03515
2.516,0.02166
2.52,0.01615
2.524,0.01731
2.528,0.01995
2.532,0.03467
2.536,0.00331
2.54,0.00187
2.544,0.01291
2.548,0.03023
2.552,0.02516
2.556,0.00148
2.56,0.01238
2.564,0.0444
2.568,0.00371
2.572,-0.02374
2.576,0.01405
2.58,0.02905
2.584,0.00682
2.588,-0.03882
2.592,-0.06889
2.596,-0.10686
2.6,-0.08905
2.604,0.00115
2.608,0.09794
2.612,0.2807
2.616,0.47931
2.62,0.72955
2.624,0.87404
2.628,0.97892
2.632,0.99835
2.636,0.8822
2.64,0.71044
2.644,0.49846
2.648,0.2705
2.652,0.09389
2.656,-0.08848
2.66,-0.14523
2.664,-0.1698
2.668,-0.12127
2.672,-0.07187
2.676,-0.04383
2.68,-0.02607
2.684,-0.00472
2.688,0.02516
2.692,0.00174
2.696,-0.01289
2.7,-0.00516
2.704,0.01277
2.708,0.02665
2.712,-0.00264
2.716,0.01859
2.72,0.01599
2.724,0.01557
2.728,-0.01502
2.732,-0.01001
2.736,0.02353
2.74,0.01466
2.744,0.00158
2.748,0.02235
2.752,0.01351
2.756,-0.01146
2.76,-0.00995
2.764,0.00473
2.768,0.02269
2.772,0.01711
2.776,0.04775
2.78,-0.00026
2.784,0.01588
2.788,0.02693
2.792,0.01146
2.796,0.00225
2.8,0.01415
2.804,0.01062
2.808,0.0422
2.812,-0.00272
2.816,0.03354
2.82,0.03113
2.824,0.04451
2.828,0.03784
2.832,0.05519
2.836,0.03421
2.84,0.07259
2.844,0.09182
2.848,0.08836
2.852,0.09015
2.856,0.10886
2.86,0.12399
2.864,0.1322
2.868,0.17292
2.872,0.14637
2.876,0.1591
2.88,0.15314
2.884,0.19714
2.888,0.19132
2.892,0.213
2.896,0.21902
2.9,0.21244
2.904,0.22743
2.908,0.23306
2.912,0.21032
2.916,0.21243
2.92,0.21364
2.924,0.20015
2.928,0.17563
2.932,0.2
2.936,0.18163
2.94,0.17545
2.944,0.13965
2.948,0.17058
2.952,0.16978
2.956,0.14013
2.96,0.1396
2.964,0.10933
2.968,0.08876
2.972,0.08041
2.976,0.09183
2.98,0.05551
2.984,0.08205
2.988,0.05976
2.992,0.05123
2.996,0.08347
3.0,0.04225
3.004,0.0477
3.008,-0.00436
3.012,0.02047
3.016,0.02012
3.02,0.00303
3.024,0.01413
3.028,0.02974
3.032,0.00567
3.036,-0.01604
3.04,0.01059
3.044,0.02579
3.048,0.00664
3.052,0.01942
3.056,-0.00574
3.06,-0.00715
3.064,-0.00866
3.068,0.00504
3.072,0.01243
3.076,-0.02414
3.08,0.01602
3.084,-0.01489
3.088,-0.0014
3.092,0.01517
3.096,-0.03036
3.1,-0.01619
3.104,-0.01816
3.108,0.00616
3.112,0.01735
3.116,-0.01591
3.12,-0.01138
3.124,-0.00903
3.128,-0.01527
3.132,0.00713
3.136,-0.00474
3.14,0.02368
3.144,-0.00525
3.148,-0.01707
3.152,0.00127
3.156,0.01963
3.16,-0.02024
3.164,0.00981
3.168,-0.00404
3.172,-0.00096
3.176,0.00794
3.18,-0.02226
3.184,-0.01212
3.188,0.0005
3.192,-0.00872
3.196,0.01194
3.2,-0.02659
3.204,0.01837
3.208,0.01124
3.212,-0.00228
3.216,0.01722
3.22,0.00722
3.224,0.01105
3.228,0.03394
3.232,0.02148
3.236,0.03974
3.24,0.06636
3.244,0.05354
3.248,0.0899
3.252,0.09354
3.256,0.05739
3.26,0.11294
3.264,0.10146
3.268,0.07894
3.272,0.09912
3.276,0.07486
3.28,0.077
3.284,0.06702
3.288,0.01443
3.292,0.01433
3.296,0.00959
3.3,-0.00087
3.304,-0.00811
3.308,-0.01685
3.312,-0.00227
3.316,-0.00377
3.32,-0.01467
3.324,-0.01118
3.328,0.01223
3.332,0.01141
3.336,0.00823
3.34,0.00092
3.344,0.01033
3.348,-0.00971
3.352,-0.02504
3.356,0.01535
3.36,-0.00899
3.364,-0.01683
3.368,0.01
3.372,-0.03686
3.376,-0.01358
3.38,-0.06942
3.384,-0.0995
3.388,-0.13293
3.392,-0.12403
3.396,-0.02474
3.4,0.09893
3.404,0.27979
3.408,0.49925
3.412,0.68502
3.416,0.89136
3.42,0.98307
3.424,0.98604
3.428,0.82802
3.432,0.65311
3.436,0.39484
3.44,0.15989
3.444,-0.0005
3.448,-0.11245
3.452,-0.17131
3.456,-0.18162
3.46,-0.15918
3.464,-0.09794
3.468,-0.02386
3.472,-0.03065
3.476,-0.00902
3.48,-0.00541
3.484,0.01814
3.488,-0.03278
3.492,-0.03024
3.496,-0.00806
3.5,-0.01401
3.504,0.02414
3.508,-0.01332
3.512,-0.0018
3.516,-0.05056
3.52,-0.03074
3.524,-0.021
3.528,-0.01011
3.532,-0.0179
3.536,-0.01945
3.54,-0.02212
3.544,-0.01117
3.548,-0.03697
3.552,0.01381
3.556,-0.0257
3.56,-0.02531
3.564,0.01965
3.568,0.00265
3.572,-0.02673
3.576,-0.0024
3.58,-0.01802
3.584,-0.00293
3.588,0.01661
3.592,0.01345
3.596,0.01778
3.6,0.0337
3.604,-0.01156
3.608,0.0017
3.612,0.00973
3.616,0.01821
3.62,0.04218
3.624,0.01581
3.628,0.05289
3.632,0.04007
3.636,0.04989
3.64,0.06758
3.644,0.06619
3.648,0.08416
3.652,0.11208
3.656,0.13752
3.66,0.12816
3.664,0.12942
3.668,0.13435
3.672,0.15063
3.676,0.14672
3.68,0.18867
3.684,0.1793
3.688,0.19218
3.692,0.18175
3.696,0.21343
3.7,0.21629
3.704,0.17304
3.708,0.1954
3.712,0.19682
3.716,0.21285
3.72,0.17416
3.724,0.17378
3.728,0.14653
3.732,0.15715
3.736,0.16814
3.74,0.12765
3.744,0.13137
3.748,0.11179
3.752,0.09854
3.756,0.07512
3.76,0.06907
3.764,0.08813
3.768,0.04991
3.772,0.04238
3.776,0.0511
3.78,0.01436
3.784,0.01314
3.788,0.04384
3.792,0.01079
3.796,-0.00179
3.8,-0.01636
3.804,-0.03586
3.808,0.00021
3.812,-0.01324
3.816,-0.01798
3.82,-0.01955
3.824,-0.01016
3.828,-0.02335
3.832,-0.0077
3.836,0.00476
3.84,-0.00439
3.844,-0.02063
3.848,-0.04346
3.852,-0.02929
3.856,-0.00854
3.86,-0.04436
3.864,-0.02903
3.868,-0.02388
3.872,0.00613
3.876,-0.01731
3.88,-0.02454
3.884,-0.04038
3.888,-0.01803
3.892,-0.04274
3.896,-0.01193
3.9,-0.01591
3.904,-0.0157
3.908,0.00434
3.912,-0.04142
3.916,0.00119
3.92,-0.01535
3.924,-0.01287
3.928,-0.00297
3.932,-0.01933
3.936,-0.01023
3.94,-0.01872
3.944,0.0092
3.948,-0.01033
3.952,-0.01991
3.956,-0.01724
3.96,-0.03532
3.964,-0.01725
3.968,-0.04354
3.972,0.001
3.976,-0.01913
3.98,-0.04014
3.984,-0.04512
3.988,0.00226
3.992,-0.01069
3.996,-0.01738
4.0,-0.02079
4.004,-0.02664
4.008,-0.02095
4.012,-0.02024
4.016,-0.01176
4.02,-0.01374
4.024,-0.03184
4.028,-0.0211
4.032,-0.03941
4.036,-0.02047
4.04,0.00161
4.044,-0.0207
4.048,-0.00379
4.052,-0.0063
4.056,-0.01588
4.06,-0.02118
4.064,-0.00666
4.068,-0.02033
4.072,0.00122
4.076,0.01506
4.08,0.02482
4.084,0.00845
4.088,0.04387
4.092,0.04806
4.096,0.04749
4.1,0.07517
4.104,0.07273
4.108,0.07252
4.112,0.06886
4.116,0.07557
4.12,0.06573
4.124,0.05282
4.128,0.05252
4.132,0.05694
4.136,0.00422
4.14,0.01841
4.144,0.00217
4.148,-0.00087
4.152,-0.02425
4.156,-0.01491
4.16,-0.04254
4.164,-0.01315
4.168,-0.02235
4.172,-0.04053
4.176,-0.03526
4.18,-0.02724
4.184,-0.02044
4.188,-0.00644
4.192,-0.03898
4.196,-0.00088
4.2,-0.0213
4.204,-0.02337
4.208,-0.00493
4.212,-0.01659
4.216,-0.0004
4.22,-0.02115
4.224,-0.03666
4.228,-0.05226
4.232,-0.12248
4.236,-0.1424
4.24,-0.11382
4.244,-0.05577
4.248,0.04737
4.252,0.25171
4.256,0.4906
4.26,0.68612
4.264,0.86581
4.268,0.95409
4.272,0.96705
4.276,0.83253
4.28,0.65039
4.284,0.40088
4.288,0.181
4.292,-0.00116
4.296,-0.12568
4.3,-0.17306
4.304,-0.21083
4.308,-0.15151
4.312,-0.13385
4.316,-0.0987
4.32,-0.05695
4.324,-0.00585
4.328,-0.03365
4.332,-0.04661
4.336,-0.03518
4.34,-0.03497
4.344,-0.03527
4.348,-0.04636
4.352,-0.03095
4.356,-0.05167
4.36,0.00822
4.364,-0.03344
4.368,-0.01956
4.372,-0.02287
4.376,-0.0383
4.38,-0.01021
4.384,-0.01734
4.388,-0.00518
4.392,-0.04098
4.396,-0.03946
4.4,-0.06027
4.404,-0.03482
4.408,-0.02539
4.412,-0.00871
4.416,-0.02746
4.42,-0.03408
4.424,-0.03449
4.428,-0.05846
4.432,-0.0359
4.436,-0.02789
4.44,-0.03239
4.444,-0.01711
4.448,-0.02154
4.452,0.00869
4.456,-0.00341
4.46,-0.00847
4.464,0.01056
4.468,0.01183
4.472,0.02958
4.476,0.0449
4.48,0.02912
4.484,0.05641
4.488,0.05936
4.492,0.07544
4.496,0.07918
4.5,0.12284
4.504,0.09538
4.508,0.11431
4.512,0.12293
4.516,0.14933
4.52,0.14851
4.524,0.17178
4.528,0.1681
4.532,0.14413
4.536,0.20384
4.54,0.17292
4.544,0.18469
4.548,0.19013
4.552,0.17142
4.556,0.22286
4.56,0.19118
4.564,0.17458
4.568,0.16179
4.572,0.15868
4.576,0.16876
4.58,0.15728
4.584,0.1262
4.588,0.13029
4.592,0.10831
4.596,0.09108
4.6,0.08097
4.604,0.05628
4.608,0.07929
4.612,0.02787
4.616,0.05323
4.62,0.06995
4.624,0.01897
4.628,0.01324
4.632,0.03391
4.636,0.01475
4.64,0.00629
4.644,-0.00984
4.648,-0.01903
4.652,-0.04661
4.656,-0.02204
4.66,-0.01228
4.664,-0.02767
4.668,-0.01313
4.672,-0.02735
4.676,-0.01363
4.68,-0.02725
4.684,-0.00414
4.688,-0.04656
4.692,-0.03741
4.696,-0.04556
4.7,-0.03891
4.704,0.01007
4.708,-0.02416
4.712,-0.03017
4.716,-0.04703
4.72,-0.03796
4.724,-0.02027
4.728,-0.01538
4.732,-0.02029
4.736,-0.02857
4.74,-0.0491
4.744,-0.01307
4.748,-0.038
4.752,-0.02075
4.756,-0.04681
4.76,-0.03453
4.764,-0.04764
4.768,-0.04028
4.772,-0.01983
4.776,-0.04422
4.78,-0.05307
4.784,-0.03216
4.788,-0.05482
4.792,-0.02426
4.796,-0.02622
4.8,-0.01678
4.804,-0.01063
4.808,-0.01889
4.812,-0.04428
4.816,-0.03271
4.82,-0.03785
4.824,-0.01189
4.828,-0.02635
4.832,-0.01885
4.836,-0.02284
4.84,-0.02173
4.844,-0.01957
4.848,-0.02869
4.852,-0.04899
4.856,-0.04779
4.86,-0.00088
4.864,-0.00534
4.868,-0.01317
4.872,-0.00805
4.876,0.02346
4.88,0.01183
4.884,0.01919
4.888,0.00314
4.892,0.02833
4.896,0.05228
4.9,0.05996
4.904,0.08827
4.908,0.07499
4.912,0.07696
4.916,0.06755
4.92,0.03237
4.924,0.02495
4.928,0.03309
4.932,0.00877
4.936,-0.00554
4.94,-0.00044
4.944,-0.00676
4.948,-0.04103
4.952,-0.02645
4.956,-0.03797
4.96,-0.03413
4.964,-0.00759
4.968,-0.03762
4.972,-0.01373
4.976,-0.00077
4.98,-0.01754
4.984,-0.05115
4.988,-0.02369
4.992,-0.02912
4.996,-0.03734
5.0,-0.04581
5.004,-0.04913
5.008,-0.0445
5.012,0.00369
5.016,-0.02476
5.02,-0.06611
5.024,-0.07173
5.028,-0.08433
5.032,-0.12542
5.036,-0.157
5.04,-0.09259
5.044,0.00973
5.048,0.18707
5.052,0.40696
5.056,0.62603
5.06,0.80486
5.064,0.92892
5.068,0.96721
5.072,0.88959
5.076,0.7244
5.08,0.50638
5.084,0.26798
5.088,0.08474
5.092,-0.06909
5.096,-0.16117
5.1,-0.20771
5.104,-0.17469
5.108,-0.13362
5.112,-0.06503
5.116,-0.06441
5.12,-0.05115
5.124,-0.02521
5.128,-0.02051
5.132,-0.01607
5.136,-0.05183
5.14,-0.00503
5.144,-0.02137
5.148,-0.03275
5.152,-0.05075
5.156,-0.03744
5.16,-0.02345
5.164,-0.02055
5.168,-0.04043
5.172,-0.05411
5.176,-0.02582
5.18,-0.02679
5.184,-0.02446
5.188,-0.02091
5.192,-0.02205
5.196,-0.0168
5.2,-0.01655
5.204,-0.03277
5.208,-0.01067
5.212,-0.01559
5.216,-0.01727
5.22,-0.03819
5.224,0.00229
5.228,-0.00054
5.232,-0.01056
5.236,-0.01385
5.24,-0.00348
5.244,-0.00144
5.248,-0.00259
5.252,0.00718
5.256,-0.00889
5.26,0.02275
5.264,-0.00068
5.268,0.02113
5.272,0.01321
5.276,0.04191
5.28,0.04627
5.284,0.05367
5.288,0.06115
5.292,0.08013
5.296,0.07505
5.3,0.10453
5.304,0.13456
5.308,0.1327
5.312,0.11204
5.316,0.1884
5.32,0.17264
5.324,0.17503
5.328,0.18228
5.332,0.17222
5.336,0.17698
5.34,0.19086
5.344,0.17524
5.348,0.17476
5.352,0.19521
5.356,0.20245
5.36,0.15561
5.364,0.17872
5.368,0.1785
5.372,0.18622
5.376,0.15532
5.38,0.11345
5.384,0.13899
5.388,0.11057
5.392,0.07889
5.396,0.10914
5.4,0.10403
5.404,0.0987
5.408,0.0627
5.412,0.03253
5.416,0.05442
5.42,0.04261
5.424,0.02336
5.428,-0.00271
5.432,3e-05
5.436,0.03199
5.44,-0.00245
5.444,-0.02652
5.448,0.02202
5.452,-0.00374
5.456,-0.03273
5.46,-0.02709
5.464,-0.02728
5.468,-0.02568
5.472,-0.0247
5.476,-0.00884
5.48,-0.02736
5.484,-0.01547
5.488,-0.0227
5.492,-0.01552
5.496,-0.0411
5.5,-0.01246
5.504,-0.01703
5.508,0.00265
5.512,-0.02368
5.516,-0.0025
5.52,-0.05038
5.524,0.00048
5.528,-0.01412
5.532,-0.04139
5.536,-0.04448
5.54,-0.01254
5.544,-0.01049
5.548,-0.03221
5.552,-0.03658
5.556,-0.03717
5.56,-0.00871
5.564,-0.01111
5.568,-0.02082
5.572,-0.00542
5.576,-0.02583
5.58,-0.03713
5.584,-0.01176
5.588,0.01869
5.592,-0.03138
5.596,0.00223
5.6,-0.01899
5.604,-0.0485
5.608,-0.01176
5.612,-0.00533
5.616,-0.03652
5.62,-0.0032
5.624,-0.00557
5.628,-0.00947
5.632,-0.00389
5.636,0.00453
5.64,-0.00795
5.644,0.01644
5.648,0.02974
5.652,0.06768
5.656,0.05579
5.66,0.04236
5.664,0.06891
5.668,0.09904
5.672,0.07813
5.676,0.08371
5.68,0.07818
5.684,0.10907
5.688,0.04837
5.692,0.05591
5.696,0.0564
5.7,0.04109
5.704,0.02625
5.708,0.03076
5.712,-0.00099
5.716,-0.00993
5.72,0.00151
5.724,0.00562
5.728,-0.0151
5.732,-0.02824
5.736,-0.02135
5.74,-0.01421
5.744,-0.03792
5.748,0.01136
5.752,-0.02852
5.756,-0.03144
5.76,-0.0055
5.764,-0.02923
5.768,-0.04171
5.772,-0.00043
5.776,-0.01555
5.78,-0.03353
5.784,-0.03799
5.788,-0.05156
5.792,-0.04449
5.796,-0.11759
5.8,-0.12587
5.804,-0.1188
5.808,-0.05561
5.812,0.02484
5.816,0.19512
5.82,0.42434
5.824,0.63425
5.828,0.82477
5.832,0.9556
5.836,0.98346
5.84,0.86397
5.844,0.72081
5.848,0.47139
5.852,0.23147
5.856,0.05951
5.86,-0.09961
5.864,-0.17807
5.868,-0.21018
5.872,-0.1743
5.876,-0.11984
5.88,-0.088
5.884,-0.03372
5.888,-0.04761
5.892,-0.00364
5.896,-0.01071
5.9,-0.01715
5.904,0.00579
5.908,-0.04363
5.912,-0.01467
5.916,0.00743
5.92,-0.00577
5.924,-0.00094
5.928,-0.00377
5.932,-0.0153
5.936,-0.02569
5.94,-0.01204
5.944,-0.0376
5.948,0.00976
5.952,-0.01355
5.956,-0.00398
5.96,-0.00118
5.964,0.00283
5.968,-0.00983
5.972,-0.00044
5.976,-0.01598
5.98,0.00839
5.984,-0.00866
5.988,-0.00395
5.992,-0.00276
5.996,-0.01192
6.0,-0.03236
6.004,-0.01349
6.008,-0.00172
6.012,-0.00821
6.016,-0.02586
6.02,0.02701
6.024,0.04106
6.028,0.03246
6.032,0.05757
6.036,0.02083
6.04,0.06591
6.044,0.04576
6.048,0.06357
6.052,0.05874
6.056,0.06316
6.06,0.10532
6.064,0.11582
6.068,0.12008
6.072,0.12782
6.076,0.13794
6.08,0.15048
6.084,0.15966
6.088,0.14489
6.092,0.18946
6.096,0.1893
6.1,0.19731
6.104,0.20257
6.108,0.22721
6.112,0.18441
6.116,0.2221
6.12,0.22764
6.124,0.21818
6.128,0.21337
6.132,0.19709
6.136,0.15435
6.14,0.18151
6.144,0.1636
6.148,0.16584
6.152,0.14426
6.156,0.12812
6.16,0.11517
6.164,0.10419
6.168,0.11142
6.172,0.08472
6.176,0.06426
6.18,0.05012
6.184,0.06509
6.188,0.03356
6.192,0.04279
6.196,0.04354
6.2,0.06768
6.204,0.04359
6.208,0.03642
6.212,0.03745
6.216,0.01449
6.22,0.02253
6.224,0.00553
6.228,0.0069
6.232,0.01076
6.236,0.00135
6.24,-0.01536
6.244,0.00391
6.248,-0.00081
6.252,0.02566
6.256,0.01199
6.26,0.0076
6.264,0.01467
6.268,-0.01096
6.272,0.00082
6.276,-0.00154
6.28,0.01719
6.284,-0.02467
6.288,0.00636
6.292,0.00612
6.296,-0.0144
6.3,-0.02737
6.304,-0.01987
6.308,0.00413
6.312,0.01727
6.316,-0.01991
6.32,0.00278
6.324,0.01926
6.328,-0.00515
6.332,-0.00728
6.336,-0.00407
6.34,0.00671
6.344,0.01265
6.348,0.005
6.352,0.01038
6.356,0.00733
6.36,-0.0108
6.364,0.00214
6.368,0.00652
6.372,0.00098
6.376,-0.00146
6.38,-0.0114
6.384,-0.02551
6.388,0.01089
6.392,-0.01827
6.396,0.00855
6.4,-0.01802
6.404,0.01307
6.408,-0.0077
6.412,0.00499
6.416,0.00506
6.42,0.01204
6.424,-0.01495
6.428,-0.02332
6.432,-0.00105
6.436,0.01216
6.44,0.02182
6.444,0.01752
6.448,0.01851
6.452,0.00143
6.456,0.01143
6.46,0.01397
6.464,-0.01146
6.468,-0.00297
6.472,0.02181
6.476,-0.01326
6.48,0.00402
6.484,0.00592
6.488,0.00257
6.492,0.01507
6.496,0.01795
6.5,0.00076
6.504,0.01387
6.508,0.02819
6.512,0.04764
6.516,0.00551
6.52,0.04624
6.524,0.03519
6.528,0.08364
6.532,0.03432
6.536,0.08448
6.54,0.08331
6.544,0.12227
6.548,0.13523
6.552,0.10807
6.556,0.11779
6.56,0.09191
6.564,0.08414
6.568,0.08746
6.572,0.05939
6.576,0.02831
6.58,0.04637
6.584,0.00803
6.588,0.03373
6.592,0.00579
6.596,0.00364
6.6,0.00724
6.604,-0.00816
6.608,-0.00824
6.612,0.00038
6.616,0.03124
6.62,0.0156
6.624,0.00746
6.628,0.04095
6.632,-0.00311
6.636,0.01819
6.64,0.02836
6.644,0.0001
6.648,0.00223
6.652,0.00298
6.656,-0.0055
6.66,-0.01546
6.664,-0.00196
6.668,-0.02105
6.672,-0.06848
6.676,-0.13331
6.68,-0.09686
6.684,-0.04071
6.688,0.10257
6.692,0.29652
6.696,0.51854
6.7,0.71095
6.704,0.90382
6.708,1.00096
6.712,1.00841
6.716,0.86739
6.72,0.68105
6.724,0.43566
6.728,0.23409
6.732,0.04554
6.736,-0.07465
6.74,-0.13867
6.744,-0.17467
6.748,-0.1379
6.752,-0.07562
6.756,-0.03393
6.76,-0.01478
6.764,0.00353
6.768,0.02123
6.772,0.02742
6.776,0.0203
6.78,0.03055
6.784,0.02059
6.788,0.01066
6.792,-0.00964
6.796,0.00685
6.8,-0.00505
6.804,-0.01272
6.808,-0.01387
6.812,0.03352
6.816,0.02107
6.82,-0.00458
6.824,0.04416
6.828,0.01265
6.832,0.01739
6.836,0.03721
6.84,0.0013
6.844,0.00121
6.848,0.03547
6.852,0.02496
6.856,-0.01976
6.86,0.0288
6.864,0.04054
6.868,0.00888
6.872,0.01471
6.876,0.02363
6.88,0.02449
6.884,0.02176
6.888,0.02569
6.892,0.03634
6.896,0.04406
6.9,0.01967
6.904,0.0407
6.908,0.04277
6.912,0.06134
6.916,0.0731
6.92,0.08523
6.924,0.10199
6.928,0.10751
6.932,0.13946
6.936,0.11825
6.94,0.13651
6.944,0.12635
6.948,0.19141
6.952,0.17895
6.956,0.21533
6.96,0.18527
6.964,0.20589
6.968,0.22756
6.972,0.24308
6.976,0.21077
6.98,0.21584
6.984,0.20447
6.988,0.24604
6.992,0.23917
6.996,0.2344
7.0,0.22963
7.004,0.23306
7.008,0.23743
7.012,0.2108
7.016,0.20526
7.02,0.18842
7.024,0.16587
7.028,0.1968
7.032,0.18971
7.036,0.15449
7.04,0.11441
7.044,0.11749
7.048,0.10864
7.052,0.0941
7.056,0.09667
7.06,0.08402
7.064,0.06467
7.068,0.06677
7.072,0.07088
7.076,0.04585
7.08,0.05532
7.084,0.04908
7.088,0.01335
7.092,0.03555
7.096,0.04955
7.1,0.04544
7.104,0.0296
7.108,0.01305
7.112,0.02395
7.116,0.03246
7.12,0.03614
7.124,0.00683
7.128,0.02162
7.132,0.02659
7.136,0.03
7.14,0.0297
7.144,0.00128
7.148,0.02931
7.152,0.04371
7.156,0.02605
7.16,0.03338
7.164,0.02622
7.168,0.0228
7.172,0.00514
7.176,0.03902
7.18,0.02983
7.184,0.02282
7.188,0.02668
7.192,0.03665
7.196,0.01562
7.2,0.01931
7.204,0.02769
7.208,0.0346
7.212,0.01552
7.216,0.01558
7.22,0.02567
7.224,0.01044
7.228,0.03806
7.232,0.01641
7.236,0.03748
7.24,0.03503
7.244,0.0302
7.248,0.02971
7.252,0.03891
7.256,-0.00232
7.26,0.01502
7.264,0.00683
7.268,0.01699
7.272,0.02547
7.276,0.00885
7.28,0.03073
7.284,0.00287
7.288,0.0355
7.292,0.03714
7.296,-0.01205
7.3,0.04395
7.304,0.01973
7.308,0.01284
7.312,0.02946
7.316,0.02691
7.32,0.04561
7.324,0.03972
7.328,0.03375
7.332,0.03454
7.336,0.02918
7.34,0.03029
7.344,0.03593
7.348,0.01979
7.352,0.03683
7.356,0.04676
7.36,0.00211
7.364,0.01321
7.368,0.016
7.372,0.02537
7.376,0.00216
7.38,0.01409
7.384,0.01648
7.388,0.02992
7.392,0.03451
7.396,0.03525
7.4,0.04051
7.404,0.01775
7.408,0.05645
7.412,0.01121
7.416,0.03451
7.42,0.06489
7.424,0.05698
7.428,0.0872
7.432,0.0728
7.436,0.09134
7.44,0.11515
7.444,0.11497
7.448,0.142
7.452,0.12198
7.456,0.1811
7.46,0.12977
7.464,0.11952
7.468,0.09893
7.472,0.07167
7.476,0.07348
7.48,0.08073
7.484,0.05276
7.488,0.0339
7.492,0.03782
7.496,0.03728
7.5,0.03801
7.504,0.04948
7.508,0.05353
7.512,0.00567
7.516,0.01585
7.52,0.03013
7.524,0.0305
7.528,0.02824
7.532,0.01897
7.536,0.01107
7.54,0.06932
7.544,0.00625
7.548,0.00811
7.552,0.03105
7.556,0.03119
7.56,0.01047
7.564,0.00482
7.568,-0.00455
7.572,-0.03862
7.576,-0.06608
7.58,-0.08316
7.584,-0.06796
7.588,0.04828
7.592,0.18454
7.596,0.34402
7.6,0.59552
7.604,0.77303
7.608,0.93515
7.612,1.03718
7.616,1.01569
7.62,0.83044
7.624,0.65828
7.628,0.39487
7.632,0.18806
7.636,0.0216
7.64,-0.07043
7.644,-0.15292
7.648,-0.15331
7.652,-0.10733
7.656,-0.08553
7.66,-0.01282
7.664,0.02634
7.668,0.01187
7.672,0.03124
7.676,0.00809
7.68,0.03999
7.684,0.01331
7.688,0.03501
7.692,0.02411
7.696,0.04248
7.7,0.02198
7.704,0.025
7.708,0.03384
7.712,0.03826
7.716,0.02694
7.72,0.03007
7.724,0.02242
7.728,0.04241
7.732,0.01921
7.736,0.01611
7.74,0.02356
7.744,0.03085
7.748,0.02719
7.752,0.052
7.756,-0.00642
7.76,0.03474
7.764,0.05731
7.768,0.02629
7.772,0.02456
7.776,0.03128
7.78,0.02226
7.784,0.02936
7.788,0.03455
7.792,0.048
7.796,0.02914
7.8,0.04424
7.804,0.0486
7.808,0.07199
7.812,0.07154
7.816,0.10506
7.82,0.07123
7.824,0.13686
7.828,0.09204
7.832,0.12854
7.836,0.14314
7.84,0.14437
7.844,0.14992
7.848,0.18347
7.852,0.16907
7.856,0.16354
7.86,0.22972
7.864,0.2004
7.868,0.21303
7.872,0.23306
7.876,0.22851
7.88,0.23131
7.884,0.24624
7.888,0.25228
7.892,0.25379
7.896,0.25061
7.9,0.26249
7.904,0.25198
7.908,0.22003
7.912,0.22654
7.916,0.22665
7.92,0.20601
7.924,0.21825
7.928,0.19348
7.932,0.1498
7.936,0.19228
7.94,0.15507
7.944,0.13436
7.948,0.13373
7.952,0.10843
7.956,0.11787
7.96,0.10905
7.964,0.0969
7.968,0.07829
7.972,0.06535
7.976,0.07079
7.98,0.07472
7.984,0.08162
7.988,0.04202
7.992,0.05775
7.996,0.0637
8.0,0.01886
8.004,0.03355
8.008,0.03722
8.012,0.02035
8.016,0.04084
8.02,0.05645
8.024,0.02442
8.028,0.03779
8.032,0.029
8.036,0.02864
8.04,0.04094
8.044,0.05149
8.048,0.03193
8.052,0.01706
8.056,0.05027
8.06,0.00992
8.064,0.01633
8.068,0.02529
8.072,0.00263
8.076,0.01377
8.08,0.02133
8.084,0.02999
8.088,0.02375
8.092,0.01364
8.096,0.0254
8.1,0.02372
8.104,0.02082
8.108,0.04952
8.112,0.0113
8.116,0.03416
8.12,0.0336
8.124,0.03563
8.128,-0.00119
8.132,0.0356
8.136,0.03367
8.14,0.03197
8.144,0.02926
8.148,0.03494
8.152,0.06001
8.156,0.01652
8.16,0.03541
8.164,0.03703
8.168,0.05128
8.172,0.0363
8.176,-0.00053
8.18,0.02774
8.184,0.00082
8.188,0.03781
8.192,0.03795
8.196,0.0235
8.2,0.0241
8.204,0.00438
8.208,0.05081
8.212,0.03794
8.216,0.03608
8.22,0.04151
8.224,0.03267
8.228,0.02204
8.232,0.03796
8.236,0.03321
8.24,0.06647
8.244,0.00549
8.248,0.0337
8.252,0.02735
8.256,0.02269
8.26,0.04283
8.264,0.00454
8.268,0.03376
8.272,0.04107
8.276,0.01243
8.28,0.01547
8.284,0.01009
8.288,0.06439
8.292,0.03372
8.296,0.01687
8.3,0.02894
8.304,0.03673
8.308,0.04264
8.312,0.02965
8.316,0.04332
8.32,0.02239
8.324,0.03713
8.328,0.02334
8.332,0.03612
8.336,0.03994
8.34,0.0617
8.344,0.06997
8.348,0.05344
8.352,0.05249
8.356,0.06022
8.36,0.09688
8.364,0.12423
8.368,0.09535
8.372,0.11841
8.376,0.13221
8.38,0.1383
8.384,0.10552
8.388,0.09689
8.392,0.11873
8.396,0.13147
8.4,0.07487
8.404,0.10106
8.408,0.0905
8.412,0.04647
8.416,0.04859
8.42,0.08201
8.424,0.03338
8.428,0.02083
8.432,0.03738
8.436,0.01627
8.44,0.0273
8.444,0.033
8.448,0.03136
8.452,0.03354
8.456,0.03791
8.46,0.04878
8.464,0.03931
8.468,0.04911
8.472,0.01682
8.476,0.04468
8.48,0.00067
8.484,0.02588
8.488,0.01517
8.492,0.03399
8.496,0.02091
8.5,-0.014
8.504,-0.06968
8.508,-0.07323
8.512,-0.09865
8.516,-0.04782
8.52,0.10677
8.524,0.28294
8.528,0.47639
8.532,0.69457
8.536,0.8802
8.54,1.01002
8.544,1.02163
8.548,0.94835
8.552,0.73715
8.556,0.51388
8.56,0.29543
8.564,0.10769
8.568,-0.05483
8.572,-0.13382
8.576,-0.1144
8.58,-0.09437
8.584,-0.07278
8.588,-0.03906
8.592,-0.00424
8.596,-0.00615
8.6,0.02358
8.604,0.00491
8.608,0.02193
8.612,0.01712
8.616,0.02141
8.62,0.04052
8.624,0.05069
8.628,0.03867
8.632,0.04206
8.636,0.03897
8.64,0.03124
8.644,0.03796
8.648,0.04031
8.652,0.00623
8.656,0.0392
8.66,0.00336
8.664,0.0528
8.668,0.04614
8.672,0.01585
8.676,0.00066
8.68,0.00183
8.684,0.03448
8.688,0.02458
8.692,0.04114
8.696,0.04671
8.7,0.00673
8.704,0.052
8.708,0.00823
8.712,0.02496
8.716,0.04929
8.72,0.04866
8.724,0.07801
8.728,0.05054
8.732,0.03533
8.736,0.05784
8.74,0.04951
8.744,0.07026
8.748,0.07971
8.752,0.11567
8.756,0.1212
8.76,0.1276
8.764,0.11237
8.768,0.13744
8.772,0.13856
8.776,0.15091
8.78,0.15974
8.784,0.18607
8.788,0.19194
8.792,0.19753
8.796,0.18423
8.8,0.21608
8.804,0.24685
8.808,0.20854
8.812,0.22488
8.816,0.24757
8.82,0.23452
8.824,0.27404
8.828,0.23437
8.832,0.25648
8.836,0.21462
8.84,0.22206
8.844,0.20068
8.848,0.18515
8.852,0.21746
8.856,0.23021
8.86,0.20523
8.864,0.17908
8.868,0.15066
8.872,0.1748
8.876,0.12091
8.88,0.07655
8.884,0.0928
8.888,0.10003
8.892,0.11109
8.896,0.09424
8.9,0.06144
8.904,0.06782
8.908,0.05514
8.912,0.04586
8.916,0.05288
8.92,0.03996
8.924,0.03767
8.928,0.05252
8.932,0.01815
8.936,0.03693
8.94,0.02423
8.944,0.00472
8.948,0.03709
8.952,0.02618
8.956,0.01271
8.96,0.04074
8.964,-0.01042
8.968,-0.01012
8.972,0.02552
8.976,0.02808
8.98,0.03496
8.984,0.0261
8.988,0.03351
8.992,-0.00617
8.996,0.0293
9.0,0.02203
9.004,0.04301
9.008,0.03256
9.012,0.02715
9.016,0.03674
9.02,0.03433
9.024,0.02138
9.028,0.01944
9.032,0.01258
9.036,0.02483
9.04,0.04682
9.044,-0.01284
9.048,0.01107
9.052,0.0163
9.056,-0.01299
9.06,0.039
9.064,0.02686
9.068,0.02725
9.072,0.02067
9.076,0.01179
9.08,0.0234
9.084,0.01295
9.088,0.018
9.092,0.02065
9.096,0.01125
9.1,0.03326
9.104,0.00779
9.108,0.04654
9.112,0.01357
9.116,0.00873
9.12,0.03122
9.124,0.01962
9.128,0.03677
9.132,0.02515
9.136,0.01243
9.14,0.00785
9.144,0.03828
9.148,-0.00042
9.152,-0.01076
9.156,8e-05
9.16,-0.00154
9.164,0.03076
9.168,0.04561
9.172,-0.01165
9.176,0.00955
9.18,0.03422
9.184,0.02572
9.188,0.05313
9.192,0.01175
9.196,0.02697
9.2,-0.00868
9.204,0.00905
9.208,0.01355
9.212,-0.01691
9.216,0.0356
9.22,0.04044
9.224,0.00022
9.228,0.05846
9.232,0.06921
9.236,0.05189
9.24,0.04411
9.244,0.02645
9.248,0.09416
9.252,0.0848
9.256,0.08761
9.26,0.10193
9.264,0.13478
9.268,0.09979
9.272,0.12198
9.276,0.07881
9.28,0.10584
9.284,0.1003
9.288,0.06135
9.292,0.07466
9.296,0.0459
9.3,0.02821
9.304,0.01896
9.308,0.01637
9.312,-0.00236
9.316,0.02794
9.32,0.03654
9.324,0.01016
9.328,-0.00254
9.332,0.03563
9.336,0.00393
9.34,-0.00046
9.344,-0.01342
9.348,0.01726
9.352,-0.00188
9.356,-0.00366
9.36,0.01517
9.364,-7e-05
9.368,0.01958
9.372,0.00654
9.376,-0.00919
9.38,0.01286
9.384,-0.01376
9.388,-0.04592
9.392,-0.06699
9.396,-0.10553
9.4,-0.06546
9.404,0.01029
9.408,0.12602
9.412,0.34985
9.416,0.57299
9.42,0.78108
9.424,0.9337
9.428,1.01738
9.432,0.95104
9.436,0.81154
9.44,0.60829
9.444,0.37743
9.448,0.14941
9.452,-0.02339
9.456,-0.12202
9.46,-0.16275
9.464,-0.1386
9.468,-0.13145
9.472,-0.09013
9.476,-0.00818
9.48,0.01474
9.484,-0.00183
9.488,0.01268
9.492,0.0048
9.496,-0.02727
9.5,0.03751
9.504,0.03234
9.508,-0.00457
9.512,0.02022
9.516,-0.00283
9.52,0.02828
9.524,-0.01849
9.528,-0.01158
9.532,-0.00159
9.536,0.01138
9.54,-0.01522
9.544,0.02069
9.548,0.0122
9.552,0.04989
9.556,0.00612
9.56,0.01885
9.564,0.02032
9.568,-0.00637
9.572,0.00715
9.576,0.0027
9.58,0.01186
9.584,0.02295
9.588,-0.00382
9.592,0.01461
9.596,0.02322
9.6,0.00881
9.604,0.05356
9.608,0.03354
9.612,0.00996
9.616,0.02182
9.62,0.03016
9.624,0.02039
9.628,0.04323
9.632,0.04205
9.636,0.07788
9.64,0.05303
9.644,0.06219
9.648,0.095
9.652,0.10317
9.656,0.12007
9.66,0.143
9.664,0.17365
9.668,0.13735
9.672,0.16492
9.676,0.15989
9.68,0.14484
9.684,0.18678
9.688,0.19912
9.692,0.20756
9.696,0.20388
9.7,0.18831
9.704,0.24167
9.708,0.21998
9.712,0.2102
9.716,0.22851
9.72,0.2122
9.724,0.20345
9.728,0.19913
9.732,0.18504
9.736,0.17238
9.74,0.16681
9.744,0.17855
9.748,0.16527
9.752,0.12454
9.756,0.11404
9.76,0.14056
9.764,0.09072
9.768,0.09805
9.772,0.10889
9.776,0.10089
9.78,0.04653
9.784,0.05408
9.788,0.0809
9.792,0.03132
9.796,0.0242
9.8,-0.0219
9.804,0.03567
9.808,0.00312
9.812,0.01375
9.816,0.01466
9.82,-0.02065
9.824,-0.00029
9.828,0.01154
9.832,0.00193
9.836,0.01721
9.84,-0.00751
9.844,-0.01245
9.848,0.00848
9.852,-0.0125
9.856,0.00068
9.86,0.00212
9.864,-0.00652
9.868,-0.00856
9.872,-0.0163
9.876,0.00118
9.88,-0.001
9.884,-0.01526
9.888,-0.03905
9.892,-0.01346
9.896,0.00877
9.9,-0.01768
9.904,0.00183
9.908,0.00814
9.912,-0.02313
9.916,-0.02377
9.92,0.00064
9.924,0.01361
9.928,-0.01902
9.932,0.01378
9.936,0.01398
9.94,-0.00065
9.944,-0.03955
9.948,0.00462
9.952,-0.0157
9.956,-0.03029
9.96,-0.03768
9.964,-0.01914
9.968,0.00676
9.972,0.0257
9.976,0.02367
9.98,-0.01193
9.984,-0.00238
9.988,-0.01481
9.992,-0.0013
9.996,-0.00199
