t_seg,ecg_mV
0.0,0.00369
0.004,-0.04578
0.008,0.00773
0.012,-0.01001
0.016,0.00868
0.02,-0.02435
0.024,-0.01336
0.028,-0.03139
0.032,-0.00877
0.036,-0.02535
0.04,0.00763
0.044,-0.01521
0.048,-0.00474
0.052,-0.02891
0.056,0.01892
0.06,-0.00819
0.064,-0.01806
0.068,-0.02005
0.072,0.03375
0.076,-0.00652
0.08,-0.00877
0.084,-0.00906
0.088,0.01985
0.092,-0.01369
0.096,-0.01823
0.1,0.04175
0.104,-0.02224
0.108,-0.00357
0.112,0.00256
0.116,0.00099
0.12,-0.00307
0.124,-0.00787
0.128,0.01098
0.132,-0.00761
0.136,-0.01271
0.14,-0.01283
0.144,0.01513
0.148,0.01614
0.152,0.01865
0.156,0.00241
0.16,-0.0068
0.164,-0.00119
0.168,-0.00324
0.172,-0.0188
0.176,-0.0147
0.18,-0.00479
0.184,0.00456
0.188,0.02907
0.192,0.00114
0.196,-0.00763
0.2,-0.04348
0.204,0.00928
0.208,-0.0021
0.212,-0.01646
0.216,0.00101
0.22,-0.01226
0.224,0.01424
0.228,-0.01213
0.232,0.0306
0.236,-0.00422
0.24,-0.01136
0.244,0.00515
0.248,-0.01339
0.252,-0.00187
0.256,-0.00819
0.26,0.01739
0.264,-0.03621
0.268,-0.00833
0.272,-0.00281
0.276,0.00626
0.28,0.00503
0.284,-0.02049
0.288,-0.0065
0.292,-0.00657
0.296,0.01526
0.3,-0.01807
0.304,-0.02315
0.308,0.02059
0.312,-0.00351
0.316,0.00336
0.32,0.009
0.324,-0.00835
0.328,-0.01809
0.332,0.00963
0.336,0.01134
0.34,-0.00073
0.344,0.01915
0.348,-0.00841
0.352,-0.00632
0.356,-0.00316
0.36,0.00141
0.364,-0.00443
0.368,-0.00354
0.372,-0.02011
0.376,0.00809
0.38,-0.02377
0.384,-0.00044
0.388,0.00968
0.392,-0.01186
0.396,-0.02437
0.4,0.00988
0.404,0.01288
0.408,0.02391
0.412,-0.00729
0.416,0.01055
0.42,-0.01086
0.424,0.00243
0.428,-0.01079
0.432,-0.00237
0.436,0.00131
0.44,0.01723
0.444,-0.00626
0.448,-0.03035
0.452,-0.01528
0.456,-0.00207
0.46,0.01541
0.464,-0.00505
0.468,0.0177
0.472,0.04143
0.476,0.02318
0.48,0.03745
0.484,0.02444
0.488,0.04152
0.492,0.07982
0.496,0.06024
0.5,0.07792
0.504,0.09312
0.508,0.09893
0.512,0.11388
0.516,0.10736
0.52,0.11652
0.524,0.11215
0.528,0.05412
0.532,0.00674
0.536,0.05309
0.54,0.03011
0.544,0.03868
0.548,0.03109
0.552,0.03118
0.556,0.02167
0.56,0.02744
0.564,0.00677
0.568,-0.01442
0.572,-0.01024
0.576,0.01565
0.58,0.02526
0.584,0.02703
0.588,0.0204
0.592,0.00534
0.596,-0.02656
0.6,0.03113
0.604,-0.00145
0.608,0.02185
0.612,-0.0294
0.616,0.01165
0.62,0.01189
0.624,0.00084
0.628,-0.01459
0.632,-0.04006
0.636,-0.10881
0.64,-0.08155
0.644,-0.05028
0.648,0.09078
0.652,0.27218
0.656,0.48967
0.66,0.69083
0.664,0.88141
0.668,0.98007
0.672,0.98539
0.676,0.84535
0.68,0.70325
0.684,0.51519
0.688,0.27445
0.692,0.07065
0.696,-0.07277
0.7,-0.14933
0.704,-0.15231
0.708,-0.13811
0.712,-0.09505
0.716,-0.04766
0.72,-0.02097
0.724,-0.01876
0.728,0.00576
0.732,0.02831
0.736,0.01953
0.74,0.00638
0.744,-0.02286
0.748,0.00235
0.752,0.01277
0.756,0.01954
0.76,-0.02123
0.764,0.00774
0.768,0.01975
0.772,0.01995
0.776,0.02618
0.78,0.01211
0.784,-0.00729
0.788,0.01998
0.792,0.03393
0.796,0.0452
0.8,0.00469
0.804,0.00688
0.808,0.00331
0.812,0.05033
0.816,0.01454
0.82,0.01876
0.824,-0.00727
0.828,0.02535
0.832,0.00678
0.836,0.02629
0.84,-0.00228
0.844,0.00659
0.848,0.04934
0.852,0.01609
0.856,0.01887
0.86,0.04108
0.864,0.05727
0.868,0.06072
0.872,0.06568
0.876,0.03276
0.88,0.0929
0.884,0.06365
0.888,0.10593
0.892,0.10988
0.896,0.13119
0.9,0.12882
0.904,0.13262
0.908,0.14486
0.912,0.15648
0.916,0.19384
0.92,0.1661
0.924,0.21058
0.928,0.21314
0.932,0.2156
0.936,0.20972
0.94,0.23885
0.944,0.23607
0.948,0.21643
0.952,0.24245
0.956,0.22761
0.96,0.22664
0.964,0.24607
0.968,0.21171
0.972,0.19472
0.976,0.19162
0.98,0.18444
0.984,0.15666
0.988,0.1948
0.992,0.1665
0.996,0.15789
1.0,0.11905
1.004,0.10525
1.008,0.1378
1.012,0.08333
1.016,0.0973
1.02,0.10236
1.024,0.07346
1.028,0.07359
1.032,0.08282
1.036,0.06539
1.04,0.03702
1.044,0.05592
1.048,0.01089
1.052,0.04131
1.056,0.03823
1.06,0.01552
1.064,0.00278
1.068,0.0266
1.072,0.0149
1.076,0.01441
1.08,0.00174
1.084,0.02027
1.088,0.01396
1.092,0.01796
1.096,0.00347
1.1,0.02012
1.104,0.02983
1.108,0.01148
1.112,0.0187
1.116,0.01338
1.12,0.01881
1.124,0.00072
1.128,0.02226
1.132,0.03187
1.136,0.01929
1.14,0.03113
1.144,0.02034
1.148,0.02163
1.152,0.01248
1.156,0.01356
1.16,0.01918
1.164,0.01694
1.168,0.02375
1.172,0.00466
1.176,0.0275
1.18,0.02302
1.184,0.02126
1.188,0.04876
1.192,0.06151
1.196,0.03773
1.2,0.06008
1.204,0.09061
1.208,0.06684
1.212,0.1092
1.216,0.12342
1.22,0.1228
1.224,0.15869
1.228,0.14128
1.232,0.12924
1.236,0.1529
1.24,0.08853
1.244,0.07091
1.248,0.09137
1.252,0.0474
1.256,0.03209
1.26,0.05757
1.264,0.02665
1.268,0.03402
1.272,0.0277
1.276,0.02888
1.28,0.04764
1.284,0.01549
1.288,0.04862
1.292,0.02473
1.296,-0.00777
1.3,0.02592
1.304,0.01198
1.308,0.05241
1.312,0.02696
1.316,0.00132
1.32,0.01824
1.324,-0.00407
1.328,0.02693
1.332,0.02661
1.336,0.03294
1.34,0.00752
1.344,-0.02599
1.348,-0.03126
1.352,-0.08577
1.356,-0.09772
1.36,-0.04674
1.364,0.1139
1.368,0.28551
1.372,0.47636
1.376,0.69653
1.38,0.88799
1.384,1.02549
1.388,1.03426
1.392,0.91064
1.396,0.73159
1.4,0.50403
1.404,0.27094
1.408,0.06392
1.412,-0.0553
1.416,-0.14775
1.42,-0.13281
1.424,-0.08259
1.428,-0.08792
1.432,-0.02114
1.436,-0.00991
1.44,0.01399
1.444,0.06521
1.448,0.03077
1.452,0.03653
1.456,0.02068
1.46,0.01565
1.464,0.04629
1.468,0.01141
1.472,-0.00397
1.476,0.03469
1.48,0.02376
1.484,0.02359
1.488,0.01586
1.492,0.01284
1.496,0.04179
1.5,0.0245
1.504,0.0321
1.508,0.01917
1.512,0.03543
1.516,0.06045
1.52,0.04261
1.524,0.02407
1.528,0.02294
1.532,0.04225
1.536,0.01737
1.54,0.04542
1.544,0.02983
1.548,0.04504
1.552,0.03081
1.556,0.0242
1.56,0.05708
1.564,0.04432
1.568,0.06362
1.572,0.06491
1.576,0.0327
1.58,0.05649
1.584,0.08127
1.588,0.09336
1.592,0.04314
1.596,0.09447
1.6,0.09268
1.604,0.13306
1.608,0.14309
1.612,0.10932
1.616,0.14138
1.62,0.1762
1.624,0.16911
1.628,0.19188
1.632,0.19158
1.636,0.21857
1.64,0.2159
1.644,0.22918
1.648,0.22073
1.652,0.22939
1.656,0.27016
1.66,0.25566
1.664,0.2737
1.668,0.23853
1.672,0.239
1.676,0.23776
1.68,0.21527
1.684,0.2366
1.688,0.2173
1.692,0.21214
1.696,0.19174
1.7,0.21686
1.704,0.15113
1.708,0.18853
1.712,0.16066
1.716,0.15096
1.72,0.10724
1.724,0.13419
1.728,0.09802
1.732,0.10487
1.736,0.07045
1.74,0.1052
1.744,0.07356
1.748,0.08034
1.752,0.07452
1.756,0.03586
1.76,0.07131
1.764,0.05754
1.768,0.04368
1.772,0.0343
1.776,0.04495
1.78,0.01729
1.784,0.00341
1.788,0.03105
1.792,0.03841
1.796,0.0512
1.8,0.02704
1.804,0.04815
1.808,0.03655
1.812,0.04322
1.816,0.01271
1.82,0.02356
1.824,0.02191
1.828,0.03448
1.832,0.01919
1.836,0.00997
1.84,0.02922
1.844,0.0372
1.848,0.04374
1.852,0.03806
1.856,0.03549
1.86,0.04237
1.864,0.03289
1.868,0.02951
1.872,0.02549
1.876,0.0285
1.88,0.0338
1.884,0.03782
1.888,0.03412
1.892,0.05717
1.896,0.03388
1.9,0.03371
1.904,0.02452
1.908,0.00953
1.912,0.00228
1.916,0.02113
1.92,0.04217
1.924,0.02097
1.928,0.03013
1.932,0.04352
1.936,0.00995
1.94,0.04625
1.944,0.03625
1.948,0.01425
1.952,0.02402
1.956,0.01634
1.96,0.02335
1.964,0.03047
1.968,0.03599
1.972,0.02684
1.976,0.05282
1.98,0.03509
1.984,0.05423
1.988,0.0766
1.992,0.09752
1.996,0.11987
2.0,0.12405
2.004,0.12653
2.008,0.1282
2.012,0.13226
2.016,0.10323
2.02,0.12817
2.024,0.11187
2.028,0.10734
2.032,0.07449
2.036,0.02801
2.04,0.07558
2.044,0.0598
2.048,0.05802
2.052,0.03982
2.056,0.04578
2.06,0.03891
2.064,0.02785
2.068,0.03848
2.072,0.0226
2.076,0.03411
2.08,0.02168
2.084,0.02934
2.088,0.05625
2.092,0.0374
2.096,0.03844
2.1,0.02557
2.104,0.0351
2.108,0.03106
2.112,-0.00223
2.116,0.04786
2.12,0.01562
2.124,-0.00536
2.128,-0.02416
2.132,-0.05133
2.136,-0.05886
2.14,-0.07895
2.144,-0.00829
2.148,0.14158
2.152,0.28331
2.156,0.48311
2.16,0.70295
2.164,0.90722
2.168,0.99624
2.172,1.01709
2.176,0.93401
2.18,0.7289
2.184,0.49897
2.188,0.28068
2.192,0.08277
2.196,-0.05531
2.2,-0.11034
2.204,-0.14213
2.208,-0.09108
2.212,-0.06834
2.216,-0.03407
2.22,-0.00427
2.224,0.02998
2.228,0.03715
2.232,0.03015
2.236,0.01702
2.24,0.02267
2.244,-0.00127
2.248,0.0326
2.252,0.03522
2.256,0.03114
2.26,0.01832
2.264,0.03659
2.268,0.05978
2.272,0.06506
2.276,0.04019
2.28,0.01978
2.284,0.03875
2.288,0.03992
2.292,0.02285
2.296,0.00956
2.3,0.04036
2.304,0.02965
2.308,-0.00195
2.312,0.03541
2.316,0.016
2.32,0.02575
2.324,0.03646
2.328,0.03889
2.332,0.04762
2.336,0.00991
2.34,0.0414
2.344,0.05843
2.348,0.04276
2.352,0.02868
2.356,0.0539
2.36,0.04944
2.364,0.05177
2.368,0.07191
2.372,0.08497
2.376,0.0851
2.38,0.08484
2.384,0.11789
2.388,0.10336
2.392,0.13315
2.396,0.11188
2.4,0.16035
2.404,0.16461
2.408,0.18195
2.412,0.14869
2.416,0.1783
2.42,0.20032
2.424,0.19496
2.428,0.22194
2.432,0.24739
2.436,0.21198
2.44,0.22302
2.444,0.25104
2.448,0.24392
2.452,0.28535
2.456,0.23363
2.46,0.25445
2.464,0.2146
2.468,0.23797
2.472,0.22184
2.476,0.21583
2.48,0.20493
2.484,0.18724
2.488,0.19512
2.492,0.16033
2.496,0.1539
2.5,0.13342
2.504,0.14195
2.508,0.12358
2.512,0.09996
2.516,0.098
2.52,0.09205
2.524,0.07771
2.528,0.06979
2.532,0.06877
2.536,0.03853
2.54,0.06828
2.544,0.05373
2.548,0.06321
2.552,0.02893
2.556,0.04912
2.56,0.00634
2.564,0.03459
2.568,0.03661
2.572,0.0122
2.576,0.04686
2.58,0.03852
2.584,0.02326
2.588,0.02475
2.592,0.03313
2.596,0.04951
2.6,0.02892
2.604,0.01847
2.608,0.0127
2.612,0.04282
2.616,0.01489
2.62,0.03794
2.624,0.03043
2.628,0.01189
2.632,0.01349
2.636,0.01248
2.64,0.04766
2.644,0.03269
2.648,0.04637
2.652,0.00297
2.656,0.02838
2.66,0.03515
2.664,0.03183
2.668,0.04205
2.672,0.03081
2.676,0.02057
2.68,-0.00307
2.684,0.03902
2.688,0.04903
2.692,0.01601
2.696,0.01892
2.7,0.01055
2.704,-0.02314
2.708,0.0181
2.712,0.0234
2.716,0.03987
2.72,0.00894
2.724,0.00239
2.728,0.0261
2.732,0.0329
2.736,0.02727
2.74,0.01015
2.744,-0.00665
2.748,0.00849
2.752,0.03881
2.756,0.02611
2.76,0.0316
2.764,0.02797
2.768,0.03287
2.772,0.00305
2.776,0.03874
2.78,0.01201
2.784,0.00795
2.788,0.02313
2.792,-0.00947
2.796,0.04085
2.8,0.02778
2.804,0.03117
2.808,-0.01588
2.812,0.00245
2.816,0.0437
2.82,0.01214
2.824,0.01136
2.828,0.02113
2.832,0.03636
2.836,0.01248
2.84,0.03286
2.844,-0.01047
2.848,0.02845
2.852,0.02495
2.856,0.05956
2.86,0.0123
2.864,0.02166
2.868,0.01785
2.872,0.00493
2.876,0.03074
2.88,0.02387
2.884,0.02475
2.888,0.00246
2.892,0.01442
2.896,0.03799
2.9,0.02808
2.904,0.08361
2.908,0.05801
2.912,0.0611
2.916,0.08666
2.92,0.0569
2.924,0.08282
2.928,0.11618
2.932,0.11813
2.936,0.12744
2.94,0.12483
2.944,0.10068
2.948,0.09851
2.952,0.0945
2.956,0.07015
2.96,0.08123
2.964,0.06845
2.968,0.07339
2.972,0.02255
2.976,0.04223
2.98,0.03286
2.984,0.03603
2.988,0.03649
2.992,0.0441
2.996,0.02281
3.0,0.02539
3.004,0.0022
3.008,0.00916
3.012,-0.00419
3.016,-0.01456
3.02,0.0356
3.024,0.01312
3.028,0.01214
3.032,0.01245
3.036,0.01894
3.04,0.00696
3.044,0.01123
3.048,0.0164
3.052,0.00422
3.056,-0.01851
3.06,-0.07475
3.064,-0.08937
3.068,-0.07392
3.072,0.01697
3.076,0.15765
3.08,0.34983
3.084,0.57842
3.088,0.76861
3.092,0.91874
3.096,1.00614
3.1,0.97063
3.104,0.82295
3.108,0.63307
3.112,0.40391
3.116,0.15481
3.12,0.00272
3.124,-0.10636
3.128,-0.14697
3.132,-0.12812
3.136,-0.13357
3.14,-0.07909
3.144,-0.00686
3.148,-0.02733
3.152,0.00277
3.156,0.00474
3.16,-0.0019
3.164,0.01386
3.168,-0.00491
3.172,-0.00206
3.176,0.01479
3.18,-0.02139
3.184,0.01263
3.188,0.02049
3.192,0.03219
3.196,-0.00948
3.2,-0.00349
3.204,0.01134
3.208,0.00626
3.212,0.0319
3.216,0.01348
3.22,0.01032
3.224,0.04686
3.228,0.00199
3.232,-0.00149
3.236,0.02967
3.24,-0.00633
3.244,0.02963
3.248,0.04297
3.252,0.0134
3.256,0.03639
3.26,0.0007
3.264,0.03531
3.268,0.00085
3.272,0.03213
3.276,-0.00754
3.28,0.003
3.284,0.03921
3.288,0.02183
3.292,0.05809
3.296,0.04996
3.3,0.03551
3.304,0.06463
3.308,0.08317
3.312,0.08652
3.316,0.07998
3.32,0.12118
3.324,0.09843
3.328,0.10416
3.332,0.1446
3.336,0.14997
3.34,0.17617
3.344,0.19315
3.348,0.17918
3.352,0.1891
3.356,0.2184
3.36,0.22147
3.364,0.20799
3.368,0.2163
3.372,0.2225
3.376,0.22539
3.38,0.22533
3.384,0.23228
3.388,0.23661
3.392,0.20114
3.396,0.20366
3.4,0.21046
3.404,0.17896
3.408,0.15527
3.412,0.17736
3.416,0.15415
3.42,0.12534
3.424,0.11605
3.428,0.11294
3.432,0.09251
3.436,0.10309
3.44,0.08469
3.444,0.08584
3.448,0.08338
3.452,0.0928
3.456,0.05612
3.46,0.0642
3.464,0.02593
3.468,0.0474
3.472,0.01113
3.476,0.01797
3.48,-0.01168
3.484,0.00888
3.488,0.01726
3.492,0.02978
3.496,0.00532
3.5,0.02613
3.504,0.01603
3.508,0.01191
3.512,0.0185
3.516,0.00011
3.52,0.03491
3.524,0.01848
3.528,-0.00268
3.532,0.01552
3.536,0.02862
3.54,0.00567
3.544,0.02425
3.548,-0.01104
3.552,0.01523
3.556,0.03195
3.56,0.00728
3.564,0.02073
3.568,-0.00871
3.572,0.03586
3.576,0.02657
3.58,-0.01689
3.584,-0.01541
3.588,0.00109
3.592,0.02313
3.596,0.00992
3.6,-0.00683
3.604,0.00502
3.608,-0.00938
3.612,0.01707
3.616,-0.00535
3.62,-0.01421
3.624,0.01052
3.628,0.00063
3.632,0.00415
3.636,0.00542
3.64,-0.01146
3.644,-0.00122
3.648,0.0116
3.652,-0.01053
3.656,0.03828
3.66,0.02478
3.664,-0.01213
3.668,0.00907
3.672,0.00012
3.676,-0.0031
3.68,-0.00482
3.684,0.00706
3.688,0.00064
3.692,-0.0359
3.696,0.00549
3.7,-0.00409
3.704,0.03269
3.708,-0.01616
3.712,0.0049
3.716,-0.0059
3.72,0.01318
3.724,0.0202
3.728,0.00717
3.732,0.00079
3.736,0.02852
3.74,0.0337
3.744,0.03598
3.748,0.05105
3.752,0.07282
3.756,0.10639
3.76,0.11748
3.764,0.09104
3.768,0.09935
3.772,0.09309
3.776,0.08679
3.78,0.03589
3.784,0.05765
3.788,0.04299
3.792,0.02289
3.796,0.05014
3.8,0.00539
3.804,0.00985
3.808,0.02467
3.812,0.02298
3.816,-0.00186
3.82,-0.01557
3.824,-0.01267
3.828,-0.00384
3.832,0.00028
3.836,-0.02056
3.84,0.00713
3.844,-0.00222
3.848,-0.00659
3.852,-0.02473
3.856,0.04674
3.86,-0.00167
3.864,-0.00836
3.868,-0.01062
3.872,0.0098
3.876,-0.03393
3.88,-0.05062
3.884,-0.09332
3.888,-0.11028
3.892,-0.09666
3.896,-0.07133
3.9,0.02755
3.904,0.19891
3.908,0.36898
3.912,0.5785
3.916,0.81172
3.92,0.9454
3.924,0.99375
3.928,0.94552
3.932,0.75622
3.936,0.5483
3.94,0.3068
3.944,0.11391
3.948,-0.04357
3.952,-0.15613
3.956,-0.17747
3.96,-0.15202
3.964,-0.1233
3.968,-0.10406
3.972,-0.05917
3.976,-0.03435
3.98,-0.00488
3.984,-0.01244
3.988,-0.01255
3.992,-0.02612
3.996,0.00683
4.0,-0.00749
4.004,-0.0004
4.008,-0.00272
4.012,-0.00631
4.016,0.02157
4.02,-0.01168
4.024,0.00199
4.028,-0.01957
4.032,-0.04289
4.036,-0.00011
4.04,-0.03802
4.044,-0.01303
4.048,-0.00327
4.052,-0.00599
4.056,0.0106
4.06,-0.00087
4.064,-0.01704
4.068,-0.01357
4.072,0.00569
4.076,-0.04132
4.08,0.00431
4.084,-0.01683
4.088,-0.03178
4.092,-0.00305
4.096,0.02645
4.1,-0.01907
4.104,0.02578
4.108,0.02283
4.112,-0.01275
4.116,0.04495
4.12,0.00147
4.124,0.0352
4.128,0.04001
4.132,0.04839
4.136,0.04947
4.14,0.04825
4.144,0.09683
4.148,0.05521
4.152,0.11948
4.156,0.12232
4.16,0.12354
4.164,0.12969
4.168,0.14195
4.172,0.15066
4.176,0.16433
4.18,0.1609
4.184,0.19383
4.188,0.19821
4.192,0.19778
4.196,0.20923
4.2,0.19027
4.204,0.20023
4.208,0.17785
4.212,0.19456
4.216,0.20292
4.22,0.179
4.224,0.1801
4.228,0.15216
4.232,0.18451
4.236,0.16519
4.24,0.14858
4.244,0.11311
4.248,0.10624
4.252,0.12302
4.256,0.07513
4.26,0.09841
4.264,0.09766
4.268,0.08736
4.272,0.02009
4.276,0.03382
4.28,0.00312
4.284,0.04106
4.288,0.04154
4.292,0.02014
4.296,0.00956
4.3,0.00351
4.304,0.0124
4.308,-0.01648
4.312,-0.00334
4.316,-0.00909
4.32,-0.00255
4.324,-0.03083
4.328,-0.02345
4.332,-0.03487
4.336,-0.02102
4.34,-0.04437
4.344,0.00297
4.348,0.02508
4.352,-0.01641
4.356,-0.00403
4.36,-0.03532
4.364,-0.03777
4.368,-0.03234
4.372,-0.04167
4.376,0.00239
4.38,-0.02387
4.384,-0.03903
4.388,-0.03391
4.392,-0.039
4.396,-0.03163
4.4,-0.0047
4.404,-0.02433
4.408,-0.02471
4.412,0.00832
4.416,-0.01177
4.42,0.00393
4.424,-0.01803
4.428,-0.02387
4.432,0.01185
4.436,-0.02442
4.44,0.00647
4.444,0.00993
4.448,0.00248
4.452,-0.03645
4.456,-0.03418
4.46,-0.00651
4.464,-0.02348
4.468,-0.03467
4.472,-0.01002
4.476,-0.03236
4.48,-0.0132
4.484,0.00939
4.488,-0.0241
4.492,-0.01041
4.496,-0.01179
4.5,-0.03954
4.504,-0.03454
4.508,-0.04639
4.512,-0.0347
4.516,0.01142
4.52,-0.02296
4.524,0.00132
4.528,-0.00406
4.532,-0.02067
4.536,-0.03395
4.54,-0.02802
4.544,-0.02427
4.548,-0.01562
4.552,-0.01248
4.556,-0.01909
4.56,-0.01866
4.564,-0.02802
4.568,0.00721
4.572,0.00708
4.576,-0.01976
4.58,-0.03431
4.584,0.0042
4.588,-0.0241
4.592,-0.04068
4.596,-0.03231
4.6,0.00392
4.604,-0.00217
4.608,-0.01277
4.612,-0.00766
4.616,0.00307
4.62,-0.00572
4.624,-0.01832
4.628,-0.00349
4.632,0.03164
4.636,0.01832
4.64,0.0543
4.644,0.05562
4.648,0.03431
4.652,0.07037
4.656,0.09895
4.66,0.07998
4.664,0.06441
4.668,0.08895
4.672,0.05859
4.676,0.03763
4.68,0.04782
4.684,0.0238
4.688,0.00937
4.692,0.00721
4.696,-0.0095
4.7,-0.01803
4.704,-0.015
4.708,-0.00539
4.712,-0.01747
4.716,-0.03067
4.72,-0.03896
4.724,-0.03764
4.728,-0.04855
4.732,-0.01913
4.736,0.00366
4.74,-0.01353
4.744,-0.03486
4.748,-0.01574
4.752,-0.0592
4.756,-0.03239
4.76,-0.03002
4.764,-0.03443
4.768,-0.03085
4.772,-0.07748
4.776,-0.05423
4.78,-0.10487
4.784,-0.12889
4.788,-0.14447
4.792,-0.07982
4.796,-0.00196
4.8,0.19898
4.804,0.37869
4.808,0.59143
4.812,0.76895
4.816,0.92955
4.82,0.97143
4.824,0.90363
4.828,0.74952
4.832,0.48591
4.836,0.23603
4.84,0.08996
4.844,-0.06663
4.848,-0.1706
4.852,-0.17541
4.856,-0.18902
4.86,-0.12151
4.864,-0.08714
4.868,-0.0901
4.872,-0.03439
4.876,-0.01971
4.88,-0.04804
4.884,-0.05169
4.888,-0.01709
4.892,0.01106
4.896,-0.01568
4.9,-0.01164
4.904,-0.01255
4.908,-0.01113
4.912,2e-05
4.916,-0.04101
4.92,-0.05422
4.924,-0.03194
4.928,-0.03895
4.932,-0.03779
4.936,-0.04144
4.94,-0.05897
4.944,-0.00577
4.948,-0.02738
4.952,-0.03019
4.956,-0.02624
4.96,-0.03201
4.964,-0.01024
4.968,-0.02133
4.972,0.01615
4.976,-0.03218
4.98,0.00429
4.984,0.02506
4.988,-0.03699
4.992,-0.00984
4.996,-0.01185
5.0,-0.00311
5.004,0.00358
5.008,0.01461
5.012,-0.02309
5.016,0.00087
5.02,0.03299
5.024,0.01263
5.028,0.03138
5.032,0.07334
5.036,0.05613
5.04,0.05959
5.044,0.08849
5.048,0.10789
5.052,0.0932
5.056,0.13697
5.06,0.11057
5.064,0.12154
5.068,0.12511
5.072,0.12631
5.076,0.1685
5.08,0.19417
5.084,0.20876
5.088,0.20005
5.092,0.20813
5.096,0.20183
5.1,0.17934
5.104,0.17288
5.108,0.1999
5.112,0.17522
5.116,0.17229
5.12,0.1808
5.124,0.14544
5.128,0.12497
5.132,0.13519
5.136,0.11268
5.14,0.1088
5.144,0.12984
5.148,0.06937
5.152,0.0994
5.156,0.07232
5.16,0.06149
5.164,0.04771
5.168,0.04361
5.172,0.02688
5.176,0.00178
5.18,0.01262
5.184,-0.01593
5.188,-0.00784
5.192,0.00396
5.196,0.01661
5.2,-0.01254
5.204,-0.0001
5.208,-0.0221
5.212,-0.00298
5.216,-0.00897
5.22,-0.02009
5.224,-0.02315
5.228,-0.05238
5.232,-0.04093
5.236,-0.01762
5.24,-0.01238
5.244,-0.05701
5.248,-0.01921
5.252,-0.05054
5.256,-0.03975
5.26,-0.03154
5.264,-0.03205
5.268,-0.04841
5.272,0.00693
5.276,-0.04787
5.28,-0.05254
5.284,-0.02642
5.288,-0.03276
5.292,-0.01144
5.296,-0.02681
5.3,-0.01058
5.304,-0.03954
5.308,-0.06098
5.312,-0.02242
5.316,-0.04436
5.32,-0.04869
5.324,-0.0342
5.328,-0.00128
5.332,-0.01821
5.336,-0.00843
5.34,0.00302
5.344,0.02191
5.348,0.03143
5.352,0.03734
5.356,0.07566
5.36,0.05899
5.364,0.05102
5.368,0.09369
5.372,0.07382
5.376,0.06131
5.38,0.06574
5.384,0.03011
5.388,0.0263
5.392,0.03015
5.396,0.00998
5.4,-0.00833
5.404,0.00689
5.408,-0.02188
5.412,-0.02498
5.416,-0.03457
5.42,-0.0265
5.424,-0.0342
5.428,-0.00307
5.432,-0.03093
5.436,-0.05498
5.44,-0.03396
5.444,-0.04761
5.448,-0.03325
5.452,-0.02313
5.456,-0.03311
5.46,-0.02771
5.464,-0.03099
5.468,-0.00798
5.472,-0.02596
5.476,-0.03271
5.48,-0.02005
5.484,-0.08066
5.488,-0.09167
5.492,-0.13156
5.496,-0.13643
5.5,-0.11124
5.504,-0.01348
5.508,0.15396
5.512,0.35599
5.516,0.5668
5.52,0.75262
5.524,0.92985
5.528,0.95695
5.532,0.9405
5.536,0.76611
5.54,0.55465
5.544,0.30934
5.548,0.09641
5.552,-0.06443
5.556,-0.15485
5.56,-0.20625
5.564,-0.19842
5.568,-0.11678
5.572,-0.08997
5.576,-0.06452
5.58,-0.03396
5.584,-0.02087
5.588,-0.02149
5.592,-0.02481
5.596,-0.00815
5.6,-0.05721
5.604,-0.0274
5.608,-0.00642
5.612,-0.02311
5.616,-0.03035
5.62,-0.0144
5.624,-0.00289
5.628,-0.02014
5.632,-0.03212
5.636,-0.03294
5.64,-0.03379
5.644,-0.03698
5.648,-0.01566
5.652,-0.04222
5.656,-0.04185
5.66,-0.05697
5.664,-0.02796
5.668,-0.01481
5.672,-0.02556
5.676,-0.05778
5.68,-0.02503
5.684,-0.01984
5.688,-0.05344
5.692,0.00566
5.696,-0.00315
5.7,-0.00986
5.704,-0.01186
5.708,-0.01477
5.712,-0.0222
5.716,9e-05
5.72,-0.01418
5.724,0.0089
5.728,0.03075
5.732,0.02821
5.736,0.07505
5.74,0.07419
5.744,0.07412
5.748,0.08365
5.752,0.0477
5.756,0.10256
5.76,0.11441
5.764,0.10646
5.768,0.13103
5.772,0.10668
5.776,0.15649
5.78,0.13793
5.784,0.17889
5.788,0.15739
5.792,0.1877
5.796,0.18526
5.8,0.19055
5.804,0.19356
5.808,0.18811
5.812,0.19292
5.816,0.19456
5.82,0.1744
5.824,0.16288
5.828,0.15451
5.832,0.19051
5.836,0.17622
5.84,0.1228
5.844,0.11482
5.848,0.11803
5.852,0.10927
5.856,0.08481
5.86,0.07733
5.864,0.07459
5.868,0.0869
5.872,0.04008
5.876,0.05395
5.88,0.05621
5.884,0.03924
5.888,0.04239
5.892,0.01879
5.896,0.04666
5.9,-0.00462
5.904,-0.03155
5.908,0.00975
5.912,-0.01412
5.916,-0.01305
5.92,-0.03831
5.924,-0.01656
5.928,0.00493
5.932,-0.01405
5.936,-0.03466
5.94,-0.03568
5.944,-0.02964
5.948,-0.02826
5.952,-0.06168
5.956,-0.04104
5.96,-0.01905
5.964,-0.02694
5.968,-0.00591
5.972,-0.01802
5.976,-0.0147
5.98,-0.022
5.984,-0.0335
5.988,-0.01721
5.992,0.01773
5.996,-0.01395
6.0,-0.03137
6.004,-0.0249
6.008,-0.01496
6.012,-0.03618
6.016,0.0149
6.02,-0.0413
6.024,-0.01042
6.028,-0.01274
6.032,0.00678
6.036,-0.0189
6.04,-0.00097
6.044,-0.01631
6.048,-0.03142
6.052,-0.02216
6.056,-0.00918
6.06,0.00267
6.064,-0.00773
6.068,-0.01853
6.072,-0.05443
6.076,-0.02201
6.08,-0.04242
6.084,-0.02968
6.088,-0.02484
6.092,-0.00981
6.096,-0.02907
6.1,-0.00508
6.104,-0.01969
6.108,-0.01049
6.112,-0.00661
6.116,-0.0066
6.12,-0.01599
6.124,-0.03872
6.128,-0.01085
6.132,-0.0055
6.136,-0.01862
6.14,-0.02478
6.144,-0.03862
6.148,-0.03863
6.152,0.01493
6.156,-0.01106
6.16,-0.02864
6.164,0.00478
6.168,-0.01302
6.172,-0.02247
6.176,-0.0258
6.18,-0.00642
6.184,-0.02099
6.188,-0.03813
6.192,-0.02043
6.196,-0.03216
6.2,-0.01975
6.204,-0.00772
6.208,-0.02787
6.212,-0.02669
6.216,-0.01953
6.22,0.00374
6.224,-0.01585
6.228,-0.01966
6.232,-0.01392
6.236,0.00178
6.24,0.01355
6.244,0.05201
6.248,0.04005
6.252,0.04455
6.256,0.05249
6.26,0.05759
6.264,0.07578
6.268,0.05606
6.272,0.11908
6.276,0.07297
6.28,0.06858
6.284,0.06812
6.288,0.05315
6.292,0.02943
6.296,0.01002
6.3,0.01758
6.304,0.01832
6.308,-0.00282
6.312,-0.00529
6.316,0.00684
6.32,-0.01697
6.324,-0.00076
6.328,-0.02432
6.332,-0.03068
6.336,-0.02306
6.34,-0.01118
6.344,0.0004
6.348,0.00229
6.352,-0.03259
6.356,-0.01149
6.36,-0.03478
6.364,-0.02902
6.368,0.00235
6.372,-0.02049
6.376,-0.00682
6.38,-0.00823
6.384,-0.04347
6.388,-0.04315
6.392,-0.10799
6.396,-0.11393
6.4,-0.14338
6.404,-0.08421
6.408,0.00855
6.412,0.21959
6.416,0.42433
6.42,0.62543
6.424,0.83215
6.428,0.93318
6.432,0.98264
6.436,0.89122
6.44,0.74822
6.444,0.52905
6.448,0.29607
6.452,0.09598
6.456,-0.07808
6.46,-0.13512
6.464,-0.16684
6.468,-0.15291
6.472,-0.10292
6.476,-0.07838
6.48,-0.07084
6.484,-0.00113
6.488,-0.038
6.492,-0.03059
6.496,-0.01611
6.5,-0.00179
6.504,-0.01031
6.508,-0.01406
6.512,0.00819
6.516,-0.00459
6.52,-0.02138
6.524,-0.02357
6.528,-0.00657
6.532,-0.00524
6.536,-0.02489
6.54,-0.01668
6.544,0.00626
6.548,-0.00952
6.552,-0.03304
6.556,-0.013
6.56,0.00526
6.564,-0.01279
6.568,-0.00034
6.572,0.0109
6.576,-0.00326
6.58,-0.02944
6.584,-0.02543
6.588,0.01813
6.592,-0.01048
6.596,-0.0145
6.6,0.02166
6.604,0.00427
6.608,0.0199
6.612,0.01138
6.616,0.01725
6.62,0.00211
6.624,0.02989
6.628,0.0241
6.632,0.04162
6.636,0.0425
6.64,0.04224
6.644,0.0595
6.648,0.07536
6.652,0.08679
6.656,0.09081
6.66,0.10055
6.664,0.10169
6.668,0.12642
6.672,0.15592
6.676,0.14789
6.68,0.16474
6.684,0.19967
6.688,0.1596
6.692,0.19579
6.696,0.18074
6.7,0.19669
6.704,0.20747
6.708,0.23794
6.712,0.22023
6.716,0.24454
6.72,0.21183
6.724,0.18705
6.728,0.18521
6.732,0.18993
6.736,0.17577
6.74,0.185
6.744,0.17424
6.748,0.1412
6.752,0.16067
6.756,0.12707
6.76,0.0826
6.764,0.14176
6.768,0.10113
6.772,0.11862
6.776,0.08717
6.78,0.05791
6.784,0.06436
6.788,0.04277
6.792,0.03365
6.796,0.01168
6.8,0.01973
6.804,0.01928
6.808,0.00063
6.812,0.01206
6.816,-0.01549
6.82,0.03392
6.824,0.03486
6.828,0.00236
6.832,-0.01493
6.836,0.01967
6.84,0.00975
6.844,0.00543
6.848,0.01118
6.852,-0.01671
6.856,-0.01041
6.86,0.00912
6.864,0.01071
6.868,0.00885
6.872,0.01471
6.876,0.01063
6.88,-0.00751
6.884,0.00851
6.888,-0.01442
6.892,0.00125
6.896,0.01863
6.9,0.00446
6.904,0.03158
6.908,0.0002
6.912,-0.05762
6.916,-0.00252
6.92,0.00085
6.924,0.01787
6.928,-0.00588
6.932,-0.00824
6.936,0.01098
6.94,-0.00906
6.944,0.00524
6.948,-0.01722
6.952,0.00328
6.956,-0.0323
6.96,0.00432
6.964,-0.00672
6.968,-0.00728
6.972,0.00905
6.976,-0.0147
6.98,-0.00613
6.984,-0.00807
6.988,0.00135
6.992,0.01939
6.996,-0.02695
7.0,-0.00647
7.004,0.00122
7.008,0.00645
7.012,0.00939
7.016,0.02036
7.02,0.04745
7.024,0.03367
7.028,0.03576
7.032,0.05645
7.036,0.09618
7.04,0.105
7.044,0.09414
7.048,0.10458
7.052,0.10769
7.056,0.12241
7.06,0.13518
7.064,0.09948
7.068,0.09179
7.072,0.06158
7.076,0.03718
7.08,0.02089
7.084,0.04419
7.088,0.00998
7.092,0.01101
7.096,0.01993
7.1,0.00567
7.104,0.00455
7.108,0.00339
7.112,-0.01739
7.116,0.03106
7.12,0.01982
7.124,-0.0199
7.128,0.02834
7.132,0.00939
7.136,-0.01795
7.14,-0.01312
7.144,-0.00338
7.148,0.01903
7.152,0.01832
7.156,-0.00296
7.16,0.01664
7.164,-0.01216
7.168,0.00396
7.172,-0.04733
7.176,-0.058
7.18,-0.09797
7.184,-0.11906
7.188,0.0033
7.192,0.13037
7.196,0.35606
7.2,0.54554
7.204,0.74961
7.208,0.92971
7.212,0.99345
7.216,0.98358
7.22,0.84381
7.224,0.63231
7.228,0.38357
7.232,0.14982
7.236,0.0018
7.24,-0.1005
7.244,-0.15752
7.248,-0.15604
7.252,-0.13897
7.256,-0.08603
7.26,-0.0339
7.264,0.00416
7.268,0.00213
7.272,0.0207
7.276,0.01159
7.28,0.02224
7.284,-0.00087
7.288,0.0146
7.292,0.0027
7.296,0.00919
7.3,0.02308
7.304,0.00764
7.308,-0.00538
7.312,0.02227
7.316,-0.00405
7.32,-0.01552
7.324,0.01514
7.328,-0.0016
7.332,0.02319
7.336,0.06244
7.34,0.00702
7.344,0.0218
7.348,-0.00927
7.352,0.03207
7.356,-0.00243
7.36,0.02713
7.364,0.03355
7.368,0.02673
7.372,-0.00267
7.376,0.02833
7.38,0.00041
7.384,0.01985
7.388,0.02527
7.392,0.02104
7.396,0.02461
7.4,0.04784
7.404,0.04138
7.408,0.05144
7.412,0.05754
7.416,0.03471
7.42,0.06243
7.424,0.0971
7.428,0.07746
7.432,0.12304
7.436,0.11449
7.44,0.10045
7.444,0.12408
7.448,0.13277
7.452,0.17255
7.456,0.17967
7.46,0.2003
7.464,0.19637
7.468,0.23654
7.472,0.20974
7.476,0.19238
7.48,0.22809
7.484,0.23932
7.488,0.26187
7.492,0.23573
7.496,0.23831
7.5,0.24746
7.504,0.21043
7.508,0.2164
7.512,0.22198
7.516,0.20716
7.52,0.18387
7.524,0.16898
7.528,0.16181
7.532,0.14431
7.536,0.1401
7.54,0.14473
7.544,0.13437
7.548,0.10998
7.552,0.11858
7.556,0.11762
7.56,0.06443
7.564,0.10572
7.568,0.09053
7.572,0.0637
7.576,0.05897
7.58,0.05321
7.584,0.06
7.588,0.03664
7.592,0.0297
7.596,0.02759
7.6,0.05027
7.604,0.04792
7.608,0.03021
7.612,0.00136
7.616,0.03819
7.62,0.0133
7.624,0.02159
7.628,0.02712
7.632,0.04654
7.636,0.02694
7.64,0.02469
7.644,0.03826
7.648,-0.01204
7.652,0.02199
7.656,0.0336
7.66,0.0186
7.664,0.02748
7.668,0.04798
7.672,0.01484
7.676,0.01103
7.68,0.03407
7.684,0.04303
7.688,-0.02703
7.692,0.01221
7.696,-0.00195
7.7,0.00425
7.704,0.03099
7.708,0.02224
7.712,0.00768
7.716,0.04079
7.72,0.03931
7.724,0.04579
7.728,0.05895
7.732,0.0957
7.736,0.10364
7.74,0.0726
7.744,0.08949
7.748,0.10458
7.752,0.12493
7.756,0.10551
7.76,0.10554
7.764,0.14393
7.768,0.1048
7.772,0.12053
7.776,0.05681
7.78,0.05865
7.784,0.05639
7.788,0.06019
7.792,0.02672
7.796,0.05869
7.8,0.03971
7.804,0.01715
7.808,0.03985
7.812,0.02672
7.816,0.02582
7.82,0.01963
7.824,0.02405
7.828,0.01358
7.832,0.01481
7.836,0.01948
7.84,0.01733
7.844,0.02203
7.848,0.00888
7.852,0.00745
7.856,0.04527
7.86,0.03071
7.864,0.01524
7.868,-0.00495
7.872,-0.03186
7.876,-0.087
7.88,-0.09194
7.884,-0.09619
7.888,-0.04614
7.892,0.05017
7.896,0.21778
7.9,0.41282
7.904,0.60189
7.908,0.83582
7.912,0.99357
7.916,1.03234
7.92,0.95272
7.924,0.78711
7.928,0.5747
7.932,0.3404
7.936,0.13864
7.94,-0.01569
7.944,-0.11567
7.948,-0.15291
7.952,-0.1369
7.956,-0.09081
7.96,-0.04882
7.964,-0.00663
7.968,-0.00188
7.972,0.01648
7.976,0.0274
7.98,0.04196
7.984,-0.0034
7.988,0.03458
7.992,0.0032
7.996,0.01578
8.0,0.03002
8.004,0.04453
8.008,-0.00123
8.012,0.01263
8.016,0.0466
8.02,0.05559
8.024,0.01839
8.028,0.01705
8.032,-0.02884
8.036,0.03468
8.04,0.03726
8.044,0.03578
8.048,0.0162
8.052,0.04808
8.056,0.03529
8.06,0.01576
8.064,0.03524
8.068,0.04407
8.072,0.04527
8.076,0.03394
8.08,0.02644
8.084,0.03057
8.088,0.04127
8.092,0.06334
8.096,0.02156
8.1,0.0536
8.104,0.04459
8.108,0.04287
8.112,0.06417
8.116,0.08834
8.12,0.06326
8.124,0.12378
8.128,0.07122
8.132,0.1295
8.136,0.12951
8.14,0.13628
8.144,0.11692
8.148,0.17001
8.152,0.15358
8.156,0.18129
8.16,0.20306
8.164,0.20862
8.168,0.21968
8.172,0.21016
8.176,0.21873
8.18,0.25242
8.184,0.24411
8.188,0.23458
8.192,0.2578
8.196,0.2702
8.2,0.24591
8.204,0.23061
8.208,0.22579
8.212,0.2401
8.216,0.23423
8.22,0.21993
8.224,0.21164
8.228,0.19934
8.232,0.20094
8.236,0.15395
8.24,0.15302
8.244,0.14032
8.248,0.12225
8.252,0.10431
8.256,0.1514
8.26,0.11361
8.264,0.10441
8.268,0.11961
8.272,0.07384
8.276,0.05088
8.28,0.04789
8.284,0.06623
8.288,0.02722
8.292,0.05738
8.296,0.04795
8.3,0.06921
8.304,0.01301
8.308,0.01826
8.312,0.0059
8.316,0.04399
8.32,0.01139
8.324,0.03267
8.328,0.04674
8.332,0.03187
8.336,0.02145
8.34,0.00593
8.344,0.00434
8.348,0.03824
8.352,0.03271
8.356,0.0236
8.36,0.02638
8.364,0.04274
8.368,0.01972
8.372,0.02315
8.376,0.01804
8.38,0.0376
8.384,0.02115
8.388,0.04461
8.392,0.00157
8.396,0.04882
8.4,0.03042
8.404,0.02853
8.408,0.02578
8.412,0.03514
8.416,0.03747
8.42,0.00936
8.424,0.0195
8.428,0.04227
8.432,0.05216
8.436,0.05112
8.44,0.05453
8.444,0.06528
8.448,0.06604
8.452,0.11689
8.456,0.10481
8.46,0.10762
8.464,0.10922
8.468,0.11332
8.472,0.13275
8.476,0.12189
8.48,0.11187
8.484,0.10404
8.488,0.11178
8.492,0.09067
8.496,0.06641
8.5,0.05354
8.504,0.06565
8.508,0.06596
8.512,0.02758
8.516,0.0259
8.52,0.04786
8.524,0.02144
8.528,0.04104
8.532,0.01832
8.536,0.01732
8.54,0.02165
8.544,0.01842
8.548,0.03139
8.552,0.02481
8.556,0.03336
8.56,0.02398
8.564,0.02728
8.568,0.0383
8.572,0.03499
8.576,0.02599
8.58,0.01264
8.584,0.02345
8.588,-0.00172
8.592,-0.05551
8.596,-0.05913
8.6,-0.08338
8.604,-0.05336
8.608,0.02227
8.612,0.1741
8.616,0.37467
8.62,0.59471
8.624,0.80955
8.628,0.95564
8.632,1.03416
8.636,0.99916
8.64,0.83407
8.644,0.65294
8.648,0.42879
8.652,0.17386
8.656,0.03908
8.66,-0.10063
8.664,-0.13123
8.668,-0.12819
8.672,-0.12059
8.676,-0.02695
8.68,-0.01629
8.684,0.00296
8.688,0.01628
8.692,0.04309
8.696,0.03531
8.7,0.02326
8.704,0.04704
8.708,0.02829
8.712,0.03542
8.716,0.03853
8.72,0.03297
8.724,0.04511
8.728,0.04608
8.732,0.02227
8.736,0.02919
8.74,0.02197
8.744,0.00393
8.748,-0.00122
8.752,0.03445
8.756,0.02777
8.76,0.03451
8.764,0.03224
8.768,0.04322
8.772,0.02739
8.776,0.02868
8.78,0.03486
8.784,0.03391
8.788,0.01268
8.792,0.06063
8.796,0.03888
8.8,0.01769
8.804,0.02626
8.808,0.04748
8.812,0.06555
8.816,0.03834
8.82,0.07879
8.824,0.05557
8.828,0.04529
8.832,0.07091
8.836,0.09273
8.84,0.07774
8.844,0.1012
8.848,0.10752
8.852,0.09209
8.856,0.12194
8.86,0.1359
8.864,0.13475
8.868,0.17228
8.872,0.20181
8.876,0.16881
8.88,0.19678
8.884,0.22667
8.888,0.2235
8.892,0.26797
8.896,0.24693
8.9,0.24161
8.904,0.25804
8.908,0.25535
8.912,0.263
8.916,0.21874
8.92,0.2376
8.924,0.23473
8.928,0.25357
8.932,0.22412
8.936,0.20376
8.94,0.19096
8.944,0.1932
8.948,0.16719
8.952,0.1837
8.956,0.14366
8.96,0.15158
8.964,0.11608
8.968,0.12387
8.972,0.11491
8.976,0.11298
8.98,0.12004
8.984,0.08536
8.988,0.07598
8.992,0.09237
8.996,0.07004
9.0,0.06652
9.004,0.08105
9.008,0.02899
9.012,0.04871
9.016,0.04953
9.02,0.0452
9.024,0.02819
9.028,0.04169
9.032,0.04016
9.036,0.02869
9.04,0.04986
9.044,0.0132
9.048,0.02478
9.052,0.036
9.056,0.02122
9.06,0.00305
9.064,0.04006
9.068,0.02315
9.072,0.01465
9.076,0.02397
9.08,0.06302
9.084,0.01222
9.088,0.00788
9.092,0.01289
9.096,0.02402
9.1,0.04113
9.104,0.02507
9.108,0.02408
9.112,0.01993
9.116,0.05319
9.12,0.03455
9.124,0.01241
9.128,0.00725
9.132,0.03009
9.136,0.05648
9.14,0.03241
9.144,0.02924
9.148,0.0207
9.152,0.02021
9.156,0.05497
9.16,0.02636
9.164,0.03161
9.168,0.04513
9.172,0.01433
9.176,0.02869
9.18,0.01047
9.184,0.03216
9.188,0.05695
9.192,0.03031
9.196,0.02673
9.2,0.05042
9.204,0.0207
9.208,0.00324
9.212,0.04444
9.216,0.03897
9.22,0.01885
9.224,0.04181
9.228,0.02438
9.232,0.04975
9.236,0.04155
9.24,0.03334
9.244,0.06182
9.248,0.0927
9.252,0.07182
9.256,0.08184
9.26,0.10931
9.264,0.11521
9.268,0.14079
9.272,0.10387
9.276,0.11468
9.28,0.12325
9.284,0.09705
9.288,0.10038
9.292,0.09512
9.296,0.09417
9.3,0.08626
9.304,0.07263
9.308,0.03945
9.312,0.03318
9.316,0.02872
9.32,0.01865
9.324,0.03555
9.328,0.00226
9.332,0.01415
9.336,0.0131
9.34,0.01326
9.344,0.0562
9.348,-0.01854
9.352,-0.01168
9.356,0.00023
9.36,0.03249
9.364,0.01677
9.368,0.0378
9.372,0.05046
9.376,0.00194
9.38,0.01831
9.384,-0.00101
9.388,-0.00589
9.392,-0.02204
9.396,-0.03678
9.4,-0.09633
9.404,-0.12491
9.408,-0.0524
9.412,0.05903
9.416,0.2305
9.42,0.44007
9.424,0.66689
9.428,0.84743
9.432,0.99477
9.436,1.029
9.44,0.94451
9.444,0.77297
9.448,0.53851
9.452,0.34269
9.456,0.08841
9.46,-0.04858
9.464,-0.14716
9.468,-0.1584
9.472,-0.11802
9.476,-0.05707
9.48,-0.02117
9.484,-0.00911
9.488,-0.00095
9.492,0.01421
9.496,-0.00303
9.5,0.03998
9.504,0.00807
9.508,0.02768
9.512,0.01101
9.516,0.03574
9.52,0.01999
9.524,0.02102
9.528,0.02337
9.532,0.00346
9.536,0.03785
9.54,0.02458
9.544,0.01417
9.548,0.04961
9.552,0.01685
9.556,0.05277
9.56,0.02147
9.564,0.0294
9.568,0.03314
9.572,0.04355
9.576,0.02047
9.58,0.04605
9.584,0.02261
9.588,0.00929
9.592,0.02586
9.596,0.03591
9.6,0.01956
9.604,0.00607
9.608,0.03242
9.612,0.04023
9.616,0.02845
9.62,0.04464
9.624,0.0638
9.628,0.05221
9.632,0.04293
9.636,0.04159
9.64,0.0906
9.644,0.10738
9.648,0.0999
9.652,0.08789
9.656,0.12073
9.66,0.10076
9.664,0.15078
9.668,0.14075
9.672,0.1363
9.676,0.15507
9.68,0.184
9.684,0.15375
9.688,0.21528
9.692,0.20002
9.696,0.16517
9.7,0.22217
9.704,0.26457
9.708,0.21497
9.712,0.23328
9.716,0.22554
9.72,0.22945
9.724,0.24542
9.728,0.23416
9.732,0.19533
9.736,0.22947
9.74,0.20441
9.744,0.21249
9.748,0.19196
9.752,0.16893
9.756,0.15733
9.76,0.13382
9.764,0.12649
9.768,0.10726
9.772,0.10116
9.776,0.11119
9.78,0.09301
9.784,0.08307
9.788,0.09243
9.792,0.05084
9.796,0.06866
9.8,0.03035
9.804,0.0373
9.808,0.05063
9.812,0.02313
9.816,0.03548
9.82,0.03171
9.824,0.0079
9.828,-0.00305
9.832,0.02541
9.836,0.03125
9.84,0.00427
9.844,0.02222
9.848,0.01167
9.852,0.01842
9.856,0.00875
9.86,0.00717
9.864,0.00586
9.868,-0.00314
9.872,0.03766
9.876,-0.00107
9.88,-0.00253
9.884,-0.02762
9.888,0.00278
9.892,-0.00822
9.896,0.01616
9.9,0.01397
9.904,0.02395
9.908,0.03291
9.912,0.00617
9.916,0.01555
9.92,0.01979
9.924,0.027
9.928,0.00689
9.932,0.01387
9.936,0.0348
9.94,-0.02116
9.944,-0.0016
9.948,0.02046
9.952,0.03911
9.956,0.02004
9.96,-0.00346
9.964,0.00758
9.968,0.00582
9.972,0.00646
9.976,0.01497
9.98,0.00661
9.984,0.01888
9.988,0.00727
9.992,0.01174
9.996,-0.00098
