t_seg,ecg_mV
0.0,-0.04532
0.004,-0.07441
0.008,-0.06258
0.012,0.0263
0.016,-0.0408
0.02,-0.05132
0.024,-0.00764
0.028,-0.02564
0.032,0.02281
0.036,0.01616
0.04,0.02014
0.044,0.00903
0.048,0.08601
0.052,0.08103
0.056,0.06352
0.06,0.08082
0.064,0.09429
0.068,0.07772
0.072,0.10426
0.076,0.04194
0.08,0.07828
0.084,0.03829
0.088,0.06254
0.092,0.03439
0.096,-0.015
0.1,0.02475
0.104,0.05418
0.108,0.00469
0.112,-0.04198
0.116,-0.01637
0.12,0.02041
0.124,0.02903
0.128,-0.03838
0.132,-0.0161
0.136,-0.04733
0.14,-0.04204
0.144,0.05218
0.148,0.03321
0.152,0.0286
0.156,0.02626
0.16,0.04295
0.164,0.0028
0.168,-0.11239
0.172,0.00826
0.176,-0.01993
0.18,-0.01991
0.184,-0.04787
0.188,-0.08253
0.192,-0.1129
0.196,-0.12319
0.2,-0.07482
0.204,0.03288
0.208,0.22467
0.212,0.39581
0.216,0.69225
0.22,0.80882
0.224,0.9346
0.228,0.95438
0.232,0.90252
0.236,0.71278
0.24,0.57069
0.244,0.26763
0.248,0.10045
0.252,-0.0593
0.256,-0.12668
0.26,-0.19821
0.264,-0.12892
0.268,-0.13041
0.272,-0.05336
0.276,-0.08375
0.28,-0.03789
0.284,0.04228
0.288,0.00786
0.292,-0.05251
0.296,-0.03751
0.3,-0.0069
0.304,0.02834
0.308,0.00464
0.312,-0.06977
0.316,0.05251
0.32,0.01376
0.324,0.00346
0.328,0.03872
0.332,-0.02876
0.336,-0.04306
0.34,-0.03715
0.344,-0.0862
0.348,-0.05889
0.352,0.05014
0.356,-0.06573
0.36,-0.00419
0.364,0.02507
0.368,0.04752
0.372,0.00811
0.376,-0.00222
0.38,-0.02109
0.384,0.01654
0.388,-0.00758
0.392,-0.00993
0.396,-0.03842
0.4,0.04683
0.404,-0.00017
0.408,0.04815
0.412,0.07145
0.416,0.03624
0.42,0.07794
0.424,0.04746
0.428,0.02941
0.432,0.04887
0.436,0.03846
0.44,0.12182
0.444,0.14434
0.448,0.02738
0.452,0.06154
0.456,0.08044
0.46,0.11213
0.464,0.11105
0.468,0.11058
0.472,0.17508
0.476,0.20934
0.48,0.17785
0.484,0.25041
0.488,0.19826
0.492,0.2121
0.496,0.18431
0.5,0.25137
0.504,0.2082
0.508,0.19612
0.512,0.1824
0.516,0.21375
0.52,0.15458
0.524,0.23262
0.528,0.21322
0.532,0.21
0.536,0.19174
0.54,0.17476
0.544,0.153
0.548,0.15167
0.552,0.10441
0.556,0.13157
0.56,0.09997
0.564,0.10826
0.568,0.13715
0.572,0.0808
0.576,0.11229
0.58,0.06263
0.584,-0.00558
0.588,0.01402
0.592,0.07656
0.596,0.06517
0.6,0.04409
0.604,0.08063
0.608,0.02452
0.612,0.01514
0.616,0.02331
0.62,0.05439
0.624,0.08547
0.628,0.12354
0.632,0.09848
0.636,0.07792
0.64,0.11048
0.644,0.0944
0.648,0.08567
0.652,0.11793
0.656,0.12247
0.66,0.01665
0.664,0.08771
0.668,0.04674
0.672,0.0578
0.676,0.02568
0.68,0.01883
0.684,-0.00612
0.688,0.02326
0.692,-0.03622
0.696,0.04163
0.7,-0.05295
0.704,0.00959
0.708,-0.04024
0.712,0.00393
0.716,0.02664
0.72,0.01931
0.724,-0.02914
0.728,0.02804
0.732,0.00741
0.736,-0.01824
0.74,0.01696
0.744,-0.00812
0.748,0.00753
0.752,-0.00911
0.756,-0.02729
0.76,-0.03166
0.764,-0.03388
0.768,-0.0808
0.772,-0.10723
0.776,-0.005
0.78,0.12012
0.784,0.3017
0.788,0.57578
0.792,0.77879
0.796,0.90195
0.8,0.98628
0.804,0.94998
0.808,0.9439
0.812,0.67386
0.816,0.51074
0.82,0.20492
0.824,0.03528
0.828,-0.09578
0.832,-0.13632
0.836,-0.19438
0.84,-0.1219
0.844,-0.14812
0.848,-0.01813
0.852,-0.0511
0.856,0.00895
0.86,-0.00734
0.864,0.07359
0.868,-0.01226
0.872,-0.01838
0.876,0.04843
0.88,-0.01925
0.884,0.1031
0.888,0.02757
0.892,0.01622
0.896,0.03985
0.9,0.01475
0.904,0.01365
0.908,0.00188
0.912,-0.0126
0.916,0.04707
0.92,-0.03368
0.924,0.03464
0.928,-0.01147
0.932,0.03613
0.936,0.00049
0.94,0.05051
0.944,0.03387
0.948,0.05528
0.952,0.0121
0.956,0.02459
0.96,0.02829
0.964,-0.0037
0.968,0.00736
0.972,0.02024
0.976,0.04285
0.98,0.01673
0.984,0.07628
0.988,0.15294
0.992,0.08192
0.996,0.09478
1.0,0.11951
1.004,0.1795
1.008,0.10179
1.012,0.12845
1.016,0.21027
1.02,0.16431
1.024,0.13811
1.028,0.22348
1.032,0.18339
1.036,0.20818
1.04,0.16403
1.044,0.23916
1.048,0.18998
1.052,0.16845
1.056,0.18328
1.06,0.23068
1.064,0.2118
1.068,0.25512
1.072,0.18885
1.076,0.27032
1.08,0.1451
1.084,0.21977
1.088,0.2442
1.092,0.23413
1.096,0.24906
1.1,0.24393
1.104,0.1818
1.108,0.22915
1.112,0.15686
1.116,0.16354
1.12,0.23978
1.124,0.13208
1.128,0.05385
1.132,0.05517
1.136,0.02769
1.14,-0.03829
1.144,-0.02121
1.148,0.06555
1.152,0.16063
1.156,0.32024
1.16,0.57708
1.164,0.76884
1.168,0.87172
1.172,1.05222
1.176,1.04144
1.18,0.93133
1.184,0.67662
1.188,0.47549
1.192,0.26495
1.196,0.09892
1.2,-0.08057
1.204,-0.18792
1.208,-0.12493
1.212,-0.08797
1.216,-0.09174
1.22,0.0044
1.224,-0.06472
1.228,0.00348
1.232,-0.04202
1.236,0.05549
1.24,0.04967
1.244,0.01884
1.248,0.02856
1.252,-0.06528
1.256,0.0418
1.26,0.01505
1.264,0.04661
1.268,-0.02555
1.272,0.06633
1.276,0.01767
1.28,0.05486
1.284,-0.0282
1.288,0.02154
1.292,-0.00276
1.296,-0.00836
1.3,0.00279
1.304,0.04269
1.308,-0.04972
1.312,0.03529
1.316,0.07217
1.32,-0.02237
1.324,0.00757
1.328,0.04429
1.332,-0.0411
1.336,0.01577
1.34,0.06932
1.344,-0.02316
1.348,0.02365
1.352,0.06336
1.356,0.03011
1.36,0.05073
1.364,0.05089
1.368,0.06062
1.372,0.11145
1.376,0.11766
1.38,0.05161
1.384,0.08148
1.388,0.16219
1.392,0.08978
1.396,0.13074
1.4,0.08902
1.404,0.13487
1.408,0.15924
1.412,0.18891
1.416,0.11919
1.42,0.11659
1.424,0.21323
1.428,0.16318
1.432,0.23491
1.436,0.28006
1.44,0.28534
1.444,0.21408
1.448,0.27095
1.452,0.22087
1.456,0.27312
1.46,0.21769
1.464,0.22589
1.468,0.20117
1.472,0.20194
1.476,0.18934
1.48,0.17806
1.484,0.24538
1.488,0.21917
1.492,0.15274
1.496,0.18092
1.5,0.16708
1.504,0.12312
1.508,0.16043
1.512,0.09754
1.516,0.13366
1.52,0.13308
1.524,0.11283
1.528,0.08238
1.532,0.0554
1.536,0.07301
1.54,0.01893
1.544,0.0344
1.548,0.01137
1.552,-0.01592
1.556,0.05461
1.56,0.03977
1.564,-0.03934
1.568,0.09721
1.572,-0.0244
1.576,0.02847
1.58,-0.01884
1.584,-0.02998
1.588,0.0009
1.592,0.04524
1.596,0.04756
1.6,0.04593
1.604,0.00972
1.608,0.04846
1.612,0.05681
1.616,-0.0086
1.62,0.04486
1.624,0.01833
1.628,0.03974
1.632,0.03512
1.636,-0.01596
1.64,-0.00458
1.644,0.0098
1.648,0.00121
1.652,0.00679
1.656,-0.0193
1.66,0.02749
1.664,0.042
1.668,0.01029
1.672,0.07593
1.676,0.06107
1.68,0.05131
1.684,-0.02017
1.688,-0.02632
1.692,0.03066
1.696,-0.00873
1.7,0.04007
1.704,0.04581
1.708,0.08431
1.712,0.00979
1.716,0.02313
1.72,0.01275
1.724,0.01936
1.728,0.06889
1.732,0.01547
1.736,-0.00887
1.74,0.04429
1.744,0.01955
1.748,0.04906
1.752,-0.01753
1.756,-0.0277
1.76,0.07249
1.764,-0.00411
1.768,-0.01777
1.772,0.00974
1.776,0.05028
1.78,0.01499
1.784,0.02195
1.788,0.05622
1.792,0.07412
1.796,0.0754
1.8,0.08368
1.804,-0.02849
1.808,0.07007
1.812,0.08012
1.816,0.08148
1.82,0.10683
1.824,0.01038
1.828,0.11343
1.832,0.09253
1.836,0.14086
1.84,0.10571
1.844,0.11097
1.848,0.0949
1.852,0.10043
1.856,0.13462
1.86,0.09536
1.864,0.0638
1.868,0.01509
1.872,0.07204
1.876,0.04995
1.88,-0.03679
1.884,0.0358
1.888,0.02253
1.892,0.083
1.896,0.02485
1.9,0.09409
1.904,0.09772
1.908,0.07739
1.912,0.02042
1.916,-0.04392
1.92,-0.00546
1.924,0.02231
1.928,0.00184
1.932,-0.03233
1.936,0.00542
1.94,0.00348
1.944,-0.03201
1.948,0.06595
1.952,-0.03653
1.956,0.04185
1.96,-0.00212
1.964,0.03344
1.968,-0.08756
1.972,-0.03608
1.976,-0.11713
1.98,-0.00514
1.984,0.09374
1.988,0.31537
1.992,0.43842
1.996,0.64299
2.0,0.90652
2.004,0.98919
2.008,1.01054
2.012,0.95151
2.016,0.68472
2.02,0.49749
2.024,0.33315
2.028,0.17266
2.032,0.00028
2.036,-0.10831
2.04,-0.12506
2.044,-0.1005
2.048,-0.10359
2.052,-0.02572
2.056,-0.05061
2.06,0.00578
2.064,0.01684
2.068,0.05667
2.072,0.01338
2.076,-0.00227
2.08,0.051
2.084,0.04619
2.088,-0.00553
2.092,0.03716
2.096,0.03203
2.1,0.03478
2.104,0.01564
2.108,0.0315
2.112,-0.02487
2.116,0.03792
2.12,0.06696
2.124,0.00359
2.128,0.02924
2.132,0.08937
2.136,0.00155
2.14,0.00128
2.144,0.04768
2.148,0.06864
2.152,-0.00761
2.156,0.06516
2.16,0.00175
2.164,0.07663
2.168,0.06221
2.172,0.04471
2.176,0.0014
2.18,0.06822
2.184,0.02886
2.188,0.07132
2.192,0.07547
2.196,0.07953
2.2,0.05256
2.204,0.04201
2.208,0.06236
2.212,0.13366
2.216,0.10242
2.22,0.06953
2.224,0.12704
2.228,0.11929
2.232,0.13951
2.236,0.13298
2.24,0.13111
2.244,0.12394
2.248,0.17955
2.252,0.19049
2.256,0.19329
2.26,0.18899
2.264,0.24969
2.268,0.24918
2.272,0.20845
2.276,0.21477
2.28,0.24619
2.284,0.26847
2.288,0.27847
2.292,0.18283
2.296,0.26928
2.3,0.18268
2.304,0.24944
2.308,0.25109
2.312,0.12094
2.316,0.22615
2.32,0.14501
2.324,0.24349
2.328,0.17682
2.332,0.2108
2.336,0.12765
2.34,0.15295
2.344,0.10747
2.348,0.10446
2.352,0.08569
2.356,0.10201
2.36,0.05871
2.364,0.04947
2.368,0.08814
2.372,0.06364
2.376,0.05175
2.38,0.01989
2.384,0.06287
2.388,0.08625
2.392,0.02623
2.396,0.07293
2.4,0.05475
2.404,0.01833
2.408,0.03868
2.412,0.0749
2.416,0.01543
2.42,0.00801
2.424,0.02147
2.428,0.01729
2.432,0.07491
2.436,0.03863
2.44,0.03962
2.444,-0.04538
2.448,-0.00063
2.452,0.09413
2.456,0.00557
2.46,0.03211
2.464,0.0007
2.468,-0.05042
2.472,0.0704
2.476,0.08403
2.48,0.04749
2.484,-0.00991
2.488,0.04178
2.492,0.04724
2.496,0.04852
2.5,0.03465
2.504,-0.02288
2.508,0.07919
2.512,0.03032
2.516,0.06187
2.52,0.00189
2.524,0.05715
2.528,0.09598
2.532,0.09153
2.536,0.15433
2.54,0.08944
2.544,0.09215
2.548,0.15634
2.552,0.1139
2.556,0.11804
2.56,0.16967
2.564,0.13743
2.568,0.1547
2.572,0.07166
2.576,0.06125
2.58,0.06329
2.584,0.01105
2.588,0.01517
2.592,0.06418
2.596,0.02573
2.6,-0.01637
2.604,0.01572
2.608,0.02934
2.612,0.01301
2.616,0.03654
2.62,0.05422
2.624,0.00072
2.628,0.01742
2.632,0.08365
2.636,0.02622
2.64,0.03944
2.644,-0.02855
2.648,-0.02251
2.652,0.06767
2.656,-0.00802
2.66,0.03933
2.664,0.03
2.668,0.04318
2.672,-0.07295
2.676,-0.05776
2.68,-0.15417
2.684,-0.09676
2.688,0.06743
2.692,0.21289
2.696,0.43333
2.7,0.63534
2.704,0.87403
2.708,1.01427
2.712,0.99209
2.716,0.9104
2.72,0.86475
2.724,0.55189
2.728,0.33792
2.732,0.16283
2.736,-0.00092
2.74,-0.11638
2.744,-0.13079
2.748,-0.09956
2.752,-0.08672
2.756,-0.08144
2.76,-0.01807
2.764,0.0391
2.768,0.06478
2.772,0.06714
2.776,0.045
2.78,-0.00718
2.784,-0.03468
2.788,0.01631
2.792,-0.0128
2.796,0.01591
2.8,0.02552
2.804,-0.01255
2.808,0.03964
2.812,0.0139
2.816,-0.05428
2.82,0.03443
2.824,0.06226
2.828,-0.00167
2.832,0.03714
2.836,0.10118
2.84,0.05151
2.844,0.03804
2.848,-0.00528
2.852,0.03683
2.856,0.05945
2.86,0.05219
2.864,0.02882
2.868,0.04504
2.872,0.07518
2.876,0.09652
2.88,0.03556
2.884,0.03518
2.888,0.03485
2.892,0.07907
2.896,-0.03011
2.9,0.02905
2.904,0.11176
2.908,0.09262
2.912,0.05186
2.916,0.088
2.92,0.08132
2.924,0.11448
2.928,0.13275
2.932,0.11804
2.936,0.15995
2.94,0.08339
2.944,0.16623
2.948,0.1614
2.952,0.1708
2.956,0.16323
2.96,0.1676
2.964,0.22446
2.968,0.17303
2.972,0.22045
2.976,0.182
2.98,0.23172
2.984,0.23858
2.988,0.24821
2.992,0.34042
2.996,0.25508
3.0,0.28497
3.004,0.25738
3.008,0.20482
3.012,0.27934
3.016,0.20025
3.02,0.22411
3.024,0.19443
3.028,0.17853
3.032,0.19361
3.036,0.08837
3.04,0.13805
3.044,0.16472
3.048,0.12073
3.052,0.12954
3.056,0.09117
3.06,0.1018
3.064,0.03867
3.068,0.11649
3.072,0.14166
3.076,0.06506
3.08,0.02334
3.084,0.03416
3.088,0.04906
3.092,0.08518
3.096,-0.00551
3.1,0.09713
3.104,0.01585
3.108,0.00681
3.112,-0.04893
3.116,0.01683
3.12,0.08775
3.124,-0.02035
3.128,-0.02843
3.132,0.04003
3.136,0.08586
3.14,0.05944
3.144,0.0237
3.148,0.07688
3.152,0.06122
3.156,-0.02468
3.16,0.06441
3.164,0.1013
3.168,0.10738
3.172,0.14729
3.176,0.08668
3.18,0.11901
3.184,0.11204
3.188,0.09933
3.192,0.09259
3.196,0.08288
3.2,0.09514
3.204,0.0904
3.208,0.03016
3.212,0.05163
3.216,0.02358
3.22,0.02767
3.224,0.0265
3.228,0.07066
3.232,0.04024
3.236,-0.02833
3.24,-0.03534
3.244,0.03673
3.248,0.06022
3.252,-0.05946
3.256,0.00667
3.26,0.04834
3.264,0.07388
3.268,0.01114
3.272,0.00385
3.276,-0.0051
3.28,-0.02196
3.284,0.01573
3.288,-0.01147
3.292,-0.03904
3.296,-0.07759
3.3,-0.10562
3.304,-0.07851
3.308,-0.03713
3.312,0.17774
3.316,0.26174
3.32,0.48524
3.324,0.70355
3.328,0.96069
3.332,0.90664
3.336,0.97867
3.34,0.88634
3.344,0.69496
3.348,0.49528
3.352,0.33703
3.356,0.07009
3.36,-0.02529
3.364,-0.19119
3.368,-0.16401
3.372,-0.16869
3.376,-0.04669
3.38,-0.04449
3.384,0.03
3.388,0.01196
3.392,0.01226
3.396,-0.02648
3.4,-0.02552
3.404,0.02176
3.408,0.00454
3.412,0.0669
3.416,0.04479
3.42,-0.07066
3.424,-0.00745
3.428,0.02843
3.432,-0.04323
3.436,-0.06007
3.44,-0.02658
3.444,0.01716
3.448,-0.03231
3.452,0.02233
3.456,0.0443
3.46,0.08746
3.464,-0.0171
3.468,-0.00178
3.472,-0.02313
3.476,-0.03413
3.48,0.06262
3.484,-0.04
3.488,0.06186
3.492,0.04722
3.496,0.09177
3.5,0.06733
3.504,0.0066
3.508,0.07514
3.512,0.02316
3.516,0.01958
3.52,0.06542
3.524,0.04769
3.528,0.08217
3.532,0.01048
3.536,0.05771
3.54,0.04229
3.544,0.04783
3.548,0.11852
3.552,0.1157
3.556,0.03543
3.56,0.13314
3.564,0.11864
3.568,0.20307
3.572,0.14326
3.576,0.17562
3.58,0.21872
3.584,0.22944
3.588,0.20557
3.592,0.21677
3.596,0.21472
3.6,0.14738
3.604,0.17304
3.608,0.1981
3.612,0.22932
3.616,0.2087
3.62,0.24544
3.624,0.17746
3.628,0.21612
3.632,0.19994
3.636,0.165
3.64,0.18979
3.644,0.19245
3.648,0.15911
3.652,0.15673
3.656,0.20758
3.66,0.13359
3.664,0.13355
3.668,0.17241
3.672,0.12957
3.676,0.13181
3.68,0.03852
3.684,0.04942
3.688,0.06772
3.692,-0.0087
3.696,0.04995
3.7,0.03848
3.704,-0.03192
3.708,-0.0175
3.712,-0.04782
3.716,0.01368
3.72,0.05402
3.724,0.04948
3.728,0.04934
3.732,0.01137
3.736,-0.02476
3.74,0.00146
3.744,0.03545
3.748,-0.02486
3.752,0.0836
3.756,0.03575
3.76,-0.03925
3.764,0.02612
3.768,0.05677
3.772,0.05339
3.776,0.00933
3.78,0.03765
3.784,0.00776
3.788,0.06304
3.792,0.05116
3.796,0.01685
3.8,0.11928
3.804,0.11146
3.808,0.14658
3.812,0.11262
3.816,0.0787
3.82,0.10974
3.824,0.06584
3.828,0.05885
3.832,0.13545
3.836,0.03133
3.84,0.07725
3.844,0.106
3.848,0.0096
3.852,0.03071
3.856,0.03342
3.86,-0.00866
3.864,0.06501
3.868,0.02893
3.872,-0.01124
3.876,-0.00831
3.88,0.04533
3.884,0.01148
3.888,-0.01727
3.892,0.02389
3.896,-0.01456
3.9,-0.01355
3.904,-0.02241
3.908,0.02704
3.912,-0.02845
3.916,0.06628
3.92,0.01831
3.924,-0.03961
3.928,-0.05115
3.932,0.00158
3.936,-0.07381
3.94,-0.12113
3.944,-0.10727
3.948,-0.08084
3.952,-0.0042
3.956,0.13273
3.96,0.20954
3.964,0.37852
3.968,0.43812
3.972,0.51243
3.976,0.52884
3.98,0.46025
3.984,0.30032
3.988,0.28202
3.992,0.11514
3.996,-0.01843
4.0,-0.15164
4.004,-0.19669
4.008,-0.17084
4.012,-0.17746
4.016,-0.07869
4.02,-0.05269
4.024,0.03005
4.028,-0.00744
4.032,-0.01377
4.036,-0.00893
4.04,0.06485
4.044,0.01774
4.048,0.01691
4.052,-0.05171
4.056,-0.07429
4.06,-0.03981
4.064,0.01489
4.068,0.02816
4.072,0.063
4.076,0.04568
4.08,-0.02615
4.084,-0.05477
4.088,-0.04088
4.092,0.05769
4.096,-0.02631
4.1,0.00089
4.104,0.03144
4.108,0.02715
4.112,0.03519
4.116,-0.00943
4.12,-0.05796
4.124,0.01904
4.128,-0.00582
4.132,-0.01251
4.136,0.02275
4.14,0.06899
4.144,-0.00251
4.148,0.0423
4.152,0.03909
4.156,0.04641
4.16,0.12826
4.164,0.09862
4.168,0.2157
4.172,0.14928
4.176,0.11498
4.18,0.08038
4.184,0.14797
4.188,0.17956
4.192,0.03691
4.196,0.16389
4.2,0.10074
4.204,0.18018
4.208,0.11542
4.212,0.16202
4.216,0.08987
4.22,0.10162
4.224,0.14717
4.228,0.22496
4.232,0.20437
4.236,0.17541
4.24,0.21209
4.244,0.21347
4.248,0.2316
4.252,0.18257
4.256,0.17741
4.26,0.15486
4.264,0.17767
4.268,0.17192
4.272,0.26484
4.276,0.12586
4.28,0.20506
4.284,0.07778
4.288,0.10563
4.292,0.0096
4.296,0.04214
4.3,0.05533
4.304,0.08516
4.308,0.20527
4.312,0.39338
4.316,0.56346
4.32,0.77103
4.324,0.90337
4.328,1.00204
4.332,0.98568
4.336,0.81129
4.34,0.65812
4.344,0.43965
4.348,0.16378
4.352,-0.02862
4.356,-0.10732
4.36,-0.15108
4.364,-0.13639
4.368,-0.08462
4.372,-0.05955
4.376,-0.02585
4.38,-0.06124
4.384,-0.02788
4.388,-0.04741
4.392,0.00146
4.396,-0.01637
4.4,-0.01288
4.404,-0.03614
4.408,0.03114
4.412,0.05225
4.416,-0.00915
4.42,-0.02371
4.424,-0.01947
4.428,-0.02809
4.432,-0.07451
4.436,-0.04695
4.44,-0.03054
4.444,0.00274
4.448,-0.00779
4.452,-0.06343
4.456,-0.03817
4.46,-0.02963
4.464,-0.0068
4.468,-0.0528
4.472,0.06837
4.476,-0.05491
4.48,-0.01889
4.484,0.02187
4.488,-0.02
4.492,-0.00571
4.496,-0.01816
4.5,0.01205
4.504,0.05019
4.508,0.01103
4.512,0.00274
4.516,0.00979
4.52,-0.00427
4.524,0.0448
4.528,0.04964
4.532,0.01953
4.536,0.03819
4.54,0.04702
4.544,0.04257
4.548,0.03547
4.552,0.09719
4.556,0.11106
4.56,0.04459
4.564,0.20293
4.568,0.1068
4.572,0.20785
4.576,0.19216
4.58,0.1875
4.584,0.26069
4.588,0.24753
4.592,0.29443
4.596,0.33385
4.6,0.33665
4.604,0.2697
4.608,0.36306
4.612,0.29418
4.616,0.26538
4.62,0.2604
4.624,0.17334
4.628,0.20931
4.632,0.21263
4.636,0.25212
4.64,0.20129
4.644,0.09969
4.648,0.15471
4.652,0.18456
4.656,0.12997
4.66,0.0771
4.664,0.09276
4.668,0.06657
4.672,0.05793
4.676,0.04111
4.68,-0.02029
4.684,-0.00053
4.688,0.01041
4.692,0.00906
4.696,0.003
4.7,-0.03344
4.704,0.01549
4.708,-0.04504
4.712,0.00425
4.716,-0.06635
4.72,-0.05284
4.724,-0.06818
4.728,-0.12906
4.732,-0.11901
4.736,-0.14264
4.74,-0.02015
4.744,0.13101
4.748,0.29228
4.752,0.45138
4.756,0.55574
4.76,0.63298
4.764,0.6027
4.768,0.47804
4.772,0.46849
4.776,0.22941
4.78,0.12766
4.784,-0.02396
4.788,-0.12336
4.792,-0.14787
4.796,-0.24082
4.8,-0.1474
4.804,-0.15582
4.808,-0.06773
4.812,-0.11516
4.816,-0.02623
4.82,-0.00049
4.824,-0.0635
4.828,-0.05186
4.832,-0.02711
4.836,-0.07572
4.84,-0.09499
4.844,0.00335
4.848,-0.02553
4.852,-0.02362
4.856,0.0069
4.86,-0.02183
4.864,-0.01476
4.868,-0.03692
4.872,-0.04508
4.876,0.00438
4.88,-0.08751
4.884,-0.01477
4.888,-0.02527
4.892,0.03042
4.896,-0.06299
4.9,-0.01567
4.904,0.03578
4.908,-0.02185
4.912,0.02137
4.916,0.00166
4.92,0.00583
4.924,-0.00641
4.928,0.05684
4.932,-0.01104
4.936,-0.01153
4.94,-0.02128
4.944,-0.01425
4.948,0.05573
4.952,0.00362
4.956,0.01195
4.96,-0.067
4.964,0.06572
4.968,0.03436
4.972,0.08653
4.976,0.00467
4.98,0.02976
4.984,0.03011
4.988,0.06244
4.992,0.07027
4.996,0.10199
5.0,0.16761
5.004,0.09653
5.008,0.13698
5.012,0.13876
5.016,0.13412
5.02,0.09456
5.024,0.21149
5.028,0.17688
5.032,0.13772
5.036,0.2131
5.04,0.16645
5.044,0.13207
5.048,0.23591
5.052,0.22076
5.056,0.15168
5.06,0.19641
5.064,0.16578
5.068,0.16747
5.072,0.17531
5.076,0.12906
5.08,0.13174
5.084,0.14075
5.088,0.10024
5.092,0.08984
5.096,0.05246
5.1,0.13244
5.104,0.01373
5.108,0.02926
5.112,0.06013
5.116,0.01211
5.12,-0.03638
5.124,0.05763
5.128,-0.0124
5.132,0.03324
5.136,0.04624
5.14,0.05294
5.144,-0.06687
5.148,-0.06196
5.152,0.0169
5.156,0.02899
5.16,0.00065
5.164,-0.07969
5.168,-0.05237
5.172,-0.02033
5.176,0.01581
5.18,0.02416
5.184,-0.01296
5.188,-0.03572
5.192,-0.06306
5.196,-0.10716
5.2,0.02431
5.204,0.00099
5.208,-0.04148
5.212,-0.10141
5.216,-0.00497
5.22,-0.08575
5.224,0.00069
5.228,-0.00938
5.232,0.00927
5.236,-0.01395
5.24,-0.03233
5.244,-0.03095
5.248,-0.07257
5.252,0.00049
5.256,0.03017
5.26,0.06375
5.264,-0.00777
5.268,0.09833
5.272,0.05358
5.276,0.08136
5.28,0.11763
5.284,0.02312
5.288,0.02462
5.292,0.05252
5.296,0.02438
5.3,0.03074
5.304,3e-05
5.308,-0.0525
5.312,-0.01017
5.316,-0.03182
5.32,-0.02994
5.324,0.02624
5.328,-0.01263
5.332,-0.06633
5.336,-0.03669
5.34,-0.01517
5.344,-0.02205
5.348,0.02955
5.352,-0.02648
5.356,-0.04241
5.36,-0.06175
5.364,0.00727
5.368,-0.01135
5.372,-0.03729
5.376,-0.01597
5.38,-0.03626
5.384,-0.13024
5.388,-0.02121
5.392,-0.10127
5.396,-0.14156
5.4,-0.10432
5.404,-0.06956
5.408,-0.12257
5.412,-0.03447
5.416,0.12365
5.42,0.37278
5.424,0.50814
5.428,0.74441
5.432,0.89734
5.436,0.97464
5.44,0.87737
5.444,0.79649
5.448,0.53318
5.452,0.31276
5.456,0.11325
5.46,-0.01756
5.464,-0.17696
5.468,-0.2553
5.472,-0.22851
5.476,-0.0942
5.48,-0.14041
5.484,-0.08281
5.488,-0.02292
5.492,0.03434
5.496,0.00034
5.5,-0.00206
5.504,-0.04963
5.508,-0.01439
5.512,-0.02068
5.516,-0.08318
5.52,-0.0311
5.524,-0.03879
5.528,-0.04022
5.532,-0.04923
5.536,-0.00599
5.54,0.02549
5.544,-0.03671
5.548,-0.09693
5.552,-0.06813
5.556,-0.05756
5.56,0.05143
5.564,-0.05403
5.568,-0.02826
5.572,-0.08223
5.576,0.03403
5.58,-0.04921
5.584,-0.09741
5.588,-0.04837
5.592,-0.02401
5.596,-0.01308
5.6,0.02306
5.604,-0.01383
5.608,-0.05639
5.612,-0.01059
5.616,0.00702
5.62,-0.0211
5.624,-0.06086
5.628,-0.05729
5.632,0.076
5.636,0.0459
5.64,0.0388
5.644,0.03509
5.648,0.07176
5.652,0.00838
5.656,0.08109
5.66,0.11296
5.664,0.06628
5.668,0.13075
5.672,0.17728
5.676,0.14946
5.68,0.15408
5.684,0.16043
5.688,0.15886
5.692,0.23034
5.696,0.18913
5.7,0.2915
5.704,0.26681
5.708,0.26545
5.712,0.31139
5.716,0.22989
5.72,0.28024
5.724,0.28086
5.728,0.26996
5.732,0.23959
5.736,0.25067
5.74,0.28009
5.744,0.20349
5.748,0.1905
5.752,0.1312
5.756,0.08845
5.76,0.09928
5.764,0.13525
5.768,0.12626
5.772,0.07968
5.776,0.09923
5.78,0.1151
5.784,0.0171
5.788,0.01281
5.792,0.02
5.796,0.01747
5.8,-0.0215
5.804,0.00376
5.808,0.04361
5.812,-0.04873
5.816,-0.10513
5.82,-0.06398
5.824,0.00107
5.828,-0.03033
5.832,-0.03404
5.836,-0.04612
5.84,-0.07183
5.844,-0.16773
5.848,-0.1094
5.852,-0.04676
5.856,0.06019
5.86,0.30597
5.864,0.4685
5.868,0.7588
5.872,0.88422
5.876,1.02606
5.88,0.95442
5.884,0.86592
5.888,0.61345
5.892,0.40988
5.896,0.23081
5.9,0.01812
5.904,-0.13227
5.908,-0.13877
5.912,-0.1162
5.916,-0.11052
5.92,-0.20206
5.924,-0.103
5.928,-0.00011
5.932,-0.0736
5.936,0.00916
5.94,0.00303
5.944,-0.04555
5.948,-0.08133
5.952,-0.08541
5.956,-0.09167
5.96,-0.07414
5.964,-0.09529
5.968,-0.06224
5.972,0.0101
5.976,-0.02758
5.98,-0.01853
5.984,-0.01098
5.988,-0.01683
5.992,-0.02153
5.996,-0.00959
6.0,-0.00784
6.004,-0.04735
6.008,-0.03644
6.012,0.06232
6.016,0.00364
6.02,-0.03668
6.024,-0.03911
6.028,0.01562
6.032,0.0056
6.036,0.00737
6.04,-0.00195
6.044,-0.0554
6.048,0.0171
6.052,-0.05758
6.056,-0.01938
6.06,0.02716
6.064,-0.04066
6.068,0.00938
6.072,-0.01983
6.076,-0.00958
6.08,0.03848
6.084,0.01832
6.088,0.08464
6.092,0.02932
6.096,0.01588
6.1,0.06923
6.104,0.116
6.108,0.08665
6.112,0.08059
6.116,0.07519
6.12,0.14634
6.124,0.11964
6.128,0.09071
6.132,0.18129
6.136,0.15677
6.14,0.1711
6.144,0.22957
6.148,0.14809
6.152,0.21605
6.156,0.19663
6.16,0.17473
6.164,0.16395
6.168,0.17842
6.172,0.15487
6.176,0.1651
6.18,0.14176
6.184,0.16969
6.188,0.15321
6.192,0.15503
6.196,0.14282
6.2,0.14705
6.204,0.18431
6.208,0.1008
6.212,0.06703
6.216,0.09031
6.22,0.13263
6.224,0.06576
6.228,0.01202
6.232,0.08235
6.236,0.026
6.24,0.00341
6.244,0.07235
6.248,0.06985
6.252,0.07099
6.256,0.02165
6.26,0.0788
6.264,0.04636
6.268,0.17897
6.272,0.04189
6.276,0.06684
6.28,0.07135
6.284,0.03327
6.288,0.05555
6.292,0.02378
6.296,0.05683
6.3,0.06024
6.304,-0.06646
6.308,0.03936
6.312,-0.00066
6.316,-0.01021
6.32,-0.02332
6.324,0.02962
6.328,-0.05784
6.332,-0.01864
6.336,0.02976
6.34,-0.04199
6.344,0.00419
6.348,-0.00051
6.352,-0.01083
6.356,-0.02048
6.36,0.02652
6.364,-0.0069
6.368,-0.08371
6.372,-0.04105
6.376,-0.05874
6.38,-0.032
6.384,-0.03838
6.388,-0.02266
6.392,-0.07672
6.396,-0.05002
6.4,-0.13317
6.404,-0.11338
6.408,-0.09363
6.412,0.06782
6.416,0.18687
6.42,0.43913
6.424,0.70218
6.428,0.90062
6.432,0.98365
6.436,1.01138
6.44,0.85564
6.444,0.71005
6.448,0.44443
6.452,0.18769
6.456,0.0201
6.46,-0.05648
6.464,-0.18729
6.468,-0.18778
6.472,-0.1782
6.476,-0.08449
6.48,-0.03369
6.484,-0.05464
6.488,-0.03852
6.492,-0.06739
6.496,0.01204
6.5,0.01324
6.504,-0.02017
6.508,0.05116
6.512,-0.00547
6.516,-0.05609
6.52,-0.01637
6.524,-0.03375
6.528,-0.04307
6.532,-0.10383
6.536,0.02467
6.54,-0.03691
6.544,-0.00451
6.548,-0.01623
6.552,-0.02631
6.556,-0.01959
6.56,0.01787
6.564,0.00013
6.568,0.00914
6.572,0.01978
6.576,-0.06648
6.58,-0.02704
6.584,-0.03589
6.588,-0.02327
6.592,-0.04405
6.596,-0.0252
6.6,0.00309
6.604,-0.05761
6.608,-0.02715
6.612,-0.05207
6.616,0.04842
6.62,0.02621
6.624,0.0574
6.628,0.0016
6.632,0.02658
6.636,0.00785
6.64,-0.01829
6.644,0.03595
6.648,0.06721
6.652,0.0453
6.656,0.11544
6.66,0.11284
6.664,0.10714
6.668,0.15813
6.672,0.0941
6.676,0.16536
6.68,0.17273
6.684,0.18995
6.688,0.15093
6.692,0.19079
6.696,0.16193
6.7,0.15684
6.704,0.11324
6.708,0.13913
6.712,0.22516
6.716,0.22677
6.72,0.19583
6.724,0.25436
6.728,0.15805
6.732,0.22422
6.736,0.20484
6.74,0.23808
6.744,0.14178
6.748,0.1713
6.752,0.11057
6.756,0.13942
6.76,0.17616
6.764,0.07003
6.768,0.06528
6.772,0.13738
6.776,0.0305
6.78,0.07119
6.784,0.11319
6.788,0.01235
6.792,0.09936
6.796,0.09275
6.8,0.06472
6.804,0.00416
6.808,-0.00272
6.812,0.04014
6.816,-0.05403
6.82,0.03506
6.824,0.0113
6.828,0.03484
6.832,0.07022
6.836,0.03098
6.84,0.00339
6.844,-0.02664
6.848,-0.01996
6.852,-0.03565
6.856,-0.00462
6.86,-0.05352
6.864,0.01679
6.868,-0.00066
6.872,0.01527
6.876,-0.02382
6.88,-0.02351
6.884,-0.0216
6.888,0.00036
6.892,0.02519
6.896,-0.00138
6.9,-0.04845
6.904,-0.0114
6.908,0.02398
6.912,0.02617
6.916,-0.02974
6.92,0.00084
6.924,-0.01632
6.928,-0.00682
6.932,0.02453
6.936,0.006
6.94,-0.0304
6.944,-0.01169
6.948,0.01358
6.952,0.00687
6.956,-0.0362
6.96,0.02555
6.964,0.01982
6.968,0.06708
6.972,0.07042
6.976,0.04636
6.98,0.00057
6.984,0.07796
6.988,0.11269
6.992,0.11472
6.996,0.06845
7.0,0.04754
7.004,0.0462
7.008,0.07834
7.012,0.00506
7.016,0.02125
7.02,0.02276
7.024,0.00164
7.028,-0.02417
7.032,0.00899
7.036,0.0233
7.04,0.02242
7.044,0.01429
7.048,0.02162
7.052,0.04001
7.056,-0.06637
7.06,-0.01583
7.064,0.04115
7.068,-0.05109
7.072,-0.01535
7.076,0.00179
7.08,0.01673
7.084,0.08513
7.088,-0.02833
7.092,0.00775
7.096,0.00698
7.1,0.01009
7.104,-0.03132
7.108,-0.04158
7.112,-0.11993
7.116,-0.14205
7.12,-0.05318
7.124,-0.0132
7.128,0.03633
7.132,0.23041
7.136,0.42703
7.14,0.64515
7.144,0.85786
7.148,0.97282
7.152,0.95558
7.156,0.95798
7.16,0.72048
7.164,0.46628
7.168,0.22661
7.172,0.04739
7.176,-0.05518
7.18,-0.18019
7.184,-0.17532
7.188,-0.16577
7.192,-0.06969
7.196,-0.05743
7.2,-0.04198
7.204,-0.01092
7.208,0.01977
7.212,0.00874
7.216,-0.04519
7.22,0.02341
7.224,-0.01148
7.228,0.07277
7.232,0.03818
7.236,-0.04025
7.24,0.03146
7.244,-0.00063
7.248,0.05891
7.252,-0.0298
7.256,-0.01622
7.26,0.05267
7.264,-0.01793
7.268,-0.06216
7.272,0.00382
7.276,0.00984
7.28,0.02043
7.284,-0.02243
7.288,0.02605
7.292,0.00243
7.296,0.02839
7.3,0.00464
7.304,0.03115
7.308,-0.0664
7.312,0.01428
7.316,0.06489
7.32,-0.00987
7.324,0.04297
7.328,0.04875
7.332,0.03656
7.336,0.07495
7.34,0.04534
7.344,0.00495
7.348,0.03433
7.352,0.02454
7.356,0.09397
7.36,0.07432
7.364,0.04705
7.368,0.08197
7.372,0.0749
7.376,0.1034
7.38,0.14119
7.384,0.13364
7.388,0.14829
7.392,0.14604
7.396,0.18395
7.4,0.14905
7.404,0.20575
7.408,0.17478
7.412,0.24422
7.416,0.1231
7.42,0.18435
7.424,0.21445
7.428,0.26247
7.432,0.25044
7.436,0.27962
7.44,0.20636
7.444,0.21352
7.448,0.23191
7.452,0.1717
7.456,0.20733
7.46,0.20165
7.464,0.16382
7.468,0.14722
7.472,0.17448
7.476,0.17637
7.48,0.17315
7.484,0.04928
7.488,0.06634
7.492,0.12686
7.496,0.05755
7.5,0.0616
7.504,0.01534
7.508,0.06841
7.512,0.03849
7.516,0.01802
7.52,-0.04521
7.524,0.03767
7.528,0.10102
7.532,0.06066
7.536,-0.0076
7.54,0.06092
7.544,-0.00216
7.548,0.06156
7.552,-0.03159
7.556,0.00996
7.56,-0.01361
7.564,-0.03173
7.568,0.024
7.572,0.06701
7.576,0.09517
7.58,0.07166
7.584,0.05335
7.588,0.08499
7.592,0.06655
7.596,0.1513
7.6,0.13963
7.604,0.05007
7.608,0.09279
7.612,0.09036
7.616,0.05975
7.62,0.08077
7.624,0.07655
7.628,0.08543
7.632,0.05008
7.636,-0.01086
7.64,-0.00394
7.644,-0.01316
7.648,0.01161
7.652,-0.01228
7.656,0.00206
7.66,0.01386
7.664,0.0084
7.668,0.00094
7.672,0.01581
7.676,-0.00254
7.68,0.04712
7.684,-0.03016
7.688,-0.02346
7.692,-0.0297
7.696,-0.02909
7.7,0.02769
7.704,0.01654
7.708,-0.01008
7.712,-0.06626
7.716,-0.05294
7.72,-0.01877
7.724,-0.12822
7.728,-0.11213
7.732,-0.01996
7.736,0.13497
7.74,0.33737
7.744,0.58132
7.748,0.74401
7.752,0.9596
7.756,0.91122
7.76,0.97892
7.764,0.89739
7.768,0.70477
7.772,0.42939
7.776,0.20887
7.78,0.04795
7.784,-0.10479
7.788,-0.17868
7.792,-0.16095
7.796,-0.13405
7.8,-0.06824
7.804,-0.01984
7.808,0.10253
7.812,-0.0081
7.816,-0.04702
7.82,0.03077
7.824,0.09068
7.828,0.12645
7.832,0.05949
7.836,0.10177
7.84,0.11582
7.844,0.17415
7.848,0.1129
7.852,0.14765
7.856,0.14349
7.86,0.07342
7.864,0.08513
7.868,0.02354
7.872,0.02488
7.876,0.00885
7.88,0.08492
7.884,0.08258
7.888,0.03171
7.892,-0.00017
7.896,0.0539
7.9,-0.02588
7.904,-0.01861
7.908,0.05336
7.912,0.07078
7.916,0.0278
7.92,0.11903
7.924,0.07984
7.928,0.01706
7.932,-0.00728
7.936,0.00293
7.94,0.07715
7.944,0.16519
7.948,-0.00985
7.952,0.03577
7.956,0.04456
7.96,-0.0006
7.964,0.02896
7.968,-0.00254
7.972,-0.04565
7.976,0.02185
7.98,0.09916
7.984,0.19608
7.988,0.40083
7.992,0.57146
7.996,0.81987
8.0,0.98824
8.004,1.15195
8.008,1.19992
8.012,1.17771
8.016,0.96755
8.02,0.75477
8.024,0.54358
8.028,0.32944
8.032,0.22649
8.036,0.09571
8.04,0.04741
8.044,0.12201
8.048,0.15883
8.052,0.13734
8.056,0.16719
8.06,0.14644
8.064,0.19403
8.068,0.22429
8.072,0.1942
8.076,0.13657
8.08,0.15644
8.084,0.16428
8.088,0.15201
8.092,0.05615
8.096,0.08208
8.1,0.12756
8.104,0.10849
8.108,0.0776
8.112,0.11391
8.116,0.08434
8.12,0.04586
8.124,0.08763
8.128,0.09277
8.132,0.0102
8.136,0.0629
8.14,0.05335
8.144,0.03209
8.148,0.03192
8.152,-0.01501
8.156,0.02357
8.16,0.00895
8.164,-0.012
8.168,0.13783
8.172,0.05991
8.176,0.02436
8.18,0.03286
8.184,-0.00205
8.188,0.01573
8.192,0.03964
8.196,0.08165
8.2,0.0094
8.204,0.02078
8.208,0.06873
8.212,0.00061
8.216,0.11669
8.22,0.07462
8.224,0.04162
8.228,0.10514
8.232,0.10587
8.236,0.21519
8.24,0.16519
8.244,0.11235
8.248,0.25074
8.252,0.07441
8.256,0.20443
8.26,0.19643
8.264,0.23853
8.268,0.2444
8.272,0.24257
8.276,0.17908
8.28,0.33221
8.284,0.288
8.288,0.29746
8.292,0.33027
8.296,0.36685
8.3,0.36517
8.304,0.4029
8.308,0.31309
8.312,0.29845
8.316,0.34262
8.32,0.19383
8.324,0.26284
8.328,0.17797
8.332,0.17637
8.336,0.20694
8.34,0.1611
8.344,0.1385
8.348,0.16263
8.352,0.07968
8.356,0.05704
8.36,0.1312
8.364,0.08715
8.368,0.07612
8.372,0.08364
8.376,0.12529
8.38,0.04544
8.384,-0.04172
8.388,0.0449
8.392,-0.01572
8.396,0.11024
8.4,0.04975
8.404,0.07148
8.408,0.05536
8.412,0.0564
8.416,0.04906
8.42,0.02514
8.424,-0.03261
8.428,-0.11446
8.432,-0.10996
8.436,-0.00989
8.44,-0.02518
8.444,0.18692
8.448,0.3924
8.452,0.57501
8.456,0.77285
8.46,0.90037
8.464,1.04614
8.468,1.00996
8.472,0.82451
8.476,0.63091
8.48,0.39903
8.484,0.1795
8.488,0.04354
8.492,-0.08087
8.496,-0.15501
8.5,-0.1074
8.504,-0.09807
8.508,0.00237
8.512,0.00873
8.516,-0.06478
8.52,0.01478
8.524,0.08342
8.528,0.01685
8.532,0.05806
8.536,0.00063
8.54,-0.03752
8.544,0.04577
8.548,0.02038
8.552,0.04212
8.556,0.01527
8.56,0.00282
8.564,-0.00077
8.568,0.07333
8.572,0.03744
8.576,0.02627
8.58,0.03767
8.584,-0.03786
8.588,0.01403
8.592,0.08051
8.596,-0.00803
8.6,0.06137
8.604,0.03529
8.608,0.07831
8.612,0.00436
8.616,0.07666
8.62,0.00668
8.624,0.01251
8.628,-0.04351
8.632,0.0386
8.636,0.06691
8.64,0.03862
8.644,0.07744
8.648,0.06975
8.652,0.10892
8.656,0.07346
8.66,0.13322
8.664,0.0939
8.668,0.07255
8.672,0.14197
8.676,0.13074
8.68,0.27842
8.684,0.19701
8.688,0.22109
8.692,0.19922
8.696,0.33031
8.7,0.27322
8.704,0.2434
8.708,0.27841
8.712,0.27528
8.716,0.25123
8.72,0.2093
8.724,0.22178
8.728,0.29027
8.732,0.22703
8.736,0.32286
8.74,0.25176
8.744,0.28169
8.748,0.26796
8.752,0.25417
8.756,0.20899
8.76,0.19171
8.764,0.25364
8.768,0.23558
8.772,0.23072
8.776,0.17502
8.78,0.24313
8.784,0.16025
8.788,0.14532
8.792,0.22925
8.796,0.18602
8.8,0.10687
8.804,0.13025
8.808,-0.00164
8.812,-0.00737
8.816,-0.05906
8.82,-0.04751
8.824,-0.00266
8.828,0.16773
8.832,0.22869
8.836,0.44916
8.84,0.7322
8.844,0.93581
8.848,1.07805
8.852,1.05172
8.856,0.98987
8.86,0.77585
8.864,0.52003
8.868,0.30849
8.872,0.11071
8.876,-0.04125
8.88,-0.1669
8.884,-0.12666
8.888,-0.12555
8.892,-0.08964
8.896,-0.0241
8.9,0.04729
8.904,0.02254
8.908,0.07825
8.912,0.05793
8.916,0.02948
8.92,0.15391
8.924,0.08936
8.928,0.11077
8.932,0.14403
8.936,0.06526
8.94,0.13016
8.944,0.10924
8.948,0.07973
8.952,0.0823
8.956,0.04229
8.96,0.09874
8.964,0.07687
8.968,0.05046
8.972,0.10475
8.976,0.08678
8.98,0.08639
8.984,0.05425
8.988,-5e-05
8.992,0.0079
8.996,0.05462
9.0,0.04851
9.004,-0.00707
9.008,0.00223
9.012,0.05458
9.016,0.0359
9.02,0.10792
9.024,0.09392
9.028,0.00362
9.032,0.07451
9.036,0.05541
9.04,0.11875
9.044,0.049
9.048,0.09168
9.052,0.04476
9.056,0.02698
9.06,0.06742
9.064,0.00059
9.068,-0.02627
9.072,0.03835
9.076,0.04613
9.08,0.25383
9.084,0.31235
9.088,0.38328
9.092,0.61766
9.096,0.56171
9.1,0.68885
9.104,0.74499
9.108,0.58352
9.112,0.50197
9.116,0.38863
9.12,0.24162
9.124,0.13127
9.128,0.0811
9.132,0.09903
9.136,0.0532
9.14,0.11845
9.144,0.19125
9.148,0.16649
9.152,0.19081
9.156,0.22548
9.16,0.23666
9.164,0.15788
9.168,0.17386
9.172,0.20208
9.176,0.1996
9.18,0.20752
9.184,0.15116
9.188,0.1921
9.192,0.19949
9.196,0.19332
9.2,0.15873
9.204,0.20621
9.208,0.16934
9.212,0.22479
9.216,0.13059
9.22,0.12289
9.224,0.13042
9.228,0.13848
9.232,0.10337
9.236,0.03896
9.24,-0.0009
9.244,0.1013
9.248,-0.00041
9.252,0.05899
9.256,0.00745
9.26,-0.00629
9.264,-0.00076
9.268,-0.00991
9.272,0.04683
9.276,0.10561
9.28,0.06582
9.284,0.04654
9.288,0.05685
9.292,0.04175
9.296,0.0124
9.3,0.09134
9.304,0.12988
9.308,0.03565
9.312,0.07875
9.316,0.13666
9.32,0.13959
9.324,0.17482
9.328,0.17784
9.332,0.10372
9.336,0.03634
9.34,0.05855
9.344,0.08278
9.348,0.11866
9.352,0.30853
9.356,0.50783
9.36,0.73322
9.364,0.88437
9.368,1.10095
9.372,1.22081
9.376,1.28822
9.38,1.13377
9.384,0.99314
9.388,0.6373
9.392,0.44851
9.396,0.3007
9.4,0.10766
9.404,0.0607
9.408,-0.00595
9.412,0.04501
9.416,0.13927
9.42,0.19141
9.424,0.04762
9.428,0.14718
9.432,0.16011
9.436,0.18568
9.44,0.15194
9.444,0.10055
9.448,0.1241
9.452,0.13496
9.456,0.09625
9.46,0.10705
9.464,0.16283
9.468,0.12968
9.472,0.11855
9.476,0.15959
9.48,0.13911
9.484,0.13445
9.488,0.10966
9.492,0.17982
9.496,0.12295
9.5,0.09074
9.504,0.08927
9.508,0.06686
9.512,0.01783
9.516,0.09375
9.52,0.0692
9.524,0.03767
9.528,0.08164
9.532,0.11291
9.536,0.06021
9.54,-0.00966
9.544,-0.00194
9.548,0.02928
9.552,0.04876
9.556,0.07235
9.56,0.08788
9.564,-0.01249
9.568,0.08457
9.572,0.10455
9.576,0.04735
9.58,0.14848
9.584,0.11301
9.588,0.0955
9.592,0.15827
9.596,0.13194
9.6,0.13605
9.604,0.10782
9.608,0.07161
9.612,0.04012
9.616,0.0489
9.62,0.14024
9.624,0.26483
9.628,0.40444
9.632,0.5442
9.636,0.80518
9.64,1.06488
9.644,1.19021
9.648,1.22843
9.652,1.20727
9.656,1.05514
9.66,0.82665
9.664,0.58509
9.668,0.36331
9.672,0.16289
9.676,0.12227
9.68,0.06484
9.684,0.05634
9.688,0.08674
9.692,0.13481
9.696,0.11402
9.7,0.08563
9.704,0.12601
9.708,0.09913
9.712,0.16685
9.716,0.09307
9.72,0.04923
9.724,0.16411
9.728,0.10024
9.732,0.10149
9.736,0.0675
9.74,0.0536
9.744,0.05743
9.748,0.10194
9.752,0.03371
9.756,0.08311
9.76,0.01786
9.764,0.0394
9.768,-0.00219
9.772,-0.00798
9.776,-0.0197
9.78,-0.00526
9.784,0.02843
9.788,-0.03407
9.792,0.07089
9.796,0.00861
9.8,0.01226
9.804,0.03212
9.808,0.03863
9.812,0.06218
9.816,0.07788
9.82,0.01139
9.824,0.02646
9.828,-0.0042
9.832,0.05674
9.836,0.00927
9.84,0.02339
9.844,0.03826
9.848,0.04956
9.852,0.02077
9.856,0.04562
9.86,0.08413
9.864,0.05345
9.868,0.12435
9.872,0.108
9.876,0.14466
9.88,0.15724
9.884,0.13344
9.888,0.15686
9.892,0.20724
9.896,0.17046
9.9,0.18918
9.904,0.20647
9.908,0.22629
9.912,0.21172
9.916,0.20857
9.92,0.18761
9.924,0.3044
9.928,0.25584
9.932,0.21796
9.936,0.21699
9.94,0.23259
9.944,0.25987
9.948,0.23139
9.952,0.21122
9.956,0.16199
9.96,0.22091
9.964,0.2198
9.968,0.24247
9.972,0.15512
9.976,0.12697
9.98,0.14431
9.984,0.13646
9.988,0.13094
9.992,0.08765
9.996,0.08949
