t_seg,ecg_mV
0.0,-0.0362
0.004,0.00442
0.008,-0.0395
0.012,0.0242
0.016,0.04777
0.02,0.01309
0.024,-0.0222
0.028,0.0091
0.032,-0.03091
0.036,0.02842
0.04,0.0121
0.044,0.03741
0.048,0.01532
0.052,0.10692
0.056,0.0851
0.06,0.07483
0.064,0.13775
0.068,0.04506
0.072,0.05546
0.076,0.10867
0.08,0.06866
0.084,0.0957
0.088,0.08241
0.092,0.07611
0.096,0.12794
0.1,0.00521
0.104,0.02468
0.108,-0.02304
0.112,-0.04346
0.116,-0.01285
0.12,0.03273
0.124,-0.06491
0.128,0.05471
0.132,-0.01815
0.136,-0.02216
0.14,-0.01285
0.144,-0.03839
0.148,-0.06447
0.152,-0.01774
0.156,0.009
0.16,0.06611
0.164,-0.01428
0.168,0.02565
0.172,-0.06472
0.176,-0.06531
0.18,-0.00714
0.184,-0.02639
0.188,-0.02992
0.192,-0.03976
0.196,-0.02459
0.2,-0.17806
0.204,-0.08225
0.208,0.0401
0.212,0.12873
0.216,0.32035
0.22,0.56318
0.224,0.7541
0.228,0.8878
0.232,0.95845
0.236,0.93309
0.24,0.75878
0.244,0.5984
0.248,0.33612
0.252,0.09612
0.256,-0.07983
0.26,-0.12022
0.264,-0.19584
0.268,-0.16727
0.272,-0.11814
0.276,-0.06984
0.28,-0.14544
0.284,-0.0518
0.288,-0.00383
0.292,-0.01732
0.296,0.04045
0.3,-0.01424
0.304,-0.04092
0.308,-0.09082
0.312,-0.01154
0.316,-0.07815
0.32,-0.0028
0.324,0.03716
0.328,0.02005
0.332,-0.0323
0.336,-0.03545
0.34,0.01419
0.344,-0.02049
0.348,0.04695
0.352,-0.05062
0.356,0.01655
0.36,-0.03028
0.364,0.01578
0.368,-0.00927
0.372,-0.06113
0.376,-0.00091
0.38,-0.01985
0.384,-0.01098
0.388,0.02453
0.392,-0.08121
0.396,-0.03073
0.4,-0.03087
0.404,-0.02258
0.408,-0.03594
0.412,0.02146
0.416,-0.02167
0.42,0.05045
0.424,-0.01254
0.428,0.02489
0.432,0.05222
0.436,0.03721
0.44,0.06581
0.444,0.04748
0.448,0.05789
0.452,0.08984
0.456,0.03549
0.46,0.13773
0.464,0.11405
0.468,0.12062
0.472,0.08311
0.476,0.18942
0.48,0.1756
0.484,0.18154
0.488,0.1561
0.492,0.18506
0.496,0.16777
0.5,0.14863
0.504,0.17674
0.508,0.23597
0.512,0.17889
0.516,0.17687
0.52,0.17287
0.524,0.18853
0.528,0.19688
0.532,0.19955
0.536,0.139
0.54,0.20481
0.544,0.19887
0.548,0.19115
0.552,0.11471
0.556,0.08423
0.56,0.1525
0.564,0.11181
0.568,0.05893
0.572,0.06921
0.576,0.06415
0.58,0.08216
0.584,0.04283
0.588,0.06825
0.592,0.01242
0.596,0.0085
0.6,0.06721
0.604,0.05739
0.608,0.12457
0.612,0.06131
0.616,0.00457
0.62,-0.02955
0.624,-0.0435
0.628,0.04203
0.632,0.06591
0.636,-0.0264
0.64,0.00915
0.644,0.04981
0.648,0.06824
0.652,0.15304
0.656,0.13451
0.66,0.06527
0.664,0.07626
0.668,0.12628
0.672,0.11638
0.676,0.12658
0.68,0.10749
0.684,0.05442
0.688,0.05179
0.692,0.06214
0.696,-0.00375
0.7,0.05134
0.704,0.01576
0.708,-0.00686
0.712,0.06445
0.716,0.03155
0.72,-0.02032
0.724,0.06378
0.728,-0.00682
0.732,-0.06496
0.736,0.01073
0.74,-0.09542
0.744,0.01143
0.748,0.01513
0.752,0.06318
0.756,-0.00679
0.76,-0.04808
0.764,-0.03235
0.768,-0.00151
0.772,-0.07546
0.776,-0.03441
0.78,-0.0825
0.784,-0.03458
0.788,-0.02285
0.792,-0.14983
0.796,-0.02352
0.8,-0.07955
0.804,0.0219
0.808,0.17163
0.812,0.50138
0.816,0.59132
0.82,0.84958
0.824,0.94907
0.828,1.00575
0.832,0.9357
0.836,0.72159
0.84,0.49965
0.844,0.27975
0.848,0.0263
0.852,-0.09153
0.856,-0.19302
0.86,-0.21973
0.864,-0.15178
0.868,-0.0841
0.872,-0.09579
0.876,-0.04449
0.88,-0.01939
0.884,-0.03337
0.888,-0.00472
0.892,0.01196
0.896,0.01707
0.9,0.00975
0.904,0.01418
0.908,-0.02792
0.912,-0.05797
0.916,-0.03768
0.92,-0.02608
0.924,0.07007
0.928,0.00145
0.932,-0.03711
0.936,7e-05
0.94,0.03871
0.944,0.03709
0.948,0.02087
0.952,-0.07867
0.956,-0.03144
0.96,0.0312
0.964,-0.02716
0.968,0.02655
0.972,0.01207
0.976,0.01699
0.98,0.03125
0.984,0.0208
0.988,0.05605
0.992,0.04827
0.996,0.0546
1.0,-0.02044
1.004,0.04021
1.008,0.01983
1.012,0.05445
1.016,0.11063
1.02,0.03649
1.024,0.14076
1.028,0.11626
1.032,0.02847
1.036,0.11342
1.04,0.04279
1.044,0.07218
1.048,0.05613
1.052,0.0518
1.056,0.17198
1.06,0.17482
1.064,0.13303
1.068,0.11408
1.072,0.13619
1.076,0.09794
1.08,0.15188
1.084,0.26469
1.088,0.17367
1.092,0.21994
1.096,0.22171
1.1,0.24759
1.104,0.21746
1.108,0.23464
1.112,0.27462
1.116,0.16163
1.12,0.20423
1.124,0.1985
1.128,0.25396
1.132,0.21284
1.136,0.21887
1.14,0.17666
1.144,0.13567
1.148,0.14982
1.152,0.14539
1.156,0.11726
1.16,0.09388
1.164,0.15008
1.168,0.06803
1.172,0.02192
1.176,0.04915
1.18,0.02796
1.184,0.02939
1.188,-0.00922
1.192,0.09607
1.196,0.07222
1.2,0.07717
1.204,0.04896
1.208,0.07354
1.212,0.01053
1.216,0.05516
1.22,0.04271
1.224,0.04363
1.228,-0.01942
1.232,0.00999
1.236,-0.00135
1.24,0.01798
1.244,0.02785
1.248,0.06437
1.252,0.01471
1.256,0.04908
1.26,-0.03382
1.264,0.05461
1.268,0.03856
1.272,-0.00899
1.276,0.01672
1.28,-0.02022
1.284,-0.02622
1.288,0.0363
1.292,-0.00595
1.296,0.02425
1.3,0.02245
1.304,0.04391
1.308,0.00938
1.312,0.04585
1.316,-0.01642
1.32,-0.03709
1.324,-0.05248
1.328,0.01169
1.332,-0.00676
1.336,0.03285
1.34,-0.00519
1.344,0.0088
1.348,0.05715
1.352,-0.00268
1.356,-0.01407
1.36,0.0862
1.364,0.00539
1.368,0.04533
1.372,0.00018
1.376,0.05275
1.38,0.05007
1.384,0.0486
1.388,0.03275
1.392,0.06651
1.396,0.01369
1.4,0.00193
1.404,0.07306
1.408,0.05295
1.412,0.07696
1.416,0.05759
1.42,0.00914
1.424,-0.02524
1.428,-0.01666
1.432,-0.02624
1.436,0.01106
1.44,0.05874
1.444,0.04102
1.448,0.03198
1.452,0.05828
1.456,-0.03512
1.46,0.08831
1.464,0.0647
1.468,0.00405
1.472,0.11433
1.476,0.08566
1.48,0.03747
1.484,0.12728
1.488,0.12697
1.492,0.13042
1.496,0.09901
1.5,0.06024
1.504,0.11516
1.508,0.06285
1.512,0.07965
1.516,0.05162
1.52,0.03987
1.524,0.09481
1.528,-0.0259
1.532,0.10071
1.536,0.07814
1.54,0.01313
1.544,-0.01298
1.548,-0.07839
1.552,0.04273
1.556,0.03986
1.56,-0.022
1.564,0.00045
1.568,0.04418
1.572,-0.01938
1.576,-0.02269
1.58,0.02223
1.584,-0.00835
1.588,-0.03007
1.592,0.02005
1.596,0.04119
1.6,-0.01205
1.604,0.07211
1.608,-0.03531
1.612,0.03344
1.616,-0.08208
1.62,-0.0379
1.624,-0.08901
1.628,-0.10627
1.632,0.0261
1.636,0.1305
1.64,0.2515
1.644,0.40792
1.648,0.60589
1.652,0.60414
1.656,0.62955
1.66,0.54186
1.664,0.48898
1.668,0.31514
1.672,0.171
1.676,-0.02695
1.68,-0.05448
1.684,-0.10897
1.688,-0.10169
1.692,-0.14445
1.696,-0.04008
1.7,-0.04208
1.704,-0.02889
1.708,-0.03737
1.712,0.00321
1.716,0.05338
1.72,0.0697
1.724,0.04509
1.728,0.00343
1.732,0.03723
1.736,0.05914
1.74,0.02195
1.744,0.06383
1.748,0.05492
1.752,0.04877
1.756,0.04835
1.76,0.02691
1.764,0.07476
1.768,0.03167
1.772,0.04187
1.776,0.01572
1.78,-0.00259
1.784,0.05622
1.788,0.03048
1.792,-0.00915
1.796,0.11988
1.8,0.0225
1.804,0.01499
1.808,-0.01505
1.812,0.01348
1.816,0.0694
1.82,0.07843
1.824,0.01875
1.828,0.10616
1.832,0.12428
1.836,0.00434
1.84,0.02406
1.844,0.05647
1.848,0.05626
1.852,0.00015
1.856,0.08129
1.86,0.01545
1.864,0.0659
1.868,0.0587
1.872,0.15421
1.876,0.11948
1.88,0.20287
1.884,0.12888
1.888,0.18974
1.892,0.15939
1.896,0.12384
1.9,0.16171
1.904,0.11583
1.908,0.27292
1.912,0.23864
1.916,0.25394
1.92,0.2402
1.924,0.18956
1.928,0.18296
1.932,0.28387
1.936,0.25388
1.94,0.26349
1.944,0.25141
1.948,0.23378
1.952,0.24989
1.956,0.23246
1.96,0.21988
1.964,0.16682
1.968,0.24329
1.972,0.19681
1.976,0.14072
1.98,0.19267
1.984,0.17775
1.988,0.20155
1.992,0.1244
1.996,0.10011
2.0,0.07128
2.004,0.09708
2.008,0.10181
2.012,0.09726
2.016,0.08359
2.02,0.02834
2.024,0.05508
2.028,0.02243
2.032,0.01621
2.036,0.05027
2.04,0.07343
2.044,0.01009
2.048,0.00418
2.052,0.08934
2.056,0.03499
2.06,0.04977
2.064,0.07632
2.068,0.02174
2.072,0.07983
2.076,0.01275
2.08,0.0619
2.084,0.0434
2.088,0.03763
2.092,-0.02731
2.096,0.01666
2.1,0.0577
2.104,0.04063
2.108,0.10097
2.112,0.1492
2.116,0.02107
2.12,0.07621
2.124,0.0524
2.128,0.19233
2.132,0.1052
2.136,0.08183
2.14,0.14391
2.144,0.16542
2.148,0.06123
2.152,0.12607
2.156,0.08936
2.16,0.09652
2.164,0.10529
2.168,0.0882
2.172,-0.02294
2.176,0.04625
2.18,0.09133
2.184,0.02531
2.188,0.07276
2.192,0.0179
2.196,0.02709
2.2,0.11104
2.204,0.03676
2.208,0.02811
2.212,0.02504
2.216,0.06805
2.22,0.02684
2.224,-0.03576
2.228,0.04768
2.232,0.05517
2.236,-0.00348
2.24,0.03724
2.244,0.04821
2.248,0.00256
2.252,-0.01356
2.256,-0.01634
2.26,-0.04992
2.264,-0.03129
2.268,-0.09596
2.272,-0.06688
2.276,-0.00595
2.28,0.09121
2.284,0.20067
2.288,0.45245
2.292,0.65896
2.296,0.8282
2.3,0.9588
2.304,1.03638
2.308,0.91824
2.312,0.80257
2.316,0.46836
2.32,0.25245
2.324,0.12765
2.328,0.00352
2.332,-0.09059
2.336,-0.09859
2.34,-0.08711
2.344,-0.08893
2.348,-0.01611
2.352,-0.00598
2.356,0.06438
2.36,0.01061
2.364,0.02564
2.368,-0.02945
2.372,0.03612
2.376,0.02355
2.38,0.00819
2.384,0.01501
2.388,0.09644
2.392,-0.02758
2.396,0.00968
2.4,0.02114
2.404,0.02295
2.408,0.08432
2.412,-0.0034
2.416,0.01254
2.42,-0.00328
2.424,0.00446
2.428,0.00763
2.432,0.09378
2.436,-0.0097
2.44,0.02253
2.444,0.0327
2.448,-0.0309
2.452,0.07366
2.456,-0.01746
2.46,0.03337
2.464,0.03135
2.468,-0.00504
2.472,0.05339
2.476,0.05246
2.48,-0.02092
2.484,0.03371
2.488,0.05336
2.492,0.08539
2.496,0.09046
2.5,0.05617
2.504,0.04069
2.508,0.13654
2.512,0.04872
2.516,0.11279
2.52,0.09992
2.524,0.14094
2.528,0.13076
2.532,0.10904
2.536,0.1652
2.54,0.11994
2.544,0.13059
2.548,0.19582
2.552,0.20231
2.556,0.214
2.56,0.2139
2.564,0.25429
2.568,0.23687
2.572,0.20321
2.576,0.25401
2.58,0.22136
2.584,0.18499
2.588,0.23017
2.592,0.21359
2.596,0.21481
2.6,0.22519
2.604,0.28135
2.608,0.23319
2.612,0.1835
2.616,0.25584
2.62,0.19921
2.624,0.16751
2.628,0.16216
2.632,0.21764
2.636,0.14577
2.64,0.23919
2.644,0.16893
2.648,0.23233
2.652,0.2371
2.656,0.1768
2.66,0.18478
2.664,0.1633
2.668,0.09366
2.672,0.08188
2.676,0.12367
2.68,0.08082
2.684,0.08965
2.688,0.0288
2.692,0.10278
2.696,0.05147
2.7,-0.0157
2.704,0.12757
2.708,0.05622
2.712,-0.00472
2.716,0.03946
2.72,-0.05838
2.724,0.07983
2.728,0.054
2.732,0.06024
2.736,0.0428
2.74,0.07164
2.744,0.0543
2.748,0.03887
2.752,0.01592
2.756,0.0843
2.76,0.05586
2.764,-0.00152
2.768,0.01838
2.772,-0.00012
2.776,-0.00191
2.78,-0.03589
2.784,-0.13573
2.788,-0.03802
2.792,-0.03863
2.796,0.16698
2.8,0.24205
2.804,0.48035
2.808,0.75666
2.812,0.88151
2.816,1.00603
2.82,0.89054
2.824,0.91141
2.828,0.73128
2.832,0.44098
2.836,0.23025
2.84,0.01129
2.844,-0.08413
2.848,-0.14938
2.852,-0.16283
2.856,-0.18213
2.86,-0.09739
2.864,-0.01309
2.868,0.05062
2.872,-0.0309
2.876,0.0601
2.88,-0.00062
2.884,0.06918
2.888,0.04961
2.892,0.06861
2.896,0.04479
2.9,0.06692
2.904,0.02198
2.908,-0.00696
2.912,-0.04083
2.916,0.02144
2.92,0.09235
2.924,-0.00405
2.928,0.02507
2.932,0.04723
2.936,0.04076
2.94,0.07226
2.944,0.0655
2.948,0.00449
2.952,0.11269
2.956,0.03433
2.96,0.05904
2.964,0.01286
2.968,0.02204
2.972,-0.0523
2.976,0.03717
2.98,0.06753
2.984,0.01776
2.988,0.05184
2.992,0.02826
2.996,0.1072
3.0,0.0007
3.004,0.00149
3.008,0.05189
3.012,-0.00365
3.016,0.07787
3.02,0.15305
3.024,0.03931
3.028,0.03056
3.032,0.02815
3.036,0.16332
3.04,0.09022
3.044,0.13183
3.048,0.0553
3.052,0.21515
3.056,0.08332
3.06,0.20718
3.064,0.19263
3.068,0.25393
3.072,0.21492
3.076,0.18924
3.08,0.19818
3.084,0.24042
3.088,0.2148
3.092,0.301
3.096,0.27679
3.1,0.22354
3.104,0.20961
3.108,0.26061
3.112,0.21322
3.116,0.25468
3.12,0.2511
3.124,0.22214
3.128,0.24262
3.132,0.23025
3.136,0.21313
3.14,0.14737
3.144,0.10463
3.148,0.10605
3.152,0.16586
3.156,0.16266
3.16,0.07067
3.164,0.13697
3.168,0.18595
3.172,0.03121
3.176,0.11414
3.18,0.10921
3.184,0.06099
3.188,0.03147
3.192,0.04999
3.196,0.05629
3.2,0.04054
3.204,0.02553
3.208,0.02469
3.212,0.00018
3.216,0.04184
3.22,0.03044
3.224,0.0224
3.228,0.04121
3.232,0.04813
3.236,-0.01685
3.24,0.03527
3.244,0.04451
3.248,0.05322
3.252,-0.00237
3.256,0.04664
3.26,0.02235
3.264,0.02224
3.268,0.07385
3.272,0.01439
3.276,0.02808
3.28,-0.03923
3.284,0.04112
3.288,7e-05
3.292,-0.0286
3.296,-0.01637
3.3,-0.00014
3.304,0.00024
3.308,0.0303
3.312,-0.02605
3.316,0.04561
3.32,0.02509
3.324,-0.01661
3.328,0.03097
3.332,0.00439
3.336,0.05244
3.34,0.08519
3.344,0.06394
3.348,-0.00364
3.352,0.02889
3.356,0.00311
3.36,-0.00435
3.364,-0.03386
3.368,0.01909
3.372,-0.0282
3.376,-0.03347
3.38,-0.01361
3.384,0.07165
3.388,0.011
3.392,0.05774
3.396,-0.01415
3.4,0.05876
3.404,-0.024
3.408,0.04949
3.412,0.04211
3.416,0.00526
3.42,-0.00533
3.424,0.08217
3.428,0.02875
3.432,0.02079
3.436,0.02139
3.44,0.01008
3.444,-0.0539
3.448,0.08993
3.452,-0.00187
3.456,0.00364
3.46,0.08102
3.464,0.0687
3.468,0.01947
3.472,-0.00547
3.476,-0.01403
3.48,0.02709
3.484,0.07729
3.488,-0.01185
3.492,0.0558
3.496,0.01759
3.5,0.10453
3.504,0.01207
3.508,-0.04609
3.512,0.03006
3.516,0.01545
3.52,0.00152
3.524,0.04159
3.528,0.01213
3.532,0.06271
3.536,0.0723
3.54,0.01616
3.544,0.13669
3.548,0.06331
3.552,0.03644
3.556,0.13124
3.56,0.1004
3.564,0.15086
3.568,0.09595
3.572,0.151
3.576,0.11325
3.58,0.1191
3.584,0.1189
3.588,0.06121
3.592,-0.01217
3.596,0.02072
3.6,0.06549
3.604,0.07382
3.608,-0.01304
3.612,0.00305
3.616,-0.01668
3.62,0.05554
3.624,0.03191
3.628,-0.054
3.632,-0.01149
3.636,0.05421
3.64,-0.02072
3.644,0.05594
3.648,0.00763
3.652,0.05218
3.656,-0.02994
3.66,-0.00738
3.664,-0.01032
3.668,-0.00897
3.672,-0.01515
3.676,0.04172
3.68,-0.00836
3.684,-0.0047
3.688,-0.1261
3.692,-0.09312
3.696,-0.09727
3.7,0.00565
3.704,0.10469
3.708,0.39861
3.712,0.5709
3.716,0.64631
3.72,0.86284
3.724,0.98723
3.728,0.97922
3.732,0.87901
3.736,0.6448
3.74,0.48192
3.744,0.21171
3.748,0.13834
3.752,-0.08704
3.756,-0.16465
3.76,-0.0716
3.764,-0.16831
3.768,-0.06341
3.772,-0.05665
3.776,0.04024
3.78,-0.01242
3.784,0.01929
3.788,0.01276
3.792,0.03676
3.796,0.05292
3.8,-0.0224
3.804,-0.00318
3.808,0.017
3.812,0.02554
3.816,0.04806
3.82,-0.05215
3.824,0.00675
3.828,0.00992
3.832,0.0725
3.836,-0.01775
3.84,-0.01202
3.844,-0.02692
3.848,0.0697
3.852,0.0739
3.856,0.01149
3.86,0.07153
3.864,0.05391
3.868,0.04889
3.872,0.03106
3.876,0.00028
3.88,0.00539
3.884,0.08147
3.888,0.02506
3.892,0.01125
3.896,-0.02393
3.9,0.00421
3.904,-0.01596
3.908,0.00484
3.912,0.06589
3.916,0.0137
3.92,0.05823
3.924,0.03496
3.928,0.08262
3.932,0.05734
3.936,0.06172
3.94,0.09444
3.944,0.06527
3.948,0.07445
3.952,0.04456
3.956,0.01063
3.96,0.08192
3.964,0.07285
3.968,0.13036
3.972,0.154
3.976,0.19836
3.98,0.19229
3.984,0.18247
3.988,0.19824
3.992,0.24533
3.996,0.24216
4.0,0.24683
4.004,0.26938
4.008,0.22989
4.012,0.2413
4.016,0.24559
4.02,0.17909
4.024,0.26354
4.028,0.20378
4.032,0.17417
4.036,0.16584
4.04,0.26482
4.044,0.17166
4.048,0.1633
4.052,0.16713
4.056,0.157
4.06,0.21206
4.064,0.20504
4.068,0.17945
4.072,0.12461
4.076,0.1127
4.08,0.12191
4.084,0.15367
4.088,0.16656
4.092,0.08668
4.096,0.05647
4.1,0.09509
4.104,0.12839
4.108,0.02782
4.112,0.05195
4.116,-0.01691
4.12,-0.02053
4.124,0.00498
4.128,0.00929
4.132,-0.05181
4.136,0.00278
4.14,0.03075
4.144,-0.06094
4.148,0.02008
4.152,-0.00283
4.156,-0.02216
4.16,0.01525
4.164,-0.00281
4.168,-0.03073
4.172,0.00143
4.176,-0.03887
4.18,-0.03834
4.184,-0.00278
4.188,0.01944
4.192,-0.0358
4.196,-0.05604
4.2,-0.03211
4.204,-0.05998
4.208,-0.12587
4.212,-0.05618
4.216,0.04558
4.22,0.15172
4.224,0.36099
4.228,0.51642
4.232,0.70097
4.236,0.94107
4.24,0.92186
4.244,0.91231
4.248,0.76833
4.252,0.56446
4.256,0.42493
4.26,0.15936
4.264,-0.07683
4.268,-0.05238
4.272,-0.13884
4.276,-0.20215
4.28,-0.13601
4.284,-0.09965
4.288,-0.10512
4.292,-0.00697
4.296,-0.06596
4.3,-0.06492
4.304,-0.0375
4.308,-0.02912
4.312,-0.00545
4.316,-0.00504
4.32,-0.06332
4.324,0.00666
4.328,0.04249
4.332,-0.06105
4.336,-0.02522
4.34,-0.00414
4.344,0.0042
4.348,-0.01924
4.352,0.0649
4.356,-0.02153
4.36,-0.0194
4.364,0.03945
4.368,-0.02309
4.372,0.00833
4.376,-0.00573
4.38,0.01188
4.384,-0.00461
4.388,-0.02035
4.392,0.01693
4.396,0.00788
4.4,-0.04793
4.404,-0.0519
4.408,-0.01933
4.412,0.01157
4.416,-0.06456
4.42,0.05286
4.424,0.02545
4.428,0.05225
4.432,0.02512
4.436,0.07979
4.44,0.10069
4.444,0.05473
4.448,0.07297
4.452,0.03594
4.456,0.09758
4.46,0.08932
4.464,0.07227
4.468,0.07644
4.472,0.15699
4.476,0.06949
4.48,0.06852
4.484,0.1578
4.488,0.23934
4.492,0.17116
4.496,0.16146
4.5,0.19165
4.504,0.25906
4.508,0.15886
4.512,0.20378
4.516,0.11297
4.52,0.19363
4.524,0.25412
4.528,0.21564
4.532,0.18263
4.536,0.19106
4.54,0.16096
4.544,0.15653
4.548,0.14971
4.552,0.17275
4.556,0.13216
4.56,0.12023
4.564,0.15751
4.568,0.16922
4.572,0.07652
4.576,0.02912
4.58,0.06001
4.584,0.09063
4.588,0.06375
4.592,0.0272
4.596,0.04739
4.6,0.07029
4.604,0.05223
4.608,0.00579
4.612,0.12957
4.616,0.03969
4.62,0.15672
4.624,0.02935
4.628,0.08927
4.632,0.08183
4.636,0.06655
4.64,0.04277
4.644,0.07182
4.648,0.06269
4.652,0.0694
4.656,0.02115
4.66,0.09307
4.664,-0.00294
4.668,0.02861
4.672,0.0576
4.676,-0.02902
4.68,0.01605
4.684,-0.0049
4.688,-0.06849
4.692,-0.03001
4.696,-0.01876
4.7,0.01453
4.704,-0.03788
4.708,-0.07957
4.712,-0.01937
4.716,0.00972
4.72,0.03253
4.724,-0.06741
4.728,0.02728
4.732,-0.03129
4.736,-0.02228
4.74,0.00336
4.744,0.0222
4.748,-0.04165
4.752,-0.03025
4.756,-0.04481
4.76,-0.15221
4.764,-0.14226
4.768,-0.10862
4.772,-0.03818
4.776,0.03527
4.78,0.26
4.784,0.45282
4.788,0.67386
4.792,0.80171
4.796,0.98468
4.8,0.98429
4.804,0.90263
4.808,0.69608
4.812,0.51076
4.816,0.28915
4.82,0.02044
4.824,-0.03016
4.828,-0.15368
4.832,-0.24765
4.836,-0.17031
4.84,-0.11818
4.844,-0.14103
4.848,-0.05922
4.852,0.00377
4.856,-0.04671
4.86,0.013
4.864,0.00337
4.868,-0.02093
4.872,-0.0098
4.876,-0.05447
4.88,-0.0221
4.884,-0.00902
4.888,-0.0567
4.892,-0.01702
4.896,0.01347
4.9,0.01353
4.904,-0.02361
4.908,0.00841
4.912,-0.06226
4.916,-0.03093
4.92,-0.05659
4.924,-0.04709
4.928,-0.02176
4.932,-0.04691
4.936,0.02619
4.94,-0.07617
4.944,-0.02863
4.948,0.02056
4.952,-0.00285
4.956,0.01217
4.96,0.01917
4.964,0.04313
4.968,-0.02984
4.972,0.02165
4.976,0.00278
4.98,0.00876
4.984,-0.03184
4.988,0.01578
4.992,-0.05532
4.996,-0.01172
5.0,-0.01305
5.004,0.01619
5.008,0.06369
5.012,0.06532
5.016,0.11173
5.02,0.12174
5.024,0.01173
5.028,0.06712
5.032,0.11104
5.036,0.15613
5.04,0.15007
5.044,0.15433
5.048,0.13321
5.052,0.14959
5.056,0.20165
5.06,0.15164
5.064,0.225
5.068,0.16491
5.072,0.24601
5.076,0.16193
5.08,0.22423
5.084,0.17658
5.088,0.13351
5.092,0.15684
5.096,0.21058
5.1,0.15965
5.104,0.13256
5.108,0.13749
5.112,0.16261
5.116,0.12396
5.12,0.14125
5.124,0.14212
5.128,0.08955
5.132,0.03
5.136,0.13265
5.14,0.10262
5.144,0.03247
5.148,0.00511
5.152,0.09563
5.156,0.05948
5.16,0.04852
5.164,0.05735
5.168,0.00694
5.172,0.04122
5.176,0.01937
5.18,0.03991
5.184,0.05213
5.188,0.03643
5.192,0.04905
5.196,0.03646
5.2,0.03095
5.204,0.07058
5.208,0.03269
5.212,0.09104
5.216,0.06459
5.22,0.11553
5.224,0.05076
5.228,0.10951
5.232,0.0572
5.236,-0.00759
5.24,0.00712
5.244,0.03275
5.248,0.00864
5.252,0.00554
5.256,-0.03711
5.26,-0.02004
5.264,-0.06795
5.268,-0.07191
5.272,-0.04749
5.276,-0.01706
5.28,-0.02284
5.284,-0.04701
5.288,-0.02593
5.292,0.02312
5.296,-0.0278
5.3,-0.0832
5.304,-0.0337
5.308,-0.06254
5.312,-0.05298
5.316,-0.06101
5.32,0.02259
5.324,-0.06838
5.328,-0.10146
5.332,-0.09993
5.336,-0.11881
5.34,-0.12488
5.344,-0.10355
5.348,-0.00654
5.352,0.19772
5.356,0.39533
5.36,0.63815
5.364,0.8135
5.368,0.9127
5.372,0.98753
5.376,0.84263
5.38,0.69642
5.384,0.47706
5.388,0.26234
5.392,0.08103
5.396,-0.09777
5.4,-0.17435
5.404,-0.18498
5.408,-0.18188
5.412,-0.13383
5.416,-0.0764
5.42,-0.12694
5.424,-0.04452
5.428,-0.05146
5.432,-0.07419
5.436,-0.02134
5.44,-0.11509
5.444,-0.0857
5.448,-0.03178
5.452,-0.01846
5.456,-0.0111
5.46,0.01599
5.464,-0.07627
5.468,-0.05731
5.472,-0.00367
5.476,-0.00311
5.48,-0.03391
5.484,-0.10682
5.488,-0.03911
5.492,-0.0059
5.496,-0.02862
5.5,-0.01297
5.504,-0.02837
5.508,0.01204
5.512,-0.06113
5.516,-0.0227
5.52,-0.03477
5.524,0.02171
5.528,-0.00452
5.532,0.0271
5.536,-0.01937
5.54,-0.00109
5.544,0.00372
5.548,-0.06148
5.552,-0.04437
5.556,0.00393
5.56,-0.00116
5.564,0.05428
5.568,0.03253
5.572,0.05175
5.576,0.02202
5.58,0.05878
5.584,0.09956
5.588,-0.00366
5.592,0.05348
5.596,0.10189
5.6,0.07382
5.604,0.11443
5.608,0.11224
5.612,0.16383
5.616,0.12946
5.62,0.07076
5.624,0.20072
5.628,0.15583
5.632,0.22772
5.636,0.18945
5.64,0.14942
5.644,0.22651
5.648,0.14584
5.652,0.19471
5.656,0.2426
5.66,0.20538
5.664,0.34763
5.668,0.29769
5.672,0.25244
5.676,0.28044
5.68,0.27546
5.684,0.22429
5.688,0.22832
5.692,0.20344
5.696,0.16275
5.7,0.08972
5.704,0.1013
5.708,0.05009
5.712,0.0998
5.716,0.01468
5.72,0.07324
5.724,0.04796
5.728,-0.01893
5.732,-0.02364
5.736,-0.00821
5.74,0.03282
5.744,-0.02543
5.748,0.01137
5.752,-0.04656
5.756,-0.0609
5.76,-0.03489
5.764,-0.03789
5.768,-0.03985
5.772,0.02312
5.776,-0.04363
5.78,-0.03036
5.784,-0.02859
5.788,-0.06579
5.792,-0.10862
5.796,-0.11924
5.8,-0.06142
5.804,-0.1147
5.808,-0.07954
5.812,0.0091
5.816,0.03261
5.82,0.22571
5.824,0.46574
5.828,0.67168
5.832,0.81888
5.836,0.9666
5.84,0.95332
5.844,0.77512
5.848,0.62229
5.852,0.38259
5.856,0.17217
5.86,0.02288
5.864,-0.14806
5.868,-0.18023
5.872,-0.21
5.876,-0.17437
5.88,-0.09351
5.884,-0.10667
5.888,-0.07575
5.892,-0.02576
5.896,-0.04429
5.9,-0.01803
5.904,-0.02347
5.908,0.05368
5.912,-0.03253
5.916,-0.04777
5.92,-0.00228
5.924,0.02094
5.928,-0.00027
5.932,-0.04384
5.936,-0.04778
5.94,0.00374
5.944,-0.06211
5.948,-0.07164
5.952,-0.06779
5.956,-0.02057
5.96,-0.04012
5.964,-0.08172
5.968,-0.05928
5.972,-0.04324
5.976,-0.01986
5.98,0.05072
5.984,0.02182
5.988,-0.03264
5.992,-0.00845
5.996,0.01584
6.0,-0.0278
6.004,-0.0379
6.008,0.02622
6.012,-0.02395
6.016,0.00172
6.02,-0.06144
6.024,-0.02437
6.028,0.01725
6.032,0.06521
6.036,0.0631
6.04,0.01824
6.044,0.03294
6.048,0.01563
6.052,0.00525
6.056,0.07315
6.06,0.10951
6.064,0.13701
6.068,0.03991
6.072,0.09149
6.076,0.09324
6.08,0.17021
6.084,0.10985
6.088,0.12108
6.092,0.12143
6.096,0.19168
6.1,0.17508
6.104,0.18543
6.108,0.14285
6.112,0.21856
6.116,0.12442
6.12,0.21816
6.124,0.2264
6.128,0.16707
6.132,0.1992
6.136,0.14334
6.14,0.19822
6.144,0.22633
6.148,0.05819
6.152,0.18012
6.156,0.16594
6.16,0.09572
6.164,0.09867
6.168,0.14695
6.172,0.02837
6.176,0.10791
6.18,0.08359
6.184,-0.00252
6.188,-0.02892
6.192,0.04239
6.196,-0.00692
6.2,0.00441
6.204,0.00175
6.208,-0.01778
6.212,0.05906
6.216,0.01748
6.22,0.02205
6.224,-0.05477
6.228,0.02258
6.232,-0.01622
6.236,-0.02992
6.24,-0.01584
6.244,0.00864
6.248,-0.01149
6.252,-0.00736
6.256,-0.01426
6.26,-0.02386
6.264,-0.03054
6.268,-0.01364
6.272,-0.07075
6.276,-0.03573
6.28,-0.03828
6.284,-0.05003
6.288,-0.02102
6.292,-0.081
6.296,0.02759
6.3,-0.02057
6.304,-0.03032
6.308,-0.03903
6.312,-0.04427
6.316,-0.06262
6.32,-0.09622
6.324,0.00788
6.328,-0.00135
6.332,-0.0338
6.336,-0.02604
6.34,-0.01216
6.344,-0.00011
6.348,-0.01759
6.352,-0.04716
6.356,-0.05049
6.36,-0.02367
6.364,-0.00836
6.368,0.0041
6.372,0.02364
6.376,-0.01019
6.38,-0.0424
6.384,-0.07145
6.388,-0.05735
6.392,-0.06527
6.396,0.0147
6.4,-0.06111
6.404,-0.07239
6.408,-0.01348
6.412,-0.09036
6.416,-0.05812
6.42,-0.05208
6.424,-0.06084
6.428,-0.03253
6.432,0.02596
6.436,-0.04744
6.44,-0.10486
6.444,-0.02125
6.448,-0.03548
6.452,-0.05083
6.456,-0.00066
6.46,-0.02828
6.464,0.03282
6.468,-0.07622
6.472,-0.044
6.476,-0.02628
6.48,0.00417
6.484,-0.02516
6.488,-0.02445
6.492,-0.0081
6.496,-0.05833
6.5,0.01693
6.504,-0.02068
6.508,-0.11102
6.512,-0.04505
6.516,0.06739
6.52,-0.04666
6.524,-0.05647
6.528,-0.02954
6.532,0.02384
6.536,-0.03772
6.54,-0.03986
6.544,0.03127
6.548,-0.03424
6.552,-0.00256
6.556,0.05229
6.56,0.09508
6.564,0.13332
6.568,0.07326
6.572,0.1294
6.576,0.11344
6.58,0.08226
6.584,0.08347
6.588,0.03826
6.592,0.08547
6.596,0.01589
6.6,0.05779
6.604,-0.0425
6.608,-0.04602
6.612,0.02339
6.616,-0.00652
6.62,-0.0579
6.624,-0.04836
6.628,0.02254
6.632,-0.05597
6.636,-0.00653
6.64,0.01236
6.644,-0.03186
6.648,-0.02756
6.652,-0.01963
6.656,0.0136
6.66,-0.02187
6.664,-0.00734
6.668,-0.02555
6.672,-0.0237
6.676,-0.08378
6.68,-0.00459
6.684,0.02089
6.688,-0.03013
6.692,-0.00243
6.696,-0.12876
6.7,-0.09376
6.704,-0.06338
6.708,-0.10672
6.712,0.06407
6.716,0.16715
6.72,0.44517
6.724,0.64537
6.728,0.77164
6.732,0.95037
6.736,0.99324
6.74,0.89644
6.744,0.69361
6.748,0.47046
6.752,0.26473
6.756,0.06093
6.76,-0.12257
6.764,-0.17426
6.768,-0.16371
6.772,-0.12845
6.776,-0.10877
6.78,-0.14759
6.784,-0.04321
6.788,-0.01753
6.792,-0.03022
6.796,-0.02384
6.8,-0.06453
6.804,0.04979
6.808,-0.06058
6.812,-0.0413
6.816,-0.00084
6.82,-0.01865
6.824,-0.01988
6.828,-0.03543
6.832,-0.05505
6.836,-0.01312
6.84,-0.00815
6.844,-0.00119
6.848,-0.02531
6.852,0.04667
6.856,-0.03572
6.86,0.00758
6.864,-0.06117
6.868,-0.02625
6.872,0.03345
6.876,0.01041
6.88,-0.01149
6.884,0.05952
6.888,-0.00905
6.892,0.03332
6.896,0.01243
6.9,0.05954
6.904,-0.01981
6.908,0.02126
6.912,-0.03375
6.916,-0.06479
6.92,-0.01914
6.924,-0.02198
6.928,0.0135
6.932,0.01936
6.936,0.04323
6.94,0.02705
6.944,0.1175
6.948,0.08199
6.952,0.0698
6.956,0.06471
6.96,0.05325
6.964,0.08459
6.968,0.11754
6.972,0.16233
6.976,0.13627
6.98,0.13148
6.984,0.18497
6.988,0.18776
6.992,0.20273
6.996,0.16004
7.0,0.18297
7.004,0.1767
7.008,0.22144
7.012,0.17912
7.016,0.20365
7.02,0.12554
7.024,0.16278
7.028,0.21026
7.032,0.24552
7.036,0.1673
7.04,0.18073
7.044,0.16759
7.048,0.10291
7.052,0.14957
7.056,0.11029
7.06,0.14078
7.064,0.12862
7.068,0.12005
7.072,0.06194
7.076,0.11136
7.08,0.1043
7.084,0.10831
7.088,-0.02992
7.092,0.0535
7.096,0.04131
7.1,0.07478
7.104,0.05324
7.108,0.09348
7.112,0.05463
7.116,0.12206
7.12,0.09457
7.124,0.06918
7.128,0.0805
7.132,0.06696
7.136,0.02565
7.14,0.04055
7.144,0.09712
7.148,0.06353
7.152,0.05136
7.156,-0.00167
7.16,-0.02806
7.164,0.07684
7.168,0.07347
7.172,-0.06654
7.176,0.05589
7.18,-0.0327
7.184,-0.04018
7.188,-0.01809
7.192,0.05003
7.196,-0.05238
7.2,-0.04899
7.204,-0.04439
7.208,0.0609
7.212,-0.03763
7.216,-0.05752
7.22,0.03747
7.224,0.02043
7.228,0.02046
7.232,-0.02552
7.236,0.03142
7.24,0.01024
7.244,-0.01827
7.248,-0.09527
7.252,-0.08727
7.256,-0.14611
7.26,-0.11278
7.264,-0.01435
7.268,0.15843
7.272,0.40134
7.276,0.59758
7.28,0.82262
7.284,0.94061
7.288,0.94982
7.292,0.89152
7.296,0.83607
7.3,0.54639
7.304,0.33065
7.308,0.15828
7.312,-0.00858
7.316,-0.14631
7.32,-0.20835
7.324,-0.16079
7.328,-0.14656
7.332,-0.10248
7.336,-0.08198
7.34,-0.03669
7.344,0.06373
7.348,-0.05178
7.352,0.01326
7.356,0.00373
7.36,-0.00478
7.364,0.01618
7.368,-0.00361
7.372,0.02137
7.376,-0.04356
7.38,0.03043
7.384,-0.00494
7.388,-0.09278
7.392,-0.06028
7.396,-0.01746
7.4,-0.05032
7.404,-0.01427
7.408,-0.03269
7.412,0.02585
7.416,-0.02766
7.42,-0.0065
7.424,-0.01719
7.428,-0.01151
7.432,0.02011
7.436,0.02688
7.44,0.0359
7.444,0.04231
7.448,-0.00548
7.452,-0.03458
7.456,-0.00835
7.46,0.03517
7.464,0.01701
7.468,0.03339
7.472,0.04567
7.476,0.03777
7.48,0.00879
7.484,-0.02495
7.488,0.01116
7.492,0.0167
7.496,0.07784
7.5,0.08448
7.504,0.03665
7.508,0.12159
7.512,0.13507
7.516,0.11271
7.52,0.13643
7.524,0.17402
7.528,0.1546
7.532,0.16338
7.536,0.2173
7.54,0.21496
7.544,0.13535
7.548,0.2217
7.552,0.24707
7.556,0.18992
7.56,0.25925
7.564,0.24674
7.568,0.19168
7.572,0.28773
7.576,0.23045
7.58,0.27101
7.584,0.16433
7.588,0.2067
7.592,0.20936
7.596,0.16078
7.6,0.17592
7.604,0.15444
7.608,0.14119
7.612,0.13245
7.616,0.23667
7.62,0.06474
7.624,0.09063
7.628,0.07306
7.632,-0.00295
7.636,0.12397
7.64,0.07408
7.644,0.11897
7.648,0.05868
7.652,0.14591
7.656,0.13706
7.66,0.03403
7.664,0.04151
7.668,0.07862
7.672,0.028
7.676,0.05428
7.68,0.03719
7.684,0.07765
7.688,0.11151
7.692,0.10601
7.696,0.05863
7.7,0.10889
7.704,0.16383
7.708,0.10528
7.712,0.05522
7.716,0.12818
7.72,0.00138
7.724,0.05746
7.728,0.02823
7.732,-0.02026
7.736,0.03614
7.74,0.00627
7.744,-0.04304
7.748,-0.02149
7.752,-0.02782
7.756,-0.00176
7.76,-0.01418
7.764,-0.0017
7.768,-0.01806
7.772,-0.00736
7.776,0.05548
7.78,0.03754
7.784,0.03845
7.788,-0.00965
7.792,0.00592
7.796,-0.02766
7.8,0.03432
7.804,0.05625
7.808,-0.0146
7.812,0.00539
7.816,-0.04246
7.82,-0.01974
7.824,-0.15742
7.828,-0.02937
7.832,-0.07414
7.836,0.11656
7.84,0.34405
7.844,0.58653
7.848,0.79477
7.852,0.92021
7.856,0.94055
7.86,0.96683
7.864,0.83335
7.868,0.64992
7.872,0.36477
7.876,0.17003
7.88,0.04497
7.884,-0.07846
7.888,-0.17185
7.892,-0.14571
7.896,-0.14406
7.9,-0.06891
7.904,-0.06897
7.908,-0.03259
7.912,-0.07763
7.916,-0.00882
7.92,-0.02639
7.924,0.04019
7.928,0.04681
7.932,-0.03502
7.936,0.05241
7.94,-0.01237
7.944,0.03049
7.948,0.06905
7.952,0.01179
7.956,0.07723
7.96,0.01174
7.964,-0.0122
7.968,0.02316
7.972,-0.01518
7.976,-0.00113
7.98,0.02646
7.984,0.00818
7.988,0.03284
7.992,-0.00173
7.996,0.03463
8.0,-0.0
8.004,0.07177
8.008,0.0045
8.012,0.05838
8.016,0.01419
8.02,0.04892
8.024,0.05533
8.028,0.03846
8.032,-0.03737
8.036,0.02252
8.04,0.03377
8.044,0.06496
8.048,0.07838
8.052,0.10681
8.056,0.06957
8.06,0.03824
8.064,0.06343
8.068,0.11791
8.072,0.07857
8.076,0.12311
8.08,0.1547
8.084,0.08433
8.088,0.10908
8.092,0.12876
8.096,0.07997
8.1,0.16016
8.104,0.12439
8.108,0.29174
8.112,0.23719
8.116,0.2107
8.12,0.21911
8.124,0.31203
8.128,0.24224
8.132,0.32898
8.136,0.32618
8.14,0.30059
8.144,0.35597
8.148,0.32672
8.152,0.27675
8.156,0.30174
8.16,0.24676
8.164,0.31038
8.168,0.21937
8.172,0.26732
8.176,0.20892
8.18,0.22828
8.184,0.17068
8.188,0.08088
8.192,0.13005
8.196,0.18669
8.2,0.11345
8.204,0.09033
8.208,0.08121
8.212,0.058
8.216,0.10623
8.22,0.08128
8.224,0.07013
8.228,0.05385
8.232,0.00176
8.236,0.08191
8.24,0.03763
8.244,-0.01628
8.248,0.091
8.252,0.03479
8.256,0.05769
8.26,0.02391
8.264,-0.08293
8.268,-0.02996
8.272,-0.04088
8.276,-0.00094
8.28,0.06962
8.284,0.24106
8.288,0.48922
8.292,0.67933
8.296,0.89547
8.3,0.99866
8.304,0.98733
8.308,0.82843
8.312,0.7421
8.316,0.45232
8.32,0.23966
8.324,0.08109
8.328,-0.04027
8.332,-0.10094
8.336,-0.19448
8.34,-0.13105
8.344,-0.10504
8.348,-0.06372
8.352,-0.03724
8.356,0.0295
8.36,-0.08598
8.364,0.0098
8.368,0.0703
8.372,-0.05058
8.376,0.06065
8.38,-0.00909
8.384,0.02065
8.388,0.04705
8.392,-0.00271
8.396,0.02656
8.4,0.06796
8.404,0.02262
8.408,0.07943
8.412,0.05477
8.416,0.00982
8.42,0.04438
8.424,0.1226
8.428,0.07593
8.432,0.07125
8.436,-0.01689
8.44,0.00474
8.444,0.01116
8.448,0.06322
8.452,0.04786
8.456,0.01737
8.46,0.04903
8.464,0.07156
8.468,-0.02536
8.472,0.08694
8.476,0.0198
8.48,0.0573
8.484,0.04683
8.488,0.0683
8.492,0.01423
8.496,0.08139
8.5,0.05599
8.504,0.1781
8.508,0.05916
8.512,0.09449
8.516,0.09259
8.52,0.03995
8.524,0.12734
8.528,0.10186
8.532,0.20166
8.536,0.20984
8.54,0.23388
8.544,0.22529
8.548,0.26965
8.552,0.2381
8.556,0.2684
8.56,0.29412
8.564,0.27261
8.568,0.33183
8.572,0.34257
8.576,0.35023
8.58,0.35417
8.584,0.25745
8.588,0.31482
8.592,0.31319
8.596,0.28016
8.6,0.31054
8.604,0.21227
8.608,0.21717
8.612,0.18995
8.616,0.23819
8.62,0.16715
8.624,0.21753
8.628,0.10856
8.632,0.13665
8.636,0.14463
8.64,0.10606
8.644,0.12661
8.648,0.12771
8.652,0.12025
8.656,0.11752
8.66,0.07438
8.664,0.10165
8.668,0.02646
8.672,0.07758
8.676,0.09349
8.68,0.03773
8.684,0.07649
8.688,-0.01917
8.692,0.00444
8.696,-0.10637
8.7,-0.02477
8.704,-0.13336
8.708,-0.00431
8.712,0.17834
8.716,0.43634
8.72,0.62338
8.724,0.81403
8.728,0.88661
8.732,0.9597
8.736,0.96178
8.74,0.85063
8.744,0.62895
8.748,0.4871
8.752,0.17879
8.756,0.06022
8.76,-0.10164
8.764,-0.0921
8.768,-0.21093
8.772,-0.06602
8.776,-0.10323
8.78,-0.03732
8.784,-0.01755
8.788,0.05519
8.792,0.0783
8.796,-0.01875
8.8,0.05556
8.804,-0.00088
8.808,0.04977
8.812,0.02753
8.816,0.00831
8.82,0.0495
8.824,0.04401
8.828,0.02749
8.832,0.03349
8.836,0.0392
8.84,0.02178
8.844,0.09181
8.848,0.07104
8.852,-0.01503
8.856,0.09743
8.86,-0.00212
8.864,0.05879
8.868,0.03999
8.872,0.06697
8.876,0.07582
8.88,0.04555
8.884,0.0045
8.888,0.09876
8.892,0.0724
8.896,0.08614
8.9,0.03477
8.904,0.05083
8.908,0.0565
8.912,0.06439
8.916,0.076
8.92,0.01754
8.924,0.01202
8.928,0.07066
8.932,0.07664
8.936,0.08995
8.94,0.10159
8.944,0.09515
8.948,0.19005
8.952,0.12834
8.956,0.15908
8.96,0.25954
8.964,0.20446
8.968,0.28547
8.972,0.26953
8.976,0.2673
8.98,0.28371
8.984,0.3579
8.988,0.35093
8.992,0.35247
8.996,0.30139
9.0,0.2621
9.004,0.24315
9.008,0.29692
9.012,0.2377
9.016,0.26326
9.02,0.30591
9.024,0.25285
9.028,0.23694
9.032,0.20014
9.036,0.25384
9.04,0.20723
9.044,0.20625
9.048,0.1411
9.052,0.1963
9.056,0.16827
9.06,0.09087
9.064,0.14223
9.068,0.11708
9.072,0.06897
9.076,0.06991
9.08,0.1289
9.084,0.13031
9.088,0.12839
9.092,0.0744
9.096,-0.00944
9.1,0.00943
9.104,-0.03034
9.108,-0.03773
9.112,-0.0316
9.116,0.0408
9.12,0.09224
9.124,0.22648
9.128,0.38512
9.132,0.49287
9.136,0.69829
9.14,0.72107
9.144,0.7186
9.148,0.54971
9.152,0.46327
9.156,0.24198
9.16,0.13377
9.164,-0.03316
9.168,-0.13062
9.172,-0.16314
9.176,-0.06304
9.18,-0.12353
9.184,-0.06202
9.188,-0.0308
9.192,0.04002
9.196,0.02855
9.2,-0.03041
9.204,0.01996
9.208,0.00608
9.212,0.03756
9.216,0.00446
9.22,-0.00525
9.224,0.06036
9.228,0.07827
9.232,0.02798
9.236,-0.01591
9.24,0.08447
9.244,-0.02512
9.248,0.03978
9.252,0.0633
9.256,0.08543
9.26,0.04449
9.264,0.01844
9.268,0.05121
9.272,0.01767
9.276,0.01546
9.28,0.0007
9.284,0.04622
9.288,0.02598
9.292,-0.02329
9.296,0.06555
9.3,0.02373
9.304,-0.01723
9.308,0.00758
9.312,0.06722
9.316,0.01013
9.32,0.06804
9.324,-0.03931
9.328,0.06381
9.332,0.03498
9.336,0.09306
9.34,0.07178
9.344,0.06116
9.348,0.05638
9.352,0.0613
9.356,0.13125
9.36,0.15494
9.364,0.12186
9.368,0.12065
9.372,0.2091
9.376,0.11252
9.38,0.23063
9.384,0.17781
9.388,0.24662
9.392,0.22039
9.396,0.24761
9.4,0.24009
9.404,0.24758
9.408,0.21557
9.412,0.28811
9.416,0.2439
9.42,0.21653
9.424,0.3048
9.428,0.27189
9.432,0.23667
9.436,0.29113
9.44,0.29641
9.444,0.3017
9.448,0.28558
9.452,0.24161
9.456,0.30282
9.46,0.21385
9.464,0.24888
9.468,0.28726
9.472,0.23531
9.476,0.23418
9.48,0.25474
9.484,0.17009
9.488,0.13663
9.492,0.16359
9.496,0.11413
9.5,0.15791
9.504,0.15181
9.508,0.02619
9.512,0.13238
9.516,0.06417
9.52,0.04292
9.524,0.05996
9.528,0.03283
9.532,0.07272
9.536,0.05847
9.54,0.03128
9.544,0.08422
9.548,0.04611
9.552,0.06066
9.556,-0.00221
9.56,0.02987
9.564,0.07871
9.568,0.04692
9.572,0.07737
9.576,0.0394
9.58,0.04783
9.584,0.01914
9.588,0.08454
9.592,-0.05326
9.596,-0.05687
9.6,0.01219
9.604,-0.13023
9.608,0.01458
9.612,0.16069
9.616,0.26828
9.62,0.43263
9.624,0.66937
9.628,0.84677
9.632,1.00525
9.636,1.00516
9.64,0.91269
9.644,0.74034
9.648,0.48596
9.652,0.32693
9.656,0.15964
9.66,0.01367
9.664,-0.11881
9.668,-0.16881
9.672,-0.07109
9.676,-0.03928
9.68,-0.03399
9.684,0.03093
9.688,-0.04306
9.692,0.06408
9.696,0.03459
9.7,0.02775
9.704,0.02304
9.708,0.00862
9.712,0.04479
9.716,0.01884
9.72,0.04648
9.724,0.00354
9.728,0.02317
9.732,0.01683
9.736,0.06444
9.74,0.02346
9.744,0.05678
9.748,-0.02229
9.752,0.03823
9.756,0.05844
9.76,-0.00984
9.764,0.06173
9.768,0.01499
9.772,0.04314
9.776,0.03755
9.78,0.0504
9.784,0.05888
9.788,-0.04502
9.792,0.02879
9.796,0.03659
9.8,0.00587
9.804,0.02716
9.808,0.04478
9.812,-0.00146
9.816,0.0301
9.82,0.02644
9.824,0.09273
9.828,-0.00904
9.832,0.03938
9.836,0.09134
9.84,0.1358
9.844,0.10074
9.848,0.09352
9.852,0.05955
9.856,0.13229
9.86,0.11895
9.864,0.0956
9.868,0.17269
9.872,0.20284
9.876,0.18259
9.88,0.16677
9.884,0.20566
9.888,0.21952
9.892,0.16061
9.896,0.16341
9.9,0.25196
9.904,0.19597
9.908,0.26588
9.912,0.2284
9.916,0.25434
9.92,0.21829
9.924,0.29335
9.928,0.22937
9.932,0.19101
9.936,0.22562
9.94,0.27601
9.944,0.16455
9.948,0.19034
9.952,0.19017
9.956,0.08545
9.96,0.14
9.964,0.10391
9.968,0.13614
9.972,0.12688
9.976,0.12333
9.98,0.07539
9.984,0.10813
9.988,0.07845
9.992,0.02409
9.996,0.04821
