t_seg,ecg_mV
0.0,-0.02464
0.004,-0.01832
0.008,-0.03213
0.012,-0.01558
0.016,-0.00744
0.02,-0.00328
0.024,-0.03465
0.028,-0.0201
0.032,-0.00543
0.036,-0.02643
0.04,-0.03589
0.044,-0.03166
0.048,-0.00924
0.052,-0.05367
0.056,-0.00619
0.06,-0.00677
0.064,-0.01731
0.068,-0.01421
0.072,-0.00774
0.076,-0.01915
0.08,-0.0161
0.084,-0.02506
0.088,-0.022
0.092,-0.02528
0.096,-0.03868
0.1,-0.01984
0.104,0.00912
0.108,-0.00909
0.112,-0.01466
0.116,-0.01133
0.12,-0.0287
0.124,-0.00829
0.128,-0.0155
0.132,-0.01153
0.136,0.00728
0.14,0.02788
0.144,-0.0038
0.148,-0.02809
0.152,-0.02928
0.156,-0.02277
0.16,-0.02066
0.164,-0.00155
0.168,-0.00782
0.172,-0.03322
0.176,-0.01052
0.18,-0.00853
0.184,0.02837
0.188,-0.00729
0.192,-0.05131
0.196,-0.03578
0.2,-0.00669
0.204,-0.00217
0.208,-0.02148
0.212,-0.02955
0.216,-0.02092
0.22,-0.01975
0.224,-0.00119
0.228,0.02603
0.232,-0.02136
0.236,0.01159
0.24,-0.02064
0.244,0.00105
0.248,-0.0002
0.252,-0.02393
0.256,-0.02229
0.26,-0.04663
0.264,-0.01123
0.268,-0.0256
0.272,-0.00689
0.276,0.01704
0.28,-0.03419
0.284,-0.04905
0.288,-0.00248
0.292,0.00761
0.296,-0.0192
0.3,-0.0069
0.304,-0.01901
0.308,-0.0245
0.312,-0.00502
0.316,-0.01069
0.32,0.0042
0.324,-0.00052
0.328,-0.02539
0.332,-0.02525
0.336,-0.00417
0.34,0.00128
0.344,-0.01892
0.348,-0.01922
0.352,-0.01919
0.356,0.0049
0.36,-0.01077
0.364,-0.00225
0.368,0.00353
0.372,-0.00612
0.376,0.02802
0.38,0.01531
0.384,0.03071
0.388,0.03854
0.392,0.0517
0.396,0.05797
0.4,0.05389
0.404,0.10869
0.408,0.1171
0.412,0.06869
0.416,0.09076
0.42,0.05866
0.424,0.0568
0.428,0.05694
0.432,0.06408
0.436,0.03623
0.44,0.01234
0.444,0.02863
0.448,0.00391
0.452,0.00077
0.456,0.00665
0.46,0.00035
0.464,-0.01443
0.468,-0.00916
0.472,-0.01857
0.476,0.0139
0.48,-0.01099
0.484,0.03325
0.488,0.01277
0.492,0.01877
0.496,0.00185
0.5,0.01229
0.504,-0.03261
0.508,0.00777
0.512,-0.00895
0.516,0.00014
0.52,-0.01649
0.524,-0.03575
0.528,-0.02857
0.532,-0.06979
0.536,-0.10624
0.54,-0.11187
0.544,-0.06659
0.548,0.07667
0.552,0.24276
0.556,0.44172
0.56,0.67096
0.564,0.86412
0.568,0.98529
0.572,0.99139
0.576,0.88925
0.58,0.71455
0.584,0.47827
0.588,0.25426
0.592,0.06757
0.596,-0.06779
0.6,-0.14656
0.604,-0.14964
0.608,-0.14507
0.612,-0.12906
0.616,-0.07589
0.62,-0.02266
0.624,-0.03457
0.628,-0.00857
0.632,0.01021
0.636,0.00227
0.64,0.01387
0.644,-0.01303
0.648,-0.02783
0.652,0.00471
0.656,0.01373
0.66,-0.01783
0.664,-0.01285
0.668,0.0127
0.672,0.02833
0.676,-0.01082
0.68,0.00417
0.684,0.02036
0.688,-0.01238
0.692,-0.00477
0.696,0.00821
0.7,-0.01101
0.704,0.00179
0.708,0.02342
0.712,0.00102
0.716,0.02313
0.72,-0.00529
0.724,0.00306
0.728,-0.00384
0.732,0.01848
0.736,0.00621
0.74,0.0318
0.744,0.00853
0.748,0.03556
0.752,0.04921
0.756,0.04065
0.76,0.02396
0.764,0.04802
0.768,0.04323
0.772,0.03975
0.776,0.0531
0.78,0.07723
0.784,0.06677
0.788,0.07798
0.792,0.09353
0.796,0.11576
0.8,0.09323
0.804,0.13235
0.808,0.16219
0.812,0.19124
0.816,0.17211
0.82,0.16722
0.824,0.19837
0.828,0.17989
0.832,0.2199
0.836,0.2327
0.84,0.22196
0.844,0.23684
0.848,0.21227
0.852,0.21696
0.856,0.22194
0.86,0.23769
0.864,0.2252
0.868,0.21235
0.872,0.18873
0.876,0.17661
0.88,0.18851
0.884,0.16636
0.888,0.14132
0.892,0.1377
0.896,0.14671
0.9,0.13713
0.904,0.11797
0.908,0.10306
0.912,0.07645
0.916,0.09659
0.92,0.05887
0.924,0.07143
0.928,0.04559
0.932,0.02612
0.936,0.04042
0.94,0.02002
0.944,0.02283
0.948,0.01896
0.952,0.03646
0.956,0.0158
0.96,0.03425
0.964,0.03417
0.968,0.04066
0.972,0.01815
0.976,0.03497
0.98,0.02572
0.984,0.02508
0.988,-0.00414
0.992,0.02179
0.996,0.01407
1.0,0.02435
1.004,-0.00354
1.008,-0.00341
1.012,0.00295
1.016,0.01457
1.02,0.01627
1.024,0.00679
1.028,-0.0031
1.032,0.00409
1.036,-0.00341
1.04,0.00775
1.044,0.01078
1.048,0.02058
1.052,0.01192
1.056,-0.02179
1.06,0.01112
1.064,-0.0093
1.068,0.02302
1.072,-0.00479
1.076,0.0183
1.08,0.01921
1.084,-0.01132
1.088,0.02692
1.092,0.0176
1.096,0.00208
1.1,0.00037
1.104,0.0042
1.108,0.0033
1.112,0.01456
1.116,-0.00029
1.12,-0.00039
1.124,0.00273
1.128,0.02154
1.132,-0.01424
1.136,0.00572
1.14,0.00224
1.144,0.04004
1.148,0.03653
1.152,0.03503
1.156,0.00345
1.16,0.00676
1.164,0.0252
1.168,-0.00107
1.172,0.0018
1.176,0.00468
1.18,0.00238
1.184,0.01993
1.188,0.01132
1.192,0.01802
1.196,0.01693
1.2,0.00974
1.204,0.04985
1.208,0.01906
1.212,0.01798
1.216,0.04111
1.22,0.0276
1.224,0.04854
1.228,0.07649
1.232,0.09217
1.236,0.08578
1.24,0.09362
1.244,0.1089
1.248,0.13067
1.252,0.09884
1.256,0.13525
1.26,0.09718
1.264,0.07703
1.268,0.07813
1.272,0.05244
1.276,0.04018
1.28,0.04643
1.284,0.04035
1.288,0.04865
1.292,0.0671
1.296,0.03081
1.3,0.02292
1.304,0.0154
1.308,0.02964
1.312,0.00167
1.316,0.00849
1.32,0.04471
1.324,0.0088
1.328,-0.00445
1.332,0.00616
1.336,0.03409
1.34,0.00861
1.344,-1e-05
1.348,0.01563
1.352,-0.00111
1.356,0.01984
1.36,0.00699
1.364,-0.02197
1.368,-0.05781
1.372,-0.09455
1.376,-0.12214
1.38,-0.0666
1.384,0.0391
1.388,0.17554
1.392,0.41613
1.396,0.62449
1.4,0.85709
1.404,0.95363
1.408,1.02695
1.412,0.944
1.416,0.78399
1.42,0.57762
1.424,0.33897
1.428,0.15347
1.432,-0.02352
1.436,-0.13581
1.44,-0.15187
1.444,-0.14273
1.448,-0.09039
1.452,-0.03003
1.456,-0.01167
1.46,0.01627
1.464,-0.01223
1.468,-0.00557
1.472,0.0182
1.476,0.03063
1.48,0.02188
1.484,0.01908
1.488,0.0242
1.492,0.01783
1.496,0.0239
1.5,0.03432
1.504,0.01355
1.508,0.01244
1.512,0.02864
1.516,0.02083
1.52,0.02136
1.524,0.05256
1.528,0.031
1.532,0.00501
1.536,0.01932
1.54,0.02698
1.544,0.02631
1.548,0.02607
1.552,0.03742
1.556,0.05691
1.56,0.03856
1.564,0.05228
1.568,0.01062
1.572,0.03644
1.576,0.05681
1.58,0.05921
1.584,0.02494
1.588,0.02812
1.592,0.03659
1.596,0.04061
1.6,0.08293
1.604,0.05592
1.608,0.07256
1.612,0.08097
1.616,0.07772
1.62,0.09306
1.624,0.10158
1.628,0.13671
1.632,0.13365
1.636,0.15383
1.64,0.13342
1.644,0.15756
1.648,0.15595
1.652,0.18442
1.656,0.18627
1.66,0.19658
1.664,0.18634
1.668,0.22887
1.672,0.22729
1.676,0.2616
1.68,0.24206
1.684,0.22855
1.688,0.26574
1.692,0.22337
1.696,0.26733
1.7,0.23111
1.704,0.2623
1.708,0.22388
1.712,0.22289
1.716,0.22036
1.72,0.1691
1.724,0.19803
1.728,0.17718
1.732,0.15571
1.736,0.13835
1.74,0.16429
1.744,0.13963
1.748,0.11417
1.752,0.10109
1.756,0.0896
1.76,0.08587
1.764,0.08921
1.768,0.05411
1.772,0.07886
1.776,0.0572
1.78,0.04386
1.784,0.04606
1.788,0.08365
1.792,0.02401
1.796,0.03443
1.8,0.04506
1.804,0.04837
1.808,0.02873
1.812,0.05557
1.816,0.04432
1.82,0.01999
1.824,0.04203
1.828,0.0436
1.832,0.01369
1.836,0.02873
1.84,0.03708
1.844,0.04243
1.848,0.04327
1.852,0.01607
1.856,0.03847
1.86,0.01332
1.864,-0.00435
1.868,0.02797
1.872,0.01618
1.876,0.0164
1.88,0.02267
1.884,0.02626
1.888,0.01141
1.892,0.02336
1.896,0.03901
1.9,0.01437
1.904,0.02724
1.908,0.03284
1.912,0.04438
1.916,0.03903
1.92,0.02039
1.924,0.01588
1.928,0.02838
1.932,0.04001
1.936,0.02275
1.94,0.04526
1.944,0.01402
1.948,0.01523
1.952,0.03516
1.956,0.03553
1.96,0.01979
1.964,0.02774
1.968,0.00134
1.972,0.03878
1.976,0.00744
1.98,0.01137
1.984,0.02564
1.988,0.03983
1.992,0.01763
1.996,0.035
2.0,0.01562
2.004,0.02501
2.008,0.03868
2.012,0.0423
2.016,0.01802
2.02,0.00607
2.024,0.03394
2.028,0.0439
2.032,0.06482
2.036,0.06835
2.04,0.05457
2.044,0.06663
2.048,0.08805
2.052,0.10048
2.056,0.12233
2.06,0.10375
2.064,0.11505
2.068,0.12984
2.072,0.12543
2.076,0.10134
2.08,0.10792
2.084,0.09918
2.088,0.09255
2.092,0.07768
2.096,0.08738
2.1,0.07438
2.104,0.05732
2.108,0.04585
2.112,0.0347
2.116,0.05388
2.12,0.05719
2.124,0.05519
2.128,0.02798
2.132,0.02038
2.136,0.04199
2.14,0.0438
2.144,0.05177
2.148,0.0159
2.152,0.06292
2.156,0.05121
2.16,0.04796
2.164,0.025
2.168,0.02159
2.172,0.03147
2.176,0.04933
2.18,0.0175
2.184,0.01459
2.188,-0.02234
2.192,-0.05191
2.196,-0.0803
2.2,-0.06072
2.204,0.00219
2.208,0.16034
2.212,0.31044
2.216,0.54463
2.22,0.75532
2.224,0.92197
2.228,1.00065
2.232,1.02196
2.236,0.86856
2.24,0.69926
2.244,0.419
2.248,0.21029
2.252,0.02489
2.256,-0.04872
2.26,-0.13994
2.264,-0.12879
2.268,-0.04829
2.272,-0.05268
2.276,-0.01214
2.28,-0.0124
2.284,0.01659
2.288,0.00942
2.292,0.0297
2.296,0.04864
2.3,0.02884
2.304,0.02991
2.308,0.03336
2.312,0.02221
2.316,0.04462
2.32,0.01503
2.324,0.03519
2.328,0.04928
2.332,0.04223
2.336,0.04061
2.34,0.04916
2.344,0.01544
2.348,0.03511
2.352,0.04866
2.356,0.01087
2.36,0.04136
2.364,0.02688
2.368,0.02438
2.372,0.0359
2.376,0.01301
2.38,0.0333
2.384,0.01981
2.388,0.06828
2.392,0.02981
2.396,0.02203
2.4,0.06186
2.404,0.05604
2.408,0.0265
2.412,0.06173
2.416,0.08844
2.42,0.05499
2.424,0.06858
2.428,0.07256
2.432,0.10093
2.436,0.08749
2.44,0.09691
2.444,0.117
2.448,0.10927
2.452,0.10137
2.456,0.14943
2.46,0.14265
2.464,0.1714
2.468,0.17192
2.472,0.20447
2.476,0.20212
2.48,0.18981
2.484,0.23719
2.488,0.20554
2.492,0.24044
2.496,0.22776
2.5,0.25646
2.504,0.25468
2.508,0.23646
2.512,0.25774
2.516,0.24057
2.52,0.20843
2.524,0.24533
2.528,0.25096
2.532,0.2314
2.536,0.21627
2.54,0.19214
2.544,0.17928
2.548,0.18028
2.552,0.17318
2.556,0.15744
2.56,0.13968
2.564,0.13132
2.568,0.1316
2.572,0.12879
2.576,0.07748
2.58,0.06358
2.584,0.09959
2.588,0.06805
2.592,0.07571
2.596,0.06345
2.6,0.03521
2.604,0.05402
2.608,0.06998
2.612,0.02484
2.616,0.03044
2.62,0.03918
2.624,0.04279
2.628,0.01284
2.632,0.05064
2.636,0.02444
2.64,0.04915
2.644,0.0286
2.648,0.02527
2.652,0.03202
2.656,0.04314
2.66,0.04981
2.664,0.0218
2.668,0.02333
2.672,0.02802
2.676,0.04602
2.68,-0.00498
2.684,0.00874
2.688,0.04148
2.692,0.03109
2.696,0.02299
2.7,0.03157
2.704,0.04946
2.708,0.0374
2.712,0.05053
2.716,0.00826
2.72,0.02633
2.724,0.0073
2.728,0.00414
2.732,0.02882
2.736,0.02536
2.74,0.01653
2.744,0.04202
2.748,0.03151
2.752,0.0376
2.756,0.02636
2.76,0.03619
2.764,-0.00143
2.768,0.01853
2.772,0.03275
2.776,0.0255
2.78,0.01982
2.784,0.04385
2.788,0.03265
2.792,0.03039
2.796,0.01038
2.8,0.04353
2.804,0.03911
2.808,0.04913
2.812,0.03915
2.816,0.06651
2.82,0.04703
2.824,0.06168
2.828,0.07899
2.832,0.09039
2.836,0.11097
2.84,0.11797
2.844,0.11081
2.848,0.13622
2.852,0.12332
2.856,0.11577
2.86,0.09903
2.864,0.09931
2.868,0.07822
2.872,0.08859
2.876,0.06151
2.88,0.02635
2.884,0.03893
2.888,0.05303
2.892,0.01968
2.896,0.00905
2.9,0.02992
2.904,0.03044
2.908,0.02541
2.912,0.02232
2.916,0.00463
2.92,0.03516
2.924,0.03943
2.928,0.02463
2.932,0.04868
2.936,0.01837
2.94,0.04626
2.944,0.01092
2.948,0.01326
2.952,0.02712
2.956,0.0237
2.96,0.01074
2.964,0.0077
2.968,-0.04066
2.972,-0.0554
2.976,-0.08955
2.98,-0.07851
2.984,0.05494
2.988,0.17387
2.992,0.364
2.996,0.59287
3.0,0.80355
3.004,0.95249
3.008,1.0303
3.012,0.99945
3.016,0.81746
3.02,0.62454
3.024,0.37715
3.028,0.18611
3.032,0.02955
3.036,-0.08546
3.04,-0.14329
3.044,-0.14668
3.048,-0.11778
3.052,-0.03205
3.056,-0.04664
3.06,0.02774
3.064,0.01616
3.068,0.01635
3.072,0.03192
3.076,0.01726
3.08,-0.01991
3.084,0.01464
3.088,0.0393
3.092,0.0164
3.096,0.02901
3.1,0.01111
3.104,0.03311
3.108,0.04373
3.112,0.01808
3.116,0.01124
3.12,0.00317
3.124,0.00665
3.128,0.03397
3.132,0.0204
3.136,0.04007
3.14,0.00066
3.144,0.02622
3.148,0.01105
3.152,0.01953
3.156,0.008
3.16,0.02679
3.164,0.01431
3.168,0.02787
3.172,0.03054
3.176,0.01345
3.18,0.04195
3.184,0.04356
3.188,0.07076
3.192,0.03178
3.196,0.05754
3.2,0.05366
3.204,0.01713
3.208,0.08695
3.212,0.0829
3.216,0.09666
3.22,0.10458
3.224,0.10429
3.228,0.1027
3.232,0.11485
3.236,0.13434
3.24,0.13082
3.244,0.13967
3.248,0.20572
3.252,0.17621
3.256,0.20689
3.26,0.20612
3.264,0.21174
3.268,0.20987
3.272,0.21633
3.276,0.19948
3.28,0.23306
3.284,0.23268
3.288,0.22624
3.292,0.2208
3.296,0.23105
3.3,0.24464
3.304,0.23609
3.308,0.23241
3.312,0.22887
3.316,0.19371
3.32,0.18031
3.324,0.17298
3.328,0.16223
3.332,0.17033
3.336,0.15898
3.34,0.11327
3.344,0.14065
3.348,0.11282
3.352,0.07816
3.356,0.08855
3.36,0.09242
3.364,0.08144
3.368,0.04289
3.372,0.06545
3.376,0.03483
3.38,0.03245
3.384,0.03601
3.388,0.05288
3.392,0.0419
3.396,0.02964
3.4,0.04604
3.404,0.02289
3.408,0.00306
3.412,0.04237
3.416,0.01323
3.42,0.01936
3.424,0.02051
3.428,0.01747
3.432,0.0233
3.436,0.01786
3.44,0.01897
3.444,0.02912
3.448,0.04842
3.452,0.01014
3.456,-0.0016
3.46,-0.01335
3.464,0.02174
3.468,-0.01569
3.472,0.03325
3.476,0.01928
3.48,0.00379
3.484,-0.00481
3.488,0.01151
3.492,-0.00212
3.496,0.00092
3.5,0.01855
3.504,0.03292
3.508,0.00051
3.512,0.01404
3.516,0.02312
3.52,-0.00578
3.524,0.02028
3.528,0.00392
3.532,0.00508
3.536,0.00979
3.54,-0.00397
3.544,0.01208
3.548,0.01321
3.552,0.00785
3.556,0.00634
3.56,0.01261
3.564,0.00827
3.568,-0.01965
3.572,-0.01495
3.576,0.00242
3.58,0.00425
3.584,0.01214
3.588,0.02766
3.592,0.04602
3.596,0.01074
3.6,-0.01449
3.604,-0.00992
3.608,0.01468
3.612,0.01209
3.616,-0.01029
3.62,0.01649
3.624,0.04216
3.628,0.00064
3.632,3e-05
3.636,0.00496
3.64,0.02152
3.644,0.00844
3.648,0.03001
3.652,0.00978
3.656,0.00235
3.66,-0.00787
3.664,0.01692
3.668,-0.00685
3.672,0.03762
3.676,-0.00206
3.68,0.00591
3.684,0.00635
3.688,0.04641
3.692,-0.00146
3.696,0.06313
3.7,0.03114
3.704,0.05163
3.708,0.07498
3.712,0.06155
3.716,0.04875
3.72,0.05443
3.724,0.10871
3.728,0.11579
3.732,0.15753
3.736,0.09785
3.74,0.09836
3.744,0.1234
3.748,0.06376
3.752,0.09932
3.756,0.08428
3.76,0.05486
3.764,0.0445
3.768,0.03145
3.772,0.00284
3.776,0.02172
3.78,0.0027
3.784,-0.00137
3.788,0.00204
3.792,0.01157
3.796,0.01031
3.8,0.02699
3.804,-0.00204
3.808,0.0139
3.812,0.0262
3.816,-0.01705
3.82,-0.02838
3.824,0.00146
3.828,0.00969
3.832,0.00241
3.836,-0.01532
3.84,-0.02073
3.844,0.01513
3.848,0.01368
3.852,-0.01833
3.856,-0.04033
3.86,-0.08926
3.864,-0.09267
3.868,-0.08022
3.872,-0.02158
3.876,0.15487
3.88,0.31543
3.884,0.53454
3.888,0.7362
3.892,0.90455
3.896,0.99019
3.9,1.00262
3.904,0.85316
3.908,0.64724
3.912,0.41403
3.916,0.20788
3.92,0.01848
3.924,-0.09845
3.928,-0.16107
3.932,-0.177
3.936,-0.14329
3.94,-0.08097
3.944,-0.04065
3.948,-0.02186
3.952,0.01348
3.956,-0.02498
3.96,0.00102
3.964,-0.00262
3.968,0.01423
3.972,-0.00235
3.976,-0.00834
3.98,0.00637
3.984,-0.0084
3.988,-0.01065
3.992,-0.01521
3.996,0.01107
4.0,0.00392
4.004,-0.00914
4.008,-0.00218
4.012,-0.00359
4.016,0.00714
4.02,-0.02593
4.024,-0.00139
4.028,-0.01821
4.032,0.00205
4.036,0.01287
4.04,0.00941
4.044,0.01224
4.048,-0.00342
4.052,0.02551
4.056,0.00483
4.06,0.00909
4.064,0.01668
4.068,-0.00295
4.072,0.04388
4.076,0.01448
4.08,0.03527
4.084,0.04102
4.088,0.03821
4.092,0.02822
4.096,0.02732
4.1,0.07488
4.104,0.05396
4.108,0.03871
4.112,0.1024
4.116,0.08451
4.12,0.10824
4.124,0.10157
4.128,0.12927
4.132,0.1436
4.136,0.13168
4.14,0.13471
4.144,0.15328
4.148,0.17103
4.152,0.198
4.156,0.18611
4.16,0.20318
4.164,0.2145
4.168,0.22377
4.172,0.20664
4.176,0.22174
4.18,0.22493
4.184,0.23409
4.188,0.19136
4.192,0.21029
4.196,0.20635
4.2,0.20786
4.204,0.17003
4.208,0.16772
4.212,0.16913
4.216,0.15483
4.22,0.12841
4.224,0.12684
4.228,0.10618
4.232,0.084
4.236,0.09659
4.24,0.04879
4.244,0.0629
4.248,0.06485
4.252,0.04284
4.256,0.00986
4.26,0.02349
4.264,0.03702
4.268,0.02362
4.272,0.03103
4.276,0.02984
4.28,-0.01209
4.284,0.00576
4.288,0.02106
4.292,0.0057
4.296,0.00978
4.3,-0.00752
4.304,-0.01926
4.308,-0.01317
4.312,-0.00459
4.316,0.00811
4.32,-0.00793
4.324,-0.01598
4.328,-0.00625
4.332,0.00648
4.336,-0.01278
4.34,-0.03661
4.344,-0.00991
4.348,-0.01606
4.352,0.02916
4.356,-0.01074
4.36,0.0051
4.364,0.00034
4.368,0.0018
4.372,-0.0167
4.376,-0.03696
4.38,0.00202
4.384,-0.01541
4.388,-0.00313
4.392,0.01087
4.396,-0.00906
4.4,-0.03581
4.404,-0.00902
4.408,0.00489
4.412,-0.01599
4.416,-0.02374
4.42,-0.03525
4.424,-0.02001
4.428,-0.01276
4.432,0.0016
4.436,-0.01641
4.44,-0.00514
4.444,-0.02125
4.448,0.01428
4.452,-0.01953
4.456,-0.01989
4.46,-0.01725
4.464,0.00243
4.468,-0.01109
4.472,-0.02917
4.476,-0.01852
4.48,-0.01635
4.484,-0.02109
4.488,0.00708
4.492,-0.04055
4.496,-0.02546
4.5,-0.00617
4.504,-0.01695
4.508,-0.01162
4.512,0.00365
4.516,0.00471
4.52,-0.03981
4.524,0.00055
4.528,-0.00075
4.532,0.0003
4.536,-0.01713
4.54,-0.006
4.544,0.02571
4.548,-0.02427
4.552,-0.02164
4.556,-0.01179
4.56,-0.00856
4.564,0.0027
4.568,-0.00472
4.572,-0.00458
4.576,-0.01914
4.58,-0.03142
4.584,-0.01574
4.588,-0.01811
4.592,-0.02014
4.596,-0.02445
4.6,0.01931
4.604,0.00011
4.608,-0.00369
4.612,-0.02322
4.616,-0.04666
4.62,-0.01876
4.624,-0.04901
4.628,-0.01794
4.632,0.00093
4.636,-0.01106
4.64,-0.01491
4.644,-0.01023
4.648,-0.01412
4.652,-0.00626
4.656,0.0019
4.66,0.00943
4.664,-0.00093
4.668,0.00562
4.672,0.01363
4.676,0.03848
4.68,0.02208
4.684,0.03586
4.688,0.03438
4.692,0.08174
4.696,0.06783
4.7,0.04874
4.704,0.0582
4.708,0.09607
4.712,0.08258
4.716,0.05733
4.72,0.07842
4.724,0.02306
4.728,0.04036
4.732,-0.00388
4.736,0.00324
4.74,0.00683
4.744,0.02282
4.748,-0.01411
4.752,-0.02236
4.756,-0.03995
4.76,-0.03276
4.764,-0.03416
4.768,-0.01967
4.772,-0.01406
4.776,-0.00455
4.78,0.00761
4.784,-0.0017
4.788,-0.0213
4.792,-0.03093
4.796,-0.01085
4.8,0.00365
4.804,-0.02274
4.808,-0.02402
4.812,-0.0125
4.816,-0.059
4.82,-0.07507
4.824,-0.10285
4.828,-0.14822
4.832,-0.14228
4.836,-0.08273
4.84,0.027
4.844,0.189
4.848,0.40818
4.852,0.63427
4.856,0.79278
4.86,0.94162
4.864,0.96608
4.868,0.91251
4.872,0.71614
4.876,0.4929
4.88,0.28686
4.884,0.07309
4.888,-0.06713
4.892,-0.17401
4.896,-0.16547
4.9,-0.17333
4.904,-0.13622
4.908,-0.10471
4.912,-0.03696
4.916,-0.04063
4.92,-0.01495
4.924,-0.02784
4.928,-0.03228
4.932,-0.01689
4.936,-0.0237
4.94,-0.03112
4.944,-0.00722
4.948,-0.01758
4.952,-0.02546
4.956,-0.00369
4.96,-0.02643
4.964,-0.04291
4.968,0.00499
4.972,-0.02419
4.976,-0.02829
4.98,-0.02754
4.984,0.00918
4.988,-0.02249
4.992,-0.01174
4.996,-0.00538
5.0,-0.0137
5.004,-0.02713
5.008,-0.05855
5.012,-0.02393
5.016,-0.02288
5.02,-0.02334
5.024,-0.03102
5.028,-0.03828
5.032,-0.01973
5.036,-0.00749
5.04,0.00972
5.044,-0.01492
5.048,0.00154
5.052,-0.00416
5.056,0.01309
5.06,0.04286
5.064,0.04311
5.068,0.02731
5.072,0.03711
5.076,0.05966
5.08,0.06794
5.084,0.04001
5.088,0.08147
5.092,0.11374
5.096,0.10507
5.1,0.12156
5.104,0.11342
5.108,0.14957
5.112,0.16579
5.116,0.16774
5.12,0.14349
5.124,0.15278
5.128,0.16088
5.132,0.20639
5.136,0.17966
5.14,0.21353
5.144,0.20586
5.148,0.19019
5.152,0.20937
5.156,0.16624
5.16,0.18196
5.164,0.15087
5.168,0.17281
5.172,0.12375
5.176,0.12394
5.18,0.14159
5.184,0.13373
5.188,0.10959
5.192,0.0793
5.196,0.07025
5.2,0.06086
5.204,0.06334
5.208,0.056
5.212,0.02557
5.216,0.03816
5.22,0.0327
5.224,0.04912
5.228,-0.02437
5.232,-0.00798
5.236,0.01046
5.24,-0.00638
5.244,0.01224
5.248,-0.04963
5.252,-0.01153
5.256,-0.01712
5.26,0.00027
5.264,-0.02601
5.268,-0.0026
5.272,-0.02708
5.276,-0.02921
5.28,-0.01234
5.284,-0.01695
5.288,-0.02247
5.292,-0.04306
5.296,-0.0441
5.3,-0.01244
5.304,0.00894
5.308,-0.01703
5.312,-0.02445
5.316,-0.02663
5.32,-0.01026
5.324,-0.03238
5.328,-0.0184
5.332,-0.01954
5.336,-0.01978
5.34,-0.04628
5.344,-0.03079
5.348,-0.01613
5.352,-0.02235
5.356,-0.02845
5.36,-0.03628
5.364,-0.02392
5.368,-0.0208
5.372,-0.05373
5.376,-0.02202
5.38,-0.04205
5.384,-0.03018
5.388,-0.0391
5.392,-0.03296
5.396,-0.03087
5.4,-0.00397
5.404,-0.03353
5.408,-0.04488
5.412,-0.03676
5.416,-0.0117
5.42,0.01328
5.424,-0.02466
5.428,-0.04927
5.432,-0.02592
5.436,0.01487
5.44,-0.00871
5.444,-0.00436
5.448,0.0127
5.452,0.015
5.456,0.03181
5.46,0.04574
5.464,0.03579
5.468,0.04651
5.472,0.06361
5.476,0.06778
5.48,0.06546
5.484,0.06982
5.488,0.06818
5.492,0.03951
5.496,0.04387
5.5,0.05105
5.504,0.04466
5.508,-0.00965
5.512,-0.00372
5.516,-0.03054
5.52,-0.03525
5.524,-0.02706
5.528,-0.01708
5.532,-0.04071
5.536,-0.02007
5.54,-0.0318
5.544,-0.02677
5.548,-0.01309
5.552,-0.03618
5.556,-0.03461
5.56,-0.05404
5.564,-0.03835
5.568,-0.01604
5.572,-0.06874
5.576,-0.04266
5.58,-0.0272
5.584,-0.05148
5.588,-0.01142
5.592,-0.04517
5.596,-0.06336
5.6,-0.08323
5.604,-0.12026
5.608,-0.14481
5.612,-0.12948
5.616,-0.02068
5.62,0.13568
5.624,0.32443
5.628,0.54831
5.632,0.73878
5.636,0.89008
5.64,0.9591
5.644,0.90997
5.648,0.76718
5.652,0.58554
5.656,0.31803
5.66,0.12809
5.664,-0.06083
5.668,-0.15657
5.672,-0.20721
5.676,-0.1763
5.68,-0.13488
5.684,-0.0864
5.688,-0.06955
5.692,-0.02549
5.696,-0.05853
5.7,-0.00894
5.704,-0.03388
5.708,-0.05869
5.712,-0.02689
5.716,-0.05025
5.72,-0.03363
5.724,-0.01518
5.728,-0.01432
5.732,-0.03604
5.736,-0.06596
5.74,-0.03927
5.744,-0.02135
5.748,-0.04264
5.752,-0.01203
5.756,-0.02721
5.76,-0.0347
5.764,-0.04549
5.768,-0.00346
5.772,-0.02793
5.776,-0.03493
5.78,-0.00218
5.784,-0.01587
5.788,-0.04053
5.792,-0.03023
5.796,-0.03633
5.8,-0.01829
5.804,-0.03659
5.808,-0.01585
5.812,-0.00955
5.816,-0.01188
5.82,-0.03786
5.824,-0.01293
5.828,-0.00182
5.832,0.03931
5.836,0.00693
5.84,0.01206
5.844,0.0254
5.848,0.0362
5.852,0.03589
5.856,0.03894
5.86,0.03304
5.864,0.09398
5.868,0.07787
5.872,0.10244
5.876,0.11013
5.88,0.13312
5.884,0.09432
5.888,0.15423
5.892,0.13321
5.896,0.13476
5.9,0.15434
5.904,0.17151
5.908,0.16865
5.912,0.17684
5.916,0.21006
5.92,0.19832
5.924,0.18389
5.928,0.18728
5.932,0.17044
5.936,0.1871
5.94,0.1837
5.944,0.15181
5.948,0.13901
5.952,0.1494
5.956,0.14988
5.96,0.11113
5.964,0.1038
5.968,0.09022
5.972,0.1087
5.976,0.06779
5.98,0.07303
5.984,0.06403
5.988,0.04063
5.992,0.02685
5.996,0.04872
6.0,0.00828
6.004,0.00688
6.008,0.0062
6.012,0.02346
6.016,0.00657
6.02,-0.00513
6.024,0.00333
6.028,-0.0007
6.032,-0.04052
6.036,-0.04478
6.04,-0.02172
6.044,-0.03255
6.048,-0.02062
6.052,-0.03759
6.056,-0.01414
6.06,-0.01407
6.064,-0.03087
6.068,-0.00326
6.072,-0.02733
6.076,-0.03466
6.08,-0.05983
6.084,0.0039
6.088,-0.02339
6.092,-0.02722
6.096,-0.01469
6.1,-0.03827
6.104,-0.05177
6.108,-0.03582
6.112,-0.02714
6.116,-0.00955
6.12,-0.03006
6.124,-0.05177
6.128,-0.02062
6.132,-0.03932
6.136,-0.04431
6.14,-0.02778
6.144,-0.01573
6.148,-0.01923
6.152,-0.00798
6.156,-0.02243
6.16,0.00179
6.164,-0.04301
6.168,-0.04328
6.172,-0.01815
6.176,-0.04339
6.18,-0.00248
6.184,0.00192
6.188,-0.03394
6.192,-0.02698
6.196,-0.02872
6.2,-0.00486
6.204,-0.05361
6.208,-0.01256
6.212,-0.02399
6.216,-0.04137
6.22,-0.00711
6.224,-0.02587
6.228,-0.01644
6.232,-0.01804
6.236,-0.05683
6.24,-0.00065
6.244,-0.02217
6.248,-0.01167
6.252,-0.01076
6.256,0.00038
6.26,0.01216
6.264,0.02317
6.268,0.02358
6.272,0.05153
6.276,0.07858
6.28,0.03556
6.284,0.0958
6.288,0.06032
6.292,0.07356
6.296,0.06813
6.3,0.05344
6.304,0.03163
6.308,0.04974
6.312,0.02209
6.316,0.02104
6.32,-0.00786
6.324,0.02055
6.328,-0.00473
6.332,-0.01866
6.336,-0.03018
6.34,-0.02789
6.344,-0.02978
6.348,-0.04169
6.352,-0.04447
6.356,-0.03724
6.36,-0.05017
6.364,-0.00022
6.368,-0.00798
6.372,-0.01389
6.376,-0.03316
6.38,-0.00027
6.384,-0.01194
6.388,-0.00202
6.392,-0.02492
6.396,-0.02542
6.4,-0.02071
6.404,-0.06457
6.408,-0.09249
6.412,-0.13812
6.416,-0.14107
6.42,-0.08009
6.424,-0.00373
6.428,0.15555
6.432,0.36405
6.436,0.56418
6.44,0.76671
6.444,0.94343
6.448,0.98188
6.452,0.95386
6.456,0.74316
6.46,0.55174
6.464,0.30894
6.468,0.10803
6.472,-0.07283
6.476,-0.14722
6.48,-0.21445
6.484,-0.15099
6.488,-0.16307
6.492,-0.08815
6.496,-0.08598
6.5,-0.0269
6.504,-0.03149
6.508,-0.01663
6.512,-0.02853
6.516,-0.0338
6.52,-0.01395
6.524,-0.00029
6.528,0.00811
6.532,-0.01752
6.536,-0.0284
6.54,-0.00631
6.544,-0.02425
6.548,-0.02731
6.552,-0.01221
6.556,-0.0335
6.56,-0.02408
6.564,-0.01653
6.568,-0.03174
6.572,-0.03492
6.576,-0.02763
6.58,-0.01567
6.584,-0.0197
6.588,-0.02555
6.592,0.00208
6.596,-0.02802
6.6,-0.01682
6.604,-0.00014
6.608,-0.01488
6.612,0.0034
6.616,-0.01249
6.62,0.00763
6.624,-0.00882
6.628,0.00102
6.632,0.00625
6.636,0.00204
6.64,0.02106
6.644,0.02993
6.648,0.04025
6.652,0.04033
6.656,0.04406
6.66,0.04458
6.664,0.07178
6.668,0.06359
6.672,0.09013
6.676,0.09301
6.68,0.09892
6.684,0.12162
6.688,0.11492
6.692,0.15097
6.696,0.12236
6.7,0.15296
6.704,0.16129
6.708,0.19568
6.712,0.17501
6.716,0.20801
6.72,0.17724
6.724,0.20093
6.728,0.18939
6.732,0.20961
6.736,0.18073
6.74,0.19611
6.744,0.17504
6.748,0.1752
6.752,0.17525
6.756,0.17073
6.76,0.16071
6.764,0.13149
6.768,0.16068
6.772,0.11814
6.776,0.11623
6.78,0.08878
6.784,0.07866
6.788,0.08417
6.792,0.04668
6.796,0.05669
6.8,0.06871
6.804,0.04269
6.808,0.05187
6.812,0.01074
6.816,0.05102
6.82,0.00427
6.824,0.01176
6.828,-0.03641
6.832,-0.00585
6.836,0.00121
6.84,0.00828
6.844,0.02024
6.848,-0.05083
6.852,-0.01861
6.856,-0.02483
6.86,0.00644
6.864,0.01138
6.868,-0.01458
6.872,-0.03237
6.876,-0.00473
6.88,-0.00613
6.884,-0.01575
6.888,-0.01084
6.892,-0.01515
6.896,-0.02329
6.9,-0.0045
6.904,-0.01383
6.908,-0.00838
6.912,-7e-05
6.916,-0.0409
6.92,-0.01351
6.924,-0.01129
6.928,0.00772
6.932,-0.00349
6.936,-0.0078
6.94,-0.04341
6.944,0.00977
6.948,-0.0263
6.952,-0.01283
6.956,-0.02254
6.96,0.00513
6.964,-0.03228
6.968,0.00978
6.972,0.00118
6.976,-0.01495
6.98,-0.02452
6.984,-0.00704
6.988,0.00105
6.992,-0.0198
6.996,-0.01817
7.0,-0.01839
7.004,0.00198
7.008,0.02427
7.012,0.03961
7.016,0.01319
7.02,0.01934
7.024,0.07653
7.028,0.05914
7.032,0.06071
7.036,0.09291
7.04,0.09844
7.044,0.08797
7.048,0.08735
7.052,0.09029
7.056,0.09309
7.06,0.08001
7.064,0.05701
7.068,0.04467
7.072,0.0218
7.076,0.01465
7.08,0.02574
7.084,0.008
7.088,0.03321
7.092,-0.00941
7.096,-0.01234
7.1,-0.02188
7.104,-0.01281
7.108,-0.01299
7.112,-0.00481
7.116,0.00273
7.12,-0.01071
7.124,0.01107
7.128,0.00862
7.132,-0.02285
7.136,0.00298
7.14,-0.01679
7.144,-0.01968
7.148,0.00966
7.152,-0.02958
7.156,-0.02287
7.16,-0.03652
7.164,-0.03722
7.168,-0.10424
7.172,-0.11059
7.176,-0.11555
7.18,-0.00653
7.184,0.11997
7.188,0.33052
7.192,0.54168
7.196,0.75295
7.2,0.89804
7.204,0.95974
7.208,0.9647
7.212,0.84085
7.216,0.61409
7.22,0.42725
7.224,0.1893
7.228,0.00548
7.232,-0.09228
7.236,-0.13798
7.24,-0.16815
7.244,-0.13887
7.248,-0.06989
7.252,-0.07713
7.256,-0.01037
7.26,-0.03678
7.264,-0.00909
7.268,0.00438
7.272,0.00904
7.276,0.01307
7.28,0.00578
7.284,0.02854
7.288,0.00891
7.292,-0.00683
7.296,0.00462
7.3,-0.02287
7.304,-0.01182
7.308,-0.00295
7.312,-0.01881
7.316,0.00948
7.32,-0.00208
7.324,-0.00391
7.328,-0.02193
7.332,-0.01085
7.336,-0.00961
7.34,-0.00521
7.344,0.00663
7.348,0.0049
7.352,0.00127
7.356,-0.0169
7.36,0.00947
7.364,0.0384
7.368,-0.01092
7.372,-0.02486
7.376,0.00441
7.38,0.01106
7.384,0.03649
7.388,0.00491
7.392,0.02467
7.396,0.0532
7.4,0.04048
7.404,0.08672
7.408,0.0456
7.412,0.08322
7.416,0.05559
7.42,0.09039
7.424,0.07855
7.428,0.08506
7.432,0.09095
7.436,0.11002
7.44,0.14216
7.444,0.15326
7.448,0.17114
7.452,0.15626
7.456,0.17995
7.46,0.18291
7.464,0.19576
7.468,0.19581
7.472,0.2227
7.476,0.21589
7.48,0.21438
7.484,0.2058
7.488,0.23377
7.492,0.18816
7.496,0.22705
7.5,0.21754
7.504,0.22363
7.508,0.19427
7.512,0.1639
7.516,0.14072
7.52,0.17879
7.524,0.15206
7.528,0.13827
7.532,0.11298
7.536,0.14181
7.54,0.1247
7.544,0.10181
7.548,0.08752
7.552,0.05283
7.556,0.07941
7.56,0.07123
7.564,0.03589
7.568,0.03239
7.572,0.03287
7.576,0.04847
7.58,-0.00375
7.584,0.02295
7.588,0.03344
7.592,0.0401
7.596,0.03087
7.6,0.03231
7.604,0.00807
7.608,-0.01443
7.612,0.01015
7.616,0.00837
7.62,0.02841
7.624,0.02926
7.628,0.00473
7.632,0.01113
7.636,0.00396
7.64,0.00772
7.644,-0.00502
7.648,-0.00757
7.652,0.003
7.656,-0.0035
7.66,0.0137
7.664,0.01445
7.668,0.02043
7.672,0.0053
7.676,0.02233
7.68,0.04394
7.684,0.03361
7.688,0.04119
7.692,0.03748
7.696,0.02628
7.7,0.06546
7.704,0.07731
7.708,0.10355
7.712,0.10577
7.716,0.08166
7.72,0.0878
7.724,0.09638
7.728,0.1197
7.732,0.09712
7.736,0.09956
7.74,0.06514
7.744,0.09342
7.748,0.05253
7.752,0.05129
7.756,0.02325
7.76,0.00953
7.764,0.02746
7.768,0.00231
7.772,-0.00085
7.776,0.0256
7.78,0.01423
7.784,0.01063
7.788,0.01241
7.792,0.01276
7.796,0.0057
7.8,0.04624
7.804,0.0308
7.808,0.0103
7.812,0.02478
7.816,0.01199
7.82,0.01916
7.824,0.0246
7.828,0.02754
7.832,0.00727
7.836,0.00534
7.84,-0.0265
7.844,-0.05225
7.848,-0.08028
7.852,-0.06854
7.856,-0.0936
7.86,0.05409
7.864,0.16891
7.868,0.39214
7.872,0.58666
7.876,0.81788
7.88,0.9552
7.884,0.99673
7.888,0.9483
7.892,0.80602
7.896,0.57449
7.9,0.3348
7.904,0.15373
7.908,-0.01826
7.912,-0.10885
7.916,-0.17862
7.92,-0.15219
7.924,-0.12007
7.928,-0.0451
7.932,-0.03494
7.936,-0.00881
7.94,-0.00202
7.944,0.01507
7.948,0.03189
7.952,0.0301
7.956,0.01073
7.96,-0.00378
7.964,0.03486
7.968,-0.00632
7.972,0.02519
7.976,0.0131
7.98,-0.01316
7.984,0.01387
7.988,-0.00807
7.992,0.0082
7.996,0.02901
8.0,0.04231
8.004,0.00549
8.008,0.02279
8.012,0.0245
8.016,-0.0012
8.02,0.0461
8.024,0.01618
8.028,0.03742
8.032,-0.00947
8.036,0.03185
8.04,0.03589
8.044,0.00308
8.048,0.04053
8.052,0.03742
8.056,-0.01238
8.06,0.03015
8.064,0.02825
8.068,0.04712
8.072,0.06028
8.076,0.03849
8.08,0.0457
8.084,0.07705
8.088,0.09896
8.092,0.05051
8.096,0.10638
8.1,0.1033
8.104,0.11181
8.108,0.1067
8.112,0.14488
8.116,0.14649
8.12,0.14521
8.124,0.15251
8.128,0.17903
8.132,0.19289
8.136,0.19949
8.14,0.21736
8.144,0.2268
8.148,0.21758
8.152,0.23178
8.156,0.23523
8.16,0.22766
8.164,0.23631
8.168,0.23482
8.172,0.23297
8.176,0.23917
8.18,0.19745
8.184,0.20412
8.188,0.20884
8.192,0.23963
8.196,0.19411
8.2,0.18691
8.204,0.18585
8.208,0.12626
8.212,0.14132
8.216,0.13703
8.22,0.10035
8.224,0.12219
8.228,0.10756
8.232,0.09456
8.236,0.0619
8.24,0.09226
8.244,0.0588
8.248,0.07041
8.252,0.05341
8.256,0.04158
8.26,0.01829
8.264,0.03989
8.268,0.04341
8.272,0.02837
8.276,0.03338
8.28,0.06881
8.284,0.02503
8.288,0.04357
8.292,0.03084
8.296,0.04124
8.3,0.00243
8.304,0.05312
8.308,0.02094
8.312,0.01313
8.316,0.02488
8.32,0.03372
8.324,0.01967
8.328,0.01709
8.332,-0.00826
8.336,0.02514
8.34,0.03563
8.344,0.01268
8.348,0.03618
8.352,0.02327
8.356,0.01634
8.36,0.02244
8.364,0.01871
8.368,0.01348
8.372,0.00312
8.376,0.04524
8.38,0.01123
8.384,0.02019
8.388,0.03179
8.392,0.03976
8.396,0.05558
8.4,0.0248
8.404,0.02434
8.408,0.00784
8.412,0.01713
8.416,0.0026
8.42,0.03456
8.424,0.03756
8.428,0.06032
8.432,-0.00015
8.436,0.03052
8.44,0.04904
8.444,0.02718
8.448,0.02484
8.452,0.03494
8.456,0.02396
8.46,0.02573
8.464,0.02506
8.468,0.01425
8.472,0.03366
8.476,0.02366
8.48,0.00658
8.484,0.02268
8.488,0.025
8.492,0.00414
8.496,0.02915
8.5,0.02567
8.504,0.01826
8.508,0.0257
8.512,0.04929
8.516,0.03704
8.52,0.05539
8.524,0.05355
8.528,0.08548
8.532,0.07311
8.536,0.09742
8.54,0.09562
8.544,0.10018
8.548,0.12022
8.552,0.14596
8.556,0.12623
8.56,0.12881
8.564,0.11921
8.568,0.11833
8.572,0.0601
8.576,0.06374
8.58,0.05168
8.584,0.07569
8.588,0.02049
8.592,0.0374
8.596,0.05933
8.6,0.03815
8.604,0.04887
8.608,0.02313
8.612,0.04325
8.616,0.02657
8.62,0.04495
8.624,0.0288
8.628,0.02507
8.632,0.01976
8.636,0.04985
8.64,0.0259
8.644,0.01163
8.648,0.04765
8.652,0.04104
8.656,0.01266
8.66,0.03664
8.664,0.04078
8.668,0.01896
8.672,-0.01982
8.676,-0.04932
8.68,-0.10262
8.684,-0.08335
8.688,0.02988
8.692,0.12693
8.696,0.31337
8.7,0.55137
8.704,0.77525
8.708,0.96133
8.712,1.00897
8.716,1.01383
8.72,0.87361
8.724,0.66584
8.728,0.44005
8.732,0.20833
8.736,0.06138
8.74,-0.09031
8.744,-0.13873
8.748,-0.14104
8.752,-0.10502
8.756,-0.07834
8.76,-0.023
8.764,-0.00073
8.768,0.00188
8.772,0.02629
8.776,0.04108
8.78,0.03371
8.784,0.02382
8.788,0.01146
8.792,0.0424
8.796,0.0481
8.8,0.03613
8.804,0.01104
8.808,0.03475
8.812,0.02564
8.816,0.00522
8.82,0.01937
8.824,0.02313
8.828,0.0185
8.832,0.02634
8.836,0.03757
8.84,0.01376
8.844,-0.0045
8.848,0.0336
8.852,0.03207
8.856,0.01977
8.86,0.02191
8.864,0.02328
8.868,0.0265
8.872,0.00151
8.876,0.0371
8.88,0.03287
8.884,0.0345
8.888,0.05023
8.892,0.03846
8.896,0.06606
8.9,0.06347
8.904,0.03929
8.908,0.06294
8.912,0.04878
8.916,0.08777
8.92,0.08539
8.924,0.10062
8.928,0.12946
8.932,0.10701
8.936,0.12214
8.94,0.17764
8.944,0.15555
8.948,0.19192
8.952,0.16809
8.956,0.18318
8.96,0.16916
8.964,0.18705
8.968,0.20345
8.972,0.21927
8.976,0.25296
8.98,0.20206
8.984,0.24189
8.988,0.26094
8.992,0.24672
8.996,0.2843
9.0,0.2405
9.004,0.22051
9.008,0.24347
9.012,0.23189
9.016,0.23886
9.02,0.20468
9.024,0.18933
9.028,0.17696
9.032,0.1526
9.036,0.18671
9.04,0.1525
9.044,0.14343
9.048,0.13749
9.052,0.13633
9.056,0.10903
9.06,0.12418
9.064,0.06699
9.068,0.07063
9.072,0.09334
9.076,0.06223
9.08,0.04518
9.084,0.06182
9.088,0.05334
9.092,0.07531
9.096,0.05466
9.1,0.02757
9.104,0.0398
9.108,0.05304
9.112,0.02828
9.116,0.0387
9.12,0.01638
9.124,0.0419
9.128,0.04842
9.132,0.03423
9.136,0.03172
9.14,0.04477
9.144,0.0525
9.148,0.02017
9.152,0.02858
9.156,0.04358
9.16,1e-05
9.164,0.01874
9.168,0.0229
9.172,0.04108
9.176,0.02073
9.18,0.00562
9.184,0.01506
9.188,0.0311
9.192,0.01652
9.196,0.03926
9.2,0.00718
9.204,0.02256
9.208,0.04169
9.212,0.02868
9.216,0.03288
9.22,0.04856
9.224,0.05415
9.228,0.04181
9.232,0.04664
9.236,0.04514
9.24,0.0341
9.244,0.05948
9.248,0.03894
9.252,0.0198
9.256,0.0211
9.26,0.04733
9.264,0.01687
9.268,0.04755
9.272,0.04343
9.276,0.07195
9.28,0.07411
9.284,0.08792
9.288,0.0874
9.292,0.12481
9.296,0.11407
9.3,0.11204
9.304,0.13503
9.308,0.11802
9.312,0.12574
9.316,0.09927
9.32,0.11343
9.324,0.1198
9.328,0.09984
9.332,0.07329
9.336,0.07685
9.34,0.03954
9.344,0.0498
9.348,0.06366
9.352,0.01836
9.356,0.03361
9.36,0.03685
9.364,0.00904
9.368,0.0285
9.372,0.0285
9.376,0.01214
9.38,0.0058
9.384,0.02324
9.388,0.0166
9.392,0.0367
9.396,0.02896
9.4,0.02886
9.404,0.05635
9.408,0.04093
9.412,0.03682
9.416,0.00964
9.42,0.01573
9.424,-0.00194
9.428,-0.01503
9.432,-0.08662
9.436,-0.07997
9.44,-0.05056
9.444,0.03537
9.448,0.23558
9.452,0.40736
9.456,0.6248
9.46,0.8182
9.464,0.96118
9.468,0.98702
9.472,0.95556
9.476,0.80548
9.48,0.60453
9.484,0.346
9.488,0.14807
9.492,-0.01464
9.496,-0.1118
9.5,-0.13452
9.504,-0.1501
9.508,-0.10645
9.512,-0.03419
9.516,-0.03529
9.52,0.00198
9.524,0.01894
9.528,0.03417
9.532,0.02218
9.536,0.02143
9.54,0.02168
9.544,0.04552
9.548,0.02269
9.552,0.01699
9.556,0.03125
9.56,0.02785
9.564,0.00569
9.568,-0.00416
9.572,0.04105
9.576,0.05181
9.58,0.04074
9.584,0.02813
9.588,0.00594
9.592,0.05207
9.596,0.00754
9.6,0.00798
9.604,0.0417
9.608,0.01746
9.612,0.02864
9.616,0.01659
9.62,0.03865
9.624,0.013
9.628,0.00307
9.632,0.04284
9.636,0.02617
9.64,0.04892
9.644,0.04068
9.648,0.04163
9.652,0.02445
9.656,0.05691
9.66,0.05302
9.664,0.0456
9.668,0.04594
9.672,0.07488
9.676,0.05579
9.68,0.09957
9.684,0.09553
9.688,0.11232
9.692,0.13591
9.696,0.11993
9.7,0.14057
9.704,0.16873
9.708,0.19444
9.712,0.16951
9.716,0.21394
9.72,0.21111
9.724,0.1922
9.728,0.2273
9.732,0.2466
9.736,0.23085
9.74,0.23946
9.744,0.24462
9.748,0.22443
9.752,0.22971
9.756,0.23959
9.76,0.23336
9.764,0.22673
9.768,0.21263
9.772,0.20083
9.776,0.19787
9.78,0.21212
9.784,0.19464
9.788,0.1719
9.792,0.15521
9.796,0.15464
9.8,0.12298
9.804,0.12848
9.808,0.13354
9.812,0.07584
9.816,0.08607
9.82,0.09676
9.824,0.09638
9.828,0.08973
9.832,0.06927
9.836,0.079
9.84,0.02243
9.844,0.04854
9.848,0.04857
9.852,-0.00329
9.856,0.03551
9.86,0.05254
9.864,0.05092
9.868,0.04672
9.872,0.03588
9.876,0.02253
9.88,0.01719
9.884,0.0202
9.888,0.02516
9.892,0.03186
9.896,0.00497
9.9,0.04363
9.904,0.00058
9.908,0.00535
9.912,0.0185
9.916,0.05016
9.92,0.01323
9.924,0.0309
9.928,0.01254
9.932,0.00525
9.936,0.00479
9.94,0.02009
9.944,0.02514
9.948,-0.04715
9.952,0.02247
9.956,0.03575
9.96,0.02082
9.964,0.03678
9.968,0.01032
9.972,0.01847
9.976,0.01777
9.98,0.02972
9.984,0.02394
9.988,0.03216
9.992,0.00714
9.996,0.03496
