t_seg,ecg_mV
0.0,-0.00097
0.004,-0.00633
0.008,-0.01277
0.012,0.00811
0.016,-0.02475
0.02,-0.02056
0.024,-0.01735
0.028,-0.00996
0.032,0.00136
0.036,-0.02696
0.04,-0.01539
0.044,-0.02395
0.048,-0.00449
0.052,-0.00943
0.056,-0.00716
0.06,0.0007
0.064,-5e-05
0.068,-0.01064
0.072,-0.02894
0.076,-0.00872
0.08,-0.04844
0.084,-0.02924
0.088,-0.01657
0.092,-0.02722
0.096,-0.04011
0.1,-0.0102
0.104,0.0048
0.108,-0.02118
0.112,-0.02681
0.116,-0.02495
0.12,-0.01597
0.124,-0.02547
0.128,-0.01701
0.132,-0.03757
0.136,-0.01919
0.14,-0.02141
0.144,-0.01876
0.148,-0.04014
0.152,-0.03075
0.156,-0.02984
0.16,-0.05553
0.164,-0.03589
0.168,-0.00049
0.172,-0.014
0.176,-0.02907
0.18,-0.04407
0.184,-0.01585
0.188,-0.02766
0.192,-0.02425
0.196,-0.02882
0.2,-0.02247
0.204,-0.0503
0.208,-0.01972
0.212,-0.02517
0.216,-0.01545
0.22,-0.02821
0.224,-0.04015
0.228,-0.03918
0.232,-0.02252
0.236,-0.01025
0.24,-0.0118
0.244,-0.04725
0.248,-0.03229
0.252,-0.02051
0.256,-0.00564
0.26,-0.05711
0.264,-0.00389
0.268,-0.03484
0.272,-0.0244
0.276,-0.03583
0.28,-0.01785
0.284,-0.02323
0.288,-0.05792
0.292,-0.02114
0.296,-0.03001
0.3,-0.0263
0.304,-0.01477
0.308,-0.00317
0.312,-0.01493
0.316,-0.02794
0.32,-0.04105
0.324,-0.03146
0.328,-0.007
0.332,-0.01916
0.336,-0.00351
0.34,-0.01719
0.344,-0.04297
0.348,-0.02488
0.352,-0.03156
0.356,-0.0158
0.36,-0.02789
0.364,-0.02949
0.368,-0.03505
0.372,-0.04648
0.376,-0.01998
0.38,-0.01418
0.384,-0.00814
0.388,0.00576
0.392,-0.03562
0.396,-0.01917
0.4,-0.01609
0.404,-0.02823
0.408,-0.03719
0.412,-0.02048
0.416,-0.00655
0.42,-0.02458
0.424,-0.02576
0.428,-0.04064
0.432,-0.02884
0.436,-0.05628
0.44,-0.0194
0.444,-0.05184
0.448,-0.02976
0.452,-0.0294
0.456,-0.03687
0.46,-0.03143
0.464,-0.04291
0.468,-0.0152
0.472,-0.01489
0.476,-0.05289
0.48,-0.02984
0.484,-0.03569
0.488,-0.02605
0.492,-0.00998
0.496,-0.02524
0.5,-0.03752
0.504,-0.02643
0.508,-0.00627
0.512,-0.02863
0.516,-0.02653
0.52,-0.0374
0.524,-0.03133
0.528,-0.00969
0.532,-0.03001
0.536,-0.07201
0.54,-0.02831
0.544,-0.03094
0.548,-0.04041
0.552,-0.02789
0.556,-0.05495
0.56,-0.03365
0.564,-0.01878
0.568,-0.04519
0.572,-0.02401
0.576,-0.02174
0.58,-0.05608
0.584,-0.01947
0.588,-0.03076
0.592,-0.03541
0.596,-0.01487
0.6,-0.03004
0.604,-0.01734
0.608,-0.00066
0.612,-0.0572
0.616,-0.03843
0.62,-0.03932
0.624,-0.03679
0.628,-0.03499
0.632,-0.04044
0.636,-0.0239
0.64,-0.03319
0.644,-0.01503
0.648,-0.00975
0.652,-0.04486
0.656,-0.03196
0.66,-0.02051
0.664,-0.00445
0.668,-0.06919
0.672,-0.00725
0.676,-0.01169
0.68,-0.03221
0.684,-0.02542
0.688,-0.02078
0.692,-0.01331
0.696,-0.03394
0.7,0.00399
0.704,-0.01755
0.708,-0.03261
0.712,0.00691
0.716,-0.00121
0.72,0.05179
0.724,0.04455
0.728,0.05275
0.732,0.04308
0.736,0.0848
0.74,0.0618
0.744,0.04954
0.748,0.07882
0.752,0.03239
0.756,0.05225
0.76,0.06094
0.764,0.01735
0.768,0.03259
0.772,-0.00818
0.776,-0.01791
0.78,-0.01137
0.784,-0.00956
0.788,-0.0194
0.792,-0.01051
0.796,-0.01976
0.8,-0.02519
0.804,-0.02288
0.808,-0.02564
0.812,-0.02048
0.816,-0.03968
0.82,-0.02828
0.824,-0.03052
0.828,-0.00149
0.832,-0.02591
0.836,-0.03102
0.84,-0.05847
0.844,-0.0139
0.848,-0.03228
0.852,-0.03236
0.856,-0.08703
0.86,-0.08592
0.864,-0.11204
0.868,-0.16924
0.872,-0.11668
0.876,-0.02184
0.88,0.07568
0.884,0.28158
0.888,0.46935
0.892,0.69693
0.896,0.8727
0.9,0.91474
0.904,0.94916
0.908,0.83463
0.912,0.61775
0.916,0.38253
0.92,0.16768
0.924,-0.02152
0.928,-0.1377
0.932,-0.22131
0.936,-0.17869
0.94,-0.15041
0.944,-0.16014
0.948,-0.09
0.952,-0.06731
0.956,-0.02382
0.96,-0.04055
0.964,-0.02107
0.968,-0.00629
0.972,-0.02444
0.976,-0.04317
0.98,-0.03197
0.984,-0.01772
0.988,-0.03402
0.992,-0.04425
0.996,-0.03721
1.0,-0.04233
1.004,-0.03977
1.008,-0.01247
1.012,-0.02752
1.016,-0.00636
1.02,-0.06091
1.024,-0.04123
1.028,-0.03973
1.032,-0.01778
1.036,-0.00782
1.04,-0.03087
1.044,-0.02176
1.048,-0.03461
1.052,-0.02946
1.056,-0.01315
1.06,-0.04747
1.064,0.02087
1.068,-0.02351
1.072,-0.03629
1.076,0.00147
1.08,-0.01902
1.084,-0.02087
1.088,0.00973
1.092,0.01881
1.096,0.00551
1.1,-0.00946
1.104,0.02739
1.108,0.02156
1.112,0.0598
1.116,0.03536
1.12,0.04931
1.124,0.07179
1.128,0.06473
1.132,0.09057
1.136,0.08768
1.14,0.11892
1.144,0.12466
1.148,0.13643
1.152,0.14779
1.156,0.18554
1.16,0.14428
1.164,0.18844
1.168,0.17965
1.172,0.18262
1.176,0.18829
1.18,0.2006
1.184,0.17037
1.188,0.18707
1.192,0.17184
1.196,0.15714
1.2,0.18655
1.204,0.1813
1.208,0.15366
1.212,0.16514
1.216,0.10662
1.22,0.14399
1.224,0.11467
1.228,0.09497
1.232,0.06829
1.236,0.09461
1.24,0.09676
1.244,0.06043
1.248,0.03388
1.252,0.01443
1.256,0.03816
1.26,0.01528
1.264,0.02209
1.268,0.00844
1.272,-0.00798
1.276,0.00047
1.28,-0.02046
1.284,-0.04319
1.288,-0.03501
1.292,0.01315
1.296,-0.04075
1.3,-0.02044
1.304,-0.04791
1.308,-0.01371
1.312,-0.03166
1.316,-0.02878
1.32,-0.02218
1.324,-0.0523
1.328,-0.041
1.332,-0.03108
1.336,-0.03019
1.34,-0.05745
1.344,0.00636
1.348,-0.0215
1.352,-0.02671
1.356,-0.05839
1.36,-0.00387
1.364,-0.04245
1.368,-0.03594
1.372,-0.00658
1.376,-0.04332
1.38,-0.0147
1.384,-0.03423
1.388,-0.02262
1.392,-0.02456
1.396,-0.02712
1.4,-0.0228
1.404,-0.02012
1.408,-0.00326
1.412,-0.00579
1.416,0.00147
1.42,-0.02377
1.424,-0.05711
1.428,-0.01809
1.432,-0.01698
1.436,-0.02482
1.44,-0.04905
1.444,-0.02935
1.448,-0.0078
1.452,-0.00739
1.456,-0.0474
1.46,-0.00318
1.464,-0.02465
1.468,-0.02731
1.472,-0.02834
1.476,-0.03339
1.48,-0.04311
1.484,-0.04442
1.488,-0.03814
1.492,-0.01888
1.496,-0.02864
1.5,-0.00441
1.504,-0.04474
1.508,-0.03714
1.512,-0.01214
1.516,-0.02659
1.52,-0.03707
1.524,-0.01081
1.528,-0.02127
1.532,-0.03875
1.536,-0.00595
1.54,-0.02081
1.544,-0.01775
1.548,-0.03792
1.552,-0.01741
1.556,-0.03727
1.56,-0.01282
1.564,-0.01303
1.568,-0.02396
1.572,-0.02375
1.576,-0.01232
1.58,-0.0355
1.584,-0.04201
1.588,-0.02141
1.592,-0.02932
1.596,-0.02942
1.6,-0.00835
1.604,-0.04442
1.608,-0.02047
1.612,-0.03627
1.616,-0.0344
1.62,-0.02443
1.624,-0.04902
1.628,0.00328
1.632,-0.0318
1.636,-0.01071
1.64,-0.01479
1.644,-0.01952
1.648,-0.01617
1.652,-0.02235
1.656,-0.02174
1.66,-0.04522
1.664,-0.02907
1.668,-0.03334
1.672,-0.03079
1.676,-0.00982
1.68,-0.03069
1.684,-0.05371
1.688,-0.04709
1.692,-0.03696
1.696,-0.04962
1.7,-0.01987
1.704,-0.0189
1.708,0.00375
1.712,-0.02232
1.716,-0.01606
1.72,-0.0117
1.724,-0.01844
1.728,-0.02242
1.732,0.00536
1.736,-0.01666
1.74,-0.02282
1.744,-0.02435
1.748,-0.03353
1.752,-0.01402
1.756,-0.03395
1.76,-0.00971
1.764,-0.01699
1.768,-0.06242
1.772,-0.03288
1.776,-0.0154
1.78,-0.00792
1.784,-0.01056
1.788,-0.01926
1.792,0.01702
1.796,-0.0124
1.8,-0.02336
1.804,-0.03297
1.808,-0.02673
1.812,0.01321
1.816,-0.0045
1.82,-0.00424
1.824,-0.00349
1.828,-0.01912
1.832,-0.02418
1.836,-0.01767
1.84,-0.02036
1.844,-0.02531
1.848,-0.01061
1.852,-0.01025
1.856,-0.03219
1.86,-0.00259
1.864,-0.00636
1.868,-0.02223
1.872,-0.02407
1.876,-0.03251
1.88,-0.01535
1.884,-0.03362
1.888,-0.02511
1.892,-0.00541
1.896,-0.01935
1.9,-0.01984
1.904,-0.02104
1.908,-0.01699
1.912,-0.00679
1.916,-0.02952
1.92,-0.03475
1.924,-0.03115
1.928,-0.01218
1.932,0.00397
1.936,-0.01087
1.94,-0.02124
1.944,-0.01123
1.948,-0.00928
1.952,-0.00524
1.956,-0.04082
1.96,-0.02807
1.964,-0.01323
1.968,-0.00731
1.972,-0.02033
1.976,-0.03444
1.98,-0.03
1.984,-0.01032
1.988,-0.00706
1.992,-0.00594
1.996,-0.02848
2.0,-0.02075
2.004,-0.01688
2.008,-0.02717
2.012,-0.02869
2.016,-0.02634
2.02,0.01461
2.024,-0.02227
2.028,-0.03177
2.032,-0.01589
2.036,-0.00273
2.04,0.01698
2.044,-0.00195
2.048,-0.0276
2.052,-0.00913
2.056,-0.04014
2.06,-0.00947
2.064,-0.01497
2.068,0.00851
2.072,-0.03277
2.076,-0.03461
2.08,0.00827
2.084,-0.00374
2.088,0.01295
2.092,-0.00701
2.096,0.03278
2.1,0.04609
2.104,0.09059
2.108,0.06499
2.112,0.08121
2.116,0.09915
2.12,0.09386
2.124,0.08938
2.128,0.0774
2.132,0.08274
2.136,0.07064
2.14,0.05511
2.144,0.04915
2.148,0.02286
2.152,0.01678
2.156,0.02275
2.16,0.03949
2.164,-0.02037
2.168,-0.004
2.172,0.01784
2.176,-0.00576
2.18,-0.02158
2.184,-0.01675
2.188,0.02169
2.192,-0.00672
2.196,0.00569
2.2,0.00854
2.204,-0.03198
2.208,-0.02151
2.212,-0.00598
2.216,0.00867
2.22,0.00844
2.224,-0.02979
2.228,-0.02076
2.232,-0.01405
2.236,-0.01698
2.24,-0.07463
2.244,-0.10719
2.248,-0.15206
2.252,-0.14241
2.256,-0.05543
2.26,0.05538
2.264,0.25954
2.268,0.48691
2.272,0.67541
2.276,0.84808
2.28,0.96579
2.284,0.99332
2.288,0.85372
2.292,0.66629
2.296,0.44298
2.3,0.22555
2.304,0.06173
2.308,-0.08647
2.312,-0.16858
2.316,-0.15968
2.32,-0.14896
2.324,-0.11568
2.328,-0.04678
2.332,-0.03521
2.336,0.021
2.34,0.00535
2.344,-0.01585
2.348,-0.00347
2.352,0.00736
2.356,-0.00462
2.36,0.01934
2.364,-0.02669
2.368,-0.01518
2.372,-0.02116
2.376,-0.03103
2.38,-0.02299
2.384,-0.01006
2.388,-0.00625
2.392,-0.02024
2.396,0.00764
2.4,-0.01906
2.404,-0.03371
2.408,-0.00677
2.412,-0.00335
2.416,-0.01237
2.42,0.0047
2.424,0.01097
2.428,-0.01332
2.432,-0.00233
2.436,0.0039
2.44,-0.00452
2.444,-0.01168
2.448,0.01976
2.452,0.03748
2.456,0.03711
2.46,0.03134
2.464,0.02939
2.468,-0.00451
2.472,0.04271
2.476,0.02147
2.48,0.03377
2.484,0.03544
2.488,0.08597
2.492,0.07268
2.496,0.06041
2.5,0.10418
2.504,0.12111
2.508,0.13709
2.512,0.12152
2.516,0.13882
2.52,0.15051
2.524,0.15161
2.528,0.17581
2.532,0.18337
2.536,0.18077
2.54,0.23584
2.544,0.20835
2.548,0.19916
2.552,0.23852
2.556,0.19223
2.56,0.20531
2.564,0.2102
2.568,0.21537
2.572,0.23079
2.576,0.20968
2.58,0.19964
2.584,0.19512
2.588,0.18692
2.592,0.20605
2.596,0.15048
2.6,0.13565
2.604,0.16366
2.608,0.13804
2.612,0.11375
2.616,0.10519
2.62,0.13151
2.624,0.09375
2.628,0.09265
2.632,0.07529
2.636,0.02478
2.64,0.04126
2.644,0.04032
2.648,0.06744
2.652,0.01586
2.656,0.01659
2.66,0.00607
2.664,0.04279
2.668,0.00729
2.672,0.02757
2.676,-0.00045
2.68,0.00637
2.684,0.00988
2.688,-0.00026
2.692,0.01351
2.696,0.00876
2.7,-0.01069
2.704,0.01104
2.708,0.00185
2.712,0.02317
2.716,-0.00428
2.72,0.0247
2.724,-0.00273
2.728,0.00532
2.732,-0.0042
2.736,0.02522
2.74,0.01274
2.744,-0.01252
2.748,0.00603
2.752,-0.00319
2.756,0.0374
2.76,-0.01924
2.764,-0.00435
2.768,-0.00501
2.772,0.01274
2.776,-0.01991
2.78,-0.01601
2.784,0.01181
2.788,0.01715
2.792,0.00366
2.796,-0.01102
2.8,0.00258
2.804,0.02159
2.808,-0.00652
2.812,-0.01711
2.816,0.00053
2.82,0.00629
2.824,0.01353
2.828,0.02648
2.832,0.02823
2.836,0.02987
2.84,0.00422
2.844,0.01075
2.848,0.03327
2.852,0.02542
2.856,-0.01396
2.86,0.02056
2.864,-0.00653
2.868,0.01683
2.872,0.01749
2.876,0.01684
2.88,0.01218
2.884,0.02069
2.888,0.02768
2.892,0.00668
2.896,0.01407
2.9,0.00498
2.904,-0.01018
2.908,0.03636
2.912,0.00359
2.916,0.02619
2.92,0.00615
2.924,-0.00933
2.928,0.01059
2.932,-0.0022
2.936,-0.00575
2.94,-0.01308
2.944,-0.00196
2.948,0.02593
2.952,0.03041
2.956,0.00471
2.96,0.04435
2.964,0.02424
2.968,0.01626
2.972,-0.00164
2.976,0.02579
2.98,0.00103
2.984,0.00574
2.988,0.02477
2.992,-0.00035
2.996,0.02317
3.0,0.00474
3.004,-0.003
3.008,0.00639
3.012,-0.0038
3.016,0.01499
3.02,0.02179
3.024,0.01707
3.028,0.0192
3.032,0.00978
3.036,0.00699
3.04,0.01092
3.044,0.01563
3.048,-0.0122
3.052,0.02954
3.056,0.03351
3.06,0.03024
3.064,0.01601
3.068,0.00106
3.072,0.02656
3.076,0.00043
3.08,0.01752
3.084,0.03274
3.088,-0.01415
3.092,0.00317
3.096,0.00431
3.1,0.02405
3.104,-0.0218
3.108,-0.00782
3.112,-0.02097
3.116,0.01144
3.12,0.04152
3.124,0.01085
3.128,0.04493
3.132,0.04236
3.136,0.0351
3.14,0.08606
3.144,0.06125
3.148,0.08991
3.152,0.07192
3.156,0.11475
3.16,0.1166
3.164,0.10126
3.168,0.1227
3.172,0.09986
3.176,0.08691
3.18,0.10518
3.184,0.07847
3.188,0.0624
3.192,0.06267
3.196,0.04589
3.2,0.0257
3.204,0.05504
3.208,0.05215
3.212,0.023
3.216,0.04471
3.22,0.0245
3.224,0.00503
3.228,0.01267
3.232,0.01618
3.236,-0.00821
3.24,0.03844
3.244,-0.00562
3.248,0.02582
3.252,0.02347
3.256,0.02282
3.26,0.02329
3.264,0.02423
3.268,0.04062
3.272,0.02491
3.276,0.01161
3.28,0.00802
3.284,-0.02515
3.288,-0.05885
3.292,-0.08889
3.296,-0.06977
3.3,0.00442
3.304,0.11793
3.308,0.36207
3.312,0.55574
3.316,0.74882
3.32,0.91542
3.324,1.00059
3.328,0.98321
3.332,0.89821
3.336,0.63601
3.34,0.41178
3.344,0.20934
3.348,-0.01032
3.352,-0.08106
3.356,-0.13789
3.36,-0.1496
3.364,-0.10256
3.368,-0.0705
3.372,-0.02371
3.376,0.00046
3.38,0.00326
3.384,0.02025
3.388,0.02902
3.392,0.01879
3.396,0.05285
3.4,0.01006
3.404,0.03444
3.408,0.02674
3.412,0.01648
3.416,0.02165
3.42,0.01126
3.424,0.01779
3.428,0.00459
3.432,0.02127
3.436,0.03505
3.44,0.01955
3.444,0.01089
3.448,0.00706
3.452,0.05376
3.456,0.01221
3.46,0.03913
3.464,0.01998
3.468,0.02779
3.472,0.01055
3.476,0.02793
3.48,0.03402
3.484,0.03367
3.488,0.03986
3.492,0.03524
3.496,0.01362
3.5,0.04881
3.504,0.05721
3.508,0.02211
3.512,0.02522
3.516,0.05675
3.52,0.05106
3.524,0.07436
3.528,0.056
3.532,0.10418
3.536,0.1032
3.54,0.10006
3.544,0.11338
3.548,0.12765
3.552,0.12494
3.556,0.14746
3.56,0.16135
3.564,0.15672
3.568,0.15971
3.572,0.16385
3.576,0.20759
3.58,0.23862
3.584,0.21548
3.588,0.22026
3.592,0.21481
3.596,0.24727
3.6,0.2418
3.604,0.23657
3.608,0.24953
3.612,0.229
3.616,0.23975
3.62,0.24123
3.624,0.21265
3.628,0.1856
3.632,0.22063
3.636,0.17408
3.64,0.20615
3.644,0.18366
3.648,0.14651
3.652,0.1262
3.656,0.12329
3.66,0.13734
3.664,0.11436
3.668,0.10329
3.672,0.09973
3.676,0.07068
3.68,0.06668
3.684,0.08868
3.688,0.07194
3.692,0.08493
3.696,0.04353
3.7,0.04172
3.704,0.0564
3.708,0.04211
3.712,0.03022
3.716,0.05298
3.72,0.03317
3.724,0.06334
3.728,0.01832
3.732,0.05005
3.736,0.02024
3.74,0.0104
3.744,-0.00184
3.748,0.04032
3.752,0.01154
3.756,0.03648
3.76,0.01498
3.764,0.0386
3.768,0.03777
3.772,0.01086
3.776,0.03041
3.78,0.03685
3.784,0.0132
3.788,0.04304
3.792,-0.00704
3.796,0.02251
3.8,0.0429
3.804,0.01257
3.808,0.01319
3.812,0.0377
3.816,0.04467
3.82,0.02019
3.824,0.00958
3.828,0.03898
3.832,0.06149
3.836,0.02386
3.84,0.01896
3.844,0.02437
3.848,0.04084
3.852,0.03162
3.856,0.01817
3.86,0.01596
3.864,0.061
3.868,0.05382
3.872,0.00967
3.876,0.02108
3.88,0.04846
3.884,0.02681
3.888,0.04187
3.892,0.06957
3.896,0.01613
3.9,0.01841
3.904,0.02895
3.908,0.04007
3.912,-0.00731
3.916,0.04277
3.92,0.03652
3.924,0.03438
3.928,-0.002
3.932,0.03313
3.936,0.03242
3.94,0.02648
3.944,0.01598
3.948,0.03546
3.952,0.02532
3.956,0.01844
3.96,0.028
3.964,0.01402
3.968,0.01215
3.972,0.02858
3.976,0.06169
3.98,0.03713
3.984,0.01864
3.988,0.0297
3.992,0.04296
3.996,0.02731
4.0,0.04887
4.004,0.00604
4.008,0.0288
4.012,0.03828
4.016,0.02448
4.02,0.02291
4.024,0.04011
4.028,0.02275
4.032,0.02927
4.036,0.01588
4.04,0.02092
4.044,0.02482
4.048,0.03714
4.052,0.02272
4.056,0.03534
4.06,0.03633
4.064,0.03078
4.068,0.01955
4.072,0.00947
4.076,0.03045
4.08,0.03444
4.084,0.02511
4.088,0.03378
4.092,0.04425
4.096,0.05434
4.1,0.05764
4.104,0.05507
4.108,0.05184
4.112,0.06704
4.116,0.0649
4.12,0.08651
4.124,0.09742
4.128,0.11797
4.132,0.12252
4.136,0.13693
4.14,0.13051
4.144,0.14214
4.148,0.13491
4.152,0.10706
4.156,0.1125
4.16,0.10907
4.164,0.07548
4.168,0.05452
4.172,0.05255
4.176,0.07089
4.18,0.05381
4.184,0.01884
4.188,0.03709
4.192,0.04059
4.196,0.02784
4.2,0.02877
4.204,0.03047
4.208,0.01007
4.212,0.00489
4.216,0.03162
4.22,-0.00664
4.224,0.01452
4.228,0.04907
4.232,0.02189
4.236,0.02336
4.24,0.02465
4.244,0.0093
4.248,0.00444
4.252,0.00503
4.256,-0.03078
4.26,-0.0343
4.264,-0.09482
4.268,-0.07784
4.272,-0.00284
4.276,0.09937
4.28,0.30669
4.284,0.51195
4.288,0.74617
4.292,0.91269
4.296,1.01684
4.3,0.99449
4.304,0.91992
4.308,0.74799
4.312,0.50626
4.316,0.27127
4.32,0.07016
4.324,-0.04826
4.328,-0.09941
4.332,-0.16107
4.336,-0.10607
4.34,-0.04938
4.344,0.00803
4.348,0.02927
4.352,0.02591
4.356,0.02191
4.36,0.03637
4.364,0.00716
4.368,0.01206
4.372,-0.00542
4.376,0.03108
4.38,0.03652
4.384,0.05138
4.388,0.04948
4.392,0.03734
4.396,0.03629
4.4,0.0199
4.404,0.01474
4.408,0.03961
4.412,0.05748
4.416,0.03511
4.42,0.02145
4.424,0.02069
4.428,0.03226
4.432,0.03203
4.436,0.01
4.44,0.03925
4.444,0.04628
4.448,0.0499
4.452,0.03121
4.456,0.0342
4.46,0.04056
4.464,0.03933
4.468,0.04689
4.472,0.01872
4.476,0.02791
4.48,0.09274
4.484,0.05153
4.488,0.06977
4.492,0.04946
4.496,0.08422
4.5,0.05663
4.504,0.06787
4.508,0.11802
4.512,0.0797
4.516,0.12039
4.52,0.12794
4.524,0.12538
4.528,0.16415
4.532,0.14847
4.536,0.13761
4.54,0.17646
4.544,0.19494
4.548,0.21891
4.552,0.22026
4.556,0.21763
4.56,0.18876
4.564,0.23118
4.568,0.25464
4.572,0.24122
4.576,0.2591
4.58,0.24076
4.584,0.24394
4.588,0.25571
4.592,0.24109
4.596,0.20593
4.6,0.20173
4.604,0.21027
4.608,0.18255
4.612,0.19501
4.616,0.208
4.62,0.17513
4.624,0.16181
4.628,0.13607
4.632,0.13406
4.636,0.12353
4.64,0.11019
4.644,0.08641
4.648,0.09588
4.652,0.06294
4.656,0.05888
4.66,0.06574
4.664,0.09011
4.668,0.05121
4.672,0.05078
4.676,0.03284
4.68,0.05666
4.684,0.0525
4.688,0.04537
4.692,0.04153
4.696,0.01754
4.7,0.01671
4.704,0.03512
4.708,0.055
4.712,0.04337
4.716,0.04378
4.72,0.01541
4.724,0.01246
4.728,0.02308
4.732,0.02106
4.736,0.02294
4.74,0.05804
4.744,0.02799
4.748,0.02792
4.752,0.03436
4.756,0.01495
4.76,0.02833
4.764,0.01415
4.768,0.01515
4.772,0.02168
4.776,0.01213
4.78,0.02482
4.784,0.03399
4.788,0.0277
4.792,0.03386
4.796,0.0431
4.8,0.04247
4.804,0.00916
4.808,0.00465
4.812,0.00672
4.816,0.02802
4.82,0.03305
4.824,0.00196
4.828,0.01574
4.832,0.03216
4.836,0.00973
4.84,0.02399
4.844,-0.00174
4.848,0.02182
4.852,0.00849
4.856,0.0223
4.86,0.03524
4.864,0.03086
4.868,0.04506
4.872,0.01814
4.876,0.04103
4.88,0.0071
4.884,0.02034
4.888,0.00836
4.892,0.01827
4.896,0.01261
4.9,0.03335
4.904,0.02921
4.908,0.02112
4.912,0.00464
4.916,0.03639
4.92,0.0307
4.924,0.00539
4.928,0.02358
4.932,0.01306
4.936,0.02837
4.94,0.01632
4.944,0.00821
4.948,0.00827
4.952,0.05221
4.956,-0.00206
4.96,0.01434
4.964,0.01129
4.968,0.01474
4.972,0.00656
4.976,0.03629
4.98,0.02801
4.984,0.03162
4.988,0.02092
4.992,0.01535
4.996,0.01264
5.0,0.04494
5.004,0.04707
5.008,0.01513
5.012,0.01942
5.016,0.01507
5.02,0.03441
5.024,0.02633
5.028,0.02803
5.032,0.04384
5.036,0.02605
5.04,-0.02149
5.044,0.03983
5.048,0.00717
5.052,0.00978
5.056,0.04884
5.06,0.03466
5.064,0.02341
5.068,-0.02087
5.072,0.01827
5.076,0.02166
5.08,0.01768
5.084,0.02945
5.088,0.0131
5.092,0.01833
5.096,0.00874
5.1,0.03662
5.104,0.04885
5.108,-0.00492
5.112,0.03714
5.116,0.02877
5.12,0.01142
5.124,-0.00435
5.128,0.03628
5.132,0.05599
5.136,0.0562
5.14,0.01318
5.144,0.01644
5.148,0.03382
5.152,0.03357
5.156,-0.0013
5.16,0.02485
5.164,0.00945
5.168,-0.00731
5.172,0.015
5.176,0.04344
5.18,0.02923
5.184,0.00219
5.188,0.01269
5.192,0.01289
5.196,0.03102
5.2,0.02113
5.204,0.01441
5.208,0.05428
5.212,0.06893
5.216,0.07145
5.22,0.05673
5.224,0.06711
5.228,0.10888
5.232,0.11192
5.236,0.09736
5.24,0.10795
5.244,0.13961
5.248,0.12695
5.252,0.10772
5.256,0.07892
5.26,0.07002
5.264,0.06154
5.268,0.06115
5.272,0.05241
5.276,0.02651
5.28,0.02613
5.284,0.037
5.288,0.03217
5.292,0.02874
5.296,-0.00441
5.3,0.03934
5.304,0.00081
5.308,0.01799
5.312,0.02308
5.316,0.00268
5.32,0.01461
5.324,0.01278
5.328,0.01329
5.332,0.01746
5.336,0.01913
5.34,0.00899
5.344,0.0051
5.348,0.01197
5.352,-0.00473
5.356,-0.01007
5.36,-0.0163
5.364,-0.07413
5.368,-0.09328
5.372,-0.1027
5.376,-0.00764
5.38,0.0947
5.384,0.29437
5.388,0.46051
5.392,0.70465
5.396,0.89247
5.4,1.00859
5.404,1.003
5.408,0.92366
5.412,0.7215
5.416,0.45985
5.42,0.28645
5.424,0.09242
5.428,-0.08515
5.432,-0.14839
5.436,-0.17423
5.44,-0.15061
5.444,-0.09303
5.448,-0.05248
5.452,-0.00466
5.456,0.00687
5.46,0.01178
5.464,0.00092
5.468,0.03664
5.472,0.00345
5.476,0.03194
5.48,0.01692
5.484,0.02209
5.488,0.02515
5.492,0.01257
5.496,0.00591
5.5,-0.00975
5.504,-0.00526
5.508,-0.01491
5.512,0.03052
5.516,-0.00204
5.52,0.01968
5.524,0.01396
5.528,0.00859
5.532,0.0327
5.536,0.04482
5.54,-0.00044
5.544,0.0097
5.548,-0.00191
5.552,0.01611
5.556,0.01483
5.56,0.00302
5.564,0.04847
5.568,0.02143
5.572,0.025
5.576,0.0055
5.58,0.03629
5.584,0.03207
5.588,0.03094
5.592,0.0251
5.596,0.03157
5.6,0.05192
5.604,0.04747
5.608,0.06728
5.612,0.08154
5.616,0.09358
5.62,0.09052
5.624,0.10077
5.628,0.10623
5.632,0.12202
5.636,0.14921
5.64,0.16552
5.644,0.14396
5.648,0.17124
5.652,0.16708
5.656,0.1982
5.66,0.20239
5.664,0.21594
5.668,0.21358
5.672,0.2269
5.676,0.18982
5.68,0.19971
5.684,0.21726
5.688,0.21517
5.692,0.22784
5.696,0.21216
5.7,0.18888
5.704,0.19696
5.708,0.18958
5.712,0.18421
5.716,0.19021
5.72,0.15502
5.724,0.17879
5.728,0.14732
5.732,0.13688
5.736,0.10745
5.74,0.1074
5.744,0.07917
5.748,0.06589
5.752,0.06962
5.756,0.04004
5.76,0.03839
5.764,0.04284
5.768,0.03758
5.772,0.03226
5.776,0.0396
5.78,0.04038
5.784,0.02582
5.788,0.01766
5.792,0.03602
5.796,0.02821
5.8,0.03425
5.804,0.00785
5.808,0.021
5.812,0.02455
5.816,0.01866
5.82,0.02131
5.824,-0.00433
5.828,0.03703
5.832,-0.01889
5.836,-0.00245
5.84,0.01645
5.844,-0.01516
5.848,0.00188
5.852,-0.02831
5.856,-0.01063
5.86,-0.00375
5.864,0.02293
5.868,-0.01119
5.872,0.00199
5.876,0.00134
5.88,-0.00418
5.884,0.00676
5.888,-0.00989
5.892,-0.00405
5.896,-0.00761
5.9,0.01322
5.904,0.00242
5.908,0.00032
5.912,-0.00569
5.916,0.00862
5.92,0.00677
5.924,-0.00027
5.928,-0.01426
5.932,-0.01172
5.936,-0.00692
5.94,0.01064
5.944,-0.01408
5.948,-0.00751
5.952,-0.01135
5.956,-0.00361
5.96,-0.00802
5.964,-0.00043
5.968,-0.02692
5.972,-0.0104
5.976,0.00572
5.98,-0.00975
5.984,0.01936
5.988,0.00773
5.992,0.02085
5.996,-0.0254
6.0,0.02283
6.004,-0.03318
6.008,0.03052
6.012,-0.00496
6.016,-0.00943
6.02,-0.03296
6.024,-0.01665
6.028,0.01455
6.032,0.0062
6.036,-0.02768
6.04,0.00603
6.044,-0.02574
6.048,0.00233
6.052,0.01114
6.056,-0.02222
6.06,0.0199
6.064,0.00168
6.068,-0.0073
6.072,0.01386
6.076,-0.00389
6.08,-0.01491
6.084,-0.00074
6.088,0.00637
6.092,-0.03083
6.096,-0.02203
6.1,0.00585
6.104,-0.00242
6.108,-0.01552
6.112,0.04407
6.116,0.01922
6.12,0.01409
6.124,0.03543
6.128,0.02914
6.132,0.04791
6.136,0.05506
6.14,0.03312
6.144,0.07241
6.148,0.1054
6.152,0.06898
6.156,0.08824
6.16,0.05505
6.164,0.12634
6.168,0.08919
6.172,0.05478
6.176,0.07285
6.18,0.02673
6.184,0.0228
6.188,0.01612
6.192,0.01363
6.196,0.00683
6.2,0.00809
6.204,0.00249
6.208,-0.01632
6.212,0.00886
6.216,-0.01916
6.22,0.00092
6.224,-0.0153
6.228,-0.02709
6.232,-0.00027
6.236,-0.02555
6.24,-0.02396
6.244,0.00171
6.248,0.00214
6.252,0.00499
6.256,-0.03313
6.26,-0.01649
6.264,-0.02316
6.268,-0.03541
6.272,-0.00248
6.276,-0.06677
6.28,-0.10265
6.284,-0.14362
6.288,-0.09998
6.292,0.0302
6.296,0.1684
6.3,0.38044
6.304,0.6225
6.308,0.81753
6.312,0.96618
6.316,0.98497
6.32,0.92352
6.324,0.75189
6.328,0.54114
6.332,0.30042
6.336,0.09692
6.34,-0.05449
6.344,-0.12491
6.348,-0.18494
6.352,-0.16254
6.356,-0.1267
6.36,-0.10593
6.364,-0.04879
6.368,-0.0179
6.372,0.00844
6.376,-0.01525
6.38,-0.03697
6.384,-0.02396
6.388,0.01851
6.392,-0.01322
6.396,-0.01426
6.4,-0.01644
6.404,-0.01496
6.408,-0.02598
6.412,-0.00871
6.416,-0.02103
6.42,-0.01102
6.424,-0.01052
6.428,-0.02807
6.432,-0.01439
6.436,-0.01262
6.44,-0.02713
6.444,-0.00424
6.448,-0.02451
6.452,-0.00516
6.456,-0.01846
6.46,-0.01322
6.464,0.00828
6.468,0.00569
6.472,-0.01736
6.476,0.0142
6.48,-0.03555
6.484,0.00062
6.488,0.006
6.492,-0.00464
6.496,0.00801
6.5,0.03896
6.504,0.04834
6.508,0.01975
6.512,0.00865
6.516,0.03863
6.52,0.03694
6.524,0.04124
6.528,0.05288
6.532,0.07065
6.536,0.07572
6.54,0.06932
6.544,0.11097
6.548,0.12549
6.552,0.13431
6.556,0.11985
6.56,0.1267
6.564,0.1712
6.568,0.18521
6.572,0.19491
6.576,0.17629
6.58,0.19161
6.584,0.23213
6.588,0.21192
6.592,0.2102
6.596,0.19711
6.6,0.20575
6.604,0.17807
6.608,0.16973
6.612,0.16684
6.616,0.19585
6.62,0.17326
6.624,0.19221
6.628,0.15529
6.632,0.132
6.636,0.11828
6.64,0.10754
6.644,0.11465
6.648,0.09223
6.652,0.0816
6.656,0.07997
6.66,0.05064
6.664,0.05067
6.668,0.04775
6.672,0.03668
6.676,0.05945
6.68,0.00437
6.684,-0.0065
6.688,0.027
6.692,-0.00262
6.696,0.00106
6.7,-0.0215
6.704,-0.00891
6.708,0.00996
6.712,-0.03746
6.716,-0.00942
6.72,-0.03632
6.724,-0.02646
6.728,-0.01516
6.732,0.00674
6.736,-0.01892
6.74,0.00718
6.744,-0.02792
6.748,0.00109
6.752,0.00256
6.756,-0.02123
6.76,-0.02745
6.764,-0.04532
6.768,-0.03875
6.772,-0.0221
6.776,-0.00074
6.78,-0.00111
6.784,-0.0108
6.788,-0.00315
6.792,-0.037
6.796,-0.03016
6.8,-0.02691
6.804,-0.01684
6.808,-0.01665
6.812,-0.0258
6.816,-0.04432
6.82,-0.03687
6.824,-0.02772
6.828,-0.02755
6.832,-0.01586
6.836,-0.03094
6.84,-0.03954
6.844,-0.04611
6.848,-0.03725
6.852,-0.01607
6.856,-0.02508
6.86,-0.02982
6.864,-0.02944
6.868,-0.02297
6.872,-0.04707
6.876,-0.02921
6.88,-0.04087
6.884,-0.02869
6.888,-0.04912
6.892,-0.03243
6.896,-0.01326
6.9,-0.01881
6.904,-0.03727
6.908,-0.03335
6.912,-0.0446
6.916,-0.0274
6.92,-0.01822
6.924,-0.01974
6.928,0.00551
6.932,-0.00647
6.936,-0.01669
6.94,-0.03085
6.944,-0.0168
6.948,0.00821
6.952,-0.04073
6.956,-0.00891
6.96,-0.03061
6.964,-0.04612
6.968,-0.04914
6.972,-0.02002
6.976,0.0037
6.98,-0.00018
6.984,-0.0373
6.988,-0.02214
6.992,-0.04066
6.996,-0.02201
7.0,-0.03428
7.004,-0.05454
7.008,-0.04505
7.012,-0.02695
7.016,-0.02204
7.02,-0.01117
7.024,-0.03144
7.028,-0.0225
7.032,-0.00453
7.036,-0.02641
7.04,-0.01954
7.044,0.00499
7.048,-0.047
7.052,-0.04406
7.056,-0.01289
7.06,-0.03541
7.064,-0.03691
7.068,-0.03933
7.072,-0.01812
7.076,-0.06617
7.08,-0.03057
7.084,-0.03009
7.088,0.00619
7.092,-0.01649
7.096,-0.02233
7.1,-0.03184
7.104,-0.00946
7.108,-0.02692
7.112,-0.0239
7.116,-0.03585
7.12,-0.01395
7.124,-0.03491
7.128,-0.02687
7.132,-0.03207
7.136,0.0171
7.14,-0.03084
7.144,-0.0181
7.148,-0.00307
7.152,-0.00538
7.156,-0.00216
7.16,0.02455
7.164,0.05169
7.168,0.05752
7.172,0.07995
7.176,0.05916
7.18,0.05554
7.184,0.06424
7.188,0.08163
7.192,0.05092
7.196,0.02212
7.2,0.01837
7.204,0.03928
7.208,0.04411
7.212,0.00791
7.216,-0.01751
7.22,-0.01484
7.224,0.00374
7.228,-0.03889
7.232,-0.00869
7.236,-0.03721
7.24,-0.03713
7.244,-0.00024
7.248,-0.02335
7.252,-0.03061
7.256,-0.03902
7.26,-0.03801
7.264,-0.01875
7.268,-0.0442
7.272,-0.04661
7.276,-0.02392
7.28,-0.03402
7.284,-0.01099
7.288,-0.052
7.292,-0.0468
7.296,-0.06894
7.3,-0.10707
7.304,-0.11635
7.308,-0.1483
7.312,-0.11661
7.316,-0.01021
7.32,0.16744
7.324,0.35429
7.328,0.5768
7.332,0.76841
7.336,0.90309
7.34,0.95235
7.344,0.93481
7.348,0.74525
7.352,0.55268
7.356,0.32271
7.36,0.10656
7.364,-0.05119
7.368,-0.16569
7.372,-0.22031
7.376,-0.1688
7.38,-0.12959
7.384,-0.07664
7.388,-0.05258
7.392,-0.0501
7.396,-0.02348
7.4,-0.03225
7.404,-0.00112
7.408,-0.05426
7.412,-0.01202
7.416,-0.03227
7.42,-0.02647
7.424,-0.00965
7.428,-0.02742
7.432,-0.02877
7.436,-0.01292
7.44,-0.02263
7.444,-0.05334
7.448,-0.03124
7.452,-0.04392
7.456,-0.00115
7.46,0.00361
7.464,-0.05117
7.468,-0.02649
7.472,-0.02057
7.476,-0.00664
7.48,-0.03457
7.484,-3e-05
7.488,-0.03417
7.492,-0.02973
7.496,-0.03142
7.5,-0.03973
7.504,0.00132
7.508,0.00271
7.512,-0.00825
7.516,-0.00574
7.52,-0.00289
7.524,-0.01248
7.528,-0.01439
7.532,-0.0026
7.536,0.01517
7.54,0.00158
7.544,0.02756
7.548,0.04291
7.552,0.03911
7.556,0.08321
7.56,0.0518
7.564,0.06997
7.568,0.11995
7.572,0.08754
7.576,0.13756
7.58,0.11728
7.584,0.12841
7.588,0.13074
7.592,0.16134
7.596,0.16161
7.6,0.17762
7.604,0.18045
7.608,0.16665
7.612,0.18987
7.616,0.17429
7.62,0.17478
7.624,0.17854
7.628,0.20068
7.632,0.18907
7.636,0.18319
7.64,0.17801
7.644,0.16553
7.648,0.16002
7.652,0.13713
7.656,0.11319
7.66,0.10148
7.664,0.1087
7.668,0.11391
7.672,0.08355
7.676,0.07311
7.68,0.07341
7.684,0.05369
7.688,0.04311
7.692,0.00928
7.696,0.0156
7.7,0.02559
7.704,0.02566
7.708,-0.0246
7.712,0.01289
7.716,-0.00978
7.72,-0.03268
7.724,-0.02009
7.728,-0.02108
7.732,-0.02084
7.736,0.00785
7.74,-0.0278
7.744,-0.03153
7.748,-0.06883
7.752,-0.02661
7.756,-0.02049
7.76,-0.02104
7.764,-0.01654
7.768,-0.00768
7.772,-0.032
7.776,-0.00899
7.78,-0.0173
7.784,-0.01873
7.788,-0.01171
7.792,-0.03638
7.796,-0.03019
7.8,-0.05971
7.804,-0.02596
7.808,0.00582
7.812,-0.02012
7.816,-0.04273
7.82,-0.04951
7.824,-0.01272
7.828,-0.04143
7.832,-0.02615
7.836,-0.02718
7.84,-0.0417
7.844,-0.02726
7.848,-0.04142
7.852,-0.05371
7.856,-0.02203
7.86,-0.03438
7.864,-0.02366
7.868,-0.019
7.872,-0.01912
7.876,-0.00748
7.88,-0.06889
7.884,0.01357
7.888,-0.03932
7.892,-0.05046
7.896,-0.03998
7.9,-0.02223
7.904,-0.03461
7.908,-0.03876
7.912,-0.06207
7.916,-0.02085
7.92,-0.0119
7.924,-0.03283
7.928,-0.04233
7.932,-0.01449
7.936,-0.03564
7.94,-0.03989
7.944,-0.02564
7.948,-0.02613
7.952,-0.03636
7.956,-0.03613
7.96,-0.03638
7.964,-0.00675
7.968,-0.0681
7.972,-0.04249
7.976,-0.0393
7.98,-0.02689
7.984,-0.04143
7.988,-0.03035
7.992,-0.01356
7.996,-0.03116
8.0,-0.01595
8.004,-0.01721
8.008,-0.03608
8.012,-0.01642
8.016,-0.02936
8.02,-0.00673
8.024,-0.01493
8.028,-0.00585
8.032,-0.02273
8.036,-0.03075
8.04,-0.03061
8.044,-0.01978
8.048,-0.04283
8.052,-0.00977
8.056,-0.01357
8.06,-0.00403
8.064,-0.03551
8.068,-0.01431
8.072,0.00016
8.076,-0.05078
8.08,-0.02829
8.084,-0.03195
8.088,-0.04177
8.092,-0.04132
8.096,-0.01627
8.1,-0.04917
8.104,-0.04886
8.108,-0.03497
8.112,-0.04903
8.116,-0.04125
8.12,-0.01291
8.124,-0.0105
8.128,-0.02218
8.132,-0.02831
8.136,-0.02417
8.14,-0.02382
8.144,-0.01779
8.148,-0.05609
8.152,-0.03407
8.156,0.00569
8.16,-0.03207
8.164,-0.01633
8.168,-0.03509
8.172,-0.00104
8.176,-0.01853
8.18,-0.012
8.184,-0.04345
8.188,-0.03379
8.192,-0.00025
8.196,-0.03914
8.2,-0.03853
8.204,-0.03721
8.208,-0.01587
8.212,-0.01528
8.216,-0.01746
8.22,-0.02506
8.224,-0.02926
8.228,-0.00641
8.232,-0.01095
8.236,0.01761
8.24,-0.02468
8.244,-0.00585
8.248,-0.02747
8.252,-0.02268
8.256,-0.02927
8.26,-0.0077
8.264,-0.02772
8.268,-0.01766
8.272,-0.04124
8.276,-0.00337
8.28,0.02141
8.284,0.00547
8.288,-0.0034
8.292,0.03055
8.296,0.00331
8.3,0.0473
8.304,0.03999
8.308,0.06879
8.312,0.06809
8.316,0.0814
8.32,0.06945
8.324,0.06506
8.328,0.07993
8.332,0.04035
8.336,0.04097
8.34,0.0548
8.344,0.02425
8.348,0.0178
8.352,0.04608
8.356,-0.0064
8.36,-0.01322
8.364,-0.00014
8.368,-0.03166
8.372,-0.01493
8.376,-0.00125
8.38,-0.0232
8.384,-0.02886
8.388,-0.01303
8.392,-0.02851
8.396,-0.02094
8.4,-0.00948
8.404,-0.01882
8.408,-0.02075
8.412,-0.01606
8.416,-0.01768
8.42,-0.01945
8.424,-0.02273
8.428,9e-05
8.432,-0.03891
8.436,-0.03888
8.44,-0.11738
8.444,-0.12613
8.448,-0.12357
8.452,-0.0916
8.456,-0.00014
8.46,0.20523
8.464,0.42726
8.468,0.60668
8.472,0.8395
8.476,0.92138
8.48,0.98887
8.484,0.9013
8.488,0.7136
8.492,0.50324
8.496,0.25469
8.5,0.05365
8.504,-0.05571
8.508,-0.13977
8.512,-0.20142
8.516,-0.1633
8.52,-0.10402
8.524,-0.07852
8.528,-0.0591
8.532,-0.02767
8.536,-0.04798
8.54,-0.00024
8.544,-0.02431
8.548,-0.02096
8.552,-0.0111
8.556,-0.02778
8.56,0.01115
8.564,-0.00583
8.568,0.00928
8.572,-0.01528
8.576,0.00288
8.58,-0.01492
8.584,-0.04289
8.588,-0.03899
8.592,-0.00561
8.596,-0.0127
8.6,-0.02568
8.604,-0.00517
8.608,-0.02325
8.612,-0.01362
8.616,-0.00266
8.62,0.00556
8.624,-0.0275
8.628,-0.03101
8.632,-0.01535
8.636,-0.02025
8.64,-0.00303
8.644,-0.00852
8.648,-0.00568
8.652,0.01939
8.656,0.00156
8.66,-0.00118
8.664,-0.00671
8.668,0.02437
8.672,0.01624
8.676,0.01292
8.68,0.02983
8.684,0.0455
8.688,0.04522
8.692,0.04348
8.696,0.07349
8.7,0.08519
8.704,0.08503
8.708,0.11297
8.712,0.10091
8.716,0.14216
8.72,0.13532
8.724,0.16406
8.728,0.15247
8.732,0.16645
8.736,0.19348
8.74,0.19976
8.744,0.2024
8.748,0.22921
8.752,0.19621
8.756,0.18451
8.76,0.18754
8.764,0.1955
8.768,0.2134
8.772,0.20281
8.776,0.16933
8.78,0.15346
8.784,0.17114
8.788,0.15243
8.792,0.18415
8.796,0.17649
8.8,0.14485
8.804,0.13428
8.808,0.10469
8.812,0.10836
8.816,0.09465
8.82,0.08186
8.824,0.06628
8.828,0.05826
8.832,0.02823
8.836,0.03613
8.84,0.04147
8.844,0.0369
8.848,-0.00063
8.852,-0.00188
8.856,0.0108
8.86,-0.01726
8.864,-0.01203
8.868,-0.00533
8.872,0.00148
8.876,0.01381
8.88,-0.0195
8.884,-0.00612
8.888,0.00536
8.892,-0.00189
8.896,0.0018
8.9,-0.0359
8.904,-0.01389
8.908,-0.02128
8.912,-0.00161
8.916,-0.0191
8.92,0.00324
8.924,-0.01333
8.928,0.00718
8.932,0.00738
8.936,-0.00586
8.94,-0.01606
8.944,-0.01567
8.948,-0.01726
8.952,-0.01715
8.956,0.00292
8.96,-0.00201
8.964,0.00897
8.968,0.0126
8.972,-0.02956
8.976,-0.01065
8.98,-0.00021
8.984,-0.00695
8.988,0.00844
8.992,0.01821
8.996,0.01853
9.0,-0.00513
9.004,0.01292
9.008,-0.00015
9.012,-0.01026
9.016,-0.01075
9.02,-0.02701
9.024,0.00237
9.028,0.00518
9.032,-0.0007
9.036,0.01798
9.04,-0.01855
9.044,-0.04316
9.048,-0.02249
9.052,-0.01037
9.056,-0.00993
9.06,-0.00496
9.064,-0.01376
9.068,-0.02383
9.072,-0.00081
9.076,-0.00685
9.08,0.00383
9.084,0.00749
9.088,0.02601
9.092,-0.0333
9.096,0.00244
9.1,0.01979
9.104,0.01064
9.108,-0.02412
9.112,-0.00997
9.116,0.00941
9.12,0.00978
9.124,0.01836
9.128,-0.00473
9.132,-0.02294
9.136,0.02057
9.14,0.00994
9.144,-0.01081
9.148,-0.00589
9.152,-0.02204
9.156,0.00365
9.16,0.02952
9.164,-0.01276
9.168,-0.00871
9.172,-0.01079
9.176,0.01037
9.18,0.01411
9.184,0.01001
9.188,0.02008
9.192,-0.02608
9.196,-0.02116
9.2,-0.02485
9.204,-0.01855
9.208,0.02967
9.212,0.02509
9.216,-0.0064
9.22,-0.01953
9.224,-0.0074
9.228,-0.01409
9.232,0.01564
9.236,0.02504
9.24,0.00305
9.244,-0.00254
9.248,-0.00316
9.252,0.00124
9.256,0.01825
9.26,0.00193
9.264,0.00385
9.268,-0.02682
9.272,-0.03456
9.276,0.0155
9.28,0.01704
9.284,-0.00239
9.288,0.00198
9.292,0.03011
9.296,-0.00092
9.3,0.01
9.304,0.00273
9.308,-0.00474
9.312,-0.0153
9.316,-0.01946
9.32,0.0079
9.324,0.01187
9.328,-0.00887
9.332,0.0271
9.336,0.00411
9.34,0.00943
9.344,0.00863
9.348,-0.00438
9.352,-0.00016
9.356,0.01052
9.36,0.00922
9.364,0.02002
9.368,-0.00043
9.372,0.02917
9.376,0.0045
9.38,0.02139
9.384,-0.0135
9.388,0.01535
9.392,0.00228
9.396,0.03596
9.4,0.0511
9.404,0.06862
9.408,0.0758
9.412,0.10613
9.416,0.08598
9.42,0.10279
9.424,0.09637
9.428,0.09521
9.432,0.09446
9.436,0.05936
9.44,0.08788
9.444,0.06278
9.448,0.05174
9.452,0.04767
9.456,0.0373
9.46,0.0236
9.464,0.02511
9.468,-0.01029
9.472,0.01022
9.476,0.00026
9.48,0.01143
9.484,0.03062
9.488,0.00119
9.492,0.00735
9.496,0.00251
9.5,-0.00147
9.504,0.0057
9.508,-0.01434
9.512,-0.01365
9.516,-0.00438
9.52,0.01938
9.524,0.00359
9.528,0.01218
9.532,0.01727
9.536,0.0015
9.54,-0.02162
9.544,-0.03576
9.548,-0.10294
9.552,-0.11204
9.556,-0.06223
9.56,0.05297
9.564,0.23011
9.568,0.40854
9.572,0.65496
9.576,0.82999
9.58,0.96394
9.584,1.0009
9.588,0.93114
9.592,0.76952
9.596,0.52147
9.6,0.32852
9.604,0.11186
9.608,-0.05403
9.612,-0.13349
9.616,-0.18986
9.62,-0.14593
9.624,-0.09778
9.628,-0.04077
9.632,0.00279
9.636,-0.00173
9.64,0.01809
9.644,0.01495
9.648,0.01296
9.652,0.00388
9.656,0.01982
9.66,0.02352
9.664,0.01181
9.668,0.03188
9.672,0.01256
9.676,0.00096
9.68,0.01358
9.684,0.02145
9.688,-0.00204
9.692,0.00409
9.696,0.01824
9.7,0.0182
9.704,-0.02423
9.708,0.04709
9.712,0.0297
9.716,0.00558
9.72,0.01825
9.724,0.01403
9.728,0.03735
9.732,0.00956
9.736,0.03138
9.74,0.01046
9.744,0.00826
9.748,0.02859
9.752,0.04602
9.756,0.02124
9.76,0.03079
9.764,0.0477
9.768,0.03007
9.772,0.02276
9.776,0.04639
9.78,0.05648
9.784,0.05273
9.788,0.06404
9.792,0.07047
9.796,0.08463
9.8,0.07782
9.804,0.08147
9.808,0.09836
9.812,0.11616
9.816,0.13322
9.82,0.14924
9.824,0.16272
9.828,0.17844
9.832,0.19665
9.836,0.19993
9.84,0.17487
9.844,0.20975
9.848,0.21649
9.852,0.26173
9.856,0.24824
9.86,0.24139
9.864,0.22053
9.868,0.2437
9.872,0.22886
9.876,0.22535
9.88,0.21732
9.884,0.19987
9.888,0.21894
9.892,0.1867
9.896,0.14221
9.9,0.16346
9.904,0.17718
9.908,0.15568
9.912,0.14124
9.916,0.10013
9.92,0.12168
9.924,0.12388
9.928,0.10555
9.932,0.09486
9.936,0.08881
9.94,0.0536
9.944,0.06842
9.948,0.04169
9.952,0.05264
9.956,0.034
9.96,0.02583
9.964,0.03237
9.968,0.02761
9.972,0.03975
9.976,0.026
9.98,0.02345
9.984,0.00553
9.988,0.02751
9.992,0.00588
9.996,0.05574
