t_seg,ecg_mV
0.0,-0.02991
0.004,0.05308
0.008,0.02843
0.012,0.01805
0.016,0.11424
0.02,0.0753
0.024,0.01848
0.028,0.02063
0.032,-0.03211
0.036,0.02989
0.04,0.06365
0.044,-0.0743
0.048,0.00595
0.052,0.01114
0.056,-0.04619
0.06,0.01953
0.064,-0.02955
0.068,0.06193
0.072,-0.01238
0.076,0.02739
0.08,-0.02166
0.084,-0.06575
0.088,0.07802
0.092,-0.01333
0.096,0.02408
0.1,0.02322
0.104,0.02
0.108,0.03534
0.112,0.03397
0.116,0.07368
0.12,0.08157
0.124,0.07513
0.128,-0.03531
0.132,0.07836
0.136,0.01963
0.14,0.02252
0.144,0.07607
0.148,0.00677
0.152,0.04208
0.156,0.03024
0.16,0.02016
0.164,-0.00598
0.168,0.05187
0.172,0.03297
0.176,0.04896
0.18,0.00676
0.184,0.07043
0.188,0.02084
0.192,0.07762
0.196,0.10658
0.2,0.02322
0.204,0.05998
0.208,0.0773
0.212,0.06471
0.216,0.04039
0.22,-0.03133
0.224,0.1028
0.228,0.04762
0.232,0.01475
0.236,-0.001
0.24,0.06021
0.244,0.00049
0.248,0.04882
0.252,0.04007
0.256,-0.01248
0.26,-0.01208
0.264,0.07839
0.268,0.00376
0.272,0.01274
0.276,0.0477
0.28,0.01584
0.284,-0.03138
0.288,0.10379
0.292,0.09465
0.296,0.03465
0.3,0.08205
0.304,0.1106
0.308,0.11614
0.312,0.07656
0.316,0.17229
0.32,0.08078
0.324,0.03705
0.328,0.10248
0.332,0.14918
0.336,0.09648
0.34,0.07638
0.344,0.07124
0.348,0.08897
0.352,0.08695
0.356,0.02063
0.36,-0.00538
0.364,0.06967
0.368,0.03529
0.372,0.02031
0.376,0.02639
0.38,0.01299
0.384,0.02883
0.388,0.02759
0.392,0.0493
0.396,0.00868
0.4,0.04496
0.404,-0.04269
0.408,0.03936
0.412,0.03423
0.416,0.02838
0.42,0.00507
0.424,0.05081
0.428,0.01382
0.432,-0.029
0.436,0.00853
0.44,-0.12261
0.444,-0.09864
0.448,-0.16989
0.452,-0.06528
0.456,0.17538
0.46,0.27811
0.464,0.44786
0.468,0.70518
0.472,0.92369
0.476,0.97559
0.48,0.97873
0.484,0.92839
0.488,0.69227
0.492,0.54424
0.496,0.23299
0.5,0.05242
0.504,0.00453
0.508,-0.12858
0.512,-0.11398
0.516,-0.11474
0.52,-0.11839
0.524,-0.00245
0.528,-0.03572
0.532,0.0016
0.536,0.04512
0.54,0.03314
0.544,0.01774
0.548,-0.00888
0.552,0.0539
0.556,0.06863
0.56,-0.03592
0.564,0.04509
0.568,0.01547
0.572,0.0502
0.576,0.02892
0.58,0.07534
0.584,0.00586
0.588,0.03923
0.592,0.0434
0.596,0.062
0.6,0.03065
0.604,0.01909
0.608,0.03981
0.612,0.08258
0.616,0.11089
0.62,0.05759
0.624,0.06835
0.628,0.08312
0.632,0.11318
0.636,0.10449
0.64,0.07098
0.644,0.15189
0.648,0.13192
0.652,0.11987
0.656,0.09572
0.66,0.10399
0.664,0.06649
0.668,0.12423
0.672,0.11267
0.676,0.14603
0.68,0.10698
0.684,0.17421
0.688,0.11621
0.692,0.17611
0.696,0.13605
0.7,0.14022
0.704,0.09261
0.708,0.16228
0.712,0.17108
0.716,0.18394
0.72,0.13212
0.724,0.12229
0.728,0.20407
0.732,0.22728
0.736,0.12592
0.74,0.20578
0.744,0.25417
0.748,0.251
0.752,0.24052
0.756,0.22266
0.76,0.22055
0.764,0.21026
0.768,0.21351
0.772,0.13172
0.776,0.14296
0.78,0.08921
0.784,0.22975
0.788,0.31174
0.792,0.54549
0.796,0.72292
0.8,0.9497
0.804,1.09868
0.808,1.08184
0.812,1.07656
0.816,0.91248
0.82,0.70242
0.824,0.50893
0.828,0.29589
0.832,0.02911
0.836,-0.01257
0.84,-0.08428
0.844,-0.1769
0.848,-0.07544
0.852,-0.0559
0.856,-0.00868
0.86,0.0278
0.864,0.01251
0.868,0.06478
0.872,0.05429
0.876,0.04088
0.88,-0.05837
0.884,0.12321
0.888,0.00823
0.892,0.03231
0.896,-0.02788
0.9,0.01915
0.904,0.03245
0.908,0.02921
0.912,0.01699
0.916,-0.00208
0.92,0.0167
0.924,-0.00052
0.928,-0.01739
0.932,0.06671
0.936,0.02608
0.94,-0.08179
0.944,0.03776
0.948,-0.01349
0.952,-0.03498
0.956,0.09072
0.96,-0.04456
0.964,0.02588
0.968,0.00367
0.972,0.01235
0.976,0.05374
0.98,0.07812
0.984,0.10753
0.988,0.01774
0.992,0.09698
0.996,0.06279
1.0,0.05078
1.004,0.01836
1.008,0.01104
1.012,0.04112
1.016,0.12935
1.02,0.0401
1.024,0.02436
1.028,0.09917
1.032,0.11405
1.036,0.18193
1.04,0.12225
1.044,0.17029
1.048,0.14259
1.052,0.1827
1.056,0.15033
1.06,0.18588
1.064,0.19531
1.068,0.27726
1.072,0.22855
1.076,0.22639
1.08,0.2046
1.084,0.16875
1.088,0.17809
1.092,0.2333
1.096,0.22186
1.1,0.32905
1.104,0.24144
1.108,0.24872
1.112,0.20908
1.116,0.18518
1.12,0.28313
1.124,0.23295
1.128,0.23415
1.132,0.11122
1.136,0.22738
1.14,0.23087
1.144,0.17304
1.148,0.20406
1.152,0.17324
1.156,0.21034
1.16,0.10624
1.164,0.1458
1.168,0.02553
1.172,0.06849
1.176,0.03845
1.18,-0.03511
1.184,0.0395
1.188,0.04829
1.192,0.02932
1.196,0.00396
1.2,0.03013
1.204,0.0218
1.208,0.05614
1.212,0.03578
1.216,0.07019
1.22,0.06032
1.224,0.02881
1.228,-0.00427
1.232,0.09507
1.236,-0.0606
1.24,0.02147
1.244,0.03532
1.248,-0.01228
1.252,-0.01278
1.256,-0.05839
1.26,0.01334
1.264,-0.07311
1.268,-0.08949
1.272,-0.14448
1.276,-0.0544
1.28,0.1151
1.284,0.26134
1.288,0.47168
1.292,0.72342
1.296,0.87093
1.3,0.97957
1.304,0.97302
1.308,0.87611
1.312,0.72291
1.316,0.44836
1.32,0.24831
1.324,0.03458
1.328,-0.08284
1.332,-0.19789
1.336,-0.19578
1.34,-0.167
1.344,-0.03725
1.348,-0.04497
1.352,0.01781
1.356,-0.05061
1.36,-0.03206
1.364,0.00221
1.368,0.01044
1.372,-0.04787
1.376,-0.01075
1.38,0.01763
1.384,0.02243
1.388,-0.0076
1.392,0.03197
1.396,-0.08447
1.4,0.03229
1.404,0.006
1.408,0.01454
1.412,-0.01987
1.416,-0.05262
1.42,-0.02652
1.424,0.00123
1.428,0.04722
1.432,0.01893
1.436,0.07496
1.44,0.00089
1.444,0.04514
1.448,0.02311
1.452,0.00715
1.456,-0.01802
1.46,-0.02069
1.464,-0.00394
1.468,-0.0165
1.472,0.00787
1.476,0.05801
1.48,0.00871
1.484,-0.02343
1.488,0.05087
1.492,0.05214
1.496,0.04411
1.5,0.08103
1.504,0.02155
1.508,0.08927
1.512,0.12766
1.516,0.03891
1.52,0.067
1.524,0.04111
1.528,0.16132
1.532,0.10592
1.536,0.10079
1.54,0.14809
1.544,0.14337
1.548,0.16254
1.552,0.12472
1.556,0.16621
1.56,0.28009
1.564,0.21291
1.568,0.27386
1.572,0.16262
1.576,0.15888
1.58,0.19804
1.584,0.21986
1.588,0.23883
1.592,0.20423
1.596,0.17599
1.6,0.19697
1.604,0.17623
1.608,0.20792
1.612,0.19802
1.616,0.14915
1.62,0.14624
1.624,0.13169
1.628,0.11961
1.632,0.11608
1.636,0.1358
1.64,0.12204
1.644,0.03111
1.648,0.06683
1.652,0.03467
1.656,0.05949
1.66,0.07219
1.664,0.11334
1.668,0.03457
1.672,0.02904
1.676,0.03374
1.68,0.06532
1.684,0.02501
1.688,0.01659
1.692,0.02187
1.696,0.03783
1.7,-0.0376
1.704,0.07311
1.708,-0.00695
1.712,-0.03704
1.716,-0.1026
1.72,-0.0366
1.724,0.0561
1.728,0.02048
1.732,-0.02435
1.736,-0.02636
1.74,-0.04866
1.744,-0.01257
1.748,-0.02111
1.752,0.0158
1.756,0.03081
1.76,-0.07311
1.764,-0.03835
1.768,0.05478
1.772,0.00225
1.776,-0.02935
1.78,0.06364
1.784,-0.01175
1.788,0.00751
1.792,0.03326
1.796,-0.00781
1.8,0.00557
1.804,0.02357
1.808,-0.03314
1.812,-0.00915
1.816,0.02412
1.82,0.01829
1.824,-0.05212
1.828,-0.01118
1.832,0.0211
1.836,-0.02531
1.84,0.04032
1.844,0.04652
1.848,0.00161
1.852,-0.07143
1.856,-0.02217
1.86,0.00196
1.864,0.03803
1.868,0.05018
1.872,0.05024
1.876,0.07014
1.88,0.15059
1.884,0.04743
1.888,0.06586
1.892,0.08699
1.896,0.07604
1.9,0.12238
1.904,0.07375
1.908,0.07858
1.912,0.08652
1.916,0.00049
1.92,-0.0462
1.924,0.044
1.928,0.00759
1.932,-0.0709
1.936,-0.06297
1.94,0.02727
1.944,-0.04037
1.948,-0.0014
1.952,-0.01751
1.956,-0.06927
1.96,0.06394
1.964,0.03281
1.968,-0.00834
1.972,0.02455
1.976,-0.00172
1.98,-0.03586
1.984,0.00769
1.988,-0.00901
1.992,0.04655
1.996,-0.0273
2.0,-0.00686
2.004,-0.10072
2.008,-0.05143
2.012,-0.07187
2.016,-0.05803
2.02,-0.08108
2.024,-0.13474
2.028,0.00482
2.032,0.16791
2.036,0.2989
2.04,0.517
2.044,0.81041
2.048,0.92423
2.052,0.99293
2.056,0.94352
2.06,0.84535
2.064,0.63033
2.068,0.30499
2.072,0.13054
2.076,-0.06518
2.08,-0.1504
2.084,-0.20656
2.088,-0.12936
2.092,-0.12339
2.096,-0.07386
2.1,-0.09161
2.104,-0.06933
2.108,-0.02152
2.112,-0.03716
2.116,-0.02421
2.12,-0.028
2.124,-0.03277
2.128,0.0267
2.132,-0.03611
2.136,-0.09144
2.14,-0.09898
2.144,-0.01114
2.148,-0.03572
2.152,-0.09764
2.156,-0.00683
2.16,0.0155
2.164,-0.01959
2.168,-0.02555
2.172,-0.05378
2.176,0.00933
2.18,-0.02962
2.184,0.02789
2.188,0.00972
2.192,-0.05291
2.196,-0.02846
2.2,-0.01676
2.204,-0.02705
2.208,0.03325
2.212,0.04904
2.216,0.02614
2.22,0.00659
2.224,-0.00025
2.228,-0.03448
2.232,0.01902
2.236,-0.04547
2.24,0.04014
2.244,-0.02306
2.248,0.03048
2.252,0.03217
2.256,0.06058
2.26,0.05444
2.264,0.05162
2.268,0.03844
2.272,0.03824
2.276,0.07857
2.28,0.01074
2.284,0.10271
2.288,0.09621
2.292,0.06333
2.296,0.14752
2.3,0.15947
2.304,0.17201
2.308,0.14897
2.312,0.16727
2.316,0.19976
2.32,0.13942
2.324,0.19603
2.328,0.16695
2.332,0.2212
2.336,0.21481
2.34,0.24344
2.344,0.22236
2.348,0.11798
2.352,0.16434
2.356,0.18309
2.36,0.15719
2.364,0.19445
2.368,0.14114
2.372,0.09061
2.376,0.13375
2.38,0.16963
2.384,0.06031
2.388,0.05306
2.392,0.00903
2.396,0.07951
2.4,0.02146
2.404,-0.03093
2.408,0.00298
2.412,0.02866
2.416,0.05224
2.42,0.02812
2.424,0.05276
2.428,-0.01073
2.432,0.01256
2.436,-0.05183
2.44,0.06199
2.444,0.00301
2.448,-0.06179
2.452,-0.04714
2.456,-0.03621
2.46,-0.08702
2.464,0.02135
2.468,-0.05162
2.472,-0.02012
2.476,-0.07023
2.48,-0.00811
2.484,-0.04304
2.488,-0.05237
2.492,0.02669
2.496,-0.023
2.5,0.01024
2.504,0.0366
2.508,0.04176
2.512,0.04054
2.516,0.10767
2.52,0.08817
2.524,0.09148
2.528,0.10505
2.532,0.0402
2.536,0.06732
2.54,0.10595
2.544,0.0579
2.548,-0.00771
2.552,0.04338
2.556,-0.00227
2.56,-0.00912
2.564,0.00332
2.568,-0.05293
2.572,-0.08975
2.576,0.00086
2.58,-0.00249
2.584,-0.01294
2.588,0.0065
2.592,-0.06584
2.596,-0.04597
2.6,-0.01425
2.604,-0.07556
2.608,-0.06301
2.612,-0.01287
2.616,-0.00668
2.62,0.0147
2.624,-0.05201
2.628,-0.07271
2.632,0.02953
2.636,-0.07768
2.64,-0.06248
2.644,-0.03615
2.648,-0.06109
2.652,-0.04854
2.656,-0.11353
2.66,-0.14919
2.664,-0.12109
2.668,-0.05196
2.672,0.21205
2.676,0.42174
2.68,0.5536
2.684,0.79747
2.688,0.96053
2.692,0.92028
2.696,0.9635
2.7,0.76397
2.704,0.46776
2.708,0.25898
2.712,0.02072
2.716,-0.06235
2.72,-0.16737
2.724,-0.20413
2.728,-0.16478
2.732,-0.11892
2.736,-0.10893
2.74,-0.04348
2.744,0.01328
2.748,-0.07256
2.752,-0.00064
2.756,-0.10722
2.76,-0.06168
2.764,-0.03065
2.768,-0.02753
2.772,-0.02031
2.776,-0.08118
2.78,-0.05022
2.784,-0.0177
2.788,0.0571
2.792,-0.01711
2.796,0.02297
2.8,0.00982
2.804,-0.07672
2.808,-0.00279
2.812,-0.04651
2.816,-0.04175
2.82,-0.02875
2.824,-0.05643
2.828,-0.00089
2.832,-0.00094
2.836,-0.0225
2.84,0.01105
2.844,-0.05801
2.848,-0.08665
2.852,-0.03365
2.856,-0.00256
2.86,-0.00882
2.864,-0.03717
2.868,-0.03532
2.872,0.01937
2.876,-0.05112
2.88,0.02113
2.884,0.02768
2.888,0.04557
2.892,-0.02732
2.896,0.07205
2.9,0.04451
2.904,0.13093
2.908,0.09153
2.912,0.09746
2.916,0.05136
2.92,0.08129
2.924,0.12847
2.928,0.1406
2.932,0.09253
2.936,0.0657
2.94,0.14926
2.944,0.08513
2.948,0.21146
2.952,0.19372
2.956,0.19669
2.96,0.23138
2.964,0.18576
2.968,0.215
2.972,0.18667
2.976,0.18299
2.98,0.22055
2.984,0.18054
2.988,0.15649
2.992,0.17194
2.996,0.18819
3.0,0.15769
3.004,0.10344
3.008,0.107
3.012,0.11917
3.016,0.05507
3.02,0.06546
3.024,0.07352
3.028,0.0537
3.032,0.05253
3.036,0.12052
3.04,0.05901
3.044,-0.00293
3.048,-0.00987
3.052,-0.02321
3.056,-0.01609
3.06,0.02621
3.064,0.03472
3.068,-0.07914
3.072,-0.01557
3.076,-0.03678
3.08,0.00334
3.084,-0.00588
3.088,-0.03312
3.092,0.0152
3.096,-0.03337
3.1,-0.0033
3.104,-0.0364
3.108,-0.07936
3.112,-0.01946
3.116,-0.03479
3.12,-0.02851
3.124,-0.03029
3.128,0.02151
3.132,-0.0446
3.136,-0.04825
3.14,-0.03038
3.144,-0.02811
3.148,0.00433
3.152,0.05911
3.156,-0.00714
3.16,-0.00531
3.164,-0.05176
3.168,0.02494
3.172,-0.07973
3.176,-0.02066
3.18,-0.00681
3.184,0.11363
3.188,0.00645
3.192,0.01714
3.196,0.05818
3.2,0.07804
3.204,0.07608
3.208,0.07681
3.212,0.04305
3.216,0.07185
3.22,0.02581
3.224,0.05991
3.228,-0.02001
3.232,0.03177
3.236,0.02236
3.24,-0.05049
3.244,-0.00518
3.248,0.01516
3.252,-0.05896
3.256,0.01507
3.26,-0.05145
3.264,-0.02472
3.268,-0.0566
3.272,-0.02307
3.276,-0.03665
3.28,-0.08446
3.284,-0.06815
3.288,-0.01739
3.292,-0.02411
3.296,0.00278
3.3,-0.01717
3.304,-0.02725
3.308,-0.10273
3.312,-0.04777
3.316,-0.08461
3.32,-0.14962
3.324,-0.08938
3.328,-0.15773
3.332,-0.08286
3.336,0.00433
3.34,0.19227
3.344,0.41512
3.348,0.53685
3.352,0.69736
3.356,0.88801
3.36,0.98636
3.364,0.89727
3.368,0.75732
3.372,0.58476
3.376,0.3395
3.38,0.10344
3.384,-0.05174
3.388,-0.12544
3.392,-0.18854
3.396,-0.16047
3.4,-0.11031
3.404,-0.02375
3.408,-0.03422
3.412,-0.0568
3.416,0.00018
3.42,-0.0445
3.424,-0.01016
3.428,-0.01832
3.432,-0.00278
3.436,-0.00395
3.44,-0.04396
3.444,-0.05667
3.448,-0.03084
3.452,-0.03481
3.456,-0.02911
3.46,0.00228
3.464,0.01266
3.468,-0.01659
3.472,0.00283
3.476,-0.00541
3.48,-0.05711
3.484,-0.02065
3.488,-0.01611
3.492,-0.02054
3.496,-0.01658
3.5,-0.03496
3.504,-0.05031
3.508,-0.04183
3.512,-0.0381
3.516,-0.06696
3.52,-0.0461
3.524,0.00815
3.528,-0.02695
3.532,-0.04863
3.536,-0.00916
3.54,-0.08054
3.544,-0.02752
3.548,0.03437
3.552,-0.03037
3.556,-0.01868
3.56,0.00126
3.564,0.00543
3.568,0.02774
3.572,0.07707
3.576,0.134
3.58,0.08085
3.584,0.04456
3.588,0.06884
3.592,0.12029
3.596,0.09311
3.6,0.09702
3.604,0.09636
3.608,0.13671
3.612,0.15396
3.616,0.16528
3.62,0.11844
3.624,0.14582
3.628,0.19659
3.632,0.1994
3.636,0.13925
3.64,0.19315
3.644,0.23957
3.648,0.18494
3.652,0.29353
3.656,0.13254
3.66,0.15609
3.664,0.25362
3.668,0.09513
3.672,0.13976
3.676,0.14046
3.68,0.11343
3.684,0.08333
3.688,0.05033
3.692,0.03224
3.696,0.04026
3.7,0.07974
3.704,0.0575
3.708,-0.02472
3.712,0.05806
3.716,0.01221
3.72,0.03889
3.724,0.02307
3.728,-0.04343
3.732,0.04025
3.736,-0.05288
3.74,-0.01214
3.744,0.02383
3.748,0.05686
3.752,0.02704
3.756,-0.02932
3.76,-0.05034
3.764,0.06573
3.768,-0.0788
3.772,-0.05591
3.776,-0.05614
3.78,-0.02519
3.784,-0.02916
3.788,-0.02853
3.792,-0.00163
3.796,-0.07
3.8,-0.03298
3.804,0.02387
3.808,-0.03643
3.812,-0.01077
3.816,-0.02997
3.82,-0.01495
3.824,-0.08244
3.828,-0.07795
3.832,-0.0258
3.836,0.00787
3.84,-0.00934
3.844,0.00333
3.848,0.00297
3.852,0.02132
3.856,0.01216
3.86,-0.02517
3.864,-0.00958
3.868,0.00828
3.872,0.00197
3.876,-0.06358
3.88,-0.02904
3.884,-0.01429
3.888,0.07039
3.892,0.03144
3.896,-0.05727
3.9,-0.04163
3.904,-0.07892
3.908,-0.05239
3.912,-0.01862
3.916,-0.05024
3.92,-0.06363
3.924,-0.00086
3.928,-0.04915
3.932,-0.0121
3.936,0.02176
3.94,-0.02731
3.944,-0.0196
3.948,-0.03087
3.952,-0.00298
3.956,-0.01353
3.96,0.01402
3.964,-0.09788
3.968,-0.01408
3.972,-0.00616
3.976,-0.04525
3.98,-0.01955
3.984,-0.0307
3.988,-0.04515
3.992,0.01789
3.996,-0.04512
4.0,0.0032
4.004,-0.03209
4.008,-0.0778
4.012,0.06488
4.016,0.06087
4.02,0.01316
4.024,-0.04094
4.028,0.04805
4.032,-0.02348
4.036,-0.01105
4.04,-0.04213
4.044,-0.03616
4.048,-0.00915
4.052,-0.08823
4.056,0.00849
4.06,0.00951
4.064,0.03601
4.068,0.0036
4.072,0.05727
4.076,0.09069
4.08,0.05987
4.084,0.0257
4.088,0.00617
4.092,0.07125
4.096,0.05338
4.1,0.03476
4.104,0.07633
4.108,0.07342
4.112,0.07114
4.116,0.02449
4.12,0.07841
4.124,0.05963
4.128,-0.028
4.132,-0.01803
4.136,0.03088
4.14,-0.03646
4.144,-0.02023
4.148,-0.01737
4.152,0.04358
4.156,-0.01285
4.16,-0.02257
4.164,0.05268
4.168,-0.06808
4.172,-0.03109
4.176,0.0201
4.18,-0.03701
4.184,-0.01455
4.188,-0.03225
4.192,0.02882
4.196,-0.04439
4.2,-0.05484
4.204,0.03516
4.208,0.00822
4.212,0.02409
4.216,-0.06174
4.22,-0.17057
4.224,-0.12219
4.228,-0.10041
4.232,0.04158
4.236,0.10825
4.24,0.30759
4.244,0.53823
4.248,0.73622
4.252,0.85731
4.256,1.00283
4.26,0.91548
4.264,0.79958
4.268,0.63214
4.272,0.34229
4.276,0.22454
4.28,-0.09618
4.284,-0.15931
4.288,-0.09661
4.292,-0.20743
4.296,-0.08388
4.3,-0.1571
4.304,-0.06768
4.308,-0.0069
4.312,-0.00259
4.316,0.02307
4.32,-0.04135
4.324,-0.02833
4.328,-0.04725
4.332,-0.0467
4.336,-0.05101
4.34,-0.00256
4.344,0.03499
4.348,0.01872
4.352,-0.045
4.356,0.02154
4.36,-0.05958
4.364,0.01981
4.368,-0.04661
4.372,0.0159
4.376,-0.06104
4.38,-0.05396
4.384,0.00252
4.388,-0.05668
4.392,-0.02748
4.396,-0.03104
4.4,0.02451
4.404,-0.01181
4.408,0.02616
4.412,-0.04072
4.416,-0.04121
4.42,0.00642
4.424,-0.01534
4.428,0.0134
4.432,0.06855
4.436,-0.00262
4.44,-0.00543
4.444,0.00787
4.448,0.03225
4.452,0.00811
4.456,0.03206
4.46,-0.03814
4.464,0.07033
4.468,0.08867
4.472,0.02349
4.476,0.02597
4.48,0.14195
4.484,0.15481
4.488,0.13525
4.492,0.14125
4.496,0.18972
4.5,0.15151
4.504,0.13244
4.508,0.16298
4.512,0.15446
4.516,0.13713
4.52,0.25011
4.524,0.25268
4.528,0.21894
4.532,0.22393
4.536,0.18671
4.54,0.22324
4.544,0.22193
4.548,0.24721
4.552,0.21611
4.556,0.17924
4.56,0.20516
4.564,0.20241
4.568,0.11149
4.572,0.14389
4.576,0.17394
4.58,0.06516
4.584,0.12696
4.588,0.13133
4.592,0.11557
4.596,0.07696
4.6,0.0974
4.604,0.0375
4.608,0.07132
4.612,0.03422
4.616,0.00596
4.62,-0.00566
4.624,0.00056
4.628,0.02523
4.632,0.0123
4.636,0.01154
4.64,0.04904
4.644,-0.00819
4.648,0.00555
4.652,0.04215
4.656,0.01702
4.66,-0.02704
4.664,0.00508
4.668,-0.03742
4.672,-0.01002
4.676,-0.03138
4.68,-0.03128
4.684,-0.04469
4.688,-0.07049
4.692,0.01933
4.696,0.03487
4.7,0.04218
4.704,-0.04906
4.708,0.04777
4.712,0.00374
4.716,0.06541
4.72,0.0317
4.724,-0.07264
4.728,0.01901
4.732,0.02209
4.736,0.00904
4.74,0.00728
4.744,-0.0626
4.748,-0.08694
4.752,-0.02693
4.756,-0.01918
4.76,0.01569
4.764,0.03247
4.768,-0.05667
4.772,0.06237
4.776,-0.01899
4.78,-0.0448
4.784,-0.02012
4.788,-0.04255
4.792,-0.00132
4.796,-0.11038
4.8,0.04812
4.804,0.01966
4.808,-0.02364
4.812,-0.02232
4.816,0.01445
4.82,-0.01007
4.824,-0.04732
4.828,0.05737
4.832,-0.07669
4.836,0.03909
4.84,-0.0365
4.844,0.05068
4.848,0.04302
4.852,-0.01303
4.856,-0.01993
4.86,-0.00635
4.864,-0.01606
4.868,0.01396
4.872,-0.05496
4.876,0.00852
4.88,0.00663
4.884,-0.04502
4.888,0.0306
4.892,0.00741
4.896,-0.00016
4.9,0.00834
4.904,0.00283
4.908,0.02182
4.912,0.07468
4.916,-0.01998
4.92,0.00146
4.924,-0.00371
4.928,0.00235
4.932,0.06068
4.936,0.01754
4.94,0.00025
4.944,-0.0244
4.948,0.00389
4.952,-0.02097
4.956,0.02624
4.96,0.00298
4.964,-0.0063
4.968,0.01679
4.972,0.04127
4.976,0.05439
4.98,0.00894
4.984,0.03742
4.988,0.05202
4.992,0.10011
4.996,0.10064
5.0,0.03544
5.004,0.09255
5.008,0.06759
5.012,0.14945
5.016,0.14651
5.02,0.13322
5.024,0.05724
5.028,0.06116
5.032,0.07113
5.036,-0.01914
5.04,0.10189
5.044,-0.03286
5.048,0.06861
5.052,0.02432
5.056,-0.00979
5.06,0.05132
5.064,-0.02516
5.068,0.03181
5.072,0.02807
5.076,-0.02487
5.08,0.03042
5.084,0.05303
5.088,0.00243
5.092,-0.00078
5.096,0.00657
5.1,-0.04032
5.104,0.03009
5.108,0.02522
5.112,0.07034
5.116,-0.05898
5.12,-0.01585
5.124,0.02382
5.128,-0.05055
5.132,-0.08399
5.136,-0.16246
5.14,-0.0994
5.144,0.02297
5.148,0.1393
5.152,0.24457
5.156,0.51015
5.16,0.70678
5.164,0.85325
5.168,0.99104
5.172,1.01776
5.176,0.84931
5.18,0.61715
5.184,0.46091
5.188,0.1611
5.192,0.03172
5.196,-0.09237
5.2,-0.13515
5.204,-0.1991
5.208,-0.09481
5.212,-0.09034
5.216,-0.06582
5.22,0.01645
5.224,-0.00599
5.228,0.05498
5.232,0.08885
5.236,-0.0233
5.24,0.02077
5.244,0.04089
5.248,-0.0158
5.252,-0.05802
5.256,-0.00963
5.26,0.01424
5.264,0.03275
5.268,-0.01694
5.272,-0.01431
5.276,-0.00956
5.28,0.02992
5.284,0.02202
5.288,0.00127
5.292,0.00255
5.296,-0.00814
5.3,0.06895
5.304,0.08083
5.308,0.02881
5.312,0.04502
5.316,0.06234
5.32,-0.01686
5.324,0.0426
5.328,-0.01008
5.332,0.0715
5.336,0.03698
5.34,-0.03921
5.344,0.03253
5.348,0.07891
5.352,0.01902
5.356,0.07477
5.36,0.03544
5.364,0.06397
5.368,0.06295
5.372,0.08354
5.376,0.03927
5.38,0.14997
5.384,0.10402
5.388,0.07282
5.392,0.03996
5.396,0.09111
5.4,0.12981
5.404,0.15002
5.408,0.23623
5.412,0.24646
5.416,0.16832
5.42,0.24203
5.424,0.16635
5.428,0.16839
5.432,0.19416
5.436,0.22773
5.44,0.31689
5.444,0.26551
5.448,0.19329
5.452,0.26266
5.456,0.19899
5.46,0.25023
5.464,0.26364
5.468,0.23564
5.472,0.11684
5.476,0.19334
5.48,0.17371
5.484,0.17567
5.488,0.18987
5.492,0.14749
5.496,0.12093
5.5,0.14352
5.504,0.09631
5.508,0.14535
5.512,0.09787
5.516,0.10873
5.52,0.07871
5.524,0.09302
5.528,0.09998
5.532,0.07569
5.536,0.08963
5.54,0.0214
5.544,0.04488
5.548,-0.01966
5.552,0.0751
5.556,0.02181
5.56,0.0491
5.564,0.01186
5.568,-0.00614
5.572,0.07948
5.576,0.09018
5.58,0.01582
5.584,0.02815
5.588,0.07087
5.592,0.01053
5.596,0.00177
5.6,0.00122
5.604,-0.02253
5.608,-0.00334
5.612,-0.0037
5.616,0.09294
5.62,0.0446
5.624,-0.02995
5.628,0.05561
5.632,-0.04857
5.636,0.02777
5.64,-0.06214
5.644,0.03409
5.648,-0.06412
5.652,0.07637
5.656,0.04599
5.66,-0.01837
5.664,0.01974
5.668,0.00049
5.672,-0.06049
5.676,0.04008
5.68,-0.04045
5.684,0.00975
5.688,0.0176
5.692,0.0699
5.696,0.00057
5.7,0.07112
5.704,0.05968
5.708,0.05939
5.712,0.00762
5.716,0.08409
5.72,-0.00686
5.724,0.06802
5.728,0.04577
5.732,0.03195
5.736,0.08212
5.74,0.10249
5.744,0.06637
5.748,0.09223
5.752,0.09861
5.756,0.13006
5.76,0.10034
5.764,0.16545
5.768,0.14681
5.772,0.10284
5.776,0.12596
5.78,0.0222
5.784,0.14357
5.788,0.02847
5.792,0.05502
5.796,0.07376
5.8,0.0991
5.804,0.04468
5.808,0.05561
5.812,0.00948
5.816,0.03407
5.82,0.01655
5.824,0.04657
5.828,-0.02769
5.832,0.04797
5.836,0.08052
5.84,0.02347
5.844,0.01922
5.848,-0.06916
5.852,0.04626
5.856,0.04115
5.86,0.06306
5.864,0.066
5.868,-0.01292
5.872,-0.04994
5.876,0.05866
5.88,-0.00314
5.884,0.02965
5.888,-0.12643
5.892,-0.06407
5.896,0.02976
5.9,0.11965
5.904,0.31269
5.908,0.51112
5.912,0.75603
5.916,0.95544
5.92,1.05048
5.924,1.0667
5.928,0.91371
5.932,0.7331
5.936,0.44605
5.94,0.19475
5.944,0.0304
5.948,-0.0832
5.952,-0.13493
5.956,-0.1138
5.96,-0.08115
5.964,-0.10632
5.968,-0.05695
5.972,0.0576
5.976,0.02512
5.98,0.01043
5.984,-0.02113
5.988,0.01673
5.992,0.04744
5.996,0.00943
6.0,0.02483
6.004,-0.07479
6.008,0.04421
6.012,0.05344
6.016,-0.04852
6.02,-0.00763
6.024,-0.00567
6.028,0.0592
6.032,0.08514
6.036,0.05256
6.04,0.00655
6.044,0.03899
6.048,0.07456
6.052,0.0442
6.056,0.0314
6.06,-0.00214
6.064,-0.00553
6.068,0.00786
6.072,0.04599
6.076,0.0734
6.08,-0.04443
6.084,-0.0247
6.088,0.08165
6.092,0.05024
6.096,0.00223
6.1,0.04317
6.104,0.03938
6.108,0.10532
6.112,0.02887
6.116,0.06282
6.12,0.06417
6.124,0.1469
6.128,0.14416
6.132,0.05357
6.136,0.11367
6.14,0.16389
6.144,0.19231
6.148,0.1582
6.152,0.19801
6.156,0.08847
6.16,0.14778
6.164,0.20149
6.168,0.19118
6.172,0.19092
6.176,0.17746
6.18,0.22863
6.184,0.2395
6.188,0.25372
6.192,0.23059
6.196,0.18012
6.2,0.2473
6.204,0.29097
6.208,0.29551
6.212,0.24723
6.216,0.18514
6.22,0.22525
6.224,0.20057
6.228,0.15104
6.232,0.21149
6.236,0.18512
6.24,0.19236
6.244,0.17607
6.248,0.12835
6.252,0.15107
6.256,0.08651
6.26,0.11116
6.264,0.10383
6.268,0.0831
6.272,0.09784
6.276,0.08057
6.28,0.04696
6.284,0.0678
6.288,0.12886
6.292,0.07589
6.296,0.07368
6.3,0.06272
6.304,0.02251
6.308,0.04087
6.312,0.06663
6.316,0.09056
6.32,0.04601
6.324,0.06377
6.328,0.04531
6.332,0.0173
6.336,0.01888
6.34,0.09356
6.344,0.00726
6.348,-0.01302
6.352,0.01955
6.356,-0.00277
6.36,-0.02525
6.364,-0.00651
6.368,0.01409
6.372,0.02196
6.376,-0.00886
6.38,0.08778
6.384,0.05909
6.388,0.01574
6.392,0.07871
6.396,0.01403
6.4,0.05785
6.404,0.06614
6.408,0.02924
6.412,-0.01559
6.416,0.01838
6.42,0.03561
6.424,0.0407
6.428,0.08188
6.432,-0.01105
6.436,-0.00648
6.44,0.07387
6.444,0.00295
6.448,0.02989
6.452,0.05108
6.456,0.06511
6.46,0.03368
6.464,0.03619
6.468,0.05999
6.472,-0.02871
6.476,0.00567
6.48,0.04979
6.484,0.0341
6.488,0.0398
6.492,0.01033
6.496,0.05067
6.5,0.06965
6.504,0.06788
6.508,0.0516
6.512,0.02313
6.516,-0.00531
6.52,0.05762
6.524,0.02311
6.528,0.07365
6.532,-0.03337
6.536,0.02657
6.54,0.02572
6.544,0.05696
6.548,0.07836
6.552,-0.00689
6.556,-0.01927
6.56,0.01108
6.564,-0.00089
6.568,0.0579
6.572,0.00728
6.576,0.04111
6.58,0.04381
6.584,0.06509
6.588,0.09141
6.592,0.1306
6.596,0.13013
6.6,0.18399
6.604,0.08842
6.608,0.09628
6.612,0.10229
6.616,0.11303
6.62,0.06238
6.624,0.08977
6.628,0.11888
6.632,0.14312
6.636,-0.00198
6.64,0.05875
6.644,0.04525
6.648,0.12141
6.652,0.1086
6.656,0.00537
6.66,0.04613
6.664,0.06484
6.668,0.03903
6.672,-0.02212
6.676,-0.02634
6.68,0.03441
6.684,-0.0035
6.688,0.08211
6.692,0.00153
6.696,0.0215
6.7,0.02345
6.704,0.06158
6.708,0.09826
6.712,0.00304
6.716,0.05248
6.72,0.01523
6.724,0.03491
6.728,0.02481
6.732,-0.10036
6.736,-0.08883
6.74,-0.02403
6.744,-0.00151
6.748,0.20048
6.752,0.34519
6.756,0.55734
6.76,0.83469
6.764,0.94961
6.768,1.00927
6.772,0.9988
6.776,0.92081
6.78,0.67701
6.784,0.43398
6.788,0.25145
6.792,0.0279
6.796,-0.05211
6.8,-0.13167
6.804,-0.19237
6.808,-0.14927
6.812,-0.11066
6.816,0.00946
6.82,0.01392
6.824,-0.02333
6.828,0.04152
6.832,-0.00641
6.836,0.02076
6.84,0.0204
6.844,0.07229
6.848,-0.03187
6.852,0.03386
6.856,-0.01163
6.86,-0.0036
6.864,0.01045
6.868,0.03603
6.872,-0.0443
6.876,0.08575
6.88,0.0948
6.884,0.00506
6.888,0.02645
6.892,0.01026
6.896,-0.01878
6.9,0.0824
6.904,0.05564
6.908,0.04086
6.912,0.06891
6.916,-0.00127
6.92,0.0208
6.924,0.1011
6.928,0.08883
6.932,0.07587
6.936,-0.02851
6.94,-0.01145
6.944,-0.01119
6.948,-0.00176
6.952,0.03348
6.956,0.07755
6.96,0.00422
6.964,0.07328
6.968,0.10854
6.972,0.10739
6.976,0.03432
6.98,0.09445
6.984,0.05764
6.988,0.09464
6.992,0.15095
6.996,0.09414
7.0,0.26187
7.004,0.1306
7.008,0.22771
7.012,0.16303
7.016,0.1559
7.02,0.20888
7.024,0.22017
7.028,0.2035
7.032,0.22424
7.036,0.23754
7.04,0.19711
7.044,0.23678
7.048,0.21486
7.052,0.27553
7.056,0.24773
7.06,0.25444
7.064,0.25313
7.068,0.25046
7.072,0.25273
7.076,0.19999
7.08,0.18361
7.084,0.23733
7.088,0.16529
7.092,0.15085
7.096,0.1547
7.1,0.14617
7.104,0.14316
7.108,0.14029
7.112,0.10944
7.116,0.08487
7.12,0.114
7.124,0.04256
7.128,0.05537
7.132,0.04022
7.136,0.02913
7.14,0.05037
7.144,0.01983
7.148,0.07967
7.152,0.10313
7.156,-0.01012
7.16,0.04913
7.164,0.06447
7.168,0.00871
7.172,0.01356
7.176,0.07216
7.18,0.04224
7.184,0.07355
7.188,0.02121
7.192,0.01225
7.196,0.04575
7.2,0.04835
7.204,0.0511
7.208,0.08047
7.212,0.02897
7.216,0.0238
7.22,0.00266
7.224,-0.01938
7.228,-0.05404
7.232,0.07963
7.236,0.06604
7.24,0.02175
7.244,0.0293
7.248,0.06857
7.252,0.00885
7.256,0.06425
7.26,0.10438
7.264,0.02506
7.268,0.04589
7.272,0.01076
7.276,0.01338
7.28,-0.02062
7.284,0.00218
7.288,-0.00826
7.292,0.02318
7.296,0.04562
7.3,0.02782
7.304,0.03408
7.308,0.01945
7.312,0.0054
7.316,0.03873
7.32,0.04248
7.324,0.0381
7.328,0.02264
7.332,-0.06633
7.336,-0.03819
7.34,-0.0164
7.344,0.04721
7.348,0.02182
7.352,0.02921
7.356,0.07435
7.36,0.07536
7.364,0.04403
7.368,0.04029
7.372,0.05701
7.376,0.01842
7.38,0.02355
7.384,0.06381
7.388,0.07555
7.392,0.11243
7.396,0.04881
7.4,0.0985
7.404,0.14888
7.408,0.11601
7.412,0.17841
7.416,0.07156
7.42,0.09797
7.424,-0.00277
7.428,0.05419
7.432,0.04243
7.436,0.07758
7.44,0.01017
7.444,0.04281
7.448,0.0506
7.452,0.07692
7.456,-0.03014
7.46,0.08954
7.464,0.02291
7.468,0.00224
7.472,0.01531
7.476,-0.00976
7.48,0.11072
7.484,-0.0026
7.488,0.0871
7.492,-0.01656
7.496,-0.00739
7.5,0.04383
7.504,0.00263
7.508,-0.10845
7.512,0.01541
7.516,0.04465
7.52,0.00477
7.524,-0.09161
7.528,-0.10892
7.532,-0.09835
7.536,-0.06807
7.54,0.08686
7.544,0.22535
7.548,0.44036
7.552,0.67607
7.556,0.86387
7.56,0.96506
7.564,0.99733
7.568,0.91506
7.572,0.71598
7.576,0.48273
7.58,0.30172
7.584,0.10353
7.588,-0.02291
7.592,-0.16058
7.596,-0.13389
7.6,-0.12259
7.604,-0.1158
7.608,-0.00483
7.612,-0.04232
7.616,-0.00934
7.62,-0.0173
7.624,-0.01036
7.628,-0.00207
7.632,0.03419
7.636,0.04984
7.64,0.03183
7.644,0.01695
7.648,0.00049
7.652,0.02544
7.656,0.05801
7.66,0.015
7.664,0.04796
7.668,-0.01306
7.672,0.04606
7.676,0.06566
7.68,-0.01706
7.684,0.00656
7.688,-0.0006
7.692,-0.00298
7.696,0.05826
7.7,0.0924
7.704,0.01525
7.708,0.00544
7.712,0.00356
7.716,0.02054
7.72,0.05662
7.724,-0.05165
7.728,0.05488
7.732,0.02384
7.736,0.03549
7.74,0.07308
7.744,0.017
7.748,0.00605
7.752,-0.02189
7.756,9e-05
7.76,0.03487
7.764,0.10476
7.768,0.05859
7.772,0.08835
7.776,0.10995
7.78,0.04822
7.784,0.13059
7.788,0.11311
7.792,0.10652
7.796,0.13505
7.8,0.161
7.804,0.1931
7.808,0.15212
7.812,0.1868
7.816,0.1656
7.82,0.26214
7.824,0.23952
7.828,0.199
7.832,0.19738
7.836,0.19568
7.84,0.2369
7.844,0.24365
7.848,0.20352
7.852,0.23168
7.856,0.23032
7.86,0.18378
7.864,0.26925
7.868,0.13656
7.872,0.24024
7.876,0.15919
7.88,0.18011
7.884,0.14248
7.888,0.19627
7.892,0.17975
7.896,0.07572
7.9,0.12509
7.904,0.10412
7.908,0.08077
7.912,0.02958
7.916,0.02539
7.92,0.12065
7.924,-0.03064
7.928,0.10728
7.932,0.05112
7.936,0.04824
7.94,0.01641
7.944,0.04862
7.948,-0.02531
7.952,0.01317
7.956,0.00453
7.96,-0.00319
7.964,0.03925
7.968,0.01284
7.972,0.00863
7.976,0.06748
7.98,-0.04746
7.984,-0.03943
7.988,0.02489
7.992,0.00272
7.996,-0.04734
8.0,0.0111
8.004,0.0755
8.008,-0.00973
8.012,-0.01848
8.016,0.03602
8.02,-0.00138
8.024,0.02461
8.028,0.11409
8.032,-0.01757
8.036,0.06649
8.04,0.02545
8.044,0.03514
8.048,0.04366
8.052,0.05723
8.056,-0.09392
8.06,0.03314
8.064,-0.02951
8.068,0.03407
8.072,0.01644
8.076,-0.03434
8.08,0.00142
8.084,-0.0054
8.088,0.05618
8.092,0.02636
8.096,-0.04162
8.1,-0.05951
8.104,0.05922
8.108,-0.03438
8.112,0.00508
8.116,-0.02475
8.12,0.00551
8.124,-0.02507
8.128,0.01964
8.132,-0.00623
8.136,-0.02694
8.14,0.03571
8.144,-0.02872
8.148,0.00574
8.152,-0.05353
8.156,0.08729
8.16,0.02809
8.164,0.00406
8.168,0.00426
8.172,-0.05209
8.176,0.01495
8.18,0.00689
8.184,-0.06006
8.188,0.00075
8.192,0.01596
8.196,0.01116
8.2,0.03706
8.204,0.02887
8.208,0.04168
8.212,0.05322
8.216,0.05155
8.22,0.02927
8.224,0.04721
8.228,0.07003
8.232,0.02746
8.236,0.07502
8.24,0.00333
8.244,0.0917
8.248,0.04779
8.252,0.06214
8.256,0.09373
8.26,0.10531
8.264,0.07035
8.268,0.12464
8.272,0.12838
8.276,0.06797
8.28,0.07094
8.284,0.0032
8.288,0.04712
8.292,0.07012
8.296,0.05975
8.3,-0.02613
8.304,-0.00742
8.308,-0.06486
8.312,0.00802
8.316,0.05531
8.32,0.02869
8.324,0.03256
8.328,0.04209
8.332,-0.02616
8.336,0.0089
8.34,-0.01529
8.344,0.01582
8.348,-0.05808
8.352,-0.02679
8.356,-0.00329
8.36,0.00149
8.364,-0.01753
8.368,0.01687
8.372,-0.04134
8.376,-0.05114
8.38,-0.04313
8.384,-0.15884
8.388,-0.08402
8.392,-0.02118
8.396,0.09488
8.4,0.26002
8.404,0.52631
8.408,0.62752
8.412,0.85601
8.416,0.97766
8.42,0.98136
8.424,0.85937
8.428,0.68219
8.432,0.4474
8.436,0.15952
8.44,-0.02972
8.444,-0.08138
8.448,-0.16928
8.452,-0.19814
8.456,-0.11859
8.46,-0.17667
8.464,-0.02928
8.468,-0.01359
8.472,-0.00815
8.476,0.02254
8.48,0.01303
8.484,-0.01335
8.488,-0.0312
8.492,-0.06036
8.496,-0.05553
8.5,0.00762
8.504,-0.02446
8.508,0.02258
8.512,0.00665
8.516,-0.04074
8.52,0.00598
8.524,-0.04641
8.528,0.02655
8.532,-0.04346
8.536,-0.05015
8.54,0.00865
8.544,-0.02666
8.548,-0.0223
8.552,0.03797
8.556,-0.00059
8.56,-0.02359
8.564,-0.0388
8.568,-0.0558
8.572,0.01348
8.576,-0.0802
8.58,0.02615
8.584,-0.07327
8.588,0.00893
8.592,0.02675
8.596,-0.00924
8.6,-0.00645
8.604,-0.01537
8.608,-0.01815
8.612,0.04389
8.616,-0.00523
8.62,-0.00232
8.624,0.06021
8.628,0.03904
8.632,0.0769
8.636,0.07936
8.64,0.11045
8.644,0.12657
8.648,0.06519
8.652,0.12192
8.656,0.09834
8.66,0.1182
8.664,0.10071
8.668,0.12539
8.672,0.14054
8.676,0.16246
8.68,0.16589
8.684,0.20496
8.688,0.27841
8.692,0.21593
8.696,0.1803
8.7,0.14629
8.704,0.18415
8.708,0.1962
8.712,0.21012
8.716,0.21583
8.72,0.1318
8.724,0.18549
8.728,0.18583
8.732,0.11042
8.736,0.13887
8.74,0.09403
8.744,0.14318
8.748,0.15986
8.752,0.1106
8.756,0.10782
8.76,0.09279
8.764,0.1117
8.768,0.09796
8.772,0.10504
8.776,0.20858
8.78,0.07377
8.784,0.10026
8.788,0.06388
8.792,0.05451
8.796,0.12982
8.8,0.10944
8.804,0.03376
8.808,0.06124
8.812,0.07897
8.816,0.06758
8.82,0.05476
8.824,0.01326
8.828,0.04736
8.832,-0.05364
8.836,0.02348
8.84,-0.01124
8.844,0.00371
8.848,-0.0776
8.852,0.00072
8.856,-0.01252
8.86,-0.04194
8.864,-0.04021
8.868,-0.00207
8.872,0.01729
8.876,-0.00824
8.88,-0.00147
8.884,0.01062
8.888,0.01757
8.892,-0.01031
8.896,0.03384
8.9,-0.0276
8.904,-0.01185
8.908,-0.05439
8.912,-0.11519
8.916,-0.13535
8.92,-0.11271
8.924,0.04399
8.928,0.17628
8.932,0.31653
8.936,0.59295
8.94,0.74631
8.944,0.88776
8.948,0.95591
8.952,0.89898
8.956,0.81009
8.96,0.58316
8.964,0.32284
8.968,0.05071
8.972,0.01382
8.976,-0.14223
8.98,-0.17318
8.984,-0.20841
8.988,-0.0733
8.992,-0.08257
8.996,-0.02184
9.0,0.02026
9.004,0.01889
9.008,-0.01988
9.012,0.01916
9.016,0.03115
9.02,-0.0569
9.024,-0.04205
9.028,0.00284
9.032,0.03087
9.036,-0.04314
9.04,0.03409
9.044,-0.09072
9.048,-0.06735
9.052,-0.02628
9.056,-0.03617
9.06,-0.03889
9.064,0.02416
9.068,-0.00959
9.072,0.00418
9.076,-0.0508
9.08,-0.01196
9.084,0.04236
9.088,-0.04176
9.092,-0.08449
9.096,0.02422
9.1,-0.01686
9.104,-0.03068
9.108,-0.04442
9.112,-0.03479
9.116,-0.01246
9.12,-0.02175
9.124,0.04687
9.128,0.0218
9.132,0.00475
9.136,0.03091
9.14,0.04546
9.144,-0.11727
9.148,-0.01773
9.152,0.04721
9.156,0.0199
9.16,0.06904
9.164,0.04485
9.168,0.0389
9.172,0.07068
9.176,0.09319
9.18,0.14057
9.184,0.13098
9.188,0.06971
9.192,0.0644
9.196,0.19955
9.2,0.09914
9.204,0.14168
9.208,0.16605
9.212,0.21719
9.216,0.14782
9.22,0.21283
9.224,0.21698
9.228,0.21893
9.232,0.21921
9.236,0.23635
9.24,0.187
9.244,0.16213
9.248,0.11972
9.252,0.12835
9.256,0.20652
9.26,0.12901
9.264,0.13822
9.268,0.14107
9.272,0.09252
9.276,0.04798
9.28,0.09113
9.284,0.05668
9.288,0.04125
9.292,0.11564
9.296,0.03564
9.3,0.09601
9.304,0.01109
9.308,0.00754
9.312,-0.0128
9.316,0.01309
9.32,-0.00753
9.324,0.00837
9.328,-0.00452
9.332,-0.00483
9.336,0.0341
9.34,-0.03388
9.344,-0.01378
9.348,-0.00282
9.352,0.00076
9.356,-0.04959
9.36,0.00309
9.364,-0.02787
9.368,-0.0355
9.372,-0.01691
9.376,0.02125
9.38,-0.06095
9.384,0.01114
9.388,-0.01211
9.392,0.02643
9.396,0.01552
9.4,-0.0353
9.404,-0.03345
9.408,-0.00978
9.412,0.02545
9.416,-0.07087
9.42,-0.01575
9.424,-0.05772
9.428,-0.04955
9.432,0.00403
9.436,0.02222
9.44,0.0166
9.444,-0.0277
9.448,-0.06457
9.452,-0.0347
9.456,0.00763
9.46,-0.03542
9.464,0.02784
9.468,-0.01481
9.472,-0.04006
9.476,-0.00545
9.48,-0.04143
9.484,-0.00444
9.488,0.00327
9.492,-0.05316
9.496,-0.00402
9.5,-0.056
9.504,0.02208
9.508,0.01883
9.512,-0.02322
9.516,0.02779
9.52,0.03728
9.524,0.03085
9.528,-0.0076
9.532,0.09883
9.536,0.03462
9.54,0.0925
9.544,0.06453
9.548,0.0669
9.552,0.0672
9.556,0.06026
9.56,0.06067
9.564,-0.10339
9.568,0.07441
9.572,-0.01258
9.576,-0.05151
9.58,0.0132
9.584,0.01723
9.588,-0.04563
9.592,0.02813
9.596,-0.00316
9.6,0.02571
9.604,0.10386
9.608,0.01049
9.612,-0.0859
9.616,0.03559
9.62,-0.14588
9.624,-0.01833
9.628,-0.03685
9.632,-0.03171
9.636,-0.01214
9.64,-0.07612
9.644,-0.0961
9.648,-0.00894
9.652,-0.01118
9.656,-0.02247
9.66,-0.07195
9.664,-0.06072
9.668,-0.16525
9.672,-0.14334
9.676,-0.12567
9.68,0.04837
9.684,0.1252
9.688,0.40654
9.692,0.56915
9.696,0.77238
9.7,0.95638
9.704,0.9018
9.708,0.96054
9.712,0.67218
9.716,0.47684
9.72,0.22073
9.724,0.12795
9.728,-0.06069
9.732,-0.13472
9.736,-0.17739
9.74,-0.19104
9.744,-0.20251
9.748,-0.12715
9.752,-0.00313
9.756,-0.09624
9.76,-0.09366
9.764,-0.04708
9.768,-0.00303
9.772,-0.0474
9.776,-0.01096
9.78,-0.04498
9.784,-0.04469
9.788,-0.07501
9.792,-0.08056
9.796,-0.01211
9.8,-0.06778
9.804,-0.04548
9.808,-0.06045
9.812,-0.02077
9.816,-0.00856
9.82,-0.06073
9.824,-0.0362
9.828,-0.00239
9.832,-0.04835
9.836,0.01723
9.84,-0.05558
9.844,-0.01859
9.848,-0.00501
9.852,-0.05529
9.856,0.02519
9.86,-0.03775
9.864,-0.01631
9.868,0.01369
9.872,-0.01461
9.876,-0.09219
9.88,0.01071
9.884,0.00765
9.888,-0.00965
9.892,-0.01704
9.896,-0.03705
9.9,-0.02073
9.904,0.04848
9.908,-0.02941
9.912,0.00534
9.916,0.0164
9.92,0.05424
9.924,0.07932
9.928,0.07513
9.932,0.04068
9.936,0.07756
9.94,0.06681
9.944,0.11794
9.948,0.13118
9.952,0.12077
9.956,0.15723
9.96,0.12142
9.964,0.13245
9.968,0.19174
9.972,0.22139
9.976,0.21181
9.98,0.14681
9.984,0.17726
9.988,0.22521
9.992,0.19629
9.996,0.17319
