t_seg,ecg_mV
0.0,0.03299
0.004,0.02452
0.008,0.02221
0.012,0.02806
0.016,0.01636
0.02,0.04477
0.024,0.02924
0.028,0.04289
0.032,0.01284
0.036,0.025
0.04,0.00163
0.044,0.00446
0.048,0.04868
0.052,0.03552
0.056,0.04614
0.06,-0.00353
0.064,0.04554
0.068,0.03113
0.072,0.03166
0.076,0.0161
0.08,0.03654
0.084,0.03353
0.088,0.02956
0.092,0.04463
0.096,0.00188
0.1,0.03107
0.104,0.03692
0.108,0.01239
0.112,0.03642
0.116,0.02055
0.12,0.0117
0.124,0.04502
0.128,0.04467
0.132,0.01518
0.136,0.02555
0.14,0.03497
0.144,0.06106
0.148,0.03737
0.152,0.02996
0.156,0.03143
0.16,0.02848
0.164,0.02611
0.168,0.04274
0.172,0.03032
0.176,0.0201
0.18,0.0254
0.184,0.02853
0.188,0.01388
0.192,0.01477
0.196,0.01785
0.2,0.0256
0.204,0.03164
0.208,0.02869
0.212,0.04302
0.216,0.01123
0.22,0.05493
0.224,0.00802
0.228,0.02042
0.232,0.03401
0.236,0.0381
0.24,0.0431
0.244,0.04012
0.248,0.03059
0.252,0.03607
0.256,0.04847
0.26,0.03141
0.264,0.04414
0.268,0.03006
0.272,0.0235
0.276,0.04555
0.28,0.04428
0.284,0.04003
0.288,0.01796
0.292,0.04214
0.296,0.03576
0.3,0.0334
0.304,0.03779
0.308,0.03872
0.312,0.0392
0.316,0.06951
0.32,0.08926
0.324,0.10884
0.328,0.106
0.332,0.13442
0.336,0.11289
0.34,0.11968
0.344,0.14443
0.348,0.10772
0.352,0.12242
0.356,0.11254
0.36,0.10054
0.364,0.10705
0.368,0.06099
0.372,0.04897
0.376,0.04932
0.38,0.03565
0.384,0.03492
0.388,0.05711
0.392,0.05017
0.396,0.03574
0.4,0.04658
0.404,0.05134
0.408,0.02367
0.412,0.03867
0.416,0.03999
0.42,0.00683
0.424,0.0467
0.428,0.01707
0.432,0.01191
0.436,0.03241
0.44,0.01769
0.444,0.02733
0.448,0.00793
0.452,0.0514
0.456,-0.00421
0.46,0.00382
0.464,-0.05758
0.468,-0.0977
0.472,-0.08704
0.476,-0.0384
0.48,0.09395
0.484,0.24642
0.488,0.44778
0.492,0.7005
0.496,0.88272
0.5,0.99678
0.504,1.03051
0.508,0.91766
0.512,0.72854
0.516,0.54116
0.52,0.29641
0.524,0.08374
0.528,-0.03451
0.532,-0.13486
0.536,-0.12659
0.54,-0.10769
0.544,-0.07485
0.548,-0.01577
0.552,-0.04359
0.556,0.00041
0.56,0.02577
0.564,0.01498
0.568,0.03428
0.572,0.04941
0.576,0.01796
0.58,0.01218
0.584,0.02897
0.588,0.03642
0.592,0.02662
0.596,0.03474
0.6,0.00379
0.604,0.02267
0.608,0.01961
0.612,0.0412
0.616,0.01877
0.62,0.04283
0.624,0.04479
0.628,-0.00522
0.632,0.04591
0.636,0.00811
0.64,0.02989
0.644,0.01706
0.648,0.02595
0.652,0.04894
0.656,0.02471
0.66,0.0193
0.664,0.012
0.668,0.03199
0.672,0.02342
0.676,0.0381
0.68,0.05449
0.684,0.06263
0.688,0.04367
0.692,0.05684
0.696,0.06053
0.7,0.0785
0.704,0.04975
0.708,0.12654
0.712,0.09304
0.716,0.11785
0.72,0.10173
0.724,0.10777
0.728,0.11531
0.732,0.13553
0.736,0.15722
0.74,0.14999
0.744,0.16095
0.748,0.18215
0.752,0.21006
0.756,0.21604
0.76,0.21154
0.764,0.22513
0.768,0.265
0.772,0.22992
0.776,0.25473
0.78,0.25076
0.784,0.24931
0.788,0.25057
0.792,0.23797
0.796,0.22781
0.8,0.22929
0.804,0.21813
0.808,0.21047
0.812,0.19316
0.816,0.17125
0.82,0.1874
0.824,0.15264
0.828,0.17698
0.832,0.14051
0.836,0.14805
0.84,0.10327
0.844,0.14259
0.848,0.12023
0.852,0.09816
0.856,0.11008
0.86,0.07019
0.864,0.09271
0.868,0.09055
0.872,0.0543
0.876,0.04301
0.88,0.03506
0.884,0.04078
0.888,0.03824
0.892,0.0275
0.896,0.0334
0.9,0.05072
0.904,0.01063
0.908,0.01293
0.912,0.0097
0.916,0.02428
0.92,0.01216
0.924,0.02732
0.928,0.01169
0.932,0.03197
0.936,0.01562
0.94,-0.01144
0.944,0.01685
0.948,0.025
0.952,0.02593
0.956,0.01878
0.96,0.05815
0.964,0.0359
0.968,0.01949
0.972,0.02585
0.976,0.01419
0.98,-0.00294
0.984,0.01074
0.988,0.01227
0.992,0.0215
0.996,-0.00366
1.0,0.01676
1.004,0.03394
1.008,0.00741
1.012,0.05133
1.016,0.01378
1.02,0.02429
1.024,0.03383
1.028,0.04668
1.032,0.04321
1.036,0.0484
1.04,0.06228
1.044,0.04676
1.048,0.0543
1.052,0.05259
1.056,0.05948
1.06,0.07182
1.064,0.11168
1.068,0.11561
1.072,0.0996
1.076,0.13316
1.08,0.10394
1.084,0.11096
1.088,0.13666
1.092,0.14494
1.096,0.10746
1.1,0.09731
1.104,0.05529
1.108,0.07838
1.112,0.03489
1.116,0.02847
1.12,0.04398
1.124,0.05434
1.128,0.03784
1.132,0.02571
1.136,0.03523
1.14,-0.00256
1.144,0.03246
1.148,0.01657
1.152,0.0234
1.156,0.04413
1.16,0.02193
1.164,0.02013
1.168,-0.00991
1.172,0.01681
1.176,0.02109
1.18,0.01646
1.184,0.00111
1.188,0.01779
1.192,0.01643
1.196,0.00359
1.2,0.00027
1.204,-0.05802
1.208,-0.11596
1.212,-0.06436
1.216,-0.03729
1.22,0.04446
1.224,0.25807
1.228,0.44639
1.232,0.65197
1.236,0.86335
1.24,1.01453
1.244,0.99161
1.248,0.90795
1.252,0.73622
1.256,0.53262
1.26,0.33495
1.264,0.07659
1.268,-0.03466
1.272,-0.12945
1.276,-0.1554
1.28,-0.14389
1.284,-0.10404
1.288,-0.03116
1.292,-0.02739
1.296,0.03082
1.3,0.02268
1.304,0.04051
1.308,0.01263
1.312,0.01309
1.316,0.04106
1.32,0.02961
1.324,0.00785
1.328,0.0157
1.332,0.03459
1.336,-0.00677
1.34,0.0079
1.344,0.02793
1.348,0.00691
1.352,-0.00618
1.356,-0.00362
1.36,0.01877
1.364,0.0354
1.368,-0.00208
1.372,0.02547
1.376,0.03906
1.38,0.01251
1.384,0.01436
1.388,0.00868
1.392,0.01201
1.396,0.03619
1.4,0.00557
1.404,0.03043
1.408,0.04219
1.412,0.01549
1.416,0.03347
1.42,0.02708
1.424,0.00379
1.428,0.03527
1.432,0.01678
1.436,0.05798
1.44,0.05719
1.444,0.07963
1.448,0.05544
1.452,0.08224
1.456,0.07524
1.46,0.09793
1.464,0.13196
1.468,0.12292
1.472,0.13739
1.476,0.12996
1.48,0.15192
1.484,0.16678
1.488,0.18976
1.492,0.19652
1.496,0.20571
1.5,0.21338
1.504,0.24857
1.508,0.23821
1.512,0.22723
1.516,0.20514
1.52,0.21929
1.524,0.23559
1.528,0.23031
1.532,0.23574
1.536,0.2136
1.54,0.20373
1.544,0.22209
1.548,0.20697
1.552,0.15182
1.556,0.172
1.56,0.16298
1.564,0.17493
1.568,0.17499
1.572,0.15801
1.576,0.09972
1.58,0.11696
1.584,0.07317
1.588,0.09234
1.592,0.06694
1.596,0.04242
1.6,0.06997
1.604,0.05346
1.608,0.05458
1.612,0.04337
1.616,0.01975
1.62,0.02389
1.624,0.0242
1.628,0.02569
1.632,0.02871
1.636,0.0175
1.64,0.00763
1.644,0.03569
1.648,0.00757
1.652,0.02523
1.656,0.01103
1.66,0.0145
1.664,0.01584
1.668,-0.01283
1.672,0.01344
1.676,0.0051
1.68,-0.00278
1.684,0.02081
1.688,0.00629
1.692,0.02809
1.696,0.0174
1.7,0.01317
1.704,-0.0099
1.708,0.02239
1.712,0.03637
1.716,0.01046
1.72,0.03431
1.724,0.00609
1.728,0.00826
1.732,-0.00995
1.736,0.03357
1.74,0.02074
1.744,0.00454
1.748,-0.00665
1.752,-0.00312
1.756,-0.01844
1.76,0.00037
1.764,0.00544
1.768,0.00251
1.772,-0.01114
1.776,0.01559
1.78,-0.01132
1.784,-0.00558
1.788,0.00526
1.792,0.00741
1.796,0.0117
1.8,-0.00576
1.804,0.01519
1.808,0.03284
1.812,0.00624
1.816,0.03865
1.82,0.07016
1.824,0.07323
1.828,0.03982
1.832,0.09599
1.836,0.08871
1.84,0.09789
1.844,0.10408
1.848,0.0867
1.852,0.10584
1.856,0.06777
1.86,0.06311
1.864,0.04545
1.868,0.02858
1.872,0.03094
1.876,0.02548
1.88,0.01468
1.884,0.01652
1.888,0.00088
1.892,0.0183
1.896,0.02019
1.9,0.02795
1.904,-0.01491
1.908,0.0141
1.912,-0.01323
1.916,0.00401
1.92,0.02528
1.924,0.01233
1.928,-0.00335
1.932,-0.01093
1.936,-0.012
1.94,-0.02057
1.944,-0.0307
1.948,-0.00124
1.952,-0.00692
1.956,0.01148
1.96,-0.06806
1.964,-0.05088
1.968,-0.11379
1.972,-0.11944
1.976,-0.04972
1.98,0.10274
1.984,0.27249
1.988,0.52027
1.992,0.71836
1.996,0.90132
2.0,0.9749
2.004,0.95573
2.008,0.84077
2.012,0.65726
2.016,0.46517
2.02,0.2258
2.024,0.03675
2.028,-0.11455
2.032,-0.15836
2.036,-0.15805
2.04,-0.15055
2.044,-0.10071
2.048,-0.06895
2.052,-0.0303
2.056,-0.00414
2.06,0.00707
2.064,-0.05811
2.068,-0.00425
2.072,-0.00601
2.076,0.01419
2.08,-0.01081
2.084,0.01503
2.088,-0.00367
2.092,0.03185
2.096,0.00395
2.1,-0.01604
2.104,0.00491
2.108,0.01502
2.112,-0.00489
2.116,0.00411
2.12,-0.00133
2.124,-0.00136
2.128,-0.05338
2.132,-0.00509
2.136,0.01985
2.14,0.01029
2.144,0.00695
2.148,-0.01859
2.152,-0.01621
2.156,0.00268
2.16,-0.01387
2.164,0.00253
2.168,-0.01577
2.172,0.01458
2.176,-0.00213
2.18,-0.01385
2.184,0.03192
2.188,0.01115
2.192,0.01758
2.196,0.01889
2.2,0.04602
2.204,0.01559
2.208,0.05106
2.212,0.01517
2.216,0.09014
2.22,0.07049
2.224,0.09638
2.228,0.07798
2.232,0.11162
2.236,0.12651
2.24,0.12302
2.244,0.13299
2.248,0.16183
2.252,0.16565
2.256,0.17666
2.26,0.17518
2.264,0.19981
2.268,0.1769
2.272,0.20346
2.276,0.19447
2.28,0.20694
2.284,0.1922
2.288,0.21098
2.292,0.22123
2.296,0.2035
2.3,0.20768
2.304,0.18214
2.308,0.18034
2.312,0.16548
2.316,0.14737
2.32,0.15579
2.324,0.14205
2.328,0.11987
2.332,0.11848
2.336,0.06364
2.34,0.0708
2.344,0.07718
2.348,0.06279
2.352,0.05065
2.356,0.07137
2.36,0.03476
2.364,0.00814
2.368,0.02566
2.372,0.01601
2.376,0.01759
2.38,0.0161
2.384,0.00985
2.388,-0.01112
2.392,0.00396
2.396,-0.03679
2.4,0.00627
2.404,-0.00688
2.408,-0.02124
2.412,0.02568
2.416,-0.00662
2.42,-0.0276
2.424,-0.00151
2.428,-0.01143
2.432,-0.03326
2.436,-0.03591
2.44,-0.01764
2.444,-0.02492
2.448,-0.02981
2.452,0.0086
2.456,-0.0449
2.46,-0.01525
2.464,-0.00534
2.468,-0.0165
2.472,-0.02572
2.476,-0.00231
2.48,-0.01711
2.484,0.00048
2.488,-0.00815
2.492,-0.0079
2.496,0.00354
2.5,0.00841
2.504,-0.0354
2.508,-0.01016
2.512,-0.04231
2.516,-0.03835
2.52,-0.01464
2.524,-0.02326
2.528,-0.00744
2.532,-0.00684
2.536,-0.01791
2.54,0.00524
2.544,0.02617
2.548,-0.00893
2.552,-0.0217
2.556,-0.01403
2.56,0.00227
2.564,-0.01093
2.568,0.00145
2.572,-0.00959
2.576,-0.01305
2.58,-0.01682
2.584,-0.00993
2.588,-0.01183
2.592,-0.026
2.596,-0.00412
2.6,-0.00109
2.604,-0.01758
2.608,-0.03303
2.612,0.01765
2.616,-0.02841
2.62,-0.01657
2.624,-0.00312
2.628,0.01537
2.632,0.05228
2.636,0.01564
2.64,0.07939
2.644,0.09935
2.648,0.10586
2.652,0.05501
2.656,0.09684
2.66,0.08379
2.664,0.0871
2.668,0.07143
2.672,0.04873
2.676,0.0375
2.68,0.0249
2.684,0.00836
2.688,0.01954
2.692,-0.0011
2.696,-0.01918
2.7,-0.01244
2.704,-0.01815
2.708,-0.03677
2.712,-0.00525
2.716,-0.02856
2.72,-0.0021
2.724,-0.029
2.728,-0.02129
2.732,-0.01272
2.736,-0.00947
2.74,-0.05076
2.744,-0.02217
2.748,-0.03221
2.752,-0.0412
2.756,-0.05053
2.76,-0.02579
2.764,-0.02644
2.768,-0.03004
2.772,-0.03691
2.776,-0.08131
2.78,-0.11111
2.784,-0.1541
2.788,-0.11096
2.792,-0.02235
2.796,0.14157
2.8,0.33034
2.804,0.56151
2.808,0.7484
2.812,0.89841
2.816,0.99036
2.82,0.91596
2.824,0.80039
2.828,0.5773
2.832,0.34637
2.836,0.12508
2.84,-0.05387
2.844,-0.15287
2.848,-0.20321
2.852,-0.19106
2.856,-0.14746
2.86,-0.07906
2.864,-0.08169
2.868,-0.01912
2.872,-0.03285
2.876,-0.03899
2.88,0.01401
2.884,-0.0223
2.888,-0.03554
2.892,-0.01817
2.896,-0.04787
2.9,-0.01226
2.904,-0.048
2.908,-0.01907
2.912,-0.00295
2.916,-0.02927
2.92,-0.04072
2.924,-0.00333
2.928,-0.02062
2.932,-0.02093
2.936,-0.02476
2.94,-0.01225
2.944,-0.01615
2.948,-0.04227
2.952,-0.04016
2.956,-0.03595
2.96,-0.00281
2.964,-0.01864
2.968,-0.01932
2.972,0.00146
2.976,0.01776
2.98,-0.05065
2.984,-0.02187
2.988,-0.00188
2.992,-0.02098
2.996,-0.03773
3.0,-0.01873
3.004,-0.00378
3.008,-0.00687
3.012,0.01608
3.016,0.00599
3.02,0.05402
3.024,0.01983
3.028,0.02455
3.032,0.05031
3.036,0.07307
3.04,0.08497
3.044,0.06648
3.048,0.11491
3.052,0.11743
3.056,0.12639
3.06,0.15972
3.064,0.17372
3.068,0.14475
3.072,0.14551
3.076,0.1566
3.08,0.19288
3.084,0.18553
3.088,0.20002
3.092,0.18999
3.096,0.18364
3.1,0.17794
3.104,0.19945
3.108,0.19986
3.112,0.18408
3.116,0.16335
3.12,0.15217
3.124,0.16353
3.128,0.13609
3.132,0.13131
3.136,0.12915
3.14,0.12295
3.144,0.09945
3.148,0.09698
3.152,0.03292
3.156,0.07406
3.16,0.04253
3.164,0.02703
3.168,0.04127
3.172,0.02048
3.176,0.01295
3.18,0.01169
3.184,0.02113
3.188,0.00353
3.192,-0.02767
3.196,0.00278
3.2,0.00581
3.204,-0.03516
3.208,-0.05042
3.212,-0.01394
3.216,-0.01339
3.22,-0.02623
3.224,0.00366
3.228,-0.02186
3.232,-0.03056
3.236,-0.03499
3.24,-0.01425
3.244,-0.01854
3.248,-0.01004
3.252,-0.0377
3.256,-0.02852
3.26,-0.01901
3.264,-0.03304
3.268,-0.04544
3.272,-0.02566
3.276,-0.00457
3.28,-0.00348
3.284,-0.00721
3.288,-0.01042
3.292,-0.02532
3.296,-0.04039
3.3,-0.04687
3.304,-0.01671
3.308,-0.03126
3.312,-0.02675
3.316,-0.02126
3.32,-0.01807
3.324,-0.00552
3.328,-0.06178
3.332,-0.02833
3.336,-0.04806
3.34,-0.02177
3.344,-0.02019
3.348,-0.02584
3.352,-0.03451
3.356,-0.03331
3.36,-0.04032
3.364,-0.03934
3.368,-0.01867
3.372,-0.02811
3.376,-0.01014
3.38,-0.02501
3.384,-0.0273
3.388,0.00574
3.392,-0.01533
3.396,-0.02809
3.4,-0.01903
3.404,-0.04628
3.408,-0.04091
3.412,-0.02831
3.416,-0.03007
3.42,-0.05245
3.424,-0.01591
3.428,-0.03893
3.432,-0.01458
3.436,-0.02111
3.44,-0.01053
3.444,-0.00072
3.448,-0.03326
3.452,-0.02419
3.456,-0.00595
3.46,-0.04049
3.464,-0.02815
3.468,-0.04014
3.472,-0.01267
3.476,-0.04742
3.48,-0.04703
3.484,-0.03338
3.488,-0.03138
3.492,0.01456
3.496,-0.00978
3.5,-0.01633
3.504,0.01
3.508,0.01702
3.512,0.01949
3.516,0.01596
3.52,0.02839
3.524,0.0306
3.528,0.04883
3.532,0.0797
3.536,0.06782
3.54,0.06731
3.544,0.08443
3.548,0.04996
3.552,0.04155
3.556,0.05787
3.56,0.04588
3.564,0.02277
3.568,0.0027
3.572,0.00712
3.576,-0.02549
3.58,-0.04702
3.584,-0.01876
3.588,-0.02499
3.592,-0.03808
3.596,-0.02364
3.6,-0.04529
3.604,-0.04035
3.608,-0.0246
3.612,-0.01871
3.616,-0.02508
3.62,-0.01817
3.624,-0.04065
3.628,-0.0431
3.632,-0.03244
3.636,-0.03879
3.64,-0.02326
3.644,-0.02166
3.648,-0.04162
3.652,-0.04508
3.656,-0.06964
3.66,-0.09281
3.664,-0.15722
3.668,-0.11531
3.672,-0.11983
3.676,-0.00434
3.68,0.1595
3.684,0.37317
3.688,0.58465
3.692,0.80868
3.696,0.91951
3.7,0.99209
3.704,0.92206
3.708,0.72874
3.712,0.53105
3.716,0.28541
3.72,0.09749
3.724,-0.06282
3.728,-0.17269
3.732,-0.1917
3.736,-0.19476
3.74,-0.18268
3.744,-0.14065
3.748,-0.08932
3.752,-0.0452
3.756,-0.06742
3.76,-0.02323
3.764,-0.01619
3.768,-0.04077
3.772,-0.01002
3.776,-0.00628
3.78,-0.02049
3.784,-0.02951
3.788,-0.01804
3.792,-0.00869
3.796,-0.01147
3.8,-0.01871
3.804,-0.05497
3.808,-0.02799
3.812,-0.02105
3.816,-0.02225
3.82,-0.04252
3.824,-0.02515
3.828,-0.04151
3.832,-0.02119
3.836,-0.01577
3.84,-0.02102
3.844,-0.02514
3.848,-0.01893
3.852,-0.01267
3.856,-0.03145
3.86,-0.00331
3.864,-0.00782
3.868,-0.00774
3.872,-0.02231
3.876,-0.03422
3.88,-0.03319
3.884,-0.00525
3.888,0.00363
3.892,0.03724
3.896,-0.00123
3.9,0.00087
3.904,-0.00194
3.908,0.02947
3.912,0.03135
3.916,0.06538
3.92,0.05839
3.924,0.06848
3.928,0.08654
3.932,0.07034
3.936,0.12312
3.94,0.11955
3.944,0.11833
3.948,0.1375
3.952,0.16032
3.956,0.16008
3.96,0.15806
3.964,0.18529
3.968,0.18654
3.972,0.19353
3.976,0.19214
3.98,0.13767
3.984,0.18848
3.988,0.19695
3.992,0.17099
3.996,0.18975
4.0,0.18606
4.004,0.16162
4.008,0.15066
4.012,0.12281
4.016,0.12922
4.02,0.1387
4.024,0.08935
4.028,0.0995
4.032,0.07331
4.036,0.0836
4.04,0.05518
4.044,0.0698
4.048,0.0596
4.052,0.02518
4.056,0.02772
4.06,0.02738
4.064,0.00973
4.068,0.00055
4.072,0.02529
4.076,-0.00437
4.08,-0.01574
4.084,-0.02887
4.088,-0.01866
4.092,-0.03331
4.096,-0.00479
4.1,-0.03581
4.104,-0.00948
4.108,0.0139
4.112,-0.05727
4.116,-0.03372
4.12,-0.03639
4.124,-0.01626
4.128,-0.0338
4.132,-0.01227
4.136,-0.01042
4.14,-0.04694
4.144,-0.04179
4.148,-0.05306
4.152,-0.02459
4.156,-0.05952
4.16,-0.02798
4.164,-0.03828
4.168,-0.04137
4.172,-0.032
4.176,-0.02097
4.18,-0.00012
4.184,0.00402
4.188,0.01486
4.192,0.00447
4.196,0.01614
4.2,0.03756
4.204,0.05074
4.208,0.05931
4.212,0.10354
4.216,0.08018
4.22,0.06032
4.224,0.05879
4.228,0.0564
4.232,0.04847
4.236,0.00925
4.24,0.02517
4.244,0.01502
4.248,0.02591
4.252,0.01202
4.256,-0.02686
4.26,-0.01748
4.264,-0.00991
4.268,-0.02719
4.272,-0.04416
4.276,-0.01317
4.28,-0.02829
4.284,-0.02197
4.288,-0.02677
4.292,-0.02362
4.296,0.00637
4.3,-0.00899
4.304,-0.03636
4.308,-0.01328
4.312,-0.03523
4.316,-0.01522
4.32,-0.0206
4.324,0.00033
4.328,-0.00688
4.332,-0.05464
4.336,-0.07775
4.34,-0.11251
4.344,-0.11947
4.348,-0.11832
4.352,0.00942
4.356,0.14926
4.36,0.37835
4.364,0.57123
4.368,0.78947
4.372,0.92684
4.376,0.9848
4.38,0.8835
4.384,0.77959
4.388,0.54602
4.392,0.29479
4.396,0.14316
4.4,-0.04653
4.404,-0.17313
4.408,-0.18329
4.412,-0.19449
4.416,-0.14937
4.42,-0.09931
4.424,-0.02912
4.428,-0.04148
4.432,-0.00687
4.436,-0.05457
4.44,-0.03388
4.444,-0.02165
4.448,-0.03011
4.452,-0.03927
4.456,-0.02579
4.46,-0.04103
4.464,0.00517
4.468,-0.01644
4.472,-0.0194
4.476,-0.01856
4.48,-0.0224
4.484,-0.01965
4.488,-0.03174
4.492,-0.01255
4.496,-0.01435
4.5,-0.02306
4.504,-0.01192
4.508,-0.00367
4.512,0.00521
4.516,-0.01826
4.52,-0.03796
4.524,-0.02365
4.528,-0.00948
4.532,-0.01362
4.536,0.01511
4.54,-0.01037
4.544,0.02428
4.548,0.00544
4.552,-0.00649
4.556,-0.01298
4.56,-0.01068
4.564,0.00872
4.568,-0.01134
4.572,0.0252
4.576,0.03001
4.58,0.06276
4.584,0.05787
4.588,0.0482
4.592,0.07207
4.596,0.0936
4.6,0.06845
4.604,0.08121
4.608,0.1188
4.612,0.09826
4.616,0.11541
4.62,0.17604
4.624,0.15354
4.628,0.14636
4.632,0.1696
4.636,0.19378
4.64,0.19647
4.644,0.1873
4.648,0.21396
4.652,0.18368
4.656,0.21449
4.66,0.19109
4.664,0.21826
4.668,0.16967
4.672,0.20311
4.676,0.21388
4.68,0.18103
4.684,0.16896
4.688,0.1522
4.692,0.14045
4.696,0.14572
4.7,0.13328
4.704,0.10896
4.708,0.07636
4.712,0.04238
4.716,0.07533
4.72,0.05532
4.724,0.06018
4.728,0.05217
4.732,0.05029
4.736,0.00773
4.74,0.04107
4.744,0.00762
4.748,-0.01671
4.752,0.00957
4.756,-0.01127
4.76,0.03429
4.764,0.00698
4.768,0.00419
4.772,-0.00795
4.776,-0.0084
4.78,-0.0256
4.784,-0.01839
4.788,-0.01468
4.792,0.00194
4.796,-0.00376
4.8,-0.03161
4.804,-0.02644
4.808,0.00052
4.812,0.00872
4.816,0.00901
4.82,0.0002
4.824,0.00211
4.828,-0.00595
4.832,-0.02178
4.836,-0.0203
4.84,-0.01001
4.844,-0.01862
4.848,-0.0158
4.852,0.00137
4.856,-0.00672
4.86,-0.0292
4.864,-0.02091
4.868,0.0038
4.872,-0.00467
4.876,0.01588
4.88,0.01323
4.884,0.00295
4.888,-0.01292
4.892,0.0213
4.896,-0.02438
4.9,-0.0033
4.904,-0.00471
4.908,-0.01386
4.912,-0.02183
4.916,-0.01064
4.92,0.01282
4.924,0.00104
4.928,-0.00146
4.932,0.00197
4.936,0.01285
4.94,0.00979
4.944,0.03256
4.948,0.07553
4.952,0.06649
4.956,0.07279
4.96,0.06968
4.964,0.10814
4.968,0.08863
4.972,0.09047
4.976,0.06126
4.98,0.10009
4.984,0.071
4.988,0.04163
4.992,0.04882
4.996,0.04147
5.0,0.02762
5.004,0.01196
5.008,0.0177
5.012,-0.01375
5.016,-0.01211
5.02,0.01339
5.024,-0.01026
5.028,-0.02743
5.032,-0.00533
5.036,-0.00334
5.04,-0.02089
5.044,0.00041
5.048,0.00432
5.052,0.00299
5.056,-0.00682
5.06,-0.00287
5.064,-0.00459
5.068,-0.00599
5.072,-0.01408
5.076,0.01084
5.08,-0.00614
5.084,-0.00874
5.088,-0.06429
5.092,-0.09808
5.096,-0.11882
5.1,-0.10369
5.104,-0.01225
5.108,0.11882
5.112,0.30591
5.116,0.50839
5.12,0.77444
5.124,0.90963
5.128,0.99947
5.132,0.98002
5.136,0.83059
5.14,0.62044
5.144,0.39869
5.148,0.18123
5.152,-0.01724
5.156,-0.13635
5.16,-0.18155
5.164,-0.17733
5.168,-0.11947
5.172,-0.08675
5.176,-0.06185
5.18,-0.03196
5.184,-0.02846
5.188,0.01171
5.192,-0.04256
5.196,-0.01117
5.2,-0.00825
5.204,0.01491
5.208,0.01085
5.212,-0.01491
5.216,-0.02578
5.22,0.01192
5.224,-0.00253
5.228,-0.00317
5.232,0.00265
5.236,0.02345
5.24,-0.00796
5.244,0.00619
5.248,0.02882
5.252,-0.01006
5.256,-0.01973
5.26,0.02098
5.264,0.00182
5.268,0.0063
5.272,0.00358
5.276,-0.00237
5.28,-0.0061
5.284,0.00316
5.288,0.01142
5.292,-0.01033
5.296,0.02184
5.3,0.00564
5.304,0.02157
5.308,0.02122
5.312,0.03886
5.316,0.02706
5.32,0.03111
5.324,0.04726
5.328,0.0473
5.332,0.07892
5.336,0.07232
5.34,0.07274
5.344,0.06409
5.348,0.09187
5.352,0.10524
5.356,0.08221
5.36,0.14366
5.364,0.12338
5.368,0.14343
5.372,0.14263
5.376,0.16554
5.38,0.14011
5.384,0.19172
5.388,0.189
5.392,0.21998
5.396,0.20656
5.4,0.22777
5.404,0.21361
5.408,0.22102
5.412,0.22869
5.416,0.25101
5.42,0.21066
5.424,0.21352
5.428,0.18127
5.432,0.19931
5.436,0.20781
5.44,0.1827
5.444,0.17547
5.448,0.17884
5.452,0.1507
5.456,0.13661
5.46,0.12082
5.464,0.09518
5.468,0.07108
5.472,0.06323
5.476,0.06614
5.48,0.06579
5.484,0.082
5.488,0.03807
5.492,0.04451
5.496,0.01786
5.5,0.01789
5.504,0.0151
5.508,0.04595
5.512,0.01637
5.516,-0.02083
5.52,0.03295
5.524,0.02325
5.528,0.03324
5.532,0.00566
5.536,0.0223
5.54,0.0055
5.544,0.00468
5.548,0.02096
5.552,-0.01285
5.556,0.02996
5.56,-0.01428
5.564,0.03038
5.568,0.01667
5.572,0.01801
5.576,0.03002
5.58,0.03116
5.584,-0.02211
5.588,0.02317
5.592,0.0238
5.596,0.03716
5.6,0.01875
5.604,0.00083
5.608,0.00393
5.612,0.01262
5.616,0.00788
5.62,0.03285
5.624,0.01809
5.628,0.0205
5.632,-0.00611
5.636,0.01648
5.64,0.0426
5.644,0.04198
5.648,0.08509
5.652,0.0451
5.656,0.07516
5.66,0.11356
5.664,0.09397
5.668,0.09332
5.672,0.07913
5.676,0.10643
5.68,0.09207
5.684,0.12181
5.688,0.07709
5.692,0.08722
5.696,0.05938
5.7,0.0717
5.704,0.03933
5.708,0.02947
5.712,0.03659
5.716,0.05223
5.72,0.00797
5.724,0.01035
5.728,0.00411
5.732,0.00512
5.736,-0.02003
5.74,0.0097
5.744,0.00922
5.748,0.02785
5.752,0.03402
5.756,0.00636
5.76,0.00511
5.764,0.00406
5.768,0.00742
5.772,0.01092
5.776,0.00379
5.78,-0.00522
5.784,0.01141
5.788,-0.00626
5.792,-0.04225
5.796,-0.07741
5.8,-0.11149
5.804,-0.09622
5.808,-0.04026
5.812,0.08373
5.816,0.29117
5.82,0.47178
5.824,0.67672
5.828,0.88347
5.832,0.98727
5.836,1.0158
5.84,0.89476
5.844,0.72052
5.848,0.48084
5.852,0.25271
5.856,0.09023
5.86,-0.04904
5.864,-0.12236
5.868,-0.14618
5.872,-0.09933
5.876,-0.0917
5.88,-0.01564
5.884,-0.02994
5.888,-0.0067
5.892,0.00397
5.896,0.02886
5.9,0.03451
5.904,0.01745
5.908,0.01038
5.912,0.02888
5.916,0.00485
5.92,0.02965
5.924,0.03893
5.928,0.00535
5.932,0.03449
5.936,-0.00592
5.94,0.01659
5.944,0.01999
5.948,0.04547
5.952,-0.00914
5.956,0.03489
5.96,0.0307
5.964,0.00408
5.968,0.03539
5.972,0.00213
5.976,0.01777
5.98,0.01781
5.984,-0.00638
5.988,0.03564
5.992,0.02577
5.996,0.03305
6.0,0.04315
6.004,0.02762
6.008,0.04102
6.012,0.05964
6.016,0.0592
6.02,0.02726
6.024,0.06466
6.028,0.07709
6.032,0.04394
6.036,0.07671
6.04,0.08186
6.044,0.07608
6.048,0.09961
6.052,0.12899
6.056,0.08765
6.06,0.14539
6.064,0.1468
6.068,0.15541
6.072,0.16656
6.076,0.18226
6.08,0.14984
6.084,0.20195
6.088,0.22425
6.092,0.18337
6.096,0.22531
6.1,0.24044
6.104,0.24611
6.108,0.24266
6.112,0.2272
6.116,0.22763
6.12,0.23699
6.124,0.26569
6.128,0.20751
6.132,0.23692
6.136,0.1945
6.14,0.21366
6.144,0.20125
6.148,0.19404
6.152,0.17132
6.156,0.16694
6.16,0.14121
6.164,0.16027
6.168,0.11383
6.172,0.14435
6.176,0.11893
6.18,0.09172
6.184,0.09007
6.188,0.06124
6.192,0.05823
6.196,0.05967
6.2,0.07092
6.204,0.03841
6.208,0.06234
6.212,0.0564
6.216,0.03303
6.22,0.02246
6.224,0.04114
6.228,0.02028
6.232,0.01566
6.236,0.01093
6.24,0.03619
6.244,0.01441
6.248,0.01265
6.252,0.01512
6.256,0.02747
6.26,0.01281
6.264,0.02767
6.268,0.02895
6.272,0.03957
6.276,0.03432
6.28,0.02075
6.284,0.03648
6.288,0.03239
6.292,0.03511
6.296,0.0084
6.3,0.02828
6.304,0.04784
6.308,0.00445
6.312,-0.00249
6.316,0.0441
6.32,0.00947
6.324,0.03802
6.328,0.02246
6.332,0.0353
6.336,0.0403
6.34,0.03334
6.344,0.01784
6.348,0.02562
6.352,0.03002
6.356,0.05404
6.36,-0.01547
6.364,0.05873
6.368,0.02762
6.372,0.01092
6.376,0.03062
6.38,0.00084
6.384,0.02268
6.388,0.02327
6.392,0.01433
6.396,0.02671
6.4,0.01379
6.404,0.02927
6.408,0.01763
6.412,0.04065
6.416,0.02635
6.42,0.01951
6.424,0.02953
6.428,0.01714
6.432,0.02993
6.436,0.02676
6.44,0.03226
6.444,0.01704
6.448,0.03631
6.452,0.0135
6.456,0.01381
6.46,0.00385
6.464,0.00554
6.468,0.03957
6.472,0.04757
6.476,0.04251
6.48,0.0278
6.484,0.03088
6.488,0.03531
6.492,0.02016
6.496,0.01259
6.5,0.0212
6.504,0.03341
6.508,0.06835
6.512,0.06014
6.516,0.0764
6.52,0.09481
6.524,0.12202
6.528,0.09224
6.532,0.13745
6.536,0.13974
6.54,0.10543
6.544,0.10644
6.548,0.13072
6.552,0.13635
6.556,0.0921
6.56,0.08639
6.564,0.08487
6.568,0.05466
6.572,0.03832
6.576,0.0567
6.58,0.04429
6.584,0.0038
6.588,0.04481
6.592,0.01653
6.596,0.02809
6.6,0.03397
6.604,0.03177
6.608,0.03997
6.612,0.0386
6.616,0.02368
6.62,0.01475
6.624,0.02375
6.628,0.01544
6.632,0.01795
6.636,0.02696
6.64,0.04588
6.644,-0.0061
6.648,0.01881
6.652,-0.02403
6.656,-0.00658
6.66,-0.03228
6.664,-0.09046
6.668,-0.1093
6.672,-0.02811
6.676,0.10626
6.68,0.27072
6.684,0.475
6.688,0.7341
6.692,0.8916
6.696,0.988
6.7,1.00528
6.704,0.91594
6.708,0.74527
6.712,0.52033
6.716,0.27959
6.72,0.08568
6.724,-0.07089
6.728,-0.10715
6.732,-0.13646
6.736,-0.1192
6.74,-0.07549
6.744,-0.04932
6.748,-0.00917
6.752,0.0119
6.756,0.03115
6.76,0.02568
6.764,0.03431
6.768,0.01803
6.772,0.02189
6.776,0.05223
6.78,0.03046
6.784,0.03248
6.788,0.03618
6.792,0.02756
6.796,0.02548
6.8,0.02019
6.804,0.01911
6.808,0.05197
6.812,0.00615
6.816,0.03835
6.82,0.07018
6.824,0.03662
6.828,0.0473
6.832,0.0467
6.836,0.00935
6.84,0.04075
6.844,0.03916
6.848,0.01677
6.852,0.02731
6.856,0.07313
6.86,0.05979
6.864,0.03249
6.868,0.04995
6.872,0.03195
6.876,0.05711
6.88,0.05542
6.884,0.03649
6.888,0.06848
6.892,0.06145
6.896,0.05947
6.9,0.09856
6.904,0.06663
6.908,0.10844
6.912,0.08804
6.916,0.09555
6.92,0.13284
6.924,0.15787
6.928,0.15584
6.932,0.15576
6.936,0.18419
6.94,0.18569
6.944,0.17624
6.948,0.20506
6.952,0.18938
6.956,0.22692
6.96,0.19716
6.964,0.24283
6.968,0.22313
6.972,0.25269
6.976,0.24735
6.98,0.26563
6.984,0.2589
6.988,0.25648
6.992,0.28073
6.996,0.2374
7.0,0.20953
7.004,0.21997
7.008,0.18929
7.012,0.18153
7.016,0.1957
7.02,0.18168
7.024,0.17294
7.028,0.14458
7.032,0.15693
7.036,0.13629
7.04,0.10175
7.044,0.12208
7.048,0.07884
7.052,0.11004
7.056,0.07464
7.06,0.06992
7.064,0.04457
7.068,0.08989
7.072,0.04302
7.076,0.03534
7.08,0.05148
7.084,0.04677
7.088,0.04147
7.092,0.02803
7.096,0.02704
7.1,0.02889
7.104,0.0316
7.108,0.04538
7.112,0.01872
7.116,0.04865
7.12,0.01826
7.124,0.04062
7.128,0.02031
7.132,0.0596
7.136,0.05547
7.14,0.01008
7.144,0.03213
7.148,0.02212
7.152,0.01181
7.156,0.03815
7.16,0.00696
7.164,0.03537
7.168,0.03695
7.172,0.03258
7.176,0.03654
7.18,0.01452
7.184,0.00961
7.188,0.046
7.192,0.04497
7.196,0.05704
7.2,0.01043
7.204,0.00882
7.208,0.01032
7.212,0.05808
7.216,0.0249
7.22,0.02247
7.224,0.00551
7.228,0.02959
7.232,0.01544
7.236,0.02735
7.24,0.03056
7.244,0.05136
7.248,0.03778
7.252,0.02408
7.256,0.01673
7.26,0.03409
7.264,0.07386
7.268,0.01008
7.272,0.03414
7.276,0.05414
7.28,0.00809
7.284,0.05859
7.288,0.01291
7.292,0.05336
7.296,0.06261
7.3,0.0352
7.304,0.05302
7.308,0.04062
7.312,0.08435
7.316,0.05747
7.32,0.08604
7.324,0.05957
7.328,0.11568
7.332,0.14999
7.336,0.13733
7.34,0.12064
7.344,0.11576
7.348,0.13673
7.352,0.08526
7.356,0.11858
7.36,0.09131
7.364,0.08614
7.368,0.09094
7.372,0.04704
7.376,0.04446
7.38,0.05244
7.384,0.03333
7.388,0.02461
7.392,0.03735
7.396,0.05208
7.4,0.02371
7.404,0.04266
7.408,0.03695
7.412,0.03899
7.416,0.02839
7.42,0.0362
7.424,0.00058
7.428,0.03799
7.432,0.02903
7.436,-0.00078
7.44,0.00899
7.444,0.05042
7.448,0.01549
7.452,0.027
7.456,-0.02405
7.46,-0.00207
7.464,-0.06119
7.468,-0.08011
7.472,-0.04792
7.476,0.00735
7.48,0.16353
7.484,0.35068
7.488,0.52816
7.492,0.76948
7.496,0.91898
7.5,1.01194
7.504,1.00332
7.508,0.88406
7.512,0.66241
7.516,0.42427
7.52,0.20642
7.524,0.04226
7.528,-0.07187
7.532,-0.11028
7.536,-0.13614
7.54,-0.11032
7.544,-0.04745
7.548,-0.02441
7.552,0.00703
7.556,0.05024
7.56,0.02659
7.564,0.02592
7.568,0.00295
7.572,0.04053
7.576,0.0127
7.58,0.03795
7.584,0.02474
7.588,0.02143
7.592,0.03123
7.596,0.0308
7.6,-0.00384
7.604,0.02387
7.608,0.0026
7.612,0.00794
7.616,0.04484
7.62,0.0228
7.624,0.05546
7.628,0.05414
7.632,0.03397
7.636,0.01904
7.64,0.0333
7.644,0.03071
7.648,0.0376
7.652,0.02028
7.656,0.06015
7.66,0.02416
7.664,0.03782
7.668,0.01916
7.672,0.06321
7.676,0.0273
7.68,0.03488
7.684,0.04878
7.688,0.06039
7.692,0.04508
7.696,0.08853
7.7,0.04241
7.704,0.07519
7.708,0.05319
7.712,0.09688
7.716,0.11323
7.72,0.11483
7.724,0.1107
7.728,0.12651
7.732,0.14582
7.736,0.16118
7.74,0.18485
7.744,0.18748
7.748,0.16838
7.752,0.20318
7.756,0.23336
7.76,0.20049
7.764,0.23071
7.768,0.21714
7.772,0.2259
7.776,0.24194
7.78,0.25128
7.784,0.22752
7.788,0.23812
7.792,0.25146
7.796,0.24739
7.8,0.22322
7.804,0.20379
7.808,0.19105
7.812,0.15776
7.816,0.15523
7.82,0.17871
7.824,0.13077
7.828,0.15207
7.832,0.12102
7.836,0.13977
7.84,0.10364
7.844,0.11335
7.848,0.07871
7.852,0.0709
7.856,0.05524
7.86,0.06664
7.864,0.07526
7.868,0.0683
7.872,0.0269
7.876,0.04361
7.88,0.03598
7.884,0.04897
7.888,-0.0041
7.892,0.01264
7.896,0.05215
7.9,0.03107
7.904,0.0182
7.908,0.03184
7.912,0.02185
7.916,0.02597
7.92,-0.0029
7.924,0.00992
7.928,0.00438
7.932,0.02581
7.936,0.03376
7.94,0.00766
7.944,0.02126
7.948,0.02023
7.952,0.01359
7.956,0.02672
7.96,0.01683
7.964,0.02403
7.968,0.02741
7.972,0.00857
7.976,0.01877
7.98,0.01647
7.984,0.00502
7.988,0.01046
7.992,0.00045
7.996,0.02347
8.0,0.03565
8.004,0.01605
8.008,0.01098
8.012,0.01645
8.016,0.03519
8.02,0.03288
8.024,0.03242
8.028,0.01402
8.032,0.01053
8.036,0.01679
8.04,0.01296
8.044,-0.00139
8.048,0.01279
8.052,0.01564
8.056,0.00594
8.06,0.0215
8.064,0.0009
8.068,0.02571
8.072,0.0377
8.076,0.01227
8.08,0.03171
8.084,0.00767
8.088,0.00787
8.092,0.0465
8.096,0.00962
8.1,0.03744
8.104,0.04208
8.108,0.02312
8.112,0.01055
8.116,0.01764
8.12,0.01206
8.124,0.01584
8.128,0.00386
8.132,0.01238
8.136,0.02073
8.14,0.02726
8.144,-0.009
8.148,0.03285
8.152,-0.0158
8.156,0.00083
8.16,-0.01096
8.164,0.02771
8.168,-0.00611
8.172,0.02421
8.176,0.04907
8.18,0.02169
8.184,0.00843
8.188,0.01172
8.192,0.0234
8.196,0.02681
8.2,0.00981
8.204,0.00132
8.208,0.01725
8.212,0.00779
8.216,-0.00391
8.22,0.00708
8.224,0.04267
8.228,0.0134
8.232,0.03116
8.236,0.03535
8.24,0.03292
8.244,0.04614
8.248,0.07868
8.252,0.06542
8.256,0.07468
8.26,0.08166
8.264,0.11108
8.268,0.11257
8.272,0.12141
8.276,0.10814
8.28,0.09999
8.284,0.07767
8.288,0.05483
8.292,0.06255
8.296,0.02475
8.3,0.04009
8.304,0.0502
8.308,0.00212
8.312,0.03664
8.316,-0.00024
8.32,0.02425
8.324,0.0279
8.328,-0.00399
8.332,0.02587
8.336,0.01442
8.34,0.01222
8.344,0.02453
8.348,-0.02282
8.352,0.01685
8.356,-0.00607
8.36,0.00147
8.364,0.00293
8.368,-0.02431
8.372,0.01607
8.376,0.00035
8.38,-0.01077
8.384,-0.01302
8.388,-0.03155
8.392,-0.07317
8.396,-0.11106
8.4,-0.11589
8.404,-0.07478
8.408,0.07052
8.412,0.20592
8.416,0.43178
8.42,0.65867
8.424,0.8528
8.428,0.97883
8.432,1.00672
8.436,0.92431
8.44,0.74405
8.444,0.51389
8.448,0.291
8.452,0.07872
8.456,-0.0808
8.46,-0.13809
8.464,-0.15869
8.468,-0.13179
8.472,-0.12743
8.476,-0.07509
8.48,-0.02374
8.484,-0.0009
8.488,0.01611
8.492,0.00639
8.496,0.0044
8.5,0.00973
8.504,-0.03034
8.508,0.02177
8.512,-0.0083
8.516,-0.01671
8.52,-0.00474
8.524,-0.00401
8.528,0.01354
8.532,0.00118
8.536,0.00489
8.54,0.00877
8.544,-0.00917
8.548,-0.00085
8.552,-0.02289
8.556,-0.00539
8.56,0.03202
8.564,0.00762
8.568,0.01083
8.572,-0.01917
8.576,0.00228
8.58,-0.00526
8.584,0.0075
8.588,0.04823
8.592,0.00204
8.596,-0.01517
8.6,0.00737
8.604,0.02192
8.608,0.02434
8.612,0.0121
8.616,0.01564
8.62,0.00378
8.624,0.01125
8.628,0.06578
8.632,0.03303
8.636,0.02208
8.64,0.07666
8.644,0.07338
8.648,0.078
8.652,0.08548
8.656,0.10045
8.66,0.12468
8.664,0.13893
8.668,0.13392
8.672,0.17155
8.676,0.16661
8.68,0.16262
8.684,0.16515
8.688,0.16936
8.692,0.18246
8.696,0.21811
8.7,0.21153
8.704,0.23186
8.708,0.20838
8.712,0.21697
8.716,0.18697
8.72,0.20539
8.724,0.19117
8.728,0.21138
8.732,0.19198
8.736,0.17639
8.74,0.16106
8.744,0.18547
8.748,0.14009
8.752,0.15847
8.756,0.10404
8.76,0.12524
8.764,0.08823
8.768,0.09687
8.772,0.08026
8.776,0.08384
8.78,0.06133
8.784,0.05825
8.788,0.05529
8.792,0.022
8.796,0.02112
8.8,0.02771
8.804,0.03033
8.808,0.00452
8.812,0.0065
8.816,-0.02257
8.82,0.00733
8.824,-0.00217
8.828,0.00693
8.832,-0.00213
8.836,0.02621
8.84,-0.04788
8.844,0.01639
8.848,-0.02343
8.852,0.00463
8.856,-0.01264
8.86,-0.00913
8.864,-0.03818
8.868,0.03364
8.872,0.00414
8.876,0.01252
8.88,-0.03009
8.884,0.0116
8.888,0.00232
8.892,-0.00831
8.896,0.00302
8.9,-0.00805
8.904,-0.03096
8.908,-0.00373
8.912,0.01018
8.916,-0.00754
8.92,0.00702
8.924,-0.01009
8.928,-0.00529
8.932,-0.0009
8.936,-0.00921
8.94,-0.0075
8.944,-0.03107
8.948,-0.03088
8.952,-0.01261
8.956,-0.01862
8.96,-0.02234
8.964,-0.01235
8.968,0.02085
8.972,-0.02264
8.976,-0.03258
8.98,-0.01091
8.984,-0.02142
8.988,-0.01157
8.992,-0.0253
8.996,-0.01267
9.0,0.01551
9.004,-0.03575
9.008,-0.01729
9.012,-0.00483
9.016,0.01322
9.02,-0.02349
9.024,-0.00583
9.028,0.00766
9.032,-0.02365
9.036,0.00487
9.04,-0.01809
9.044,-0.01429
9.048,0.0001
9.052,-0.01464
9.056,-0.02351
9.06,-0.02351
9.064,-0.02073
9.068,-0.0408
9.072,-0.01595
9.076,-0.00753
9.08,0.00211
9.084,-0.03767
9.088,-0.01773
9.092,-0.02138
9.096,-0.02404
9.1,-0.00647
9.104,-0.03526
9.108,-0.02456
9.112,-0.0025
9.116,0.00025
9.12,0.01267
9.124,0.02755
9.128,0.02889
9.132,0.0654
9.136,0.04003
9.14,0.07759
9.144,0.06637
9.148,0.07585
9.152,0.07856
9.156,0.08683
9.16,0.07396
9.164,0.07883
9.168,0.06412
9.172,0.03239
9.176,0.05022
9.18,0.03656
9.184,0.02188
9.188,-0.01207
9.192,0.00193
9.196,-0.00368
9.2,-0.01438
9.204,5e-05
9.208,-0.02218
9.212,-0.01851
9.216,-0.03341
9.22,0.01083
9.224,-0.01322
9.228,-0.02724
9.232,-0.02554
9.236,-0.02695
9.24,-0.01493
9.244,-0.0403
9.248,0.00192
9.252,-0.03249
9.256,-0.00596
9.26,-0.03526
9.264,-0.02956
9.268,-0.05141
9.272,-0.05927
9.276,-0.11698
9.28,-0.12683
9.284,-0.14637
9.288,-0.03773
9.292,0.0956
9.296,0.25
9.3,0.47513
9.304,0.70318
9.308,0.83323
9.312,0.96115
9.316,0.97052
9.32,0.84029
9.324,0.64649
9.328,0.42022
9.332,0.21003
9.336,0.01327
9.34,-0.09845
9.344,-0.1468
9.348,-0.19845
9.352,-0.16533
9.356,-0.1116
9.36,-0.08895
9.364,-0.05865
9.368,-0.03943
9.372,-0.0188
9.376,-0.00344
9.38,-0.0037
9.384,-0.01422
9.388,-0.04349
9.392,-0.0322
9.396,-0.02369
9.4,-0.03586
9.404,0.00771
9.408,-0.01223
9.412,-0.03279
9.416,-0.02087
9.42,-0.00088
9.424,-0.03591
9.428,-0.03126
9.432,-0.02404
9.436,-0.01255
9.44,-0.01562
9.444,-0.01301
9.448,-0.02988
9.452,-0.02786
9.456,-0.03783
9.46,-0.03218
9.464,-0.02571
9.468,-0.02349
9.472,-0.04849
9.476,0.00191
9.48,-0.01988
9.484,-0.02332
9.488,-0.02395
9.492,-0.02651
9.496,-0.04373
9.5,-0.02474
9.504,0.02101
9.508,0.01802
9.512,0.02958
9.516,0.03434
9.52,0.04689
9.524,0.03122
9.528,0.04807
9.532,0.06985
9.536,0.05404
9.54,0.1098
9.544,0.08574
9.548,0.10585
9.552,0.10672
9.556,0.13934
9.56,0.17694
9.564,0.14173
9.568,0.17492
9.572,0.16458
9.576,0.17896
9.58,0.18474
9.584,0.15338
9.588,0.20144
9.592,0.18119
9.596,0.17502
9.6,0.18892
9.604,0.1807
9.608,0.18463
9.612,0.2185
9.616,0.20985
9.62,0.15283
9.624,0.15604
9.628,0.14952
9.632,0.13212
9.636,0.10247
9.64,0.13544
9.644,0.08293
9.648,0.09107
9.652,0.01283
9.656,0.06233
9.66,0.03092
9.664,0.0366
9.668,-0.00668
9.672,0.01463
9.676,-0.00332
9.68,0.00698
9.684,-0.0112
9.688,-0.00203
9.692,0.01039
9.696,0.01146
9.7,-0.02096
9.704,-0.02435
9.708,-0.03138
9.712,-0.02436
9.716,0.006
9.72,-0.01693
9.724,-0.03875
9.728,-0.03852
9.732,-0.01993
9.736,-0.01707
9.74,-0.04339
9.744,-0.01202
9.748,-0.05352
9.752,-0.02885
9.756,-0.01243
9.76,-0.03623
9.764,-0.03326
9.768,-0.01885
9.772,-0.03091
9.776,-0.04155
9.78,-0.02881
9.784,-0.03721
9.788,-0.01925
9.792,-0.03137
9.796,-0.03875
9.8,-0.04601
9.804,-0.02238
9.808,-0.05979
9.812,0.00329
9.816,-0.02355
9.82,-0.05383
9.824,-0.06356
9.828,-0.04041
9.832,0.00892
9.836,-0.03542
9.84,-0.00662
9.844,-0.02517
9.848,-0.05102
9.852,-0.02102
9.856,-0.00474
9.86,-0.01973
9.864,-0.01746
9.868,-0.03288
9.872,-0.03427
9.876,-0.00559
9.88,-0.01866
9.884,-0.04595
9.888,-0.05699
9.892,-0.03501
9.896,-0.02731
9.9,-0.00031
9.904,-0.02819
9.908,-0.01373
9.912,-0.02859
9.916,-0.03019
9.92,-0.02042
9.924,-0.02283
9.928,-0.01375
9.932,-0.02585
9.936,-0.0632
9.94,-0.01307
9.944,-0.03684
9.948,-0.01853
9.952,-0.02678
9.956,-0.05234
9.96,-0.01423
9.964,-0.03002
9.968,-0.01505
9.972,-0.0285
9.976,-0.04891
9.98,-0.03517
9.984,-0.01657
9.988,-0.04597
9.992,-0.01869
9.996,-0.04416
