t_seg,ecg_mV
0.0,0.02239
0.004,0.03447
0.008,0.06962
0.012,0.05994
0.016,0.06114
0.02,0.06282
0.024,0.07393
0.028,0.11511
0.032,0.08717
0.036,0.09888
0.04,0.09225
0.044,0.06346
0.048,0.05536
0.052,0.02715
0.056,-0.00105
0.06,0.01621
0.064,-0.00524
0.068,0.00478
0.072,0.00401
0.076,-0.00877
0.08,-0.01318
0.084,0.02464
0.088,-0.04135
0.092,-0.00457
0.096,-0.0319
0.1,-0.01627
0.104,-0.02822
0.108,-0.00347
0.112,-0.01456
0.116,-0.0039
0.12,0.01436
0.124,-0.01207
0.128,-0.01933
0.132,-0.01754
0.136,-0.01763
0.14,-0.04383
0.144,-0.02572
0.148,-0.05828
0.152,-0.12265
0.156,-0.123
0.16,-0.09795
0.164,-0.04978
0.168,0.10064
0.172,0.31433
0.176,0.52668
0.18,0.73882
0.184,0.92643
0.188,0.97213
0.192,0.93845
0.196,0.81289
0.2,0.62383
0.204,0.36502
0.208,0.18659
0.212,-0.06432
0.216,-0.14938
0.22,-0.19585
0.224,-0.17885
0.228,-0.15058
0.232,-0.14635
0.236,-0.05781
0.24,-0.04229
0.244,-0.00755
0.248,-0.01783
0.252,-0.00318
0.256,-0.02107
0.26,0.00013
0.264,-0.04642
0.268,-0.00958
0.272,-0.0361
0.276,-0.02551
0.28,-0.03444
0.284,-0.02908
0.288,-0.02761
0.292,-0.01787
0.296,-0.02567
0.3,-0.02913
0.304,-0.03248
0.308,-0.03571
0.312,-0.02391
0.316,-0.01246
0.32,-0.03647
0.324,-0.01707
0.328,0.00856
0.332,-0.02163
0.336,-0.03571
0.34,-0.04464
0.344,-0.01571
0.348,-0.02573
0.352,-0.01337
0.356,-0.01746
0.36,0.00435
0.364,-0.00921
0.368,-0.00848
0.372,-0.01235
0.376,0.03697
0.38,-0.04281
0.384,-0.00934
0.388,0.03058
0.392,0.02589
0.396,0.04038
0.4,0.02811
0.404,0.05766
0.408,0.05272
0.412,0.07952
0.416,0.06146
0.42,0.08559
0.424,0.12007
0.428,0.14228
0.432,0.16551
0.436,0.12912
0.44,0.13664
0.444,0.18232
0.448,0.18009
0.452,0.19856
0.456,0.17749
0.46,0.22394
0.464,0.19349
0.468,0.18722
0.472,0.19744
0.476,0.19217
0.48,0.17932
0.484,0.19969
0.488,0.1689
0.492,0.15447
0.496,0.14139
0.5,0.15744
0.504,0.1508
0.508,0.15926
0.512,0.11557
0.516,0.11661
0.52,0.09144
0.524,0.06188
0.528,0.04644
0.532,0.0783
0.536,0.06542
0.54,0.04926
0.544,0.0388
0.548,0.01587
0.552,-0.00533
0.556,0.01978
0.56,-0.00293
0.564,0.00817
0.568,-0.01143
0.572,-0.00017
0.576,-0.01808
0.58,-0.00104
0.584,0.01007
0.588,-0.01786
0.592,-0.00249
0.596,-0.02641
0.6,-0.00923
0.604,-0.02359
0.608,-0.01469
0.612,-0.01624
0.616,-0.03385
0.62,-0.03178
0.624,-0.01124
0.628,-0.019
0.632,-0.02679
0.636,-0.0303
0.64,-0.00063
0.644,-0.02966
0.648,-0.02195
0.652,-0.03987
0.656,-0.03785
0.66,-0.02807
0.664,-0.04017
0.668,-0.02639
0.672,-0.01036
0.676,-0.01726
0.68,-0.02098
0.684,-0.00852
0.688,-0.035
0.692,-0.01091
0.696,-0.0245
0.7,-0.04688
0.704,-0.0386
0.708,0.00875
0.712,-0.03041
0.716,-0.02362
0.72,-0.02396
0.724,-0.03458
0.728,-0.00517
0.732,-0.02278
0.736,-0.00621
0.74,-0.01429
0.744,-0.02275
0.748,0.00788
0.752,0.03689
0.756,0.0353
0.76,0.04117
0.764,0.02867
0.768,0.06602
0.772,0.07428
0.776,0.07711
0.78,0.08325
0.784,0.0648
0.788,0.05022
0.792,0.07714
0.796,0.04678
0.8,0.03574
0.804,0.03235
0.808,0.00822
0.812,-0.02091
0.816,0.00518
0.82,-0.00014
0.824,-0.0036
0.828,-0.02442
0.832,-0.03882
0.836,-0.01703
0.84,-0.01099
0.844,-0.03571
0.848,-0.0111
0.852,-0.01698
0.856,-0.01639
0.86,-0.0466
0.864,-0.02982
0.868,-0.00796
0.872,-0.03255
0.876,0.005
0.88,-0.02051
0.884,0.01056
0.888,-0.04205
0.892,-0.03649
0.896,-0.06247
0.9,-0.09765
0.904,-0.13177
0.908,-0.13867
0.912,-0.10953
0.916,0.01187
0.92,0.14976
0.924,0.33047
0.928,0.57725
0.932,0.7461
0.936,0.92058
0.94,0.95855
0.944,0.91202
0.948,0.75976
0.952,0.54952
0.956,0.30666
0.96,0.10733
0.964,-0.09743
0.968,-0.18448
0.972,-0.19546
0.976,-0.18264
0.98,-0.15781
0.984,-0.10509
0.988,-0.04583
0.992,-0.02593
0.996,-0.0362
1.0,-0.03108
1.004,-0.02875
1.008,-0.03351
1.012,-0.04472
1.016,-0.01172
1.02,-0.0406
1.024,-0.03591
1.028,-0.01961
1.032,-0.06484
1.036,-0.04098
1.04,-0.06348
1.044,-0.05307
1.048,0.00655
1.052,-0.03403
1.056,-0.05089
1.06,-0.02858
1.064,-0.04078
1.068,-0.0124
1.072,-0.04939
1.076,-0.03826
1.08,-0.04879
1.084,-0.02443
1.088,0.00277
1.092,-0.01599
1.096,-0.02462
1.1,-0.02159
1.104,0.00178
1.108,-0.0272
1.112,-0.01405
1.116,-0.02343
1.12,-0.02208
1.124,0.01391
1.128,0.00194
1.132,0.00778
1.136,0.00357
1.14,0.02171
1.144,0.02169
1.148,0.00393
1.152,0.02848
1.156,0.0744
1.16,0.02884
1.164,0.077
1.168,0.0767
1.172,0.0974
1.176,0.07243
1.18,0.11304
1.184,0.14193
1.188,0.14534
1.192,0.16586
1.196,0.15417
1.2,0.16907
1.204,0.15915
1.208,0.19315
1.212,0.21317
1.216,0.17804
1.22,0.17769
1.224,0.18465
1.228,0.17946
1.232,0.2006
1.236,0.17075
1.24,0.14831
1.244,0.18803
1.248,0.14611
1.252,0.14972
1.256,0.1148
1.26,0.12369
1.264,0.10448
1.268,0.06941
1.272,0.06085
1.276,0.06845
1.28,0.07093
1.284,0.03553
1.288,0.05636
1.292,0.02273
1.296,0.00844
1.3,0.01231
1.304,0.0014
1.308,-0.00243
1.312,0.01595
1.316,-0.00579
1.32,-0.02252
1.324,-0.03244
1.328,-0.01967
1.332,-0.02729
1.336,-0.02684
1.34,-0.01497
1.344,-0.02116
1.348,-0.02102
1.352,-0.01025
1.356,-0.03758
1.36,-0.00329
1.364,-0.02754
1.368,-0.03471
1.372,-0.03626
1.376,-0.02662
1.38,-0.01344
1.384,-0.0415
1.388,-0.02177
1.392,-0.02396
1.396,-0.03451
1.4,-0.04786
1.404,-0.02635
1.408,-0.0339
1.412,-0.01199
1.416,-0.0339
1.42,-0.02305
1.424,-0.02479
1.428,-0.0128
1.432,-0.00798
1.436,-0.01995
1.44,-0.0304
1.444,-0.03258
1.448,-0.01306
1.452,-0.04411
1.456,-0.02187
1.46,-0.04322
1.464,-0.01122
1.468,-0.03958
1.472,-0.03536
1.476,-0.03236
1.48,-0.03582
1.484,-0.01983
1.488,-0.04718
1.492,-0.02341
1.496,-0.05085
1.5,-0.03712
1.504,-0.0182
1.508,-0.01251
1.512,-0.03121
1.516,-0.04165
1.52,-0.04488
1.524,-0.02756
1.528,-0.00691
1.532,-0.04954
1.536,-0.018
1.54,-0.05799
1.544,-0.04521
1.548,-0.0397
1.552,-0.02861
1.556,-0.03301
1.56,-0.01369
1.564,-0.02418
1.568,-0.01556
1.572,-0.02495
1.576,-0.03221
1.58,-0.01633
1.584,-0.03724
1.588,-0.003
1.592,-0.03609
1.596,-0.02121
1.6,-0.03466
1.604,-0.0304
1.608,-0.0053
1.612,-0.03386
1.616,-0.02159
1.62,-0.02196
1.624,-0.02401
1.628,-0.03189
1.632,-0.00633
1.636,-0.02533
1.64,-0.01994
1.644,-0.03535
1.648,-0.03968
1.652,-0.04251
1.656,-0.03165
1.66,-0.00825
1.664,0.01309
1.668,-0.04535
1.672,0.00026
1.676,-0.01347
1.68,-0.02277
1.684,-0.01878
1.688,-0.03586
1.692,-0.01858
1.696,-0.01462
1.7,-0.04133
1.704,-0.02423
1.708,-0.04622
1.712,-0.00724
1.716,-0.02328
1.72,-0.02249
1.724,-0.01271
1.728,-0.00498
1.732,0.00841
1.736,-0.01488
1.74,-0.03103
1.744,-0.0299
1.748,-0.00441
1.752,-0.02736
1.756,-0.02501
1.76,-0.06374
1.764,-0.02799
1.768,-0.04135
1.772,-0.05331
1.776,-0.02865
1.78,-0.00396
1.784,-0.03498
1.788,-0.04243
1.792,-0.05924
1.796,-0.00404
1.8,-0.0384
1.804,-0.02381
1.808,-0.02335
1.812,-0.03333
1.816,-0.01418
1.82,-0.00048
1.824,-0.02443
1.828,-0.00877
1.832,0.00852
1.836,-0.03251
1.84,0.00148
1.844,-0.01288
1.848,0.00841
1.852,-0.01352
1.856,-0.01568
1.86,-0.02314
1.864,-0.03173
1.868,-0.01712
1.872,-0.05308
1.876,-0.03059
1.88,-0.03188
1.884,-0.03516
1.888,-0.02844
1.892,-0.0356
1.896,-0.01598
1.9,0.00649
1.904,-0.01272
1.908,-0.03271
1.912,0.00745
1.916,-0.01196
1.92,-0.02987
1.924,-0.03746
1.928,-0.00934
1.932,-0.02685
1.936,-0.03481
1.94,-0.01617
1.944,-0.02549
1.948,0.0177
1.952,-0.03664
1.956,-0.0331
1.96,0.00501
1.964,0.01431
1.968,0.01608
1.972,0.04669
1.976,0.03319
1.98,0.04984
1.984,0.06179
1.988,0.07331
1.992,0.06534
1.996,0.03801
2.0,0.06639
2.004,0.07572
2.008,0.07537
2.012,0.03349
2.016,0.03485
2.02,0.01498
2.024,-0.00109
2.028,0.00342
2.032,-0.02776
2.036,-0.01713
2.04,-0.02916
2.044,-0.00287
2.048,-0.01565
2.052,-0.03837
2.056,-0.0338
2.06,-0.0467
2.064,-0.05426
2.068,-0.03627
2.072,-0.00443
2.076,-0.00311
2.08,-0.00653
2.084,-0.02918
2.088,-0.0116
2.092,0.00364
2.096,-0.02313
2.1,-0.05304
2.104,-0.03125
2.108,-0.0591
2.112,-0.08514
2.116,-0.13515
2.12,-0.12418
2.124,-0.12233
2.128,0.01052
2.132,0.13151
2.136,0.34559
2.14,0.55577
2.144,0.76921
2.148,0.92649
2.152,0.97667
2.156,0.92045
2.16,0.78485
2.164,0.55401
2.168,0.36013
2.172,0.12612
2.176,-0.03592
2.18,-0.15464
2.184,-0.16758
2.188,-0.17707
2.192,-0.12347
2.196,-0.08248
2.2,-0.05917
2.204,-0.04692
2.208,-0.03471
2.212,-0.02836
2.216,-0.03223
2.22,-0.01637
2.224,-0.02043
2.228,-0.01896
2.232,-0.01113
2.236,0.00778
2.24,-0.01371
2.244,-0.04053
2.248,-0.01912
2.252,-0.00968
2.256,-0.00709
2.26,-0.02116
2.264,-0.02225
2.268,-0.03422
2.272,-0.01944
2.276,-0.03821
2.28,0.00757
2.284,-0.01403
2.288,-0.03265
2.292,-0.00365
2.296,-0.01338
2.3,-0.01685
2.304,0.00344
2.308,-0.02157
2.312,-0.00942
2.316,0.0125
2.32,0.00042
2.324,-0.02194
2.328,-0.01423
2.332,-0.00235
2.336,0.02768
2.34,0.01211
2.344,0.01376
2.348,0.02178
2.352,0.02999
2.356,0.02756
2.36,0.04901
2.364,0.07698
2.368,0.05791
2.372,0.09078
2.376,0.07966
2.38,0.10513
2.384,0.12459
2.388,0.10473
2.392,0.11983
2.396,0.1447
2.4,0.16298
2.404,0.16932
2.408,0.18433
2.412,0.17684
2.416,0.22651
2.42,0.18625
2.424,0.23109
2.428,0.23262
2.432,0.20769
2.436,0.20932
2.44,0.19639
2.444,0.19354
2.448,0.2226
2.452,0.1644
2.456,0.16679
2.46,0.15665
2.464,0.15301
2.468,0.14047
2.472,0.12383
2.476,0.12431
2.48,0.1234
2.484,0.10321
2.488,0.09606
2.492,0.0793
2.496,0.04209
2.5,0.09622
2.504,0.03141
2.508,0.04261
2.512,0.02418
2.516,0.01611
2.52,0.03837
2.524,0.0482
2.528,0.0056
2.532,0.00644
2.536,0.00984
2.54,0.04199
2.544,-0.00903
2.548,-0.03429
2.552,-0.0189
2.556,0.01617
2.56,-0.01956
2.564,-0.01428
2.568,-0.00708
2.572,0.01058
2.576,-0.00874
2.58,0.0212
2.584,-0.0023
2.588,0.00349
2.592,0.01073
2.596,0.00763
2.6,0.00285
2.604,-0.02754
2.608,0.00746
2.612,0.01593
2.616,0.00123
2.62,0.00599
2.624,0.00709
2.628,0.00812
2.632,-0.02201
2.636,0.00927
2.64,-0.00876
2.644,0.00472
2.648,-0.02254
2.652,-0.02108
2.656,-0.00015
2.66,0.01654
2.664,-0.00599
2.668,-0.01495
2.672,0.00301
2.676,-0.00309
2.68,-0.00921
2.684,-0.01079
2.688,-0.01807
2.692,-0.00489
2.696,0.01786
2.7,-0.01084
2.704,0.0151
2.708,0.02451
2.712,-0.02254
2.716,0.02974
2.72,0.00171
2.724,0.00047
2.728,0.00483
2.732,-0.01134
2.736,-0.0139
2.74,0.00938
2.744,-0.00557
2.748,0.01716
2.752,-0.00245
2.756,-0.0171
2.76,-0.00349
2.764,-0.0255
2.768,-0.01936
2.772,0.00877
2.776,-0.00931
2.78,0.01503
2.784,-0.00816
2.788,0.0141
2.792,0.03701
2.796,0.004
2.8,0.05116
2.804,0.05082
2.808,0.0803
2.812,0.09217
2.816,0.11241
2.82,0.08063
2.824,0.11986
2.828,0.1073
2.832,0.07851
2.836,0.05844
2.84,0.07836
2.844,0.05744
2.848,0.04824
2.852,0.02461
2.856,0.00181
2.86,0.03041
2.864,0.03161
2.868,-0.00218
2.872,-0.02784
2.876,0.01705
2.88,0.02587
2.884,-0.01072
2.888,0.00117
2.892,-0.01674
2.896,-0.01417
2.9,-0.00332
2.904,-0.01721
2.908,-0.01387
2.912,0.00119
2.916,0.00593
2.92,-0.02908
2.924,-0.00193
2.928,0.01303
2.932,-0.02056
2.936,-0.00176
2.94,-0.00519
2.944,-0.05824
2.948,-0.06145
2.952,-0.12313
2.956,-0.11054
2.96,-0.05199
2.964,0.0636
2.968,0.23315
2.972,0.44807
2.976,0.66955
2.98,0.85293
2.984,0.9691
2.988,1.00201
2.992,0.91602
2.996,0.71399
3.0,0.50175
3.004,0.28788
3.008,0.07127
3.012,-0.06763
3.016,-0.14988
3.02,-0.15079
3.024,-0.14781
3.028,-0.09736
3.032,-0.05471
3.036,-0.02285
3.04,-0.00619
3.044,-0.00293
3.048,0.03726
3.052,-0.02394
3.056,0.01528
3.06,-0.01033
3.064,-0.0249
3.068,0.0247
3.072,-0.00279
3.076,-0.01883
3.08,0.03323
3.084,0.00793
3.088,0.02079
3.092,0.00176
3.096,0.01616
3.1,0.00666
3.104,0.00529
3.108,0.00291
3.112,0.01265
3.116,0.02968
3.12,0.00328
3.124,0.01043
3.128,-0.00422
3.132,0.01664
3.136,0.01663
3.14,0.0191
3.144,0.00033
3.148,0.00757
3.152,-0.01495
3.156,0.02201
3.16,0.01063
3.164,0.02478
3.168,0.03415
3.172,0.0155
3.176,0.03276
3.18,0.04375
3.184,0.04521
3.188,0.07192
3.192,0.04626
3.196,0.07254
3.2,0.06922
3.204,0.08622
3.208,0.06965
3.212,0.09522
3.216,0.09329
3.22,0.1563
3.224,0.17252
3.228,0.15429
3.232,0.15654
3.236,0.20976
3.24,0.17279
3.244,0.23976
3.248,0.20631
3.252,0.20094
3.256,0.23451
3.26,0.22866
3.264,0.21367
3.268,0.23615
3.272,0.22328
3.276,0.21007
3.28,0.22869
3.284,0.23485
3.288,0.19791
3.292,0.20055
3.296,0.20293
3.3,0.19412
3.304,0.16093
3.308,0.15713
3.312,0.14201
3.316,0.15256
3.32,0.12406
3.324,0.10443
3.328,0.11039
3.332,0.0779
3.336,0.08127
3.34,0.05243
3.344,0.0757
3.348,0.04917
3.352,0.049
3.356,0.04073
3.36,0.03978
3.364,0.04206
3.368,-0.00397
3.372,0.03338
3.376,0.02912
3.38,0.01707
3.384,0.0325
3.388,0.03003
3.392,-0.01171
3.396,0.0062
3.4,0.02353
3.404,0.02541
3.408,0.00111
3.412,0.02604
3.416,0.01855
3.42,0.03489
3.424,0.01699
3.428,0.01087
3.432,-0.01131
3.436,0.02169
3.44,0.01927
3.444,0.01764
3.448,0.05585
3.452,0.02921
3.456,-0.00499
3.46,0.00165
3.464,-0.00556
3.468,0.02295
3.472,0.02403
3.476,0.01973
3.48,0.02351
3.484,0.01305
3.488,0.01953
3.492,0.0206
3.496,0.02082
3.5,0.01298
3.504,-0.00158
3.508,0.01033
3.512,-0.01662
3.516,0.01968
3.52,-0.00379
3.524,0.04623
3.528,0.02136
3.532,0.01694
3.536,0.01461
3.54,0.02382
3.544,-0.00109
3.548,-0.01381
3.552,0.00052
3.556,0.01541
3.56,0.02202
3.564,-0.00195
3.568,0.03364
3.572,0.01793
3.576,0.00446
3.58,0.02654
3.584,0.0413
3.588,0.02391
3.592,0.0254
3.596,0.00106
3.6,0.00472
3.604,0.04759
3.608,0.0341
3.612,0.02568
3.616,0.01063
3.62,0.03576
3.624,-0.01141
3.628,0.01528
3.632,0.01646
3.636,0.01623
3.64,0.01246
3.644,0.05904
3.648,0.02258
3.652,0.02469
3.656,0.00984
3.66,0.03947
3.664,0.0187
3.668,0.01831
3.672,0.01576
3.676,0.02362
3.68,0.03072
3.684,0.00052
3.688,0.05077
3.692,0.00499
3.696,0.00449
3.7,0.0081
3.704,0.03911
3.708,0.04075
3.712,0.04903
3.716,0.01188
3.72,0.04702
3.724,0.04578
3.728,0.0601
3.732,0.05385
3.736,0.09439
3.74,0.0668
3.744,0.10717
3.748,0.09044
3.752,0.14383
3.756,0.12971
3.76,0.10987
3.764,0.11497
3.768,0.10257
3.772,0.10996
3.776,0.1019
3.78,0.10108
3.784,0.10276
3.788,0.0711
3.792,0.06105
3.796,0.02582
3.8,0.04715
3.804,0.03565
3.808,0.02727
3.812,0.04895
3.816,0.04545
3.82,0.02474
3.824,0.01947
3.828,0.03335
3.832,0.0101
3.836,0.02957
3.84,0.03398
3.844,0.02215
3.848,0.04412
3.852,0.03723
3.856,0.05109
3.86,0.05247
3.864,0.04054
3.868,0.03493
3.872,-0.00036
3.876,-4e-05
3.88,-0.04125
3.884,-0.0422
3.888,-0.11382
3.892,-0.06941
3.896,0.00786
3.9,0.16591
3.904,0.3576
3.908,0.56092
3.912,0.74583
3.916,0.91695
3.92,1.03043
3.924,1.01844
3.928,0.86428
3.932,0.66546
3.936,0.41639
3.94,0.21043
3.944,0.08308
3.948,-0.07245
3.952,-0.12084
3.956,-0.12423
3.96,-0.12956
3.964,-0.02768
3.968,-0.01302
3.972,-0.01173
3.976,0.02259
3.98,0.03326
3.984,0.0388
3.988,0.01436
3.992,0.04743
3.996,0.00652
4.0,0.03823
4.004,0.01903
4.008,0.02726
4.012,0.03971
4.016,0.06385
4.02,0.01358
4.024,-0.00487
4.028,0.03023
4.032,0.04884
4.036,0.00859
4.04,0.04477
4.044,0.04799
4.048,0.02499
4.052,0.01757
4.056,0.03754
4.06,0.01674
4.064,0.02756
4.068,0.00101
4.072,0.00048
4.076,0.05077
4.08,0.03695
4.084,0.02795
4.088,0.03396
4.092,0.03646
4.096,0.04727
4.1,0.03718
4.104,0.06638
4.108,0.01749
4.112,0.0243
4.116,0.04058
4.12,0.04792
4.124,0.08855
4.128,0.09999
4.132,0.09447
4.136,0.08659
4.14,0.11819
4.144,0.12567
4.148,0.14692
4.152,0.15412
4.156,0.13531
4.16,0.17362
4.164,0.18331
4.168,0.22128
4.172,0.20294
4.176,0.21453
4.18,0.22488
4.184,0.2256
4.188,0.23546
4.192,0.21697
4.196,0.24253
4.2,0.23505
4.204,0.22892
4.208,0.21476
4.212,0.2309
4.216,0.25704
4.22,0.22682
4.224,0.23608
4.228,0.22148
4.232,0.18755
4.236,0.20225
4.24,0.20354
4.244,0.16957
4.248,0.13552
4.252,0.14863
4.256,0.14498
4.26,0.1417
4.264,0.12709
4.268,0.09029
4.272,0.11187
4.276,0.07099
4.28,0.04993
4.284,0.08242
4.288,0.09179
4.292,0.06711
4.296,0.04377
4.3,0.03332
4.304,0.0446
4.308,0.05936
4.312,0.01238
4.316,0.02371
4.32,0.04975
4.324,0.01139
4.328,0.02101
4.332,0.02759
4.336,0.01776
4.34,0.02932
4.344,0.02537
4.348,0.01158
4.352,0.01032
4.356,0.02345
4.36,0.00177
4.364,0.03563
4.368,0.03573
4.372,0.04953
4.376,0.02931
4.38,0.01842
4.384,0.04916
4.388,0.02868
4.392,0.03271
4.396,0.0378
4.4,0.06472
4.404,0.05871
4.408,0.01579
4.412,0.02067
4.416,0.0196
4.42,0.01343
4.424,0.04829
4.428,0.03958
4.432,0.03023
4.436,0.03094
4.44,0.02858
4.444,0.03182
4.448,-9e-05
4.452,0.01272
4.456,0.06748
4.46,0.02713
4.464,0.01674
4.468,0.04846
4.472,0.03849
4.476,0.01298
4.48,0.03431
4.484,0.01437
4.488,0.04708
4.492,0.01915
4.496,0.02775
4.5,0.04371
4.504,0.03555
4.508,0.03561
4.512,0.04744
4.516,0.03137
4.52,0.04116
4.524,0.03576
4.528,0.01972
4.532,0.0449
4.536,0.027
4.54,0.02373
4.544,0.036
4.548,0.0291
4.552,0.03857
4.556,0.04872
4.56,0.04759
4.564,0.02871
4.568,0.0276
4.572,0.0376
4.576,0.00482
4.58,0.0445
4.584,0.00519
4.588,0.0274
4.592,0.0488
4.596,0.02767
4.6,0.0411
4.604,0.03255
4.608,0.03972
4.612,0.02994
4.616,0.03932
4.62,0.01071
4.624,0.03361
4.628,0.02761
4.632,0.02472
4.636,0.03793
4.64,0.02763
4.644,0.03679
4.648,0.03996
4.652,0.02847
4.656,0.02816
4.66,0.01418
4.664,0.04105
4.668,0.02033
4.672,0.04414
4.676,0.03676
4.68,0.03518
4.684,0.00308
4.688,0.02725
4.692,0.01612
4.696,0.06072
4.7,-0.00433
4.704,0.02743
4.708,0.03462
4.712,0.01692
4.716,-0.01073
4.72,0.00953
4.724,0.01839
4.728,0.02785
4.732,0.04608
4.736,0.00913
4.74,0.05082
4.744,0.01158
4.748,0.0007
4.752,0.02012
4.756,0.01625
4.76,0.01964
4.764,0.05435
4.768,0.0507
4.772,0.01747
4.776,0.01252
4.78,0.05543
4.784,0.00911
4.788,0.05289
4.792,0.07132
4.796,0.02924
4.8,0.05487
4.804,0.05779
4.808,0.04312
4.812,0.07156
4.816,0.07832
4.82,0.0552
4.824,0.08638
4.828,0.09134
4.832,0.11145
4.836,0.11407
4.84,0.12611
4.844,0.13059
4.848,0.12691
4.852,0.10661
4.856,0.1291
4.86,0.10814
4.864,0.09874
4.868,0.067
4.872,0.08676
4.876,0.0526
4.88,0.05591
4.884,0.05529
4.888,0.05294
4.892,0.0134
4.896,0.04186
4.9,0.04231
4.904,0.02564
4.908,0.0176
4.912,0.02344
4.916,0.06739
4.92,0.01697
4.924,0.03812
4.928,0.01215
4.932,0.00318
4.936,0.02518
4.94,0.02548
4.944,0.01736
4.948,0.0
4.952,0.04117
4.956,0.01256
4.96,0.01045
4.964,-0.0469
4.968,-0.07984
4.972,-0.10091
4.976,-0.05358
4.98,0.08589
4.984,0.22085
4.988,0.43341
4.992,0.66869
4.996,0.84753
5.0,0.9846
5.004,1.00502
5.008,0.94019
5.012,0.79591
5.016,0.56759
5.02,0.34146
5.024,0.14495
5.028,-0.03204
5.032,-0.10824
5.036,-0.15661
5.04,-0.12862
5.044,-0.07468
5.048,-0.02381
5.052,-0.0267
5.056,0.02175
5.06,0.00921
5.064,0.0109
5.068,0.01214
5.072,0.04233
5.076,0.02011
5.08,-0.00417
5.084,0.00712
5.088,0.03486
5.092,0.04052
5.096,0.04052
5.1,0.03886
5.104,0.02233
5.108,0.00221
5.112,0.0326
5.116,0.03373
5.12,0.00329
5.124,0.04951
5.128,-0.00089
5.132,0.02921
5.136,0.00878
5.14,0.02227
5.144,0.00393
5.148,0.05383
5.152,0.02316
5.156,0.04372
5.16,0.02644
5.164,0.03591
5.168,0.04118
5.172,0.03545
5.176,0.04464
5.18,0.04645
5.184,0.04827
5.188,0.03748
5.192,0.02221
5.196,0.06774
5.2,0.06907
5.204,0.04501
5.208,0.05774
5.212,0.1039
5.216,0.11003
5.22,0.09911
5.224,0.11553
5.228,0.10828
5.232,0.11429
5.236,0.17993
5.24,0.18229
5.244,0.17368
5.248,0.17224
5.252,0.20363
5.256,0.18339
5.26,0.21488
5.264,0.21276
5.268,0.23957
5.272,0.24921
5.276,0.23789
5.28,0.19925
5.284,0.22807
5.288,0.23972
5.292,0.22192
5.296,0.24175
5.3,0.20538
5.304,0.22959
5.308,0.19401
5.312,0.18098
5.316,0.22184
5.32,0.14982
5.324,0.16007
5.328,0.15264
5.332,0.13363
5.336,0.12408
5.34,0.1225
5.344,0.10371
5.348,0.09651
5.352,0.09072
5.356,0.07457
5.36,0.07503
5.364,0.05983
5.368,0.0917
5.372,0.07258
5.376,0.05371
5.38,0.03354
5.384,0.04914
5.388,0.03775
5.392,0.03549
5.396,0.03554
5.4,0.04445
5.404,0.02223
5.408,0.03781
5.412,0.00264
5.416,0.02957
5.42,0.0334
5.424,0.00145
5.428,0.01017
5.432,0.02478
5.436,0.05178
5.44,0.04803
5.444,-0.01223
5.448,0.02614
5.452,-0.007
5.456,0.01424
5.46,-0.03438
5.464,0.01196
5.468,0.02034
5.472,-0.01199
5.476,-0.00772
5.48,0.05883
5.484,0.02168
5.488,0.0181
5.492,0.00401
5.496,0.01987
5.5,0.01017
5.504,0.00682
5.508,0.03223
5.512,0.0143
5.516,-0.00156
5.52,0.02375
5.524,0.02792
5.528,0.0491
5.532,0.02923
5.536,-0.00311
5.54,0.00154
5.544,0.01354
5.548,-0.00617
5.552,0.023
5.556,0.03246
5.56,0.03925
5.564,0.01185
5.568,0.01265
5.572,0.01542
5.576,0.02774
5.58,0.0233
5.584,0.0245
5.588,-0.00514
5.592,0.00355
5.596,0.00388
5.6,0.02741
5.604,0.04069
5.608,0.0279
5.612,0.01263
5.616,0.01094
5.62,0.02687
5.624,0.00645
5.628,0.03224
5.632,0.0185
5.636,0.00451
5.64,0.05295
5.644,0.01938
5.648,0.00479
5.652,0.01839
5.656,0.00152
5.66,-0.01401
5.664,0.02221
5.668,-0.00982
5.672,0.00435
5.676,0.00705
5.68,0.00939
5.684,0.04437
5.688,0.02034
5.692,0.00164
5.696,0.02568
5.7,0.0224
5.704,-0.03382
5.708,0.03223
5.712,0.02829
5.716,0.00506
5.72,0.01415
5.724,0.02394
5.728,-0.01087
5.732,0.04783
5.736,0.02397
5.74,0.03982
5.744,0.02459
5.748,0.01474
5.752,0.01661
5.756,-0.00135
5.76,0.02008
5.764,-0.01477
5.768,0.01068
5.772,0.00631
5.776,0.01566
5.78,-0.01489
5.784,0.00714
5.788,0.0075
5.792,0.00602
5.796,0.0289
5.8,0.02728
5.804,0.02964
5.808,0.00367
5.812,-0.00624
5.816,0.00535
5.82,0.01666
5.824,0.01622
5.828,0.01258
5.832,0.02473
5.836,0.00695
5.84,-0.03875
5.844,0.02568
5.848,-0.00361
5.852,-0.00695
5.856,-0.00545
5.86,0.02338
5.864,0.01885
5.868,-0.01109
5.872,0.01883
5.876,0.01183
5.88,0.00186
5.884,0.02257
5.888,0.01381
5.892,0.02055
5.896,0.01566
5.9,0.01041
5.904,-0.00772
5.908,0.00192
5.912,-0.00966
5.916,0.01263
5.92,-0.00228
5.924,0.00645
5.928,-0.00699
5.932,-0.00294
5.936,-0.0299
5.94,0.01626
5.944,0.02909
5.948,0.01733
5.952,0.00241
5.956,0.01966
5.96,0.00842
5.964,0.04656
5.968,0.02737
5.972,0.01665
5.976,0.05179
5.98,0.05499
5.984,0.07562
5.988,0.0658
5.992,0.08278
5.996,0.08294
6.0,0.1244
6.004,0.12641
6.008,0.10708
6.012,0.07225
6.016,0.06943
6.02,0.04795
6.024,0.05236
6.028,0.06163
6.032,0.04961
6.036,0.02316
6.04,0.02077
6.044,0.00785
6.048,-0.01748
6.052,-0.00505
6.056,0.02392
6.06,-0.00291
6.064,0.00661
6.068,-0.00213
6.072,0.02949
6.076,-0.00157
6.08,0.00245
6.084,0.01014
6.088,0.0058
6.092,-0.01397
6.096,-0.00696
6.1,0.00654
6.104,0.03196
6.108,-0.01171
6.112,0.02265
6.116,-0.00908
6.12,-0.03714
6.124,-0.07385
6.128,-0.09575
6.132,-0.10837
6.136,-0.03186
6.14,0.06094
6.144,0.24825
6.148,0.48448
6.152,0.69403
6.156,0.89002
6.16,0.98204
6.164,0.97008
6.168,0.88578
6.172,0.6745
6.176,0.47045
6.18,0.26306
6.184,0.04137
6.188,-0.09071
6.192,-0.15303
6.196,-0.14909
6.2,-0.13803
6.204,-0.09068
6.208,-0.05775
6.212,-0.00196
6.216,-0.03042
6.22,-0.0077
6.224,0.01001
6.228,-0.02267
6.232,0.0071
6.236,0.03166
6.24,0.04315
6.244,-0.01025
6.248,-0.03069
6.252,-0.01684
6.256,-0.00798
6.26,-0.01158
6.264,-0.01224
6.268,0.0009
6.272,-0.00097
6.276,-0.01554
6.28,-0.00163
6.284,0.01723
6.288,0.00848
6.292,-0.00168
6.296,-0.00069
6.3,-0.00717
6.304,-0.00566
6.308,0.00416
6.312,-0.00372
6.316,0.00231
6.32,0.03643
6.324,-0.01304
6.328,-0.00408
6.332,0.00049
6.336,0.01728
6.34,0.01374
6.344,0.01693
6.348,0.02751
6.352,0.01729
6.356,0.03216
6.36,0.04888
6.364,0.03282
6.368,0.04273
6.372,0.05559
6.376,0.03336
6.38,0.0758
6.384,0.07749
6.388,0.0874
6.392,0.13559
6.396,0.12695
6.4,0.14127
6.404,0.14948
6.408,0.16089
6.412,0.17073
6.416,0.1873
6.42,0.16778
6.424,0.19381
6.428,0.21787
6.432,0.21185
6.436,0.1964
6.44,0.20795
6.444,0.2024
6.448,0.21615
6.452,0.20997
6.456,0.21349
6.46,0.19127
6.464,0.1967
6.468,0.17409
6.472,0.15998
6.476,0.1582
6.48,0.15571
6.484,0.13707
6.488,0.12772
6.492,0.11348
6.496,0.09739
6.5,0.09822
6.504,0.08375
6.508,0.09138
6.512,0.06
6.516,0.04409
6.52,0.04665
6.524,0.01411
6.528,0.03948
6.532,0.01898
6.536,0.00426
6.54,0.00298
6.544,0.03271
6.548,-0.01154
6.552,0.00337
6.556,0.03859
6.56,0.03518
6.564,-0.00147
6.568,-0.0137
6.572,-0.01559
6.576,-0.01179
6.58,-0.00203
6.584,0.00423
6.588,-0.0108
6.592,-0.02623
6.596,0.00248
6.6,-0.01161
6.604,-0.02287
6.608,-0.02518
6.612,0.0014
6.616,-0.02109
6.62,-0.00464
6.624,-0.017
6.628,0.00919
6.632,0.00569
6.636,-0.04065
6.64,0.00012
6.644,-0.01055
6.648,-0.01311
6.652,-0.01265
6.656,0.00258
6.66,-0.00637
6.664,0.00137
6.668,-0.02015
6.672,-0.01564
6.676,-0.03425
6.68,-0.00169
6.684,0.0004
6.688,-0.01845
6.692,-0.00644
6.696,-0.01365
6.7,-0.01417
6.704,-0.0225
6.708,-0.00666
6.712,-0.03388
6.716,-0.04798
6.72,-0.00365
6.724,-0.04229
6.728,0.00506
6.732,-0.04112
6.736,-0.00821
6.74,-0.01358
6.744,-0.04549
6.748,-0.01618
6.752,-0.02398
6.756,-0.0085
6.76,0.0067
6.764,-0.0048
6.768,-0.02782
6.772,0.00479
6.776,-0.02492
6.78,-0.0211
6.784,-0.01849
6.788,-0.01363
6.792,-0.0225
6.796,-0.00203
6.8,-0.02921
6.804,-0.0295
6.808,-0.01794
6.812,-0.00797
6.816,-0.01899
6.82,-0.02929
6.824,-0.01827
6.828,-0.03324
6.832,-0.04007
6.836,-0.03616
6.84,-0.03667
6.844,-0.02847
6.848,-0.01293
6.852,-0.0015
6.856,0.01802
6.86,-0.02154
6.864,-0.01211
6.868,-0.02416
6.872,-0.01402
6.876,-0.00906
6.88,-0.04993
6.884,-0.01117
6.888,-0.00229
6.892,-0.01333
6.896,-0.03136
6.9,-0.01628
6.904,-0.02393
6.908,-0.03497
6.912,-0.02175
6.916,0.00368
6.92,-0.00791
6.924,0.00464
6.928,-0.01921
6.932,-0.00393
6.936,-0.02727
6.94,-0.01347
6.944,-0.01967
6.948,0.00248
6.952,-0.01126
6.956,-0.00269
6.96,-0.01339
6.964,-0.03739
6.968,-0.00252
6.972,-0.00851
6.976,-0.05857
6.98,-0.01765
6.984,0.00474
6.988,-0.00457
6.992,-0.00903
6.996,0.00466
7.0,-0.01937
7.004,-0.01436
7.008,-0.01368
7.012,-0.0028
7.016,-0.01346
7.02,0.00712
7.024,-0.02702
7.028,-0.01976
7.032,-0.00198
7.036,-0.00154
7.04,0.00899
7.044,-0.00054
7.048,0.03612
7.052,0.04018
7.056,0.05205
7.06,0.07499
7.064,0.08173
7.068,0.1222
7.072,0.09576
7.076,0.081
7.08,0.06476
7.084,0.04399
7.088,0.05383
7.092,0.07889
7.096,0.04214
7.1,0.00081
7.104,0.01537
7.108,0.00446
7.112,-0.03827
7.116,-0.02
7.12,-0.03334
7.124,-0.00188
7.128,-0.01116
7.132,-0.00653
7.136,-0.01036
7.14,0.01426
7.144,-0.04995
7.148,-0.03257
7.152,-0.0164
7.156,0.00134
7.16,-0.03544
7.164,-0.02956
7.168,-0.02705
7.172,-0.02171
7.176,-0.02715
7.18,-0.01972
7.184,-0.0716
7.188,-0.04554
7.192,-0.06417
7.196,-0.11874
7.2,-0.12988
7.204,-0.10226
7.208,-0.02992
7.212,0.15511
7.216,0.36634
7.22,0.54159
7.224,0.75208
7.228,0.93488
7.232,0.98394
7.236,0.93161
7.24,0.77062
7.244,0.56425
7.248,0.34123
7.252,0.11499
7.256,-0.0141
7.26,-0.1716
7.264,-0.19055
7.268,-0.18544
7.272,-0.12519
7.276,-0.07956
7.28,-0.07722
7.284,-0.04798
7.288,-0.03285
7.292,-0.03265
7.296,0.00334
7.3,-0.02977
7.304,-0.0391
7.308,-0.0407
7.312,-0.01818
7.316,-0.02817
7.32,-0.00528
7.324,-0.02428
7.328,-0.02148
7.332,-0.05621
7.336,-0.01483
7.34,-0.0366
7.344,-0.03005
7.348,-0.0018
7.352,-0.03582
7.356,-0.03128
7.36,-0.01952
7.364,-0.0503
7.368,-0.02472
7.372,-0.03135
7.376,-0.02206
7.38,-0.04365
7.384,-0.01749
7.388,-0.05081
7.392,-0.03539
7.396,-0.02887
7.4,-0.03232
7.404,0.01351
7.408,-0.01763
7.412,0.00522
7.416,-0.01356
7.42,0.01809
7.424,0.00874
7.428,0.02365
7.432,0.03481
7.436,0.02353
7.44,0.05394
7.444,0.09429
7.448,0.05704
7.452,0.08374
7.456,0.08559
7.46,0.08149
7.464,0.08893
7.468,0.10063
7.472,0.12231
7.476,0.13582
7.48,0.14502
7.484,0.1746
7.488,0.17784
7.492,0.16234
7.496,0.18956
7.5,0.18553
7.504,0.20191
7.508,0.19977
7.512,0.18361
7.516,0.20096
7.52,0.19223
7.524,0.19968
7.528,0.1881
7.532,0.17639
7.536,0.14949
7.54,0.14905
7.544,0.14955
7.548,0.12203
7.552,0.11471
7.556,0.13204
7.56,0.09607
7.564,0.06657
7.568,0.06029
7.572,0.10338
7.576,0.06606
7.58,0.07413
7.584,0.02713
7.588,0.04287
7.592,0.02797
7.596,-0.00762
7.6,-0.0024
7.604,-0.00187
7.608,-0.00508
7.612,-0.00646
7.616,-0.02351
7.62,0.00824
7.624,-0.01952
7.628,-0.02969
7.632,-0.00897
7.636,-0.01566
7.64,-0.05225
7.644,-0.02589
7.648,-0.02711
7.652,-0.03432
7.656,-0.02473
7.66,-0.01647
7.664,-0.00491
7.668,-0.03192
7.672,-0.00231
7.676,-0.05442
7.68,-0.00913
7.684,-0.01627
7.688,-0.0327
7.692,-0.00379
7.696,-0.00994
7.7,-0.05094
7.704,-0.02124
7.708,0.01063
7.712,-0.02159
7.716,-0.03412
7.72,-0.02002
7.724,-0.04995
7.728,-0.04439
7.732,-0.03053
7.736,-0.02864
7.74,0.00512
7.744,-0.03715
7.748,-0.02945
7.752,-0.03735
7.756,-0.00307
7.76,-0.05265
7.764,-0.00315
7.768,-0.01628
7.772,-0.03476
7.776,-0.00396
7.78,-0.02549
7.784,-0.06213
7.788,-0.04224
7.792,-0.04112
7.796,-0.05985
7.8,-0.02961
7.804,-0.04846
7.808,-0.03316
7.812,-0.01624
7.816,-0.0417
7.82,0.0027
7.824,-0.03958
7.828,-0.03774
7.832,-0.00405
7.836,-0.06429
7.84,-0.03123
7.844,-0.01858
7.848,-0.05138
7.852,-0.01508
7.856,-0.0364
7.86,-0.03068
7.864,-0.01663
7.868,-0.03906
7.872,-0.04574
7.876,-0.01594
7.88,0.00202
7.884,-0.02308
7.888,-0.02883
7.892,-0.00561
7.896,-0.02118
7.9,-0.02325
7.904,-0.03924
7.908,-0.0175
7.912,-0.01383
7.916,-0.02385
7.92,-0.03876
7.924,-0.02848
7.928,-0.02157
7.932,-0.00449
7.936,0.00597
7.94,0.00452
7.944,0.00147
7.948,0.04401
7.952,0.02456
7.956,0.03672
7.96,0.05292
7.964,0.04385
7.968,0.05955
7.972,0.05698
7.976,0.06694
7.98,0.04964
7.984,0.05398
7.988,0.03901
7.992,0.01582
7.996,0.02143
8.0,0.03642
8.004,0.00429
8.008,-0.0011
8.012,0.01029
8.016,-0.03037
8.02,-0.04934
8.024,-0.02443
8.028,0.005
8.032,-0.02414
8.036,-0.01849
8.04,-0.00073
8.044,-0.01922
8.048,-0.05332
8.052,-0.02888
8.056,-0.02574
8.06,-0.03275
8.064,-0.01653
8.068,-0.01313
8.072,-0.01874
8.076,-0.05906
8.08,-0.04218
8.084,-0.04879
8.088,-0.08038
8.092,-0.0772
8.096,-0.16581
8.1,-0.11444
8.104,-0.11183
8.108,0.00413
8.112,0.14457
8.116,0.32053
8.12,0.57249
8.124,0.75035
8.128,0.87489
8.132,1.00251
8.136,0.88427
8.14,0.77074
8.144,0.56805
8.148,0.3143
8.152,0.12667
8.156,-0.0546
8.16,-0.15763
8.164,-0.1966
8.168,-0.17858
8.172,-0.15389
8.176,-0.08969
8.18,-0.0634
8.184,-0.059
8.188,-0.03053
8.192,-0.04126
8.196,-0.054
8.2,-0.01451
8.204,-0.00155
8.208,-0.01627
8.212,-0.03403
8.216,-0.02791
8.22,-0.01006
8.224,-0.02613
8.228,0.00934
8.232,-0.03781
8.236,-0.04589
8.24,-0.05783
8.244,-0.02979
8.248,-0.02494
8.252,-0.01961
8.256,-0.03642
8.26,-0.0486
8.264,-0.03956
8.268,-0.03811
8.272,-0.05528
8.276,-0.02784
8.28,-0.02951
8.284,-0.00861
8.288,0.00434
8.292,-0.0415
8.296,0.00496
8.3,-0.02509
8.304,-0.01976
8.308,-0.01061
8.312,-0.01107
8.316,-0.03522
8.32,0.0094
8.324,0.01325
8.328,0.01286
8.332,0.01633
8.336,0.02039
8.34,0.04809
8.344,0.05269
8.348,0.06067
8.352,0.04232
8.356,0.08994
8.36,0.09254
8.364,0.09396
8.368,0.12463
8.372,0.0917
8.376,0.13961
8.38,0.1473
8.384,0.13504
8.388,0.17604
8.392,0.15779
8.396,0.17726
8.4,0.19972
8.404,0.18009
8.408,0.20252
8.412,0.17728
8.416,0.21359
8.42,0.19051
8.424,0.18284
8.428,0.18469
8.432,0.17827
8.436,0.14103
8.44,0.134
8.444,0.1621
8.448,0.12479
8.452,0.1392
8.456,0.12088
8.46,0.10319
8.464,0.09565
8.468,0.07498
8.472,0.09814
8.476,0.08039
8.48,0.04823
8.484,0.03424
8.488,0.00404
8.492,0.02419
8.496,-0.0126
8.5,0.01254
8.504,-0.01206
8.508,0.0136
8.512,-0.01423
8.516,-0.01249
8.52,-0.0277
8.524,-0.03277
8.528,-0.0212
8.532,-0.03348
8.536,-0.04059
8.54,-0.0557
8.544,-0.02183
8.548,-0.00506
8.552,-0.0216
8.556,-0.00264
8.56,-0.02464
8.564,-0.01705
8.568,-0.02607
8.572,0.00021
8.576,-0.03065
8.58,-0.04503
8.584,-0.04696
8.588,-0.01518
8.592,-0.01643
8.596,0.00969
8.6,-0.00979
8.604,-0.03187
8.608,-0.00789
8.612,-0.04492
8.616,-0.04143
8.62,0.01128
8.624,-0.03176
8.628,-0.03006
8.632,-0.02329
8.636,-0.03384
8.64,-0.04107
8.644,-0.00988
8.648,-0.01751
8.652,-0.02807
8.656,-0.01669
8.66,-0.02496
8.664,0.00405
8.668,-0.01975
8.672,-0.02914
8.676,-0.02194
8.68,-0.01232
8.684,-0.02541
8.688,-0.02954
8.692,-0.02686
8.696,-0.03472
8.7,-0.02348
8.704,-0.02158
8.708,-0.03792
8.712,-0.01088
8.716,-0.03743
8.72,-0.03014
8.724,-0.03324
8.728,0.00103
8.732,-0.01227
8.736,0.00052
8.74,-0.05154
8.744,-0.04461
8.748,-0.00646
8.752,-0.02976
8.756,-0.02966
8.76,-0.00566
8.764,-0.01673
8.768,-0.01546
8.772,-0.04601
8.776,-0.01193
8.78,-0.03534
8.784,-0.04231
8.788,-0.02402
8.792,-0.05355
8.796,-0.03716
8.8,-0.02642
8.804,-0.01787
8.808,-0.02602
8.812,-0.03315
8.816,-0.01481
8.82,0.01073
8.824,-0.01419
8.828,-0.0261
8.832,-0.01114
8.836,-0.02578
8.84,-0.01628
8.844,-0.01047
8.848,-0.0305
8.852,-0.00613
8.856,-0.00381
8.86,-0.00483
8.864,0.00394
8.868,-0.05242
8.872,-0.00549
8.876,-0.01066
8.88,-0.03715
8.884,0.00097
8.888,0.00717
8.892,-0.01293
8.896,-0.01702
8.9,-0.04336
8.904,-0.03786
8.908,-0.00361
8.912,-0.01224
8.916,-0.0274
8.92,-0.01144
8.924,-0.00863
8.928,-0.00815
8.932,0.00017
8.936,-0.03937
8.94,-0.00267
8.944,-0.01488
8.948,-0.01658
8.952,-0.01884
8.956,-0.01285
8.96,-0.01216
8.964,-0.01747
8.968,-0.01923
8.972,-0.03039
8.976,0.00253
8.98,-0.00886
8.984,0.01047
8.988,0.02066
8.992,-0.0209
8.996,-0.01365
9.0,-0.04305
9.004,-0.03994
9.008,-0.02426
9.012,-0.0337
9.016,-0.01179
9.02,-0.0083
9.024,0.00597
9.028,-0.00141
9.032,0.0096
9.036,0.01745
9.04,0.04614
9.044,0.02533
9.048,0.06347
9.052,0.06084
9.056,0.06394
9.06,0.09385
9.064,0.05956
9.068,0.0664
9.072,0.05892
9.076,0.07974
9.08,0.10571
9.084,0.06953
9.088,0.04767
9.092,0.03133
9.096,0.04377
9.1,0.01265
9.104,-0.02154
9.108,0.00663
9.112,-0.00828
9.116,-0.01335
9.12,-0.02001
9.124,0.02612
9.128,-0.00455
9.132,0.00665
9.136,-0.01028
9.14,-0.01942
9.144,0.00647
9.148,-0.00975
9.152,-0.01599
9.156,0.00282
9.16,-0.02625
9.164,0.01453
9.168,-0.01084
9.172,-0.01134
9.176,-0.00502
9.18,-0.00097
9.184,-0.03707
9.188,-0.09439
9.192,-0.10431
9.196,-0.13141
9.2,-0.07909
9.204,0.05982
9.208,0.21145
9.212,0.41271
9.216,0.64581
9.22,0.8263
9.224,0.94903
9.228,0.96992
9.232,0.88442
9.236,0.71181
9.24,0.51124
9.244,0.27325
9.248,0.10514
9.252,-0.04731
9.256,-0.15147
9.26,-0.18077
9.264,-0.15258
9.268,-0.1175
9.272,-0.08259
9.276,-0.05738
9.28,-0.03216
9.284,-0.02189
9.288,-0.00605
9.292,-0.00325
9.296,0.03244
9.3,0.01006
9.304,-0.0057
9.308,-0.01816
9.312,0.00197
9.316,-0.00013
9.32,-0.00105
9.324,-0.01704
9.328,0.01226
9.332,-0.0359
9.336,-0.01388
9.34,-0.03751
9.344,0.00225
9.348,-0.00907
9.352,-0.02668
9.356,0.00234
9.36,0.00073
9.364,0.00418
9.368,-0.01679
9.372,-0.01647
9.376,0.01642
9.38,-0.02631
9.384,0.01361
9.388,-0.00759
9.392,-0.01328
9.396,0.00039
9.4,0.0087
9.404,-0.02271
9.408,0.0097
9.412,0.02722
9.416,0.01623
9.42,0.02484
9.424,0.05598
9.428,0.04228
9.432,0.04661
9.436,0.06354
9.44,0.06052
9.444,0.05877
9.448,0.09078
9.452,0.09413
9.456,0.12975
9.46,0.13804
9.464,0.15418
9.468,0.14376
9.472,0.1728
9.476,0.17343
9.48,0.18558
9.484,0.18638
9.488,0.19868
9.492,0.16168
9.496,0.23763
9.5,0.21361
9.504,0.23829
9.508,0.21277
9.512,0.20275
9.516,0.20934
9.52,0.21876
9.524,0.20674
9.528,0.21349
9.532,0.18137
9.536,0.17676
9.54,0.15688
9.544,0.17944
9.548,0.13966
9.552,0.14202
9.556,0.12442
9.56,0.10094
9.564,0.0883
9.568,0.09611
9.572,0.07155
9.576,0.06217
9.58,0.09056
9.584,0.0775
9.588,0.07302
9.592,0.02547
9.596,0.05331
9.6,0.00885
9.604,0.04206
9.608,0.00498
9.612,0.0235
9.616,0.02321
9.62,0.02614
9.624,0.01238
9.628,0.01288
9.632,-0.02055
9.636,0.00695
9.64,-0.00418
9.644,-0.00612
9.648,0.00221
9.652,-0.00386
9.656,-0.01087
9.66,-0.00405
9.664,0.02603
9.668,0.00361
9.672,0.03183
9.676,-0.01126
9.68,0.01519
9.684,0.03354
9.688,-7e-05
9.692,0.00511
9.696,0.00314
9.7,-0.00217
9.704,0.00365
9.708,0.03555
9.712,0.00209
9.716,0.0005
9.72,-0.00516
9.724,0.03154
9.728,-0.01045
9.732,0.0134
9.736,0.04495
9.74,0.01346
9.744,-0.0159
9.748,-0.00974
9.752,-0.0253
9.756,0.00812
9.76,-0.0267
9.764,0.00655
9.768,0.02511
9.772,0.02648
9.776,-0.00854
9.78,0.00613
9.784,0.01463
9.788,0.01824
9.792,0.00373
9.796,0.01755
9.8,0.00602
9.804,0.00415
9.808,-0.01607
9.812,-0.0086
9.816,0.01768
9.82,0.0049
9.824,-0.00903
9.828,0.03434
9.832,0.01831
9.836,-0.01265
9.84,0.01001
9.844,0.01401
9.848,-0.01635
9.852,0.02336
9.856,0.02191
9.86,0.011
9.864,0.00635
9.868,-0.01398
9.872,0.0329
9.876,-0.02418
9.88,0.02049
9.884,0.02968
9.888,-0.00779
9.892,0.02813
9.896,-0.00707
9.9,0.01287
9.904,-0.00311
9.908,0.02919
9.912,0.01179
9.916,0.00139
9.92,0.03682
9.924,0.02115
9.928,-0.01634
9.932,0.0228
9.936,0.00116
9.94,0.00336
9.944,0.00445
9.948,0.00886
9.952,0.02306
9.956,0.02639
9.96,0.01925
9.964,-0.01579
9.968,0.02532
9.972,-0.02064
9.976,-0.00312
9.98,0.02654
9.984,0.01649
9.988,0.02906
9.992,0.00667
9.996,-0.00387
