t_seg,ecg_mV
0.0,-0.01223
0.004,-0.01397
0.008,-0.03055
0.012,-0.02517
0.016,-0.04811
0.02,-0.06996
0.024,-0.09791
0.028,-0.11084
0.032,-0.12694
0.036,-0.12615
0.04,-0.06571
0.044,0.08055
0.048,0.25788
0.052,0.46675
0.056,0.65663
0.06,0.88113
0.064,0.96089
0.068,0.95296
0.072,0.86929
0.076,0.6333
0.08,0.39317
0.084,0.18945
0.088,-0.01281
0.092,-0.12502
0.096,-0.18828
0.1,-0.20658
0.104,-0.14293
0.108,-0.14192
0.112,-0.08265
0.116,-0.06271
0.12,-0.03165
0.124,-0.02507
0.128,-0.02903
0.132,-0.02298
0.136,-0.01267
0.14,-0.02965
0.144,-0.03352
0.148,-0.01359
0.152,-0.00779
0.156,-0.00718
0.16,-0.01841
0.164,-0.01414
0.168,-0.02697
0.172,-0.04276
0.176,-0.06216
0.18,-0.03154
0.184,-0.01396
0.188,-0.00112
0.192,-0.02826
0.196,-0.02243
0.2,-0.05218
0.204,-0.03683
0.208,-0.05684
0.212,-0.02668
0.216,-0.01957
0.22,-0.00168
0.224,-0.00677
0.228,-0.02728
0.232,-0.01507
0.236,0.00332
0.24,-0.02671
0.244,-0.00404
0.248,-0.0087
0.252,0.0165
0.256,-0.01383
0.26,0.00814
0.264,0.02433
0.268,0.02918
0.272,0.01542
0.276,0.03568
0.28,0.06113
0.284,0.03935
0.288,0.07584
0.292,0.0927
0.296,0.09459
0.3,0.11109
0.304,0.11873
0.308,0.12935
0.312,0.13523
0.316,0.13294
0.32,0.1767
0.324,0.15589
0.328,0.18174
0.332,0.19464
0.336,0.21767
0.34,0.17675
0.344,0.21193
0.348,0.20299
0.352,0.20926
0.356,0.19739
0.36,0.17775
0.364,0.18568
0.368,0.18131
0.372,0.16216
0.376,0.13482
0.38,0.14972
0.384,0.12262
0.388,0.10597
0.392,0.12878
0.396,0.07705
0.4,0.09468
0.404,0.06269
0.408,0.06516
0.412,0.06712
0.416,0.02402
0.42,0.03818
0.424,0.01993
0.428,0.01743
0.432,0.01814
0.436,-0.01959
0.44,-0.00558
0.444,-2e-05
0.448,0.0129
0.452,0.02202
0.456,-0.03367
0.46,0.01367
0.464,0.02653
0.468,0.01574
0.472,0.01563
0.476,-0.01725
0.48,-0.01606
0.484,0.02309
0.488,-0.01108
0.492,-0.01168
0.496,-0.01695
0.5,-0.00659
0.504,-0.03385
0.508,-0.00564
0.512,-0.04186
0.516,-0.0246
0.52,0.00196
0.524,0.0085
0.528,-0.00621
0.532,-0.03689
0.536,-0.02947
0.54,-0.00928
0.544,-0.00399
0.548,0.00449
0.552,-0.00623
0.556,-0.00961
0.56,-0.02846
0.564,-0.03649
0.568,0.0031
0.572,-0.01884
0.576,-0.0521
0.58,-0.01007
0.584,0.00772
0.588,-0.03287
0.592,-0.01474
0.596,-0.01592
0.6,-0.00771
0.604,-0.00303
0.608,-0.04171
0.612,-0.02091
0.616,-0.00064
0.62,0.01031
0.624,0.0189
0.628,-0.02869
0.632,-0.02839
0.636,-0.0405
0.64,-0.03199
0.644,-0.02488
0.648,-0.03236
0.652,-0.02546
0.656,-0.03516
0.66,-0.00309
0.664,-0.01516
0.668,-0.02262
0.672,0.0172
0.676,0.00055
0.68,0.01863
0.684,-0.0369
0.688,-0.02814
0.692,0.00881
0.696,-0.01875
0.7,0.01726
0.704,-0.00132
0.708,-0.02344
0.712,-0.01001
0.716,0.01321
0.72,-0.00828
0.724,-0.01644
0.728,-0.02769
0.732,0.00113
0.736,0.00066
0.74,-0.01523
0.744,0.00067
0.748,-0.0147
0.752,-0.00022
0.756,0.01366
0.76,-0.0094
0.764,0.0194
0.768,0.0109
0.772,-0.03878
0.776,-0.00576
0.78,0.0459
0.784,0.00419
0.788,0.04662
0.792,0.02465
0.796,0.06684
0.8,0.05856
0.804,0.08745
0.808,0.08157
0.812,0.06892
0.816,0.08961
0.82,0.09206
0.824,0.09583
0.828,0.07933
0.832,0.06457
0.836,0.04215
0.84,0.04052
0.844,0.0255
0.848,0.0208
0.852,-0.00819
0.856,0.01986
0.86,0.01833
0.864,-0.00434
0.868,0.01089
0.872,0.01192
0.876,-0.00401
0.88,0.0162
0.884,-0.01495
0.888,0.00675
0.892,-6e-05
0.896,-0.02325
0.9,-0.02392
0.904,-0.0069
0.908,-0.01098
0.912,-0.00103
0.916,-0.00112
0.92,0.03284
0.924,-0.01041
0.928,-0.0441
0.932,-0.04557
0.936,-0.08548
0.94,-0.11667
0.944,-0.12638
0.948,-0.07795
0.952,0.02127
0.956,0.19711
0.96,0.3768
0.964,0.62778
0.968,0.81984
0.972,0.9532
0.976,1.00722
0.98,0.92499
0.984,0.74304
0.988,0.52268
0.992,0.28939
0.996,0.09451
1.0,-0.0469
1.004,-0.15297
1.008,-0.15638
1.012,-0.15396
1.016,-0.13569
1.02,-0.07276
1.024,-0.04703
1.028,-0.0334
1.032,-0.00175
1.036,-0.00388
1.04,-0.01326
1.044,-0.02281
1.048,-0.00921
1.052,0.01231
1.056,-0.02682
1.06,-0.00344
1.064,-0.01472
1.068,-0.00108
1.072,-0.00792
1.076,-7e-05
1.08,-0.00224
1.084,-0.00354
1.088,-0.00604
1.092,0.00206
1.096,0.01064
1.1,-0.00792
1.104,0.02334
1.108,0.01171
1.112,-0.00788
1.116,-0.00728
1.12,0.0004
1.124,-0.01941
1.128,0.00217
1.132,-0.01849
1.136,-0.0026
1.14,0.00532
1.144,0.00573
1.148,0.00202
1.152,-0.0021
1.156,0.03121
1.16,0.03427
1.164,0.03253
1.168,0.01416
1.172,0.05722
1.176,0.02485
1.18,0.00936
1.184,0.07884
1.188,0.10983
1.192,0.09605
1.196,0.08246
1.2,0.09531
1.204,0.13245
1.208,0.12847
1.212,0.14694
1.216,0.1687
1.22,0.15559
1.224,0.15966
1.228,0.18818
1.232,0.20255
1.236,0.20707
1.24,0.21737
1.244,0.2041
1.248,0.21214
1.252,0.19237
1.256,0.22094
1.26,0.21444
1.264,0.21027
1.268,0.23884
1.272,0.22694
1.276,0.20922
1.28,0.19392
1.284,0.18756
1.288,0.18631
1.292,0.19744
1.296,0.14142
1.3,0.13239
1.304,0.14257
1.308,0.11494
1.312,0.087
1.316,0.1132
1.32,0.06739
1.324,0.08824
1.328,0.08992
1.332,0.06288
1.336,0.04521
1.34,0.02202
1.344,0.06305
1.348,0.05802
1.352,0.04091
1.356,0.0023
1.36,0.02038
1.364,0.04049
1.368,0.02001
1.372,0.01122
1.376,0.01257
1.38,0.00574
1.384,0.01513
1.388,0.01192
1.392,-0.00244
1.396,-0.01443
1.4,0.01653
1.404,0.03444
1.408,-0.01255
1.412,0.00207
1.416,0.00624
1.42,0.00591
1.424,0.03431
1.428,-0.00922
1.432,0.01535
1.436,-0.01775
1.44,-0.0029
1.444,0.01449
1.448,-0.01723
1.452,-0.00043
1.456,0.03326
1.46,0.03539
1.464,-0.00138
1.468,-0.01579
1.472,0.01974
1.476,-0.00635
1.48,-0.00929
1.484,-0.00045
1.488,-0.02298
1.492,-0.021
1.496,-0.0143
1.5,0.02095
1.504,-0.01317
1.508,0.00507
1.512,0.0097
1.516,0.02218
1.52,0.0229
1.524,-0.00899
1.528,-0.00541
1.532,-0.01401
1.536,0.02083
1.54,-0.00314
1.544,0.00642
1.548,0.00383
1.552,0.01843
1.556,-0.00111
1.56,0.00743
1.564,0.02183
1.568,0.00102
1.572,-0.00367
1.576,0.02276
1.58,0.02568
1.584,0.01784
1.588,0.02631
1.592,0.02716
1.596,0.04872
1.6,0.04603
1.604,0.09626
1.608,0.08856
1.612,0.08598
1.616,0.10381
1.62,0.1151
1.624,0.09398
1.628,0.13366
1.632,0.1169
1.636,0.12094
1.64,0.09342
1.644,0.07422
1.648,0.0779
1.652,0.06613
1.656,0.04672
1.66,0.0369
1.664,0.05463
1.668,0.02419
1.672,0.02782
1.676,0.01403
1.68,0.00369
1.684,0.01342
1.688,0.01339
1.692,-0.02097
1.696,-0.00099
1.7,0.02508
1.704,0.02948
1.708,0.02017
1.712,0.00691
1.716,0.01843
1.72,0.01351
1.724,0.01727
1.728,0.00755
1.732,0.01299
1.736,0.00925
1.74,0.01719
1.744,-0.01661
1.748,-0.09143
1.752,-0.07422
1.756,-0.10556
1.76,-0.05123
1.764,0.09371
1.768,0.28271
1.772,0.49961
1.776,0.67569
1.78,0.87823
1.784,0.99659
1.788,1.01632
1.792,0.91014
1.796,0.71334
1.8,0.48954
1.804,0.27015
1.808,0.06623
1.812,-0.05865
1.816,-0.10869
1.82,-0.15101
1.824,-0.09553
1.828,-0.08632
1.832,-0.03353
1.836,-0.03534
1.84,0.01684
1.844,0.01483
1.848,0.00505
1.852,0.05577
1.856,0.00964
1.86,0.02129
1.864,0.02055
1.868,0.0332
1.872,0.02201
1.876,0.00273
1.88,0.02163
1.884,0.01414
1.888,0.02428
1.892,0.01162
1.896,0.07374
1.9,0.05391
1.904,0.01725
1.908,0.01709
1.912,0.01026
1.916,0.01045
1.92,0.00855
1.924,0.00721
1.928,-0.00698
1.932,0.02366
1.936,-0.00871
1.94,0.02034
1.944,0.01202
1.948,0.01913
1.952,0.01287
1.956,0.02942
1.96,0.02568
1.964,0.04261
1.968,0.05834
1.972,0.04122
1.976,0.05804
1.98,0.03049
1.984,0.09549
1.988,0.06711
1.992,0.05539
1.996,0.10814
2.0,0.08959
2.004,0.11288
2.008,0.10759
2.012,0.11583
2.016,0.13606
2.02,0.1438
2.024,0.15722
2.028,0.16262
2.032,0.18619
2.036,0.18633
2.04,0.1902
2.044,0.20224
2.048,0.21703
2.052,0.21128
2.056,0.2226
2.06,0.22565
2.064,0.24355
2.068,0.26208
2.072,0.23209
2.076,0.23995
2.08,0.23074
2.084,0.22239
2.088,0.20808
2.092,0.21011
2.096,0.22298
2.1,0.17942
2.104,0.1552
2.108,0.18818
2.112,0.15135
2.116,0.14327
2.12,0.14023
2.124,0.1212
2.128,0.10739
2.132,0.08525
2.136,0.07046
2.14,0.10482
2.144,0.08614
2.148,0.08538
2.152,0.05056
2.156,0.05392
2.16,0.04991
2.164,0.0283
2.168,0.05439
2.172,0.04133
2.176,0.0476
2.18,0.02831
2.184,0.05338
2.188,0.04933
2.192,0.01889
2.196,0.01849
2.2,0.02378
2.204,0.01846
2.208,0.03551
2.212,0.01673
2.216,0.01928
2.22,0.03101
2.224,0.05872
2.228,0.05128
2.232,0.04426
2.236,0.01748
2.24,0.0307
2.244,0.01231
2.248,0.02656
2.252,0.00269
2.256,0.03252
2.26,0.02168
2.264,0.01506
2.268,0.02654
2.272,-0.00617
2.276,0.03675
2.28,0.03256
2.284,0.02563
2.288,0.04558
2.292,0.00546
2.296,0.0348
2.3,0.02963
2.304,0.02384
2.308,0.03768
2.312,0.01571
2.316,0.00825
2.32,-0.00634
2.324,0.02287
2.328,0.03131
2.332,0.04494
2.336,0.00969
2.34,0.03748
2.344,0.00506
2.348,0.00991
2.352,0.01424
2.356,0.00669
2.36,0.03759
2.364,0.01479
2.368,0.00477
2.372,0.01099
2.376,0.02021
2.38,0.02547
2.384,0.05001
2.388,0.06576
2.392,0.03293
2.396,0.05376
2.4,0.06552
2.404,0.08621
2.408,0.0496
2.412,0.09293
2.416,0.13329
2.42,0.13505
2.424,0.10292
2.428,0.11338
2.432,0.13456
2.436,0.164
2.44,0.11367
2.444,0.1152
2.448,0.09013
2.452,0.06893
2.456,0.05865
2.46,0.07026
2.464,0.04444
2.468,0.05086
2.472,0.04272
2.476,0.05791
2.48,0.05299
2.484,0.00845
2.488,0.01422
2.492,0.01928
2.496,0.01963
2.5,0.04333
2.504,0.03146
2.508,0.04695
2.512,0.01918
2.516,0.03081
2.52,0.02916
2.524,0.02059
2.528,0.02064
2.532,0.06519
2.536,0.03057
2.54,0.01649
2.544,0.02031
2.548,-0.02884
2.552,-0.04541
2.556,-0.07393
2.56,-0.09721
2.564,-0.01821
2.568,0.09222
2.572,0.23302
2.576,0.4424
2.58,0.65423
2.584,0.87189
2.588,0.977
2.592,1.0153
2.596,0.93896
2.6,0.77163
2.604,0.55851
2.608,0.31487
2.612,0.10284
2.616,-0.03064
2.62,-0.11459
2.624,-0.14337
2.628,-0.11787
2.632,-0.08012
2.636,-0.05371
2.64,-0.02487
2.644,-0.00182
2.648,0.01149
2.652,0.02218
2.656,0.03535
2.66,0.00895
2.664,0.04994
2.668,0.03735
2.672,0.01148
2.676,0.03366
2.68,0.0558
2.684,0.0509
2.688,0.06323
2.692,0.02008
2.696,0.0145
2.7,0.02348
2.704,0.0302
2.708,0.02745
2.712,0.04909
2.716,0.05174
2.72,0.03168
2.724,0.05576
2.728,0.02908
2.732,0.031
2.736,0.0257
2.74,0.01633
2.744,0.02797
2.748,0.03347
2.752,0.04926
2.756,0.0371
2.76,0.05242
2.764,0.02353
2.768,0.05392
2.772,0.04744
2.776,0.02798
2.78,0.08557
2.784,0.05072
2.788,0.05168
2.792,0.05964
2.796,0.09345
2.8,0.09588
2.804,0.12194
2.808,0.10971
2.812,0.09678
2.816,0.12172
2.82,0.16225
2.824,0.13212
2.828,0.19235
2.832,0.1731
2.836,0.18264
2.84,0.20944
2.844,0.21748
2.848,0.21963
2.852,0.24026
2.856,0.2355
2.86,0.2278
2.864,0.25647
2.868,0.27508
2.872,0.24622
2.876,0.26317
2.88,0.2681
2.884,0.25723
2.888,0.24095
2.892,0.22786
2.896,0.21969
2.9,0.22218
2.904,0.17392
2.908,0.15179
2.912,0.20772
2.916,0.15074
2.92,0.13884
2.924,0.13086
2.928,0.13318
2.932,0.13235
2.936,0.12427
2.94,0.09001
2.944,0.07406
2.948,0.10293
2.952,0.04981
2.956,0.07023
2.96,0.06895
2.964,0.03843
2.968,0.0444
2.972,0.07081
2.976,0.07161
2.98,0.03544
2.984,0.02657
2.988,0.05416
2.992,0.03678
2.996,0.00811
3.0,0.03983
3.004,0.04913
3.008,0.05693
3.012,0.02199
3.016,0.02236
3.02,0.01018
3.024,-0.01297
3.028,0.03527
3.032,0.02115
3.036,0.02138
3.04,0.0283
3.044,0.02026
3.048,0.03425
3.052,0.03215
3.056,0.0132
3.06,0.04236
3.064,0.04821
3.068,0.02039
3.072,0.04036
3.076,0.02911
3.08,0.03323
3.084,0.03611
3.088,0.02479
3.092,0.02361
3.096,0.03642
3.1,0.03215
3.104,0.03785
3.108,0.02877
3.112,0.01432
3.116,0.01474
3.12,0.05692
3.124,0.02289
3.128,0.04381
3.132,0.03149
3.136,0.02016
3.14,0.04408
3.144,0.05259
3.148,0.04077
3.152,0.0359
3.156,0.02799
3.16,0.04669
3.164,0.04759
3.168,0.06211
3.172,0.04745
3.176,0.03508
3.18,0.02459
3.184,0.04763
3.188,0.02139
3.192,0.03649
3.196,0.04856
3.2,0.03549
3.204,0.02293
3.208,0.01474
3.212,0.03226
3.216,0.01961
3.22,0.03019
3.224,0.04647
3.228,0.00173
3.232,0.01772
3.236,0.01708
3.24,0.04707
3.244,0.05536
3.248,0.02579
3.252,0.06272
3.256,0.06309
3.26,0.08412
3.264,0.06983
3.268,0.08034
3.272,0.1355
3.276,0.12518
3.28,0.13989
3.284,0.11201
3.288,0.11117
3.292,0.116
3.296,0.09794
3.3,0.07702
3.304,0.07803
3.308,0.05043
3.312,0.10164
3.316,0.03611
3.32,0.03799
3.324,0.03175
3.328,0.05367
3.332,-0.00569
3.336,0.02543
3.34,0.02151
3.344,0.01222
3.348,0.02828
3.352,0.00535
3.356,0.01251
3.36,0.02994
3.364,0.02729
3.368,0.00531
3.372,0.01292
3.376,0.03486
3.38,0.02166
3.384,0.01677
3.388,0.01371
3.392,0.03958
3.396,-0.00526
3.4,-0.03448
3.404,-0.06875
3.408,-0.10424
3.412,-0.06972
3.416,-0.03914
3.42,0.0856
3.424,0.26367
3.428,0.45943
3.432,0.70286
3.436,0.89159
3.44,0.97356
3.444,1.00891
3.448,0.93332
3.452,0.75581
3.456,0.52747
3.46,0.27297
3.464,0.07216
3.468,-0.04182
3.472,-0.12092
3.476,-0.13279
3.48,-0.1442
3.484,-0.03815
3.488,-0.02802
3.492,-0.01926
3.496,0.01907
3.5,0.04647
3.504,0.02111
3.508,0.04031
3.512,0.03281
3.516,0.04216
3.52,0.01485
3.524,0.02871
3.528,0.00204
3.532,0.00695
3.536,0.04877
3.54,0.05804
3.544,0.02195
3.548,0.05137
3.552,0.0011
3.556,0.0288
3.56,0.01398
3.564,0.01941
3.568,0.03337
3.572,0.01699
3.576,0.00074
3.58,0.01242
3.584,-0.00064
3.588,0.01046
3.592,0.00233
3.596,0.0107
3.6,0.03508
3.604,-0.00341
3.608,0.04129
3.612,0.04478
3.616,0.04178
3.62,0.03744
3.624,0.04289
3.628,0.06746
3.632,0.02261
3.636,0.04658
3.64,0.04164
3.644,0.08819
3.648,0.09382
3.652,0.09272
3.656,0.08245
3.66,0.11738
3.664,0.09614
3.668,0.11257
3.672,0.12861
3.676,0.14508
3.68,0.15852
3.684,0.17634
3.688,0.20512
3.692,0.19138
3.696,0.21674
3.7,0.24212
3.704,0.21704
3.708,0.24929
3.712,0.22786
3.716,0.22591
3.72,0.24245
3.724,0.26078
3.728,0.2398
3.732,0.22462
3.736,0.22695
3.74,0.23428
3.744,0.21971
3.748,0.19556
3.752,0.20926
3.756,0.19342
3.76,0.17314
3.764,0.17106
3.768,0.14653
3.772,0.14346
3.776,0.15058
3.78,0.12142
3.784,0.11396
3.788,0.09206
3.792,0.08635
3.796,0.07113
3.8,0.0657
3.804,0.07118
3.808,0.04623
3.812,0.03788
3.816,0.0413
3.82,0.03414
3.824,0.02171
3.828,0.03357
3.832,0.02867
3.836,0.00804
3.84,0.00796
3.844,0.04296
3.848,0.04439
3.852,0.04321
3.856,0.00306
3.86,0.05959
3.864,0.0313
3.868,0.00063
3.872,0.05074
3.876,-0.01343
3.88,0.02788
3.884,0.02564
3.888,0.02211
3.892,0.00738
3.896,0.02655
3.9,0.02438
3.904,0.02128
3.908,0.01441
3.912,0.00487
3.916,-0.00193
3.92,0.01357
3.924,0.01753
3.928,0.008
3.932,-0.01132
3.936,0.01587
3.94,-0.00925
3.944,0.02035
3.948,0.02861
3.952,0.01702
3.956,0.01861
3.96,-0.0021
3.964,0.00822
3.968,0.00678
3.972,0.02065
3.976,0.01513
3.98,0.03086
3.984,0.02146
3.988,0.0337
3.992,0.03065
3.996,0.02128
4.0,0.0018
4.004,-0.00253
4.008,0.02149
4.012,-0.01553
4.016,0.01401
4.02,0.01956
4.024,0.01644
4.028,0.0052
4.032,0.03078
4.036,0.0228
4.04,0.0172
4.044,0.01645
4.048,0.01306
4.052,0.01861
4.056,-0.00562
4.06,0.02232
4.064,-0.00033
4.068,0.00688
4.072,0.0155
4.076,-0.01531
4.08,0.02619
4.084,0.01854
4.088,0.01865
4.092,0.01202
4.096,0.0042
4.1,0.02595
4.104,0.01939
4.108,0.01223
4.112,-0.0009
4.116,0.03073
4.12,0.0163
4.124,0.04267
4.128,0.05564
4.132,0.03865
4.136,0.02374
4.14,0.01074
4.144,0.00701
4.148,0.02087
4.152,0.02212
4.156,0.00705
4.16,0.02628
4.164,0.04461
4.168,0.0124
4.172,0.02311
4.176,0.00746
4.18,0.04612
4.184,0.07232
4.188,0.06349
4.192,0.08205
4.196,0.06617
4.2,0.10953
4.204,0.12235
4.208,0.10975
4.212,0.08803
4.216,0.07063
4.22,0.08259
4.224,0.08537
4.228,0.05489
4.232,0.03911
4.236,0.04887
4.24,0.04581
4.244,0.02193
4.248,0.03493
4.252,0.00324
4.256,0.03846
4.26,0.02517
4.264,0.01892
4.268,0.0091
4.272,0.00306
4.276,0.02664
4.28,0.03445
4.284,-0.01235
4.288,-0.0021
4.292,0.01567
4.296,-0.03039
4.3,0.01065
4.304,0.01344
4.308,0.01151
4.312,-0.01384
4.316,0.00541
4.32,-0.00173
4.324,0.00692
4.328,-0.06347
4.332,-0.07853
4.336,-0.12171
4.34,-0.09064
4.344,0.00202
4.348,0.16945
4.352,0.35254
4.356,0.59282
4.36,0.78449
4.364,0.94158
4.368,1.03218
4.372,0.95036
4.376,0.7771
4.38,0.57007
4.384,0.37014
4.388,0.11473
4.392,-0.01787
4.396,-0.11961
4.4,-0.15562
4.404,-0.17299
4.408,-0.10945
4.412,-0.06448
4.416,-0.06129
4.42,0.0056
4.424,-0.00686
4.428,0.01547
4.432,-0.0226
4.436,-0.00099
4.44,-0.01367
4.444,-0.0199
4.448,-0.00427
4.452,0.01441
4.456,0.00864
4.46,-0.00232
4.464,-0.01791
4.468,-0.00991
4.472,0.02002
4.476,0.00727
4.48,-0.02583
4.484,0.00945
4.488,0.00946
4.492,0.0008
4.496,0.0115
4.5,0.03126
4.504,0.02018
4.508,-0.00176
4.512,0.01531
4.516,0.04891
4.52,0.02017
4.524,-0.00658
4.528,0.00363
4.532,0.02361
4.536,-0.00261
4.54,0.00663
4.544,2e-05
4.548,0.00528
4.552,0.02077
4.556,0.00162
4.56,0.05316
4.564,0.03779
4.568,0.07774
4.572,0.08282
4.576,0.05322
4.58,0.06899
4.584,0.10193
4.588,0.09141
4.592,0.06647
4.596,0.09591
4.6,0.13428
4.604,0.14062
4.608,0.14175
4.612,0.1433
4.616,0.15337
4.62,0.19088
4.624,0.17779
4.628,0.20726
4.632,0.22629
4.636,0.22091
4.64,0.21006
4.644,0.21209
4.648,0.24025
4.652,0.1994
4.656,0.2188
4.66,0.22125
4.664,0.22457
4.668,0.19757
4.672,0.213
4.676,0.18429
4.68,0.16712
4.684,0.13663
4.688,0.15528
4.692,0.10647
4.696,0.12386
4.7,0.08986
4.704,0.07754
4.708,0.10419
4.712,0.09995
4.716,0.08638
4.72,0.0608
4.724,0.05223
4.728,0.05038
4.732,0.05371
4.736,0.05756
4.74,-0.00889
4.744,0.01681
4.748,-0.02126
4.752,0.01343
4.756,0.02036
4.76,-0.0097
4.764,-0.00978
4.768,-0.02782
4.772,0.02041
4.776,0.01851
4.78,0.01136
4.784,0.01268
4.788,0.01323
4.792,-0.00984
4.796,-0.00918
4.8,0.00509
4.804,-0.00654
4.808,0.02073
4.812,0.02183
4.816,-0.00276
4.82,-0.00916
4.824,-0.00622
4.828,-0.00884
4.832,0.00139
4.836,-0.03283
4.84,-0.00215
4.844,-0.02777
4.848,-0.01364
4.852,0.01544
4.856,-0.00413
4.86,-0.00693
4.864,-0.01278
4.868,-0.02107
4.872,-0.01024
4.876,-0.02837
4.88,-0.02226
4.884,-0.01796
4.888,-0.01301
4.892,0.00797
4.896,-0.0365
4.9,-0.00092
4.904,0.00751
4.908,-0.04152
4.912,-0.04253
4.916,-0.01987
4.92,-0.01983
4.924,-0.00594
4.928,-0.01019
4.932,0.00354
4.936,-0.03086
4.94,-0.03625
4.944,-0.01596
4.948,-0.00826
4.952,0.01043
4.956,-0.01457
4.96,0.01472
4.964,-0.00816
4.968,-0.02223
4.972,-0.01674
4.976,-0.02179
4.98,-0.00054
4.984,-0.00518
4.988,0.0102
4.992,-0.00607
4.996,-0.02823
5.0,-0.01174
5.004,-0.01003
5.008,0.00221
5.012,-0.0331
5.016,-0.0321
5.02,-0.01023
5.024,-0.03535
5.028,-0.03036
5.032,-0.02674
5.036,-0.02001
5.04,-0.00515
5.044,-0.0069
5.048,-0.00076
5.052,-0.01615
5.056,-0.02261
5.06,-0.00771
5.064,-0.01705
5.068,0.01737
5.072,-0.00682
5.076,0.0274
5.08,-0.02671
5.084,-0.00394
5.088,-0.01676
5.092,0.04183
5.096,-0.00305
5.1,0.04615
5.104,0.03201
5.108,0.06707
5.112,0.08493
5.116,0.06486
5.12,0.07737
5.124,0.11736
5.128,0.06052
5.132,0.06126
5.136,0.06325
5.14,0.06278
5.144,0.06182
5.148,0.07319
5.152,0.02823
5.156,-0.01252
5.16,0.01987
5.164,-0.00219
5.168,-0.01792
5.172,-0.00196
5.176,-0.0224
5.18,-0.00427
5.184,-0.02058
5.188,0.00258
5.192,0.00135
5.196,-0.03769
5.2,-0.0079
5.204,-0.00512
5.208,-0.01124
5.212,-0.01074
5.216,-0.02134
5.22,-0.01966
5.224,-0.02496
5.228,-0.00295
5.232,-0.00417
5.236,-0.04368
5.24,-0.08365
5.244,-0.10696
5.248,-0.12528
5.252,-0.12505
5.256,-0.03249
5.26,0.10122
5.264,0.28839
5.268,0.49151
5.272,0.71027
5.276,0.87243
5.28,0.96739
5.284,0.94489
5.288,0.82938
5.292,0.63671
5.296,0.43922
5.3,0.20305
5.304,-0.00186
5.308,-0.13268
5.312,-0.18845
5.316,-0.14803
5.32,-0.13324
5.324,-0.13183
5.328,-0.08
5.332,-0.02261
5.336,-0.05218
5.34,-0.03242
5.344,-0.00315
5.348,-0.03216
5.352,-0.00702
5.356,-0.00874
5.36,-0.01177
5.364,-0.05198
5.368,-0.0006
5.372,-0.01282
5.376,-0.0142
5.38,-0.01528
5.384,-0.03143
5.388,-0.01662
5.392,-0.0015
5.396,-0.02296
5.4,-0.02045
5.404,-0.02548
5.408,-0.03345
5.412,-0.01944
5.416,-0.02399
5.42,-0.01159
5.424,-0.00376
5.428,-0.00804
5.432,-0.044
5.436,-0.04354
5.44,-0.03412
5.444,-0.02043
5.448,-0.04073
5.452,-0.02251
5.456,-0.02265
5.46,-0.00095
5.464,0.01833
5.468,0.00363
5.472,0.01264
5.476,0.01562
5.48,0.02514
5.484,0.05704
5.488,0.06089
5.492,0.03587
5.496,0.06914
5.5,0.0782
5.504,0.06613
5.508,0.0783
5.512,0.08708
5.516,0.11011
5.52,0.13668
5.524,0.1459
5.528,0.13412
5.532,0.13565
5.536,0.17064
5.54,0.13834
5.544,0.19137
5.548,0.20294
5.552,0.17789
5.556,0.21038
5.56,0.20197
5.564,0.20941
5.568,0.20389
5.572,0.21253
5.576,0.18354
5.58,0.1704
5.584,0.16315
5.588,0.15932
5.592,0.12833
5.596,0.14016
5.6,0.12338
5.604,0.0921
5.608,0.11299
5.612,0.08622
5.616,0.07464
5.62,0.06142
5.624,0.03881
5.628,0.06148
5.632,0.01613
5.636,0.02005
5.64,0.02938
5.644,-0.00526
5.648,0.01856
5.652,0.02358
5.656,-0.01516
5.66,-0.01897
5.664,0.00176
5.668,0.01679
5.672,-0.0048
5.676,-0.01885
5.68,-0.01378
5.684,0.00026
5.688,-0.02141
5.692,-0.03058
5.696,-0.02806
5.7,-0.02932
5.704,-0.00346
5.708,-0.01387
5.712,-0.05182
5.716,-0.02161
5.72,-0.02454
5.724,-0.00616
5.728,-0.06441
5.732,-0.03479
5.736,-0.02603
5.74,-0.04263
5.744,-0.02433
5.748,-0.00645
5.752,-0.02306
5.756,-0.01632
5.76,-0.01772
5.764,-0.02051
5.768,-0.00794
5.772,-0.02567
5.776,-0.02022
5.78,-0.01755
5.784,-0.00813
5.788,-0.01598
5.792,-0.00754
5.796,-0.03092
5.8,-0.0158
5.804,-0.03831
5.808,-0.04275
5.812,-0.01706
5.816,-0.03344
5.82,-0.04334
5.824,-0.01748
5.828,0.00604
5.832,-0.02251
5.836,-0.01779
5.84,-0.01186
5.844,-0.03658
5.848,-0.01116
5.852,-0.0181
5.856,-0.03014
5.86,-0.02574
5.864,-0.01012
5.868,-0.03106
5.872,-0.01255
5.876,-0.00945
5.88,-0.02931
5.884,-0.02394
5.888,-0.04136
5.892,-0.05387
5.896,-0.04779
5.9,-0.00727
5.904,-0.04129
5.908,-0.02947
5.912,-0.0172
5.916,-0.01869
5.92,-0.02533
5.924,-0.04183
5.928,-0.04015
5.932,-0.00137
5.936,-0.02175
5.94,-0.04934
5.944,-0.01955
5.948,-0.02059
5.952,-0.00896
5.956,-0.00779
5.96,-0.00278
5.964,-0.02924
5.968,-0.02127
5.972,0.03217
5.976,0.01266
5.98,0.02115
5.984,0.05628
5.988,0.04817
5.992,0.04657
5.996,0.07988
6.0,0.08699
6.004,0.08956
6.008,0.05592
6.012,0.07572
6.016,0.0598
6.02,0.0251
6.024,0.01124
6.028,0.02703
6.032,-0.01112
6.036,-0.00064
6.04,-0.03209
6.044,-0.02856
6.048,-0.01573
6.052,-0.03681
6.056,-0.02064
6.06,-0.0548
6.064,-0.0329
6.068,-0.01507
6.072,-0.00445
6.076,0.00372
6.08,-0.02731
6.084,-0.03552
6.088,-0.05106
6.092,-0.03023
6.096,-0.01549
6.1,-0.02014
6.104,-0.03691
6.108,-0.01718
6.112,-0.03286
6.116,-0.05291
6.12,-0.09975
6.124,-0.14525
6.128,-0.11436
6.132,-0.13678
6.136,-0.01777
6.14,0.13282
6.144,0.29577
6.148,0.5215
6.152,0.71299
6.156,0.89279
6.16,0.94355
6.164,0.93551
6.168,0.77779
6.172,0.61447
6.176,0.33469
6.18,0.15005
6.184,-0.03184
6.188,-0.12098
6.192,-0.18084
6.196,-0.17154
6.2,-0.14899
6.204,-0.12109
6.208,-0.08587
6.212,-0.06062
6.216,-0.0477
6.22,-0.0408
6.224,-0.0208
6.228,-0.03998
6.232,-0.03822
6.236,-0.04276
6.24,-0.00667
6.244,-0.03496
6.248,-0.01582
6.252,-0.05105
6.256,-0.03047
6.26,-0.03526
6.264,-0.01822
6.268,-0.01064
6.272,-0.01099
6.276,-0.03488
6.28,-0.03589
6.284,-0.01236
6.288,-0.04349
6.292,-0.02026
6.296,-0.05656
6.3,-0.02005
6.304,-0.0196
6.308,0.00279
6.312,-0.01393
6.316,-0.02321
6.32,-0.0129
6.324,0.01413
6.328,-0.02699
6.332,-0.02384
6.336,-0.01391
6.34,-0.00279
6.344,-0.00603
6.348,-0.00253
6.352,0.00231
6.356,0.01315
6.36,0.03701
6.364,0.0248
6.368,0.02576
6.372,0.04744
6.376,0.04219
6.38,0.04717
6.384,0.07296
6.388,0.08859
6.392,0.07813
6.396,0.07336
6.4,0.11577
6.404,0.13764
6.408,0.16623
6.412,0.17094
6.416,0.14354
6.42,0.13594
6.424,0.18003
6.428,0.18396
6.432,0.14765
6.436,0.19207
6.44,0.17763
6.444,0.18552
6.448,0.18459
6.452,0.20641
6.456,0.19256
6.46,0.17992
6.464,0.18111
6.468,0.16275
6.472,0.14244
6.476,0.13501
6.48,0.11089
6.484,0.13556
6.488,0.07826
6.492,0.05252
6.496,0.06929
6.5,0.04207
6.504,0.07463
6.508,0.03383
6.512,0.00127
6.516,0.02166
6.52,0.0355
6.524,-0.01485
6.528,-0.0067
6.532,-0.00837
6.536,-0.02115
6.54,-0.02152
6.544,-0.02811
6.548,-0.03744
6.552,-0.02569
6.556,-0.00922
6.56,-0.03745
6.564,-0.00628
6.568,-0.02977
6.572,-0.03597
6.576,-0.04602
6.58,-0.01264
6.584,-0.03083
6.588,-0.04183
6.592,-0.02851
6.596,-0.006
6.6,-0.02092
6.604,-0.01084
6.608,-0.02659
6.612,-0.02296
6.616,-0.04212
6.62,-0.04537
6.624,-0.03589
6.628,-0.01822
6.632,-0.00751
6.636,-0.00556
6.64,-0.01471
6.644,-0.02728
6.648,-0.01884
6.652,-0.00163
6.656,-0.02789
6.66,0.0003
6.664,-0.00618
6.668,-0.02226
6.672,-0.04864
6.676,-0.01124
6.68,-0.01684
6.684,-0.0183
6.688,-0.03389
6.692,-0.02492
6.696,-0.0231
6.7,-0.01652
6.704,-0.0339
6.708,-0.01741
6.712,-0.01999
6.716,-0.01013
6.72,-0.04345
6.724,-0.05205
6.728,-0.00228
6.732,-0.03427
6.736,-0.01439
6.74,-0.00282
6.744,-0.01726
6.748,-0.05219
6.752,-0.00951
6.756,0.01831
6.76,-0.01326
6.764,-0.03185
6.768,-0.0197
6.772,-0.00457
6.776,-0.02463
6.78,-0.01558
6.784,-0.02795
6.788,-0.02336
6.792,-0.00428
6.796,-0.0213
6.8,-0.03794
6.804,-0.015
6.808,-0.04673
6.812,-0.04784
6.816,-0.02454
6.82,-0.04833
6.824,-0.03759
6.828,-0.01393
6.832,-0.04817
6.836,-0.04984
6.84,-0.03595
6.844,-0.02204
6.848,-0.01872
6.852,-0.02693
6.856,-0.02374
6.86,-0.03279
6.864,-0.02093
6.868,-0.01999
6.872,0.01722
6.876,-0.00966
6.88,-0.00011
6.884,0.02125
6.888,-0.01056
6.892,0.03529
6.896,0.04855
6.9,0.06318
6.904,0.05863
6.908,0.07178
6.912,0.05032
6.916,0.04401
6.92,0.08949
6.924,0.05619
6.928,0.03949
6.932,0.04272
6.936,0.03226
6.94,0.04269
6.944,-0.01044
6.948,0.00406
6.952,-0.01525
6.956,-0.02365
6.96,-0.03315
6.964,-0.0301
6.968,-0.01883
6.972,-0.04049
6.976,-0.00315
6.98,-0.02521
6.984,-0.01017
6.988,-0.01843
6.992,-0.03474
6.996,0.00221
7.0,-0.04096
7.004,-0.03486
7.008,0.00149
7.012,-0.0406
7.016,-0.01081
7.02,-0.0232
7.024,-0.02421
7.028,-0.02507
7.032,-0.08751
7.036,-0.11128
7.04,-0.12378
7.044,-0.11505
7.048,-0.01019
7.052,0.1519
7.056,0.33108
7.06,0.54973
7.064,0.77063
7.068,0.92052
7.072,0.97742
7.076,0.91314
7.08,0.80294
7.084,0.56741
7.088,0.35186
7.092,0.13519
7.096,-0.05722
7.1,-0.15424
7.104,-0.1691
7.108,-0.20239
7.112,-0.16826
7.116,-0.09935
7.12,-0.07592
7.124,-0.0362
7.128,-0.01645
7.132,-0.04903
7.136,0.00377
7.14,-0.01271
7.144,-0.02713
7.148,-0.03586
7.152,-0.03302
7.156,0.00547
7.16,0.00493
7.164,-0.0065
7.168,-0.0558
7.172,-0.0114
7.176,-0.00857
7.18,-0.04721
7.184,-0.02859
7.188,-0.0323
7.192,0.00783
7.196,-0.02671
7.2,0.00749
7.204,-0.05663
7.208,-0.04111
7.212,-0.00052
7.216,-0.02657
7.22,-0.04336
7.224,-0.00048
7.228,-0.0063
7.232,0.01462
7.236,-0.00463
7.24,0.00768
7.244,-0.00353
7.248,-0.01538
7.252,-0.00652
7.256,0.00456
7.26,0.00305
7.264,-0.00324
7.268,0.0377
7.272,0.03641
7.276,0.04429
7.28,0.02992
7.284,0.05
7.288,0.0754
7.292,0.05673
7.296,0.10176
7.3,0.07469
7.304,0.11693
7.308,0.1469
7.312,0.12892
7.316,0.12215
7.32,0.16067
7.324,0.15556
7.328,0.19943
7.332,0.17173
7.336,0.1746
7.34,0.1991
7.344,0.22155
7.348,0.20071
7.352,0.19993
7.356,0.19893
7.36,0.23051
7.364,0.21207
7.368,0.1872
7.372,0.17978
7.376,0.1867
7.38,0.16668
7.384,0.14952
7.388,0.15353
7.392,0.11973
7.396,0.12457
7.4,0.10636
7.404,0.09526
7.408,0.1036
7.412,0.08631
7.416,0.08551
7.42,0.056
7.424,0.0305
7.428,0.04995
7.432,0.01543
7.436,0.03797
7.44,0.02295
7.444,0.03184
7.448,-0.00119
7.452,0.01359
7.456,-0.00804
7.46,0.00248
7.464,0.00201
7.468,-0.01136
7.472,-0.03115
7.476,-0.02017
7.48,-0.00985
7.484,-0.00032
7.488,-0.01975
7.492,-0.00555
7.496,-0.00035
7.5,0.00561
7.504,-0.01277
7.508,-0.01764
7.512,-0.00453
7.516,-0.00131
7.52,0.00029
7.524,0.00948
7.528,-0.02809
7.532,0.03173
7.536,0.00286
7.54,0.0082
7.544,-0.00225
7.548,-0.02605
7.552,-0.02619
7.556,0.0141
7.56,0.00468
7.564,0.00068
7.568,-0.01135
7.572,0.0216
7.576,-0.00807
7.58,-0.01523
7.584,0.00038
7.588,-0.00786
7.592,0.00301
7.596,-0.00414
7.6,-0.01364
7.604,-0.0123
7.608,-0.00189
7.612,-0.02524
7.616,0.006
7.62,-0.02447
7.624,1e-05
7.628,-0.01968
7.632,0.00187
7.636,-0.00929
7.64,0.0118
7.644,-0.00684
7.648,-0.01788
7.652,0.00567
7.656,0.00711
7.66,-0.02939
7.664,-0.00864
7.668,-0.00136
7.672,0.0011
7.676,-0.00399
7.68,-0.01559
7.684,-0.00722
7.688,-0.01728
7.692,0.00637
7.696,-0.01887
7.7,0.00469
7.704,-0.01456
7.708,0.01709
7.712,0.00188
7.716,-0.01201
7.72,-0.00144
7.724,-0.00422
7.728,0.00723
7.732,0.04511
7.736,0.02121
7.74,0.02487
7.744,0.03226
7.748,0.07286
7.752,0.07193
7.756,0.07728
7.76,0.11856
7.764,0.06219
7.768,0.10277
7.772,0.1128
7.776,0.06912
7.78,0.0806
7.784,0.11167
7.788,0.06284
7.792,0.07169
7.796,0.04496
7.8,0.01326
7.804,0.00782
7.808,0.02828
7.812,0.01667
7.816,-0.02013
7.82,0.00893
7.824,-0.0064
7.828,0.01433
7.832,-0.01286
7.836,-0.00057
7.84,-0.00339
7.844,0.00464
7.848,0.01142
7.852,-0.02273
7.856,-0.01205
7.86,0.013
7.864,-0.02934
7.868,0.0009
7.872,0.01785
7.876,-0.00432
7.88,-0.02719
7.884,0.00097
7.888,-0.03129
7.892,-0.07823
7.896,-0.11457
7.9,-0.1094
7.904,-0.06116
7.908,0.06401
7.912,0.20713
7.916,0.39403
7.92,0.61025
7.924,0.82679
7.928,0.96586
7.932,0.9863
7.936,0.89662
7.94,0.73724
7.944,0.53352
7.948,0.31575
7.952,0.09978
7.956,-0.07777
7.96,-0.13774
7.964,-0.18106
7.968,-0.13224
7.972,-0.10665
7.976,-0.05595
7.98,-0.03991
7.984,-0.01648
7.988,0.00615
7.992,-0.00828
7.996,-0.0139
8.0,0.00498
8.004,-0.02094
8.008,0.01842
8.012,0.02
8.016,-0.0166
8.02,0.01208
8.024,0.00654
8.028,-0.00931
8.032,-0.01809
8.036,0.00954
8.04,0.01401
8.044,-0.00509
8.048,-0.02533
8.052,0.00275
8.056,0.01381
8.06,0.03809
8.064,0.0067
8.068,0.01994
8.072,-0.00614
8.076,0.00775
8.08,-0.01656
8.084,0.00751
8.088,-0.0021
8.092,0.01775
8.096,-0.00977
8.1,-0.0026
8.104,0.01397
8.108,0.00805
8.112,0.02408
8.116,0.01691
8.12,0.05692
8.124,0.02998
8.128,0.05918
8.132,0.06214
8.136,0.05281
8.14,0.05468
8.144,0.07778
8.148,0.1103
8.152,0.11605
8.156,0.11669
8.16,0.10968
8.164,0.15064
8.168,0.1565
8.172,0.16867
8.176,0.17419
8.18,0.17799
8.184,0.19916
8.188,0.18925
8.192,0.23436
8.196,0.19988
8.2,0.24302
8.204,0.22967
8.208,0.23769
8.212,0.2408
8.216,0.22713
8.22,0.24294
8.224,0.23387
8.228,0.22628
8.232,0.19004
8.236,0.19929
8.24,0.1968
8.244,0.20731
8.248,0.16086
8.252,0.1768
8.256,0.14324
8.26,0.12
8.264,0.13973
8.268,0.11417
8.272,0.08688
8.276,0.09882
8.28,0.08565
8.284,0.07748
8.288,0.04895
8.292,0.03638
8.296,0.05087
8.3,0.07176
8.304,0.03558
8.308,0.01853
8.312,0.02509
8.316,0.04266
8.32,0.02047
8.324,0.01037
8.328,0.01378
8.332,0.02012
8.336,0.04456
8.34,-0.00595
8.344,0.01256
8.348,0.01478
8.352,0.03524
8.356,0.02133
8.36,0.00513
8.364,0.02771
8.368,0.03554
8.372,0.00938
8.376,0.02942
8.38,0.02235
8.384,0.01168
8.388,-0.01551
8.392,0.01038
8.396,-0.0118
8.4,0.00652
8.404,-0.00669
8.408,0.02461
8.412,0.02355
8.416,0.01465
8.42,0.01488
8.424,0.02773
8.428,0.02993
8.432,0.01156
8.436,0.0454
8.44,0.07329
8.444,0.06964
8.448,0.10507
8.452,0.11296
8.456,0.11868
8.46,0.09753
8.464,0.1203
8.468,0.1115
8.472,0.09554
8.476,0.0866
8.48,0.10473
8.484,0.05844
8.488,0.0839
8.492,0.039
8.496,0.04689
8.5,0.04407
8.504,0.02114
8.508,0.03202
8.512,0.03664
8.516,0.02913
8.52,0.01662
8.524,0.01858
8.528,0.01649
8.532,-0.00878
8.536,0.05326
8.54,0.03604
8.544,0.02994
8.548,-0.00755
8.552,0.01516
8.556,-0.01069
8.56,0.01626
8.564,0.01041
8.568,-0.00482
8.572,0.00197
8.576,-0.0046
8.58,-0.04487
8.584,-0.0683
8.588,-0.0844
8.592,-0.08699
8.596,-0.03113
8.6,0.11779
8.604,0.29118
8.608,0.49122
8.612,0.72218
8.616,0.91517
8.62,1.01584
8.624,0.9894
8.628,0.89381
8.632,0.69354
8.636,0.45669
8.64,0.25871
8.644,0.08081
8.648,-0.07843
8.652,-0.11957
8.656,-0.14516
8.66,-0.10403
8.664,-0.09935
8.668,-0.02585
8.672,0.00494
8.676,0.00583
8.68,0.03704
8.684,0.00292
8.688,0.01941
8.692,0.01772
8.696,0.01142
8.7,0.01398
8.704,0.02383
8.708,0.03646
8.712,0.01329
8.716,0.01381
8.72,0.03779
8.724,0.01018
8.728,0.03139
8.732,0.05353
8.736,0.03377
8.74,0.02969
8.744,0.01124
8.748,0.01728
8.752,0.04711
8.756,0.04
8.76,0.00643
8.764,0.02121
8.768,0.05486
8.772,0.0244
8.776,0.02079
8.78,0.03452
8.784,0.0381
8.788,0.04695
8.792,0.04817
8.796,0.04018
8.8,0.03043
8.804,0.04319
8.808,0.05216
8.812,0.07396
8.816,0.05793
8.82,0.03638
8.824,0.08392
8.828,0.07947
8.832,0.08119
8.836,0.10877
8.84,0.11007
8.844,0.11469
8.848,0.15311
8.852,0.1135
8.856,0.16161
8.86,0.16217
8.864,0.17164
8.868,0.16387
8.872,0.18241
8.876,0.19911
8.88,0.22422
8.884,0.22952
8.888,0.20833
8.892,0.24414
8.896,0.23839
8.9,0.27374
8.904,0.24015
8.908,0.22818
8.912,0.23161
8.916,0.23635
8.92,0.23267
8.924,0.22087
8.928,0.21662
8.932,0.21722
8.936,0.19244
8.94,0.17815
8.944,0.18414
8.948,0.18284
8.952,0.14357
8.956,0.12057
8.96,0.13548
8.964,0.12168
8.968,0.10195
8.972,0.11109
8.976,0.08827
8.98,0.07825
8.984,0.07471
8.988,0.06932
8.992,0.06916
8.996,0.06402
9.0,0.063
9.004,0.0422
9.008,0.03684
9.012,0.05224
9.016,0.01604
9.02,0.03846
9.024,0.0325
9.028,0.02748
9.032,0.03231
9.036,0.03663
9.04,0.02213
9.044,0.03463
9.048,0.02264
9.052,0.01291
9.056,0.03189
9.06,-0.00172
9.064,0.04395
9.068,0.02424
9.072,0.02106
9.076,0.03015
9.08,0.0317
9.084,0.02921
9.088,0.02647
9.092,0.03551
9.096,0.01839
9.1,0.02149
9.104,0.0023
9.108,0.02721
9.112,0.01907
9.116,0.02476
9.12,-0.00579
9.124,0.00929
9.128,0.03717
9.132,0.03391
9.136,0.04344
9.14,0.04424
9.144,0.0311
9.148,0.04031
9.152,0.01482
9.156,0.03594
9.16,0.06996
9.164,0.04533
9.168,0.04548
9.172,0.0765
9.176,0.06216
9.18,0.11368
9.184,0.11568
9.188,0.1072
9.192,0.1423
9.196,0.11534
9.2,0.12651
9.204,0.09107
9.208,0.11198
9.212,0.11306
9.216,0.09967
9.22,0.07307
9.224,0.06402
9.228,0.06768
9.232,0.07752
9.236,0.03148
9.24,0.03931
9.244,0.06683
9.248,0.01123
9.252,0.03766
9.256,0.03903
9.26,0.03375
9.264,0.00807
9.268,0.00882
9.272,0.03104
9.276,0.04082
9.28,0.01223
9.284,0.03122
9.288,0.02627
9.292,0.0166
9.296,0.05138
9.3,0.00551
9.304,0.03773
9.308,0.03167
9.312,0.00786
9.316,0.01028
9.32,-0.02931
9.324,-0.063
9.328,-0.06478
9.332,-0.06921
9.336,0.04262
9.34,0.19557
9.344,0.40743
9.348,0.64115
9.352,0.84431
9.356,0.98793
9.36,1.00204
9.364,0.96468
9.368,0.83672
9.372,0.54695
9.376,0.33366
9.38,0.16586
9.384,-0.0215
9.388,-0.09928
9.392,-0.16914
9.396,-0.12793
9.4,-0.09843
9.404,-0.05791
9.408,-0.022
9.412,0.01907
9.416,0.03002
9.42,0.03799
9.424,0.0103
9.428,0.0218
9.432,0.01576
9.436,0.02733
9.44,0.02238
9.444,0.02924
9.448,0.02308
9.452,0.04034
9.456,0.0174
9.46,0.03704
9.464,0.0292
9.468,0.03792
9.472,-0.0128
9.476,-0.00075
9.48,0.03912
9.484,0.03558
9.488,0.06455
9.492,0.05764
9.496,0.042
9.5,0.02237
9.504,0.04017
9.508,0.0388
9.512,0.02836
9.516,0.01951
9.52,0.01122
9.524,0.04949
9.528,0.04561
9.532,0.05265
9.536,0.05731
9.54,0.04364
9.544,0.05097
9.548,0.05083
9.552,0.06089
9.556,0.08826
9.56,0.09961
9.564,0.10199
9.568,0.08827
9.572,0.08593
9.576,0.11664
9.58,0.1421
9.584,0.14943
9.588,0.13625
9.592,0.13871
9.596,0.15499
9.6,0.18385
9.604,0.19093
9.608,0.2158
9.612,0.21161
9.616,0.20297
9.62,0.20632
9.624,0.25328
9.628,0.27035
9.632,0.23987
9.636,0.25564
9.64,0.24749
9.644,0.27449
9.648,0.24166
9.652,0.23805
9.656,0.23094
9.66,0.21722
9.664,0.2187
9.668,0.2319
9.672,0.22624
9.676,0.17502
9.68,0.19736
9.684,0.1643
9.688,0.1425
9.692,0.15933
9.696,0.12676
9.7,0.13607
9.704,0.10126
9.708,0.12767
9.712,0.10517
9.716,0.09043
9.72,0.05694
9.724,0.06067
9.728,0.07
9.732,0.03558
9.736,0.03019
9.74,0.03839
9.744,0.05056
9.748,0.05367
9.752,0.04734
9.756,0.02981
9.76,0.0506
9.764,0.03363
9.768,0.05845
9.772,0.02096
9.776,0.03154
9.78,0.03363
9.784,0.00814
9.788,0.00752
9.792,0.0069
9.796,0.00212
9.8,0.03396
9.804,0.04544
9.808,0.04142
9.812,0.02624
9.816,0.01823
9.82,0.02695
9.824,0.00574
9.828,0.00738
9.832,0.03176
9.836,0.0186
9.84,0.02751
9.844,0.02756
9.848,0.03629
9.852,0.03709
9.856,0.03049
9.86,0.01787
9.864,0.04895
9.868,0.0504
9.872,0.01659
9.876,0.03097
9.88,0.04477
9.884,0.01782
9.888,0.03646
9.892,0.00558
9.896,0.02127
9.9,0.0337
9.904,0.03608
9.908,0.02981
9.912,0.03551
9.916,0.03305
9.92,0.01357
9.924,0.0199
9.928,0.00849
9.932,0.01394
9.936,0.0192
9.94,0.04436
9.944,0.02177
9.948,0.00581
9.952,0.01381
9.956,0.01518
9.96,0.03083
9.964,0.02058
9.968,0.01839
9.972,0.03628
9.976,0.00441
9.98,0.02374
9.984,-0.00306
9.988,0.02678
9.992,0.05085
9.996,0.02135
