t_seg,ecg_mV
0.0,0.04789
0.004,0.07586
0.008,0.0468
0.012,0.02383
0.016,0.09161
0.02,0.10162
0.024,0.0987
0.028,0.10373
0.032,0.12153
0.036,0.0756
0.04,0.09247
0.044,0.11048
0.048,0.06285
0.052,0.0582
0.056,0.04594
0.06,0.05252
0.064,0.00353
0.068,0.01431
0.072,0.02747
0.076,0.02952
0.08,-0.00984
0.084,0.01225
0.088,0.00146
0.092,0.01003
0.096,0.0259
0.1,-0.02014
0.104,-0.01012
0.108,-0.00201
0.112,-0.02899
0.116,-0.02408
0.12,-0.00148
0.124,0.01112
0.128,0.00397
0.132,-0.00574
0.136,0.00034
0.14,0.00312
0.144,-0.01063
0.148,-0.06426
0.152,-0.1033
0.156,-0.09905
0.16,-0.13399
0.164,-0.03057
0.168,0.09283
0.172,0.24985
0.176,0.4701
0.18,0.69327
0.184,0.8628
0.188,0.96791
0.192,0.99625
0.196,0.89208
0.2,0.71292
0.204,0.45345
0.208,0.24859
0.212,0.05318
0.216,-0.06717
0.22,-0.15853
0.224,-0.18438
0.228,-0.1383
0.232,-0.12563
0.236,-0.0745
0.24,-0.03307
0.244,0.00354
0.248,-0.02785
0.252,-0.01053
0.256,-0.00907
0.26,-0.03232
0.264,0.00324
0.268,-0.01166
0.272,-0.00721
0.276,-5e-05
0.28,-0.02158
0.284,-0.02125
0.288,0.01729
0.292,-0.00411
0.296,0.01275
0.3,0.01805
0.304,0.0021
0.308,-0.0178
0.312,0.02423
0.316,-0.007
0.32,-0.01175
0.324,0.003
0.328,0.01054
0.332,0.0057
0.336,-0.00763
0.34,0.01269
0.344,-0.0114
0.348,0.00675
0.352,-0.00157
0.356,-0.01012
0.36,0.01634
0.364,0.01573
0.368,0.00352
0.372,0.00635
0.376,0.02091
0.38,0.03862
0.384,0.05079
0.388,0.02864
0.392,0.05287
0.396,0.06632
0.4,0.04298
0.404,0.06716
0.408,0.05653
0.412,0.08743
0.416,0.11035
0.42,0.11625
0.424,0.13682
0.428,0.13634
0.432,0.12943
0.436,0.15717
0.44,0.19068
0.444,0.16038
0.448,0.22043
0.452,0.19426
0.456,0.20032
0.46,0.19346
0.464,0.23255
0.468,0.16487
0.472,0.22
0.476,0.23276
0.48,0.20921
0.484,0.20631
0.488,0.22571
0.492,0.16882
0.496,0.19105
0.5,0.15598
0.504,0.15786
0.508,0.1657
0.512,0.12338
0.516,0.12826
0.52,0.09472
0.524,0.09732
0.528,0.09641
0.532,0.08455
0.536,0.06135
0.54,0.05443
0.544,0.05117
0.548,0.03497
0.552,0.02302
0.556,0.05878
0.56,0.02391
0.564,0.0017
0.568,0.0579
0.572,0.01846
0.576,-0.00304
0.58,0.00413
0.584,-0.00724
0.588,0.0159
0.592,0.01451
0.596,-0.03135
0.6,-0.02445
0.604,-0.00669
0.608,-0.02281
0.612,-0.01219
0.616,-0.01153
0.62,0.00955
0.624,0.01069
0.628,0.00388
0.632,-0.02649
0.636,-0.01535
0.64,-0.0207
0.644,-0.00944
0.648,-0.00988
0.652,-0.01502
0.656,0.00034
0.66,-0.00788
0.664,-0.02305
0.668,-0.00339
0.672,-0.01053
0.676,-0.00804
0.68,-0.00436
0.684,-0.0165
0.688,0.00089
0.692,-0.02144
0.696,0.02296
0.7,0.00209
0.704,0.0032
0.708,-0.02626
0.712,-0.00852
0.716,-0.02859
0.72,-0.02628
0.724,-0.00422
0.728,0.01073
0.732,-0.00796
0.736,-0.00436
0.74,-0.02728
0.744,-0.04745
0.748,0.01417
0.752,-0.03459
0.756,-0.0256
0.76,-0.01589
0.764,-0.04553
0.768,-0.04031
0.772,-0.01549
0.776,-0.03219
0.78,-0.02054
0.784,-0.00513
0.788,-0.01478
0.792,-0.01747
0.796,-0.0113
0.8,-0.04364
0.804,-0.02345
0.808,0.01683
0.812,0.00171
0.816,-0.01856
0.82,-0.03839
0.824,-0.01663
0.828,0.00026
0.832,-0.01731
0.836,0.03112
0.84,-4e-05
0.844,0.01857
0.848,0.03305
0.852,0.05389
0.856,0.05575
0.86,0.10969
0.864,0.05303
0.868,0.09006
0.872,0.08904
0.876,0.05652
0.88,0.06269
0.884,0.04418
0.888,0.03201
0.892,0.03767
0.896,0.04364
0.9,0.00165
0.904,0.01071
0.908,-0.00722
0.912,-0.03325
0.916,-0.02003
0.92,-0.01869
0.924,0.01708
0.928,-0.01684
0.932,-0.02431
0.936,-0.01377
0.94,-0.00534
0.944,-0.02016
0.948,-0.01183
0.952,-0.05914
0.956,-0.03461
0.96,-0.03633
0.964,-0.02396
0.968,-0.02205
0.972,-0.017
0.976,-0.02494
0.98,-0.02684
0.984,-0.0463
0.988,-0.05705
0.992,-0.10719
0.996,-0.15847
1.0,-0.11857
1.004,-0.07409
1.008,0.07331
1.012,0.23372
1.016,0.43881
1.02,0.65151
1.024,0.8182
1.028,0.96577
1.032,0.99612
1.036,0.85317
1.04,0.67852
1.044,0.44349
1.048,0.20429
1.052,0.01472
1.056,-0.0908
1.06,-0.16559
1.064,-0.20201
1.068,-0.15311
1.072,-0.13187
1.076,-0.09327
1.08,-0.06241
1.084,-0.01637
1.088,-0.02113
1.092,-0.03334
1.096,-0.00882
1.1,-0.01398
1.104,-0.02997
1.108,-0.05304
1.112,-0.04111
1.116,-0.0402
1.12,-0.02037
1.124,-0.02228
1.128,-0.01444
1.132,-0.03808
1.136,-0.03576
1.14,0.01255
1.144,-0.01311
1.148,0.00445
1.152,-0.02019
1.156,-0.02377
1.16,-0.0277
1.164,-0.01462
1.168,0.01465
1.172,-0.02396
1.176,-0.02424
1.18,-0.01818
1.184,-0.04055
1.188,-0.02583
1.192,-0.02346
1.196,-0.01135
1.2,-0.0033
1.204,0.0056
1.208,-0.00826
1.212,0.00517
1.216,0.00154
1.22,-0.00639
1.224,-0.01901
1.228,0.02259
1.232,0.01684
1.236,0.02909
1.24,0.0448
1.244,0.04286
1.248,0.06583
1.252,0.07644
1.256,0.09358
1.26,0.09443
1.264,0.08158
1.268,0.10581
1.272,0.14234
1.276,0.14269
1.28,0.16475
1.284,0.18926
1.288,0.18233
1.292,0.17629
1.296,0.1938
1.3,0.17534
1.304,0.21614
1.308,0.19648
1.312,0.17547
1.316,0.20551
1.32,0.18857
1.324,0.20125
1.328,0.17503
1.332,0.16795
1.336,0.16931
1.34,0.17584
1.344,0.1221
1.348,0.12203
1.352,0.1152
1.356,0.10861
1.36,0.07001
1.364,0.07696
1.368,0.07491
1.372,0.05402
1.376,0.05539
1.38,0.02718
1.384,0.04238
1.388,0.02869
1.392,0.01033
1.396,0.01003
1.4,0.01147
1.404,-0.02548
1.408,-0.00305
1.412,-0.03397
1.416,0.0038
1.42,-0.00187
1.424,-0.03431
1.428,-0.00915
1.432,-0.01747
1.436,-0.02446
1.44,-0.02137
1.444,-0.02532
1.448,-0.05041
1.452,-0.00363
1.456,-0.04786
1.46,-0.04346
1.464,-0.00928
1.468,-0.05354
1.472,-0.03433
1.476,-0.03616
1.48,-0.03908
1.484,-0.03359
1.488,-0.02573
1.492,-0.03442
1.496,-0.04539
1.5,-0.01191
1.504,-0.03546
1.508,-0.02299
1.512,-0.03936
1.516,-0.01756
1.52,-0.01815
1.524,-0.02112
1.528,-0.0406
1.532,-0.01731
1.536,-0.03004
1.54,-0.0221
1.544,-0.02262
1.548,-0.02214
1.552,-0.03098
1.556,-0.04844
1.56,-0.01558
1.564,-0.0131
1.568,-0.05486
1.572,-0.03036
1.576,-0.02646
1.58,-0.03953
1.584,-0.01766
1.588,-0.03568
1.592,-0.04447
1.596,-0.03408
1.6,-0.03948
1.604,-0.02602
1.608,-0.01531
1.612,-0.02412
1.616,-0.06697
1.62,-0.00142
1.624,-0.02308
1.628,-0.01414
1.632,0.00405
1.636,-0.01063
1.64,0.04189
1.644,0.00746
1.648,0.03755
1.652,0.06239
1.656,0.06314
1.66,0.06344
1.664,0.07994
1.668,0.08223
1.672,0.08727
1.676,0.05819
1.68,0.0234
1.684,0.03405
1.688,0.02663
1.692,-0.00507
1.696,0.0095
1.7,0.0079
1.704,-0.01839
1.708,-0.00199
1.712,0.00472
1.716,-0.00887
1.72,-0.04281
1.724,-0.01243
1.728,-0.02819
1.732,-0.02523
1.736,-0.04337
1.74,-0.0457
1.744,-0.04072
1.748,-0.03164
1.752,-0.02745
1.756,-0.02025
1.76,-0.04002
1.764,-0.01087
1.768,-0.05149
1.772,-0.02579
1.776,-0.03712
1.78,-0.05811
1.784,-0.08055
1.788,-0.10466
1.792,-0.1506
1.796,-0.12382
1.8,-0.04463
1.804,0.1341
1.808,0.31637
1.812,0.53183
1.816,0.72777
1.82,0.91702
1.824,0.96599
1.828,0.91769
1.832,0.75449
1.836,0.59092
1.84,0.35304
1.844,0.13732
1.848,-0.03876
1.852,-0.14245
1.856,-0.20116
1.86,-0.16747
1.864,-0.15024
1.868,-0.14035
1.872,-0.07143
1.876,-0.05001
1.88,-0.07259
1.884,-0.03364
1.888,-0.04409
1.892,-0.03263
1.896,-0.03299
1.9,-0.02888
1.904,-0.02014
1.908,-0.04281
1.912,-0.05751
1.916,-0.0683
1.92,-0.0164
1.924,-0.02214
1.928,-0.00805
1.932,-0.02668
1.936,-0.02784
1.94,-0.02746
1.944,-0.0077
1.948,0.00384
1.952,-0.02553
1.956,-0.03076
1.96,-0.03831
1.964,-0.05679
1.968,-0.00395
1.972,-0.03207
1.976,0.00053
1.98,-0.00278
1.984,-0.00148
1.988,-0.01238
1.992,-0.0151
1.996,-0.0207
2.0,-0.01102
2.004,-0.0074
2.008,-0.00521
2.012,-0.00011
2.016,0.01255
2.02,-0.01947
2.024,0.01295
2.028,0.00248
2.032,0.03428
2.036,0.04712
2.04,0.06008
2.044,0.03539
2.048,0.08233
2.052,0.07649
2.056,0.09606
2.06,0.09485
2.064,0.13267
2.068,0.12018
2.072,0.1378
2.076,0.11771
2.08,0.15113
2.084,0.17262
2.088,0.19137
2.092,0.17539
2.096,0.18347
2.1,0.17299
2.104,0.20298
2.108,0.2274
2.112,0.20576
2.116,0.17363
2.12,0.17145
2.124,0.17695
2.128,0.16417
2.132,0.1655
2.136,0.1329
2.14,0.13423
2.144,0.10945
2.148,0.11462
2.152,0.107
2.156,0.07515
2.16,0.05102
2.164,0.06391
2.168,0.0497
2.172,0.04767
2.176,0.04652
2.18,0.01487
2.184,0.0378
2.188,0.03118
2.192,0.00089
2.196,-0.01894
2.2,-0.00594
2.204,-0.01444
2.208,0.00012
2.212,-0.01186
2.216,-0.0037
2.22,-0.02134
2.224,-0.01812
2.228,-0.03387
2.232,-0.0449
2.236,-0.00383
2.24,-0.02287
2.244,-0.04602
2.248,-0.03502
2.252,-0.0201
2.256,-0.03237
2.26,-0.02044
2.264,-0.02514
2.268,-0.01286
2.272,-0.02476
2.276,-0.00387
2.28,-0.03417
2.284,-0.01097
2.288,-0.02659
2.292,-0.02797
2.296,-0.02347
2.3,-0.04639
2.304,-0.01501
2.308,-0.04069
2.312,-0.03106
2.316,-0.02937
2.32,-0.01077
2.324,-0.01957
2.328,-0.00342
2.332,-0.00474
2.336,-0.04067
2.34,-0.03508
2.344,-0.04156
2.348,-0.0173
2.352,-0.04629
2.356,-0.04988
2.36,-0.0513
2.364,-0.02629
2.368,-0.0302
2.372,-0.01683
2.376,-0.02985
2.38,-0.03462
2.384,-0.0194
2.388,-0.02668
2.392,-0.03469
2.396,-0.00646
2.4,-0.04437
2.404,-0.02075
2.408,-0.01978
2.412,-0.01424
2.416,-0.02058
2.42,-0.03003
2.424,-0.00237
2.428,-0.03533
2.432,-0.03088
2.436,-0.02466
2.44,-0.02504
2.444,-0.02132
2.448,-0.0175
2.452,-0.01309
2.456,-0.02235
2.46,-0.02083
2.464,-0.03914
2.468,-0.01656
2.472,-0.01762
2.476,-0.0154
2.48,-0.02822
2.484,-0.05328
2.488,0.01218
2.492,-0.02031
2.496,-0.01592
2.5,-0.06008
2.504,-0.00551
2.508,-0.03265
2.512,-0.02619
2.516,-0.03593
2.52,-0.01233
2.524,-0.03147
2.528,0.00027
2.532,-0.00524
2.536,0.00488
2.54,-0.03537
2.544,0.01039
2.548,-0.00422
2.552,-0.01577
2.556,0.04309
2.56,0.05203
2.564,0.0543
2.568,0.06387
2.572,0.05866
2.576,0.0885
2.58,0.0875
2.584,0.08003
2.588,0.06519
2.592,0.05279
2.596,0.05881
2.6,0.01285
2.604,0.00934
2.608,0.00113
2.612,0.00025
2.616,-0.00492
2.62,-0.03862
2.624,-0.01318
2.628,-0.02114
2.632,-0.02805
2.636,-0.02199
2.64,-0.02279
2.644,-0.03503
2.648,-0.04106
2.652,0.00185
2.656,-0.00694
2.66,-0.00364
2.664,-0.04432
2.668,-0.00753
2.672,-0.0343
2.676,-0.01387
2.68,-0.01513
2.684,-0.01743
2.688,-0.01835
2.692,-0.03685
2.696,-0.09421
2.7,-0.10184
2.704,-0.1281
2.708,-0.12554
2.712,-0.05751
2.716,0.09763
2.72,0.26355
2.724,0.49312
2.728,0.71331
2.732,0.8893
2.736,0.98731
2.74,0.94783
2.744,0.83957
2.748,0.62074
2.752,0.42271
2.756,0.19034
2.76,-0.01316
2.764,-0.13616
2.768,-0.19871
2.772,-0.19274
2.776,-0.14796
2.78,-0.10677
2.784,-0.06054
2.788,-0.02426
2.792,-0.00127
2.796,-0.01551
2.8,-0.0096
2.804,-0.03576
2.808,-0.05647
2.812,-0.01258
2.816,-0.03409
2.82,-0.02384
2.824,-0.0119
2.828,-0.00391
2.832,-0.04268
2.836,0.00733
2.84,-0.01729
2.844,-0.02351
2.848,-0.00174
2.852,-0.00328
2.856,-0.01617
2.86,-0.00934
2.864,-0.02982
2.868,-0.01753
2.872,-0.01602
2.876,-0.00213
2.88,-0.02111
2.884,-0.01987
2.888,-0.04918
2.892,0.0092
2.896,-0.02764
2.9,-0.0152
2.904,0.00055
2.908,-0.00596
2.912,0.02456
2.916,0.02297
2.92,-0.03329
2.924,0.00961
2.928,0.01198
2.932,-0.0008
2.936,0.01518
2.94,0.02653
2.944,0.0484
2.948,0.06591
2.952,0.067
2.956,0.08049
2.96,0.11012
2.964,0.07959
2.968,0.10054
2.972,0.11713
2.976,0.12988
2.98,0.14881
2.984,0.15868
2.988,0.18519
2.992,0.16028
2.996,0.1896
3.0,0.20427
3.004,0.18515
3.008,0.21818
3.012,0.19341
3.016,0.20174
3.02,0.19662
3.024,0.21253
3.028,0.22218
3.032,0.18641
3.036,0.21491
3.04,0.16894
3.044,0.16864
3.048,0.17452
3.052,0.15421
3.056,0.15417
3.06,0.09853
3.064,0.11938
3.068,0.08767
3.072,0.10709
3.076,0.06468
3.08,0.07859
3.084,0.05127
3.088,0.07172
3.092,0.02643
3.096,0.02325
3.1,0.02435
3.104,0.02566
3.108,0.00472
3.112,-0.00475
3.116,0.01199
3.12,0.0056
3.124,-0.01038
3.128,0.00148
3.132,0.00769
3.136,-0.01928
3.14,-0.02478
3.144,-0.00017
3.148,-0.00305
3.152,0.00015
3.156,-0.01151
3.16,-0.00815
3.164,0.00134
3.168,-0.02004
3.172,-0.00039
3.176,-0.00781
3.18,-0.00466
3.184,-0.01433
3.188,0.02121
3.192,-0.01191
3.196,-0.00691
3.2,-0.00893
3.204,-0.01399
3.208,-0.01593
3.212,-0.00701
3.216,-0.03165
3.22,0.00581
3.224,0.01995
3.228,0.01712
3.232,0.00273
3.236,0.00751
3.24,0.01672
3.244,0.02211
3.248,0.0005
3.252,-0.00361
3.256,-0.03343
3.26,-0.00775
3.264,-0.01045
3.268,0.00603
3.272,-0.03266
3.276,0.02032
3.28,-0.01909
3.284,0.02101
3.288,-0.00022
3.292,-0.01563
3.296,-0.00123
3.3,-0.0005
3.304,-0.01843
3.308,0.00818
3.312,-0.02175
3.316,-8e-05
3.32,-0.00895
3.324,0.01661
3.328,-0.01117
3.332,-0.00586
3.336,-0.00395
3.34,0.00337
3.344,0.0008
3.348,-0.0064
3.352,0.00212
3.356,0.01384
3.36,0.01709
3.364,0.05205
3.368,0.02459
3.372,0.07709
3.376,0.05712
3.38,0.09128
3.384,0.08563
3.388,0.12074
3.392,0.1136
3.396,0.07015
3.4,0.08204
3.404,0.10092
3.408,0.07601
3.412,0.05886
3.416,0.05014
3.42,0.03975
3.424,0.03093
3.428,0.02412
3.432,0.00797
3.436,0.00585
3.44,0.01359
3.444,-0.02132
3.448,-0.02469
3.452,-0.01783
3.456,-0.00449
3.46,-0.0052
3.464,0.00954
3.468,-0.01506
3.472,0.01855
3.476,0.01761
3.48,0.02692
3.484,-0.00018
3.488,0.00712
3.492,-0.02267
3.496,0.0134
3.5,0.00297
3.504,-0.00502
3.508,-0.03323
3.512,-0.05762
3.516,-0.10142
3.52,-0.10452
3.524,-0.09668
3.528,0.00765
3.532,0.15477
3.536,0.34187
3.54,0.54935
3.544,0.73535
3.548,0.90452
3.552,1.00908
3.556,0.94894
3.56,0.82083
3.564,0.63468
3.568,0.36718
3.572,0.18391
3.576,-0.00151
3.58,-0.10862
3.584,-0.16428
3.588,-0.16446
3.592,-0.12551
3.596,-0.06855
3.6,-0.0794
3.604,-0.03857
3.608,-0.00092
3.612,0.00066
3.616,0.00724
3.62,-0.009
3.624,-0.00814
3.628,0.02502
3.632,0.00714
3.636,-0.02465
3.64,0.00037
3.644,-0.0214
3.648,0.01633
3.652,0.01374
3.656,-0.00064
3.66,7e-05
3.664,0.02085
3.668,0.00911
3.672,-0.00639
3.676,0.02566
3.68,0.00907
3.684,0.01027
3.688,-0.00952
3.692,0.01326
3.696,-0.01359
3.7,0.02722
3.704,0.02501
3.708,-0.02182
3.712,0.01632
3.716,0.02643
3.72,0.01138
3.724,0.02756
3.728,0.04105
3.732,0.0188
3.736,0.01009
3.74,0.03791
3.744,0.03945
3.748,0.0707
3.752,0.00758
3.756,0.05117
3.76,0.05941
3.764,0.07969
3.768,0.06563
3.772,0.09278
3.776,0.11402
3.78,0.10352
3.784,0.12019
3.788,0.11758
3.792,0.1236
3.796,0.15361
3.8,0.16479
3.804,0.1903
3.808,0.20323
3.812,0.21111
3.816,0.25026
3.82,0.22583
3.824,0.23198
3.828,0.21149
3.832,0.2307
3.836,0.23505
3.84,0.20898
3.844,0.19907
3.848,0.21745
3.852,0.21201
3.856,0.19745
3.86,0.19487
3.864,0.17677
3.868,0.16146
3.872,0.15734
3.876,0.16484
3.88,0.1345
3.884,0.12925
3.888,0.12614
3.892,0.10765
3.896,0.081
3.9,0.06101
3.904,0.07243
3.908,0.06159
3.912,0.02202
3.916,0.04479
3.92,0.05543
3.924,0.03967
3.928,0.02702
3.932,0.03224
3.936,0.03515
3.94,0.03648
3.944,0.02031
3.948,-0.01097
3.952,0.04276
3.956,0.01242
3.96,0.01034
3.964,0.01846
3.968,0.02056
3.972,0.01736
3.976,0.01364
3.98,0.04308
3.984,0.01991
3.988,-0.00831
3.992,-0.00681
3.996,-0.0147
4.0,0.02015
4.004,0.0212
4.008,-0.01117
4.012,0.02144
4.016,0.0077
4.02,0.02226
4.024,0.02095
4.028,0.01539
4.032,0.02416
4.036,0.03304
4.04,0.00885
4.044,0.02566
4.048,0.01662
4.052,0.01447
4.056,-0.00787
4.06,0.00101
4.064,0.00773
4.068,-0.00411
4.072,-0.00454
4.076,-0.02045
4.08,0.00914
4.084,-1e-05
4.088,0.00895
4.092,0.02794
4.096,0.00128
4.1,-0.0111
4.104,-0.00361
4.108,0.02463
4.112,0.0091
4.116,0.014
4.12,-0.0195
4.124,0.0088
4.128,0.03953
4.132,0.02224
4.136,0.02499
4.14,0.00436
4.144,0.03417
4.148,0.0369
4.152,-0.01205
4.156,0.01234
4.16,0.03826
4.164,0.03253
4.168,-0.00596
4.172,0.00067
4.176,0.00942
4.18,0.02598
4.184,0.02807
4.188,-0.01357
4.192,0.00928
4.196,0.02626
4.2,0.00951
4.204,0.04191
4.208,0.00588
4.212,-0.00212
4.216,0.01461
4.22,0.03428
4.224,-0.01221
4.228,0.00384
4.232,0.00162
4.236,0.01862
4.24,0.03665
4.244,0.01159
4.248,0.0244
4.252,0.00955
4.256,0.03497
4.26,0.02642
4.264,0.02525
4.268,0.02849
4.272,0.00502
4.276,0.0099
4.28,0.01198
4.284,-0.0198
4.288,0.01482
4.292,0.04004
4.296,0.01365
4.3,0.01599
4.304,0.02856
4.308,0.03378
4.312,0.03913
4.316,0.03502
4.32,0.02594
4.324,0.04422
4.328,0.02737
4.332,0.0262
4.336,0.00822
4.34,0.00266
4.344,0.01939
4.348,0.01949
4.352,0.02241
4.356,0.0249
4.36,0.0305
4.364,0.01069
4.368,0.0248
4.372,0.01195
4.376,0.01187
4.38,0.02224
4.384,0.02335
4.388,0.04295
4.392,0.0072
4.396,0.03579
4.4,0.03515
4.404,0.0171
4.408,0.00412
4.412,0.03865
4.416,0.05956
4.42,0.03431
4.424,0.03888
4.428,0.06637
4.432,0.07607
4.436,0.09251
4.44,0.09836
4.444,0.09508
4.448,0.09642
4.452,0.12426
4.456,0.12818
4.46,0.1259
4.464,0.11651
4.468,0.10877
4.472,0.09584
4.476,0.04982
4.48,0.03236
4.484,0.05586
4.488,0.031
4.492,0.06016
4.496,0.03542
4.5,0.0204
4.504,0.04744
4.508,0.03502
4.512,0.00853
4.516,0.04041
4.52,0.02677
4.524,0.03113
4.528,0.03911
4.532,0.02585
4.536,0.02126
4.54,0.01367
4.544,0.03126
4.548,0.02097
4.552,-0.00216
4.556,0.02177
4.56,0.00991
4.564,0.03246
4.568,0.02149
4.572,-0.02638
4.576,-0.05304
4.58,-0.10203
4.584,-0.06251
4.588,-0.01003
4.592,0.1487
4.596,0.29619
4.6,0.5225
4.604,0.74966
4.608,0.92449
4.612,1.02288
4.616,0.98447
4.62,0.85987
4.624,0.69167
4.628,0.44951
4.632,0.22552
4.636,0.05192
4.64,-0.07108
4.644,-0.13409
4.648,-0.15032
4.652,-0.11099
4.656,-0.05372
4.66,-0.01387
4.664,-0.00978
4.668,0.00207
4.672,0.00518
4.676,0.0058
4.68,0.03624
4.684,0.04563
4.688,0.02938
4.692,0.03717
4.696,0.01846
4.7,0.0256
4.704,0.02437
4.708,0.05443
4.712,0.03285
4.716,0.02737
4.72,0.02999
4.724,0.00522
4.728,0.02999
4.732,0.01598
4.736,0.05246
4.74,0.01695
4.744,0.02394
4.748,0.03257
4.752,0.05347
4.756,0.03951
4.76,0.01523
4.764,0.05454
4.768,0.05045
4.772,0.01668
4.776,0.02191
4.78,0.03368
4.784,0.03734
4.788,0.01368
4.792,0.04511
4.796,0.0668
4.8,0.02684
4.804,0.05012
4.808,0.083
4.812,0.0761
4.816,0.08525
4.82,0.10529
4.824,0.0841
4.828,0.09813
4.832,0.11996
4.836,0.11807
4.84,0.13363
4.844,0.11958
4.848,0.16971
4.852,0.16046
4.856,0.18546
4.86,0.20636
4.864,0.21133
4.868,0.22283
4.872,0.20803
4.876,0.21622
4.88,0.23979
4.884,0.25091
4.888,0.24147
4.892,0.24206
4.896,0.24131
4.9,0.24185
4.904,0.22084
4.908,0.22217
4.912,0.24117
4.916,0.21028
4.92,0.21062
4.924,0.17978
4.928,0.19926
4.932,0.20347
4.936,0.1671
4.94,0.14146
4.944,0.1474
4.948,0.13235
4.952,0.14084
4.956,0.12361
4.96,0.11218
4.964,0.09359
4.968,0.10985
4.972,0.06169
4.976,0.04686
4.98,0.07063
4.984,0.04788
4.988,0.06831
4.992,0.01641
4.996,0.01434
5.0,0.05835
5.004,0.0643
5.008,0.03981
5.012,0.04951
5.016,0.03985
5.02,0.02673
5.024,0.037
5.028,0.03364
5.032,0.00599
5.036,0.01862
5.04,0.03318
5.044,0.03617
5.048,0.04448
5.052,0.03504
5.056,0.02479
5.06,0.02535
5.064,0.03328
5.068,0.03927
5.072,0.04074
5.076,0.02731
5.08,0.01958
5.084,0.04858
5.088,0.01616
5.092,0.04935
5.096,0.03948
5.1,0.06605
5.104,0.02186
5.108,0.0149
5.112,0.0235
5.116,0.00997
5.12,0.03615
5.124,0.04005
5.128,0.01598
5.132,0.03208
5.136,0.01899
5.14,0.01515
5.144,0.0136
5.148,0.05132
5.152,0.03903
5.156,0.01889
5.16,0.04067
5.164,0.03266
5.168,0.0124
5.172,0.04071
5.176,0.05551
5.18,0.02842
5.184,0.05245
5.188,0.02634
5.192,0.0397
5.196,0.07908
5.2,0.07981
5.204,0.07935
5.208,0.07369
5.212,0.11794
5.216,0.12027
5.22,0.12216
5.224,0.1392
5.228,0.12732
5.232,0.13298
5.236,0.12543
5.24,0.10212
5.244,0.10015
5.248,0.09759
5.252,0.08564
5.256,0.09155
5.26,0.06265
5.264,0.05147
5.268,0.04222
5.272,0.02578
5.276,0.03541
5.28,0.04685
5.284,0.00911
5.288,0.03042
5.292,0.04273
5.296,0.05718
5.3,0.0525
5.304,0.03124
5.308,0.02074
5.312,0.02491
5.316,0.02277
5.32,0.03439
5.324,0.02876
5.328,0.00548
5.332,0.02243
5.336,0.01767
5.34,0.02583
5.344,-0.00312
5.348,-0.02065
5.352,-0.06564
5.356,-0.09411
5.36,-0.06112
5.364,0.00605
5.368,0.13527
5.372,0.3191
5.376,0.53858
5.38,0.74616
5.384,0.93758
5.388,1.02452
5.392,0.99434
5.396,0.88335
5.4,0.68937
5.404,0.46033
5.408,0.24846
5.412,0.03313
5.416,-0.05726
5.42,-0.13606
5.424,-0.11555
5.428,-0.09374
5.432,-0.0594
5.436,-0.03566
5.44,-0.00995
5.444,0.01281
5.448,0.02904
5.452,0.00978
5.456,0.01335
5.46,0.01281
5.464,0.01436
5.468,0.0225
5.472,0.03803
5.476,0.02931
5.48,0.01677
5.484,-0.009
5.488,0.00877
5.492,0.0487
5.496,0.05912
5.5,0.02212
5.504,0.055
5.508,0.04018
5.512,0.03096
5.516,0.05139
5.52,0.04201
5.524,0.03353
5.528,0.01996
5.532,0.01451
5.536,0.04156
5.54,0.01582
5.544,0.03684
5.548,0.04809
5.552,0.02695
5.556,0.03021
5.56,0.03304
5.564,0.03748
5.568,0.03262
5.572,0.07638
5.576,0.05521
5.58,0.05635
5.584,0.08995
5.588,0.05666
5.592,0.08186
5.596,0.08666
5.6,0.08751
5.604,0.10504
5.608,0.12577
5.612,0.10976
5.616,0.13903
5.62,0.1503
5.624,0.16079
5.628,0.16959
5.632,0.18371
5.636,0.19136
5.64,0.19077
5.644,0.21644
5.648,0.2468
5.652,0.21478
5.656,0.25977
5.66,0.25593
5.664,0.25254
5.668,0.21137
5.672,0.24961
5.676,0.26253
5.68,0.23161
5.684,0.2451
5.688,0.22973
5.692,0.22278
5.696,0.23598
5.7,0.1978
5.704,0.20387
5.708,0.18735
5.712,0.15936
5.716,0.16413
5.72,0.16203
5.724,0.13168
5.728,0.10742
5.732,0.1316
5.736,0.10038
5.74,0.08043
5.744,0.09817
5.748,0.04576
5.752,0.06102
5.756,0.02696
5.76,0.06656
5.764,0.05328
5.768,0.03483
5.772,0.03873
5.776,0.02569
5.78,0.05005
5.784,0.04366
5.788,0.03016
5.792,0.03908
5.796,0.05785
5.8,0.0198
5.804,0.03157
5.808,0.04593
5.812,0.02246
5.816,0.01741
5.82,0.00658
5.824,0.02827
5.828,0.02824
5.832,0.02198
5.836,0.04394
5.84,0.0283
5.844,0.02677
5.848,0.02369
5.852,0.0203
5.856,0.03024
5.86,0.00971
5.864,0.01988
5.868,0.01727
5.872,0.04235
5.876,0.02152
5.88,0.00865
5.884,0.00697
5.888,-0.00481
5.892,0.02034
5.896,0.02623
5.9,0.01642
5.904,0.02027
5.908,0.01843
5.912,0.03379
5.916,0.03953
5.92,0.01466
5.924,0.03886
5.928,0.02418
5.932,0.00888
5.936,0.01235
5.94,0.01633
5.944,0.02685
5.948,0.0107
5.952,0.01622
5.956,0.00609
5.96,0.03624
5.964,0.05366
5.968,0.04094
5.972,0.02976
5.976,0.05107
5.98,0.04386
5.984,0.04826
5.988,0.09579
5.992,0.06784
5.996,0.11622
6.0,0.1397
6.004,0.12097
6.008,0.13416
6.012,0.1031
6.016,0.10701
6.02,0.11212
6.024,0.09088
6.028,0.09306
6.032,0.09178
6.036,0.07118
6.04,0.03694
6.044,0.01466
6.048,0.0284
6.052,0.02661
6.056,0.02994
6.06,0.03463
6.064,0.01605
6.068,0.02519
6.072,0.0467
6.076,0.0113
6.08,0.04238
6.084,0.00358
6.088,-0.01234
6.092,0.02593
6.096,0.00605
6.1,0.02727
6.104,0.04168
6.108,0.01811
6.112,0.0237
6.116,0.00538
6.12,-0.00471
6.124,-0.00391
6.128,-0.01665
6.132,-0.08743
6.136,-0.0867
6.14,-0.05162
6.144,0.01571
6.148,0.12464
6.152,0.30882
6.156,0.50854
6.16,0.77315
6.164,0.89154
6.168,1.00785
6.172,1.03172
6.176,0.87269
6.18,0.65479
6.184,0.4289
6.188,0.2246
6.192,0.02461
6.196,-0.0898
6.2,-0.14476
6.204,-0.16349
6.208,-0.10354
6.212,-0.07541
6.216,-0.02841
6.22,5e-05
6.224,0.00741
6.228,0.01013
6.232,0.03237
6.236,-0.01607
6.24,-0.01738
6.244,0.04617
6.248,0.01465
6.252,0.00586
6.256,0.0084
6.26,0.01777
6.264,-0.01445
6.268,0.04375
6.272,-0.00725
6.276,0.03515
6.28,0.02032
6.284,0.00495
6.288,0.00055
6.292,0.02383
6.296,0.00396
6.3,0.01582
6.304,0.02613
6.308,-0.01333
6.312,0.02099
6.316,0.01486
6.32,-8e-05
6.324,0.02751
6.328,0.02344
6.332,0.02639
6.336,0.00497
6.34,0.028
6.344,0.02691
6.348,0.03333
6.352,0.03522
6.356,0.06451
6.36,0.05708
6.364,0.05431
6.368,0.0494
6.372,0.09789
6.376,0.08369
6.38,0.05821
6.384,0.07879
6.388,0.11615
6.392,0.10539
6.396,0.12082
6.4,0.1268
6.404,0.15302
6.408,0.17288
6.412,0.15596
6.416,0.16688
6.42,0.16842
6.424,0.18827
6.428,0.21924
6.432,0.24207
6.436,0.24063
6.44,0.23074
6.444,0.23412
6.448,0.2347
6.452,0.21405
6.456,0.23796
6.46,0.19269
6.464,0.20927
6.468,0.22979
6.472,0.20158
6.476,0.19819
6.48,0.19178
6.484,0.17563
6.488,0.17278
6.492,0.16875
6.496,0.13116
6.5,0.10051
6.504,0.10688
6.508,0.11316
6.512,0.09745
6.516,0.08864
6.52,0.05824
6.524,0.06299
6.528,0.06408
6.532,0.02106
6.536,0.03953
6.54,0.02633
6.544,0.02043
6.548,0.03276
6.552,0.02656
6.556,0.04159
6.56,0.03236
6.564,0.03818
6.568,-0.01302
6.572,0.0083
6.576,0.00473
6.58,-0.01963
6.584,0.01448
6.588,0.02019
6.592,0.01526
6.596,-0.01216
6.6,0.01757
6.604,0.00471
6.608,0.04314
6.612,-0.01075
6.616,-0.00207
6.62,-0.00087
6.624,0.01993
6.628,0.02085
6.632,0.01687
6.636,0.03647
6.64,0.01761
6.644,-0.02168
6.648,-0.0131
6.652,-0.03112
6.656,0.00958
6.66,-0.01944
6.664,0.00447
6.668,-0.00652
6.672,0.00611
6.676,0.00227
6.68,-0.01113
6.684,0.00113
6.688,0.00684
6.692,-0.02189
6.696,-0.00055
6.7,0.03447
6.704,0.00316
6.708,0.00587
6.712,-0.00135
6.716,0.00033
6.72,0.02249
6.724,0.0329
6.728,0.06956
6.732,0.04067
6.736,0.05841
6.74,0.0684
6.744,0.05321
6.748,0.08051
6.752,0.09798
6.756,0.104
6.76,0.11812
6.764,0.10271
6.768,0.10175
6.772,0.06179
6.776,0.06287
6.78,0.02708
6.784,0.01222
6.788,0.02578
6.792,0.04881
6.796,0.03115
6.8,0.01287
6.804,0.01214
6.808,-0.00402
6.812,0.00747
6.816,0.00411
6.82,0.00777
6.824,-0.00449
6.828,0.00029
6.832,0.00591
6.836,-0.00226
6.84,0.00995
6.844,-0.001
6.848,0.02721
6.852,-0.01141
6.856,-0.01946
6.86,-0.03366
6.864,-0.00541
6.868,0.0084
6.872,-0.04594
6.876,-0.05519
6.88,-0.10696
6.884,-0.13009
6.888,-0.07052
6.892,0.01254
6.896,0.14689
6.9,0.35249
6.904,0.52991
6.908,0.76759
6.912,0.90851
6.916,1.01344
6.92,0.93456
6.924,0.81345
6.928,0.62839
6.932,0.39259
6.936,0.17388
6.94,-0.01817
6.944,-0.09738
6.948,-0.17691
6.952,-0.16195
6.956,-0.10537
6.96,-0.07988
6.964,-0.04326
6.968,-0.00839
6.972,-0.02954
6.976,-0.02309
6.98,-0.00533
6.984,-0.01598
6.988,-0.0443
6.992,0.02015
6.996,-0.0104
7.0,-0.0271
7.004,0.01982
7.008,0.00198
7.012,-0.01041
7.016,-0.02768
7.02,0.00603
7.024,0.00939
7.028,-0.02451
7.032,-0.00765
7.036,0.03387
7.04,-0.03093
7.044,0.00479
7.048,-0.00578
7.052,-0.0144
7.056,-0.01225
7.06,0.00955
7.064,0.01338
7.068,0.01147
7.072,-0.02864
7.076,0.00775
7.08,-0.00011
7.084,0.00075
7.088,0.00676
7.092,0.00568
7.096,0.01311
7.1,-0.00553
7.104,0.01917
7.108,0.03135
7.112,0.01081
7.116,0.04359
7.12,0.06556
7.124,0.05665
7.128,0.06359
7.132,0.08208
7.136,0.08564
7.14,0.12862
7.144,0.13759
7.148,0.12837
7.152,0.155
7.156,0.13864
7.16,0.15057
7.164,0.15431
7.168,0.17642
7.172,0.16068
7.176,0.17466
7.18,0.20846
7.184,0.21982
7.188,0.18868
7.192,0.19735
7.196,0.20575
7.2,0.20139
7.204,0.19547
7.208,0.19893
7.212,0.18251
7.216,0.21112
7.22,0.1638
7.224,0.16718
7.228,0.16352
7.232,0.12142
7.236,0.15937
7.24,0.12496
7.244,0.11566
7.248,0.08526
7.252,0.0985
7.256,0.09962
7.26,0.08074
7.264,0.06082
7.268,0.06359
7.272,0.04557
7.276,0.02335
7.28,0.01513
7.284,0.00959
7.288,0.02828
7.292,0.0188
7.296,0.03548
7.3,-0.01025
7.304,-0.00448
7.308,-0.0082
7.312,0.0194
7.316,-0.01146
7.32,0.0029
7.324,-0.01597
7.328,-0.0255
7.332,0.00394
7.336,0.00379
7.34,0.01615
7.344,-0.01759
7.348,-0.01831
7.352,0.00946
7.356,0.01659
7.36,-0.03979
7.364,-0.00802
7.368,-0.02442
7.372,-0.03836
7.376,-0.02028
7.38,-0.01192
7.384,-0.01309
7.388,-0.02286
7.392,-0.01719
7.396,-0.01284
7.4,-0.01317
7.404,0.00551
7.408,-0.00184
7.412,0.00105
7.416,-0.02321
7.42,-0.00024
7.424,-0.01473
7.428,-0.02593
7.432,-0.01709
7.436,-0.03499
7.44,0.01275
7.444,-0.00871
7.448,-0.03746
7.452,-0.02778
7.456,-0.01468
7.46,-0.027
7.464,-0.01536
7.468,-0.0267
7.472,0.00996
7.476,-0.01693
7.48,-0.00733
7.484,-0.02121
7.488,0.0111
7.492,-0.03566
7.496,-0.01411
7.5,-0.01911
7.504,-0.0318
7.508,-0.02268
7.512,-0.00085
7.516,0.00103
7.52,-0.00243
7.524,-0.02739
7.528,-0.01468
7.532,-0.03862
7.536,-0.04399
7.54,-0.00622
7.544,-0.00408
7.548,-0.01178
7.552,-0.03159
7.556,-0.01726
7.56,-0.0238
7.564,-0.04568
7.568,-0.05042
7.572,-0.01699
7.576,-0.02186
7.58,-0.01318
7.584,-0.03587
7.588,-0.03435
7.592,-0.00139
7.596,-0.00903
7.6,-0.06906
7.604,-0.033
7.608,-0.01966
7.612,-0.01788
7.616,-0.0222
7.62,-0.01169
7.624,-0.01576
7.628,-0.01631
7.632,0.00115
7.636,-0.0272
7.64,-0.01177
7.644,-0.01945
7.648,-0.00857
7.652,-0.00292
7.656,0.03005
7.66,0.0282
7.664,0.01873
7.668,0.04995
7.672,0.01399
7.676,0.07162
7.68,0.0822
7.684,0.06813
7.688,0.07326
7.692,0.08494
7.696,0.09518
7.7,0.0802
7.704,0.05425
7.708,0.0307
7.712,0.01742
7.716,0.01248
7.72,0.01332
7.724,0.01899
7.728,-0.00942
7.732,-0.01144
7.736,-0.02408
7.74,-0.0144
7.744,0.00017
7.748,-0.03398
7.752,-0.03421
7.756,-0.02625
7.76,0.00269
7.764,-0.00269
7.768,-0.0239
7.772,-0.0288
7.776,-0.05805
7.78,-0.01878
7.784,-0.01406
7.788,-0.03828
7.792,-0.02156
7.796,-0.02991
7.8,-0.06682
7.804,-0.0942
7.808,-0.09729
7.812,-0.11988
7.816,-0.14376
7.82,-0.0776
7.824,0.02856
7.828,0.21402
7.832,0.41952
7.836,0.6258
7.84,0.80834
7.844,0.93553
7.848,0.96729
7.852,0.88386
7.856,0.7113
7.86,0.48202
7.864,0.25676
7.868,0.08774
7.872,-0.08819
7.876,-0.18113
7.88,-0.2146
7.884,-0.14457
7.888,-0.11153
7.892,-0.12847
7.896,-0.05311
7.9,-0.02262
7.904,-0.02645
7.908,-0.01617
7.912,-0.00283
7.916,-0.03919
7.92,-0.00185
7.924,-0.03993
7.928,-0.01245
7.932,-0.00892
7.936,-0.02829
7.94,-0.03981
7.944,-0.01338
7.948,-0.02658
7.952,-0.01606
7.956,-0.01973
7.96,-0.02418
7.964,-0.04241
7.968,-0.01637
7.972,-0.02463
7.976,-0.00695
7.98,-0.02782
7.984,-0.02501
7.988,0.00643
7.992,-0.04245
7.996,-0.03312
8.0,-0.01974
8.004,0.00478
8.008,-0.03653
8.012,-0.01394
8.016,0.0121
8.02,-0.02386
8.024,-0.01069
8.028,-0.03187
8.032,0.02118
8.036,-0.00174
8.04,-0.00304
8.044,0.01437
8.048,0.0304
8.052,0.06032
8.056,0.02576
8.06,0.0761
8.064,0.04004
8.068,0.06671
8.072,0.08982
8.076,0.08989
8.08,0.08307
8.084,0.10567
8.088,0.10696
8.092,0.16606
8.096,0.15993
8.1,0.11854
8.104,0.19222
8.108,0.15451
8.112,0.19504
8.116,0.17016
8.12,0.1949
8.124,0.19377
8.128,0.19283
8.132,0.18848
8.136,0.20505
8.14,0.19926
8.144,0.20424
8.148,0.17499
8.152,0.1456
8.156,0.15537
8.16,0.14264
8.164,0.11733
8.168,0.12047
8.172,0.10414
8.176,0.08742
8.18,0.0798
8.184,0.05852
8.188,0.04431
8.192,0.02482
8.196,0.05162
8.2,0.04197
8.204,0.0176
8.208,0.02225
8.212,0.01581
8.216,-0.01576
8.22,-0.01284
8.224,-0.01513
8.228,0.00927
8.232,-0.02125
8.236,-0.03192
8.24,-0.00538
8.244,-0.01711
8.248,-0.04558
8.252,-0.049
8.256,-0.0542
8.26,-0.03784
8.264,-0.05665
8.268,-0.01537
8.272,-0.01776
8.276,-0.02633
8.28,-0.0329
8.284,-0.05097
8.288,-0.01689
8.292,-0.03413
8.296,-0.05229
8.3,-0.05036
8.304,-0.01602
8.308,-0.04048
8.312,-0.03592
8.316,-0.03357
8.32,-0.05004
8.324,-0.05413
8.328,-0.03668
8.332,-0.02002
8.336,-0.02859
8.34,-0.00575
8.344,0.00064
8.348,-0.01536
8.352,-0.02097
8.356,-0.00728
8.36,-0.02837
8.364,-0.02302
8.368,-0.04857
8.372,-0.05037
8.376,-0.02229
8.38,-0.03078
8.384,-0.03265
8.388,-0.04623
8.392,-0.03221
8.396,0.00272
8.4,-0.00103
8.404,-0.0263
8.408,-0.00327
8.412,0.0038
8.416,-0.00421
8.42,-0.00449
8.424,-0.00541
8.428,0.01453
8.432,0.02825
8.436,0.02711
8.44,0.05638
8.444,0.07432
8.448,0.05884
8.452,0.05764
8.456,0.07633
8.46,0.05775
8.464,0.05923
8.468,0.03908
8.472,0.03479
8.476,0.01034
8.48,-0.0148
8.484,0.00187
8.488,-0.01402
8.492,-0.01688
8.496,-0.01071
8.5,-0.02768
8.504,-0.02601
8.508,-0.0255
8.512,-0.03984
8.516,-0.03594
8.52,-0.04621
8.524,-0.02373
8.528,-0.0316
8.532,-0.05185
8.536,-0.03068
8.54,-0.0272
8.544,-0.0346
8.548,-0.02887
8.552,-0.02759
8.556,-0.05604
8.56,-0.01212
8.564,-0.08548
8.568,-0.08467
8.572,-0.08921
8.576,-0.14507
8.58,-0.16224
8.584,-0.10148
8.588,0.05361
8.592,0.21353
8.596,0.4246
8.6,0.6328
8.604,0.82302
8.608,0.94757
8.612,0.94969
8.616,0.86941
8.62,0.6914
8.624,0.45787
8.628,0.2348
8.632,0.04807
8.636,-0.09827
8.64,-0.17736
8.644,-0.20708
8.648,-0.20947
8.652,-0.12372
8.656,-0.09686
8.66,-0.04987
8.664,-0.02505
8.668,-0.03595
8.672,-0.01377
8.676,-0.04521
8.68,-0.02806
8.684,-0.05692
8.688,-0.06002
8.692,-0.0223
8.696,-0.01925
8.7,-0.0228
8.704,-0.04793
8.708,-0.01193
8.712,-0.03741
8.716,-0.02294
8.72,-0.007
8.724,-0.05339
8.728,-0.04301
8.732,-0.03687
8.736,-0.03343
8.74,-0.04734
8.744,-0.03196
8.748,0.00184
8.752,-0.02683
8.756,0.0043
8.76,-0.01206
8.764,-0.02042
8.768,0.00896
8.772,-0.01352
8.776,-0.02361
8.78,-0.05375
8.784,-0.03876
8.788,-0.01649
8.792,-0.00046
8.796,0.00643
8.8,0.02141
8.804,0.00852
8.808,0.03699
8.812,0.02449
8.816,0.03051
8.82,0.0342
8.824,0.04963
8.828,0.02499
8.832,0.0985
8.836,0.08307
8.84,0.07174
8.844,0.07893
8.848,0.11291
8.852,0.12312
8.856,0.13593
8.86,0.12175
8.864,0.17725
8.868,0.15479
8.872,0.15631
8.876,0.16441
8.88,0.19056
8.884,0.18042
8.888,0.18742
8.892,0.20695
8.896,0.19434
8.9,0.1882
8.904,0.18273
8.908,0.16975
8.912,0.1763
8.916,0.17025
8.92,0.14415
8.924,0.16014
8.928,0.10505
8.932,0.11066
8.936,0.1007
8.94,0.10391
8.944,0.08091
8.948,0.06966
8.952,0.03866
8.956,0.05076
8.96,0.03325
8.964,0.03548
8.968,0.02
8.972,0.00476
8.976,0.0366
8.98,0.0002
8.984,0.00977
8.988,-0.02268
8.992,-0.03987
8.996,-0.01479
9.0,-0.02029
9.004,0.00409
9.008,-0.01828
9.012,-0.02162
9.016,-0.04105
9.02,-0.00757
9.024,-0.02913
9.028,-0.01502
9.032,-0.05817
9.036,-0.03858
9.04,-0.00192
9.044,-0.02402
9.048,-0.0204
9.052,-0.00462
9.056,-0.03392
9.06,-0.02456
9.064,-0.01168
9.068,-0.00792
9.072,-0.02336
9.076,-0.01348
9.08,-0.03353
9.084,-0.01603
9.088,-0.02608
9.092,0.00188
9.096,-0.02454
9.1,-0.02903
9.104,-0.0231
9.108,-0.0117
9.112,-0.02852
9.116,-0.0204
9.12,0.00083
9.124,-0.00543
9.128,-0.00624
9.132,-0.02496
9.136,-0.00908
9.14,-0.02113
9.144,-0.02222
9.148,-0.00045
9.152,-0.02555
9.156,-0.0418
9.16,-0.01206
9.164,-0.02599
9.168,-0.00972
9.172,-0.01761
9.176,-0.01285
9.18,-0.01955
9.184,-0.03257
9.188,-0.00565
9.192,-0.03143
9.196,-0.03602
9.2,-0.02165
9.204,-0.05328
9.208,-0.04082
9.212,-0.01358
9.216,-0.03018
9.22,-0.00834
9.224,0.0061
9.228,-0.00671
9.232,-0.02764
9.236,-0.04456
9.24,-0.03519
9.244,-0.00343
9.248,-0.03304
9.252,-0.04943
9.256,-0.00133
9.26,-0.01875
9.264,-0.02538
9.268,-0.03399
9.272,-0.02278
9.276,-0.04057
9.28,-0.03292
9.284,-0.02374
9.288,-0.01288
9.292,-0.02787
9.296,-0.03335
9.3,-0.00599
9.304,-0.04614
9.308,-0.02064
9.312,-0.00454
9.316,-0.00966
9.32,-0.00736
9.324,-0.01357
9.328,-0.01115
9.332,-0.03045
9.336,-0.03101
9.34,0.00234
9.344,-0.02188
9.348,-0.0343
9.352,-0.04058
9.356,-0.05661
9.36,-0.03243
9.364,-0.02073
9.368,-0.00651
9.372,-0.01697
9.376,0.00104
9.38,-0.0086
9.384,-0.00613
9.388,-0.02972
9.392,-0.01291
9.396,-0.05526
9.4,0.00011
9.404,-0.03358
9.408,-0.0084
9.412,0.00881
9.416,0.01672
9.42,-0.00163
9.424,0.01818
9.428,0.06047
9.432,0.05034
9.436,0.07721
9.44,0.0656
9.444,0.11794
9.448,0.08395
9.452,0.08285
9.456,0.07441
9.46,0.06716
9.464,0.06562
9.468,0.06023
9.472,0.01786
9.476,0.07572
9.48,0.00624
9.484,0.01887
9.488,-0.00557
9.492,-0.02902
9.496,-0.01215
9.5,-0.01708
9.504,-0.00368
9.508,-0.00211
9.512,-0.00332
9.516,-0.01329
9.52,0.0198
9.524,-0.00363
9.528,-0.01455
9.532,-0.01274
9.536,-0.02691
9.54,0.0003
9.544,-0.0323
9.548,0.00067
9.552,-0.0054
9.556,-0.01063
9.56,-0.04357
9.564,-0.02121
9.568,-0.02059
9.572,-0.05628
9.576,-0.10163
9.58,-0.16086
9.584,-0.08033
9.588,0.00812
9.592,0.17068
9.596,0.38211
9.6,0.58751
9.604,0.78985
9.608,0.93341
9.612,0.97051
9.616,0.93212
9.62,0.78619
9.624,0.54478
9.628,0.32074
9.632,0.11119
9.636,-0.08065
9.64,-0.13658
9.644,-0.19226
9.648,-0.18014
9.652,-0.13973
9.656,-0.05649
9.66,-0.03275
9.664,-0.01538
9.668,-0.01453
9.672,-0.00389
9.676,-0.01903
9.68,-0.0178
9.684,-0.03035
9.688,-0.01544
9.692,6e-05
9.696,-0.00316
9.7,-0.01288
9.704,-0.03683
9.708,0.0004
9.712,-0.00661
9.716,-0.03823
9.72,-0.02088
9.724,0.01341
9.728,-0.03089
9.732,-0.0077
9.736,0.00238
9.74,-0.00451
9.744,-0.01293
9.748,-0.00384
9.752,0.00742
9.756,-0.0299
9.76,-0.03306
9.764,0.01734
9.768,-0.00354
9.772,0.03046
9.776,-0.01567
9.78,0.01011
9.784,-0.01469
9.788,0.00049
9.792,0.00383
9.796,-0.00267
9.8,0.03404
9.804,0.01819
9.808,0.02881
9.812,0.07283
9.816,0.05104
9.82,0.04036
9.824,0.02684
9.828,0.09271
9.832,0.09771
9.836,0.07168
9.84,0.1019
9.844,0.09781
9.848,0.12428
9.852,0.12325
9.856,0.12594
9.86,0.1584
9.864,0.17705
9.868,0.16267
9.872,0.21691
9.876,0.21218
9.88,0.19069
9.884,0.18486
9.888,0.21616
9.892,0.2062
9.896,0.21946
9.9,0.18024
9.904,0.21325
9.908,0.21447
9.912,0.2018
9.916,0.15787
9.92,0.15751
9.924,0.16454
9.928,0.16599
9.932,0.15084
9.936,0.1284
9.94,0.0824
9.944,0.12097
9.948,0.07001
9.952,0.09814
9.956,0.08912
9.96,0.09301
9.964,0.05905
9.968,0.03132
9.972,0.01337
9.976,0.01342
9.98,-0.00412
9.984,0.02701
9.988,0.0111
9.992,-0.01779
9.996,-0.01036
