t_seg,ecg_mV
0.0,0.02135
0.004,-0.01879
0.008,-0.06399
0.012,0.04074
0.016,-0.03113
0.02,-0.09693
0.024,-0.08031
0.028,-0.01966
0.032,-0.05896
0.036,-0.00076
0.04,-0.06038
0.044,-0.00262
0.048,-0.06693
0.052,0.02283
0.056,-0.00518
0.06,-0.02663
0.064,-0.01961
0.068,-0.01171
0.072,-0.00554
0.076,-0.0827
0.08,-0.02582
0.084,-0.0157
0.088,-0.00251
0.092,-0.00044
0.096,-0.06996
0.1,-0.00876
0.104,-0.05971
0.108,-0.02052
0.112,-0.05094
0.116,0.00943
0.12,-0.03168
0.124,-0.02488
0.128,-0.07267
0.132,-0.03557
0.136,0.00588
0.14,0.00315
0.144,-0.05221
0.148,-0.00809
0.152,-0.04993
0.156,-0.06533
0.16,-0.00309
0.164,0.02323
0.168,-0.02678
0.172,-0.06677
0.176,0.03228
0.18,-0.02179
0.184,-0.02975
0.188,0.00422
0.192,-0.03218
0.196,-0.08733
0.2,-0.04546
0.204,-0.02742
0.208,0.00583
0.212,-0.03803
0.216,-0.03946
0.22,-0.05386
0.224,-0.05823
0.228,-0.02488
0.232,-0.01392
0.236,-0.05645
0.24,-0.00554
0.244,-0.05637
0.248,0.00628
0.252,-0.08063
0.256,-0.10045
0.26,-0.05403
0.264,0.02384
0.268,-0.02227
0.272,0.02741
0.276,-0.03982
0.28,-0.03514
0.284,-0.03815
0.288,-0.00131
0.292,0.01119
0.296,0.04786
0.3,-0.04821
0.304,0.04118
0.308,-0.03126
0.312,-0.0224
0.316,-0.03582
0.32,-0.0642
0.324,0.00971
0.328,-0.03761
0.332,-0.02153
0.336,-0.03113
0.34,-0.09756
0.344,0.00826
0.348,-0.04175
0.352,-0.01736
0.356,-0.00169
0.36,-0.03787
0.364,-0.02487
0.368,-0.01819
0.372,0.02344
0.376,-0.01101
0.38,-0.02862
0.384,-0.02432
0.388,0.00631
0.392,-0.00588
0.396,0.05201
0.4,-0.03392
0.404,-0.08237
0.408,-0.06195
0.412,-0.02147
0.416,-0.03215
0.42,0.0126
0.424,-0.06369
0.428,-0.0216
0.432,0.00532
0.436,-0.07156
0.44,0.00805
0.444,-0.00921
0.448,-0.02856
0.452,-0.03924
0.456,-0.03035
0.46,0.03572
0.464,-0.01367
0.468,0.04963
0.472,-0.03515
0.476,-0.06805
0.48,-0.02199
0.484,0.00495
0.488,-0.0286
0.492,0.04956
0.496,-0.00772
0.5,-0.04812
0.504,-0.00821
0.508,-0.06162
0.512,-0.02148
0.516,-0.03196
0.52,-0.04155
0.524,0.01171
0.528,-0.04746
0.532,-0.05382
0.536,-0.0571
0.54,0.00782
0.544,-0.04516
0.548,-0.02623
0.552,0.02339
0.556,0.01141
0.56,-0.05281
0.564,-0.03513
0.568,-0.04652
0.572,-0.00173
0.576,-0.07326
0.58,-0.08235
0.584,-0.03449
0.588,-0.12111
0.592,-0.01422
0.596,-0.00729
0.6,-0.02841
0.604,-0.08119
0.608,0.03332
0.612,-0.01109
0.616,-0.02108
0.62,-0.06381
0.624,0.05724
0.628,0.05506
0.632,0.02695
0.636,0.08072
0.64,0.07949
0.644,0.07888
0.648,0.08748
0.652,0.06686
0.656,0.01188
0.66,0.07812
0.664,0.01664
0.668,0.01323
0.672,-0.02653
0.676,-0.00072
0.68,-0.00752
0.684,-0.0254
0.688,0.00628
0.692,0.01235
0.696,0.00215
0.7,-0.0698
0.704,-0.04392
0.708,-0.02813
0.712,-0.04122
0.716,0.03286
0.72,-0.01179
0.724,-0.00325
0.728,0.04851
0.732,-0.06002
0.736,-0.05058
0.74,-0.04851
0.744,0.00697
0.748,-0.01491
0.752,-0.02662
0.756,0.00909
0.76,-0.02926
0.764,-0.03486
0.768,-0.11353
0.772,-0.09156
0.776,-0.10734
0.78,-0.11599
0.784,-0.0852
0.788,0.10118
0.792,0.25267
0.796,0.49233
0.8,0.74869
0.804,0.86651
0.808,0.96778
0.812,1.01154
0.816,0.7683
0.82,0.60866
0.824,0.36059
0.828,0.16997
0.832,0.01624
0.836,-0.09462
0.84,-0.18381
0.844,-0.19514
0.848,-0.20148
0.852,-0.11668
0.856,-0.06994
0.86,-0.05994
0.864,-0.01744
0.868,0.00956
0.872,-0.01732
0.876,0.02973
0.88,-0.04529
0.884,-0.0299
0.888,-0.04672
0.892,-0.02954
0.896,-0.09189
0.9,-0.03222
0.904,-0.05092
0.908,0.01032
0.912,4e-05
0.916,-0.05691
0.92,0.03102
0.924,-0.01382
0.928,-0.02672
0.932,-0.03633
0.936,-0.01254
0.94,-0.05538
0.944,-0.03374
0.948,-0.01391
0.952,-0.03002
0.956,-0.05881
0.96,0.00654
0.964,-0.06156
0.968,-0.02753
0.972,-0.0634
0.976,-0.01647
0.98,-0.03311
0.984,0.00354
0.988,0.06186
0.992,-0.01205
0.996,0.03928
1.0,0.02759
1.004,0.00496
1.008,-0.01826
1.012,0.07724
1.016,0.03381
1.02,0.03838
1.024,0.07841
1.028,0.12948
1.032,0.07574
1.036,0.04386
1.04,0.07618
1.044,0.14481
1.048,0.17704
1.052,0.09423
1.056,0.17534
1.06,0.14623
1.064,0.13648
1.068,0.17318
1.072,0.19705
1.076,0.1722
1.08,0.19152
1.084,0.21793
1.088,0.27645
1.092,0.2593
1.096,0.18099
1.1,0.17108
1.104,0.26751
1.108,0.15562
1.112,0.16206
1.116,0.18321
1.12,0.17604
1.124,0.13771
1.128,0.06049
1.132,0.07837
1.136,0.10718
1.14,0.10138
1.144,0.10357
1.148,0.09377
1.152,0.02205
1.156,0.0925
1.16,0.03711
1.164,0.02626
1.168,0.03123
1.172,-0.01033
1.176,-0.02029
1.18,0.01999
1.184,0.00355
1.188,0.02419
1.192,0.05491
1.196,0.05881
1.2,0.02519
1.204,0.00898
1.208,0.00219
1.212,0.03239
1.216,0.04285
1.22,-0.05352
1.224,-0.02163
1.228,-0.01747
1.232,-0.02772
1.236,-0.05711
1.24,0.03771
1.244,0.01038
1.248,-0.05732
1.252,-0.00121
1.256,-0.00205
1.26,0.04046
1.264,-0.02776
1.268,-0.05092
1.272,-0.01187
1.276,0.04242
1.28,-0.02075
1.284,-0.01125
1.288,-0.02074
1.292,-0.03235
1.296,-0.00223
1.3,0.04478
1.304,0.00111
1.308,-0.00818
1.312,0.01623
1.316,0.09212
1.32,0.02609
1.324,0.03452
1.328,-0.01283
1.332,0.0468
1.336,-0.00487
1.34,-0.03017
1.344,0.02405
1.348,-0.03665
1.352,0.00318
1.356,-0.02978
1.36,0.04026
1.364,0.02331
1.368,0.00823
1.372,-0.03822
1.376,0.03044
1.38,-0.05248
1.384,-0.04605
1.388,-0.00213
1.392,-0.0403
1.396,0.0354
1.4,-0.06491
1.404,0.03204
1.408,-0.00017
1.412,0.02842
1.416,-0.08011
1.42,-0.00903
1.424,0.0294
1.428,-0.01514
1.432,0.01094
1.436,-0.01683
1.44,-0.0301
1.444,0.03847
1.448,-0.02275
1.452,0.07446
1.456,0.03819
1.46,0.02289
1.464,0.09265
1.468,0.05315
1.472,0.11283
1.476,0.12346
1.48,0.11415
1.484,0.03974
1.488,0.14623
1.492,0.08195
1.496,0.02978
1.5,0.08025
1.504,0.01852
1.508,0.04336
1.512,-0.02884
1.516,0.01312
1.52,0.01433
1.524,-0.00654
1.528,0.01221
1.532,-0.0082
1.536,0.0393
1.54,-0.06116
1.544,0.00954
1.548,0.01464
1.552,0.01985
1.556,-0.03373
1.56,-0.04004
1.564,-0.08069
1.568,-0.02377
1.572,-0.03584
1.576,0.02217
1.58,0.01231
1.584,0.02398
1.588,-0.04885
1.592,0.01219
1.596,-0.10312
1.6,-0.12312
1.604,-0.10196
1.608,-0.17659
1.612,-0.07823
1.616,0.11318
1.62,0.24008
1.624,0.47466
1.628,0.73226
1.632,0.889
1.636,0.91944
1.64,0.99357
1.644,0.88893
1.648,0.68558
1.652,0.43019
1.656,0.324
1.66,0.11935
1.664,-0.07266
1.668,-0.19757
1.672,-0.15823
1.676,-0.20262
1.68,-0.09593
1.684,-0.06916
1.688,0.01348
1.692,-0.07035
1.696,-0.00858
1.7,-0.07943
1.704,0.04636
1.708,-0.00407
1.712,-0.05506
1.716,-0.02682
1.72,0.00213
1.724,0.00167
1.728,0.01796
1.732,-0.0035
1.736,-0.05473
1.74,0.04278
1.744,0.08178
1.748,0.01987
1.752,0.0257
1.756,-0.00729
1.76,0.02823
1.764,0.02024
1.768,0.11798
1.772,-0.03238
1.776,-0.02855
1.78,0.0206
1.784,0.02791
1.788,-0.06572
1.792,-0.03486
1.796,0.03064
1.8,0.00403
1.804,0.06063
1.808,0.04451
1.812,0.01057
1.816,0.11843
1.82,-8e-05
1.824,0.00888
1.828,-0.00464
1.832,0.07268
1.836,0.14186
1.84,0.07924
1.844,0.1243
1.848,0.0238
1.852,0.13641
1.856,0.13467
1.86,0.14108
1.864,0.11436
1.868,0.14989
1.872,0.12887
1.876,0.17497
1.88,0.16257
1.884,0.14368
1.888,0.17898
1.892,0.16647
1.896,0.26983
1.9,0.16106
1.904,0.20238
1.908,0.25053
1.912,0.22504
1.916,0.26169
1.92,0.21245
1.924,0.25024
1.928,0.24557
1.932,0.24583
1.936,0.25694
1.94,0.26947
1.944,0.19852
1.948,0.18026
1.952,0.18623
1.956,0.17085
1.96,0.12085
1.964,0.10572
1.968,0.08182
1.972,0.07935
1.976,0.06361
1.98,0.1323
1.984,0.11018
1.988,0.10052
1.992,0.03306
1.996,0.09237
2.0,0.04571
2.004,0.0899
2.008,0.02809
2.012,0.01968
2.016,0.01828
2.02,-0.01038
2.024,0.06709
2.028,-0.00443
2.032,0.00703
2.036,0.06346
2.04,-0.04611
2.044,0.01375
2.048,0.00103
2.052,0.05815
2.056,0.00477
2.06,0.08997
2.064,-0.00186
2.068,-0.03404
2.072,0.06388
2.076,-0.07075
2.08,0.02601
2.084,-0.01878
2.088,0.06227
2.092,0.03299
2.096,-0.02359
2.1,0.03488
2.104,0.00386
2.108,0.01557
2.112,0.0105
2.116,0.03692
2.12,0.05439
2.124,0.03613
2.128,0.04914
2.132,0.07652
2.136,-0.02343
2.14,0.00927
2.144,0.08438
2.148,0.05116
2.152,0.05926
2.156,-0.03909
2.16,0.01454
2.164,-0.05027
2.168,0.02597
2.172,0.03026
2.176,-0.0163
2.18,0.02431
2.184,0.07091
2.188,0.00746
2.192,0.00903
2.196,-0.00565
2.2,-0.01506
2.204,-0.02744
2.208,0.06844
2.212,0.01821
2.216,0.01052
2.22,-0.02796
2.224,-0.0026
2.228,0.05849
2.232,0.07588
2.236,0.0479
2.24,0.05
2.244,0.04235
2.248,0.00264
2.252,0.02016
2.256,-0.03329
2.26,0.02582
2.264,0.03902
2.268,0.01503
2.272,-0.03192
2.276,0.03852
2.28,0.03005
2.284,-0.01796
2.288,0.03936
2.292,-0.00473
2.296,-0.014
2.3,0.01406
2.304,0.04813
2.308,0.02112
2.312,0.01248
2.316,0.03976
2.32,0.05321
2.324,0.00688
2.328,-0.02789
2.332,-0.00493
2.336,0.06347
2.34,0.01172
2.344,0.01375
2.348,-0.04596
2.352,0.04388
2.356,0.03446
2.36,0.07884
2.364,0.06164
2.368,0.00801
2.372,0.07113
2.376,0.07165
2.38,0.02215
2.384,9e-05
2.388,-0.01074
2.392,-0.002
2.396,0.03354
2.4,0.04579
2.404,0.01503
2.408,0.04942
2.412,0.03356
2.416,-0.00013
2.42,0.02474
2.424,0.04053
2.428,0.02479
2.432,0.01056
2.436,0.05408
2.44,-0.00294
2.444,0.03634
2.448,0.07167
2.452,0.00518
2.456,0.09183
2.46,0.01305
2.464,-0.007
2.468,0.00958
2.472,0.08804
2.476,0.07639
2.48,-0.04946
2.484,0.03635
2.488,0.05228
2.492,0.02004
2.496,0.03043
2.5,-0.00169
2.504,0.00025
2.508,0.04547
2.512,-0.03515
2.516,0.03942
2.52,0.05763
2.524,0.03108
2.528,0.05454
2.532,0.03063
2.536,0.03597
2.54,0.09466
2.544,0.00206
2.548,-0.01203
2.552,0.02661
2.556,-0.02181
2.56,0.02542
2.564,0.10804
2.568,-0.00561
2.572,0.03178
2.576,0.00357
2.58,0.06496
2.584,0.04405
2.588,0.05378
2.592,0.07798
2.596,0.03137
2.6,-0.00978
2.604,-0.03095
2.608,0.05386
2.612,0.08481
2.616,-0.04123
2.62,-0.01241
2.624,0.05789
2.628,-0.02485
2.632,0.00224
2.636,-0.00641
2.64,0.05248
2.644,-0.01369
2.648,0.03923
2.652,0.0384
2.656,0.04081
2.66,0.02249
2.664,-0.03705
2.668,0.02039
2.672,0.00399
2.676,0.0296
2.68,0.042
2.684,0.05082
2.688,0.01847
2.692,0.06369
2.696,0.048
2.7,0.09215
2.704,0.11455
2.708,0.04569
2.712,0.02565
2.716,-0.00663
2.72,0.09846
2.724,0.05661
2.728,-0.02229
2.732,0.03759
2.736,0.00499
2.74,-0.01249
2.744,0.01846
2.748,0.02187
2.752,0.06006
2.756,0.01199
2.76,0.06837
2.764,-0.01924
2.768,0.04222
2.772,0.03309
2.776,0.00189
2.78,0.00751
2.784,0.00335
2.788,0.03875
2.792,0.05287
2.796,0.01914
2.8,0.03148
2.804,0.06813
2.808,0.03727
2.812,0.04076
2.816,0.06095
2.82,0.04115
2.824,-0.01871
2.828,-0.00268
2.832,0.11415
2.836,0.02979
2.84,-0.00384
2.844,-0.05198
2.848,0.05621
2.852,0.01749
2.856,0.04427
2.86,0.03905
2.864,0.07492
2.868,0.06896
2.872,0.05712
2.876,0.06243
2.88,0.02172
2.884,0.03119
2.888,0.02088
2.892,-0.0236
2.896,0.04003
2.9,0.12024
2.904,0.06656
2.908,0.02447
2.912,-0.01514
2.916,0.01019
2.92,0.01043
2.924,0.05737
2.928,0.07583
2.932,0.07279
2.936,-0.00212
2.94,0.07271
2.944,0.04868
2.948,0.11547
2.952,0.07783
2.956,0.07314
2.96,0.15338
2.964,0.13041
2.968,0.16137
2.972,0.20624
2.976,0.10909
2.98,0.07522
2.984,0.04665
2.988,0.10187
2.992,0.08578
2.996,0.09761
3.0,0.11136
3.004,0.02743
3.008,0.01958
3.012,0.06854
3.016,-0.03451
3.02,0.06364
3.024,0.06046
3.028,-0.0067
3.032,0.01198
3.036,-0.03382
3.04,0.05421
3.044,-0.02167
3.048,0.02372
3.052,0.04102
3.056,0.01019
3.06,0.03876
3.064,0.07508
3.068,0.0437
3.072,-0.00851
3.076,0.03056
3.08,-0.04194
3.084,0.01092
3.088,-0.08168
3.092,-0.08158
3.096,-0.06147
3.1,-0.01209
3.104,0.10603
3.108,0.25943
3.112,0.43573
3.116,0.67144
3.12,0.85464
3.124,0.96826
3.128,1.00965
3.132,0.88205
3.136,0.76132
3.14,0.53598
3.144,0.26653
3.148,0.15461
3.152,-0.01692
3.156,-0.11348
3.16,-0.19913
3.164,-0.17192
3.168,-0.04216
3.172,-0.01735
3.176,0.05993
3.18,-0.02258
3.184,0.05662
3.188,0.02437
3.192,-0.00958
3.196,0.01091
3.2,0.02171
3.204,-0.01259
3.208,0.04189
3.212,0.03639
3.216,0.02394
3.22,0.04272
3.224,0.0319
3.228,0.03606
3.232,0.0254
3.236,0.03117
3.24,0.01635
3.244,0.0884
3.248,0.03173
3.252,0.0618
3.256,0.02103
3.26,0.0491
3.264,0.03107
3.268,0.0101
3.272,0.03724
3.276,-0.02024
3.28,0.06397
3.284,0.05966
3.288,0.05933
3.292,0.07028
3.296,0.01491
3.3,0.017
3.304,0.03543
3.308,0.05188
3.312,0.03588
3.316,0.01642
3.32,0.05467
3.324,0.04082
3.328,0.10414
3.332,0.0307
3.336,0.09596
3.34,0.11313
3.344,0.15096
3.348,0.12782
3.352,0.16432
3.356,0.20788
3.36,0.15382
3.364,0.14575
3.368,0.22609
3.372,0.18925
3.376,0.18565
3.38,0.2747
3.384,0.18302
3.388,0.24782
3.392,0.21393
3.396,0.22754
3.4,0.20447
3.404,0.24719
3.408,0.21673
3.412,0.22997
3.416,0.26478
3.42,0.24441
3.424,0.17105
3.428,0.23862
3.432,0.16297
3.436,0.23805
3.44,0.23025
3.444,0.25219
3.448,0.19439
3.452,0.12415
3.456,0.10679
3.46,0.14592
3.464,0.11087
3.468,0.10495
3.472,0.06412
3.476,0.10142
3.48,0.14196
3.484,0.07861
3.488,0.07234
3.492,0.07566
3.496,0.05444
3.5,0.10648
3.504,-0.0151
3.508,0.05617
3.512,0.05588
3.516,0.02953
3.52,0.05164
3.524,0.051
3.528,0.05407
3.532,0.07552
3.536,-0.03066
3.54,-0.03227
3.544,0.02113
3.548,0.06729
3.552,0.04526
3.556,0.01784
3.56,0.09713
3.564,0.06224
3.568,0.11281
3.572,0.03107
3.576,0.00087
3.58,-0.00361
3.584,0.02426
3.588,0.02382
3.592,0.05169
3.596,0.01202
3.6,-0.01367
3.604,-0.01747
3.608,0.06763
3.612,0.08514
3.616,-0.0214
3.62,0.01266
3.624,0.02907
3.628,0.01961
3.632,-0.08595
3.636,0.01988
3.64,0.05961
3.644,0.00499
3.648,0.05416
3.652,0.03936
3.656,0.06192
3.66,0.00451
3.664,0.0826
3.668,0.03808
3.672,0.05104
3.676,0.08773
3.68,0.01294
3.684,0.01051
3.688,0.00801
3.692,0.00107
3.696,0.05857
3.7,0.0613
3.704,0.02587
3.708,0.07723
3.712,-0.00389
3.716,-0.01635
3.72,0.00683
3.724,8e-05
3.728,0.05456
3.732,0.01577
3.736,0.074
3.74,0.03317
3.744,0.01782
3.748,0.01246
3.752,0.01319
3.756,0.01321
3.76,0.0917
3.764,0.0325
3.768,0.02775
3.772,0.0503
3.776,-0.03155
3.78,0.06945
3.784,0.08467
3.788,0.05372
3.792,0.04212
3.796,-0.00857
3.8,-0.00232
3.804,0.01601
3.808,0.04232
3.812,0.13207
3.816,-0.02397
3.82,0.04332
3.824,-0.0072
3.828,0.02353
3.832,0.08145
3.836,0.05039
3.84,0.00089
3.844,0.06446
3.848,0.02733
3.852,0.02934
3.856,0.03635
3.86,0.00213
3.864,0.03426
3.868,-0.0054
3.872,0.04514
3.876,0.05328
3.88,0.03348
3.884,-0.05155
3.888,0.05078
3.892,-0.03544
3.896,0.0931
3.9,0.02803
3.904,0.05871
3.908,-0.01412
3.912,-0.00416
3.916,0.05652
3.92,0.00386
3.924,0.02935
3.928,0.05322
3.932,0.00773
3.936,0.0404
3.94,0.04977
3.944,0.00261
3.948,0.06912
3.952,-0.03126
3.956,0.0223
3.96,0.00286
3.964,0.03029
3.968,0.01707
3.972,0.02946
3.976,-0.01642
3.98,0.0305
3.984,0.00879
3.988,-0.02093
3.992,0.03953
3.996,0.08986
4.0,0.00944
4.004,0.01067
4.008,0.05909
4.012,0.03816
4.016,0.02107
4.02,0.0161
4.024,0.02115
4.028,0.02706
4.032,0.01378
4.036,0.04118
4.04,-0.01766
4.044,-0.00461
4.048,0.05799
4.052,0.09879
4.056,0.05831
4.06,0.02979
4.064,0.08337
4.068,-0.01335
4.072,-0.00298
4.076,0.04267
4.08,0.01604
4.084,-0.01261
4.088,-0.03057
4.092,-0.03065
4.096,0.05447
4.1,-0.02996
4.104,-0.00182
4.108,0.04817
4.112,0.07984
4.116,0.06686
4.12,0.02719
4.124,0.06101
4.128,0.10189
4.132,0.08075
4.136,0.13148
4.14,0.15471
4.144,0.16169
4.148,0.08235
4.152,0.08804
4.156,0.1258
4.16,0.07926
4.164,0.1463
4.168,0.05903
4.172,0.07049
4.176,-0.00855
4.18,0.06894
4.184,-0.01269
4.188,-0.00401
4.192,-0.01724
4.196,0.0301
4.2,0.01883
4.204,0.00274
4.208,0.0065
4.212,0.06935
4.216,0.00252
4.22,0.05039
4.224,0.00619
4.228,0.02081
4.232,0.00805
4.236,0.03356
4.24,-0.00204
4.244,-0.02322
4.248,0.05965
4.252,0.02013
4.256,-0.00644
4.26,0.00843
4.264,-0.02015
4.268,-0.05628
4.272,-0.18171
4.276,-0.06232
4.28,0.03009
4.284,0.03572
4.288,0.16586
4.292,0.26501
4.296,0.33255
4.3,0.46886
4.304,0.4807
4.308,0.39753
4.312,0.33558
4.316,0.18676
4.32,0.10702
4.324,-0.01295
4.328,-0.06257
4.332,-0.13205
4.336,-0.16739
4.34,-0.168
4.344,-0.10886
4.348,-0.03917
4.352,-0.0999
4.356,0.02634
4.36,0.09204
4.364,-0.00605
4.368,-0.0217
4.372,0.00087
4.376,0.04292
4.38,0.08891
4.384,0.04092
4.388,0.05768
4.392,0.01076
4.396,-0.01577
4.4,-0.04031
4.404,0.05669
4.408,0.00671
4.412,-0.02915
4.416,0.03847
4.42,0.04556
4.424,-0.02542
4.428,-0.0201
4.432,-0.02477
4.436,0.01613
4.44,-0.02601
4.444,0.03617
4.448,0.01671
4.452,0.00903
4.456,0.00069
4.46,0.05396
4.464,0.01973
4.468,0.01708
4.472,0.08954
4.476,0.04603
4.48,0.01317
4.484,0.02114
4.488,0.03752
4.492,0.10954
4.496,0.07179
4.5,-0.00856
4.504,0.04508
4.508,0.04394
4.512,0.0787
4.516,0.08076
4.52,0.05078
4.524,0.12767
4.528,0.12365
4.532,0.10441
4.536,0.16679
4.54,0.19088
4.544,0.14976
4.548,0.15462
4.552,0.15586
4.556,0.18911
4.56,0.21223
4.564,0.23152
4.568,0.17627
4.572,0.18901
4.576,0.18891
4.58,0.2146
4.584,0.29721
4.588,0.20926
4.592,0.20014
4.596,0.27848
4.6,0.19714
4.604,0.23204
4.608,0.25727
4.612,0.23538
4.616,0.09828
4.62,0.20927
4.624,0.10384
4.628,0.12814
4.632,0.14033
4.636,0.1393
4.64,0.13455
4.644,0.12022
4.648,0.08097
4.652,0.10072
4.656,0.13337
4.66,0.07156
4.664,0.07347
4.668,0.03109
4.672,0.01624
4.676,-0.06005
4.68,0.02692
4.684,0.08632
4.688,0.10486
4.692,-0.04339
4.696,-0.04374
4.7,0.05205
4.704,-0.01284
4.708,0.01845
4.712,0.05033
4.716,0.02824
4.72,0.00936
4.724,-0.03181
4.728,0.003
4.732,-0.00963
4.736,0.02333
4.74,0.01934
4.744,0.00987
4.748,0.03556
4.752,0.00489
4.756,0.01571
4.76,-0.01315
4.764,-0.01595
4.768,-0.0205
4.772,0.01338
4.776,0.0537
4.78,0.0196
4.784,0.00738
4.788,-0.04303
4.792,-0.00406
4.796,0.00097
4.8,-0.04135
4.804,-0.03033
4.808,0.01531
4.812,0.00209
4.816,0.05007
4.82,0.01509
4.824,0.01419
4.828,0.03687
4.832,-0.0168
4.836,0.00876
4.84,0.01334
4.844,-0.01044
4.848,0.06687
4.852,0.02241
4.856,0.00918
4.86,-0.00577
4.864,-0.00935
4.868,-0.06009
4.872,0.03149
4.876,-0.02972
4.88,-0.05597
4.884,0.07037
4.888,0.03697
4.892,0.05225
4.896,-0.03843
4.9,-0.05303
4.904,-0.00382
4.908,-0.01622
4.912,-0.04109
4.916,-0.08739
4.92,-0.00871
4.924,-0.03051
4.928,-0.02994
4.932,0.05981
4.936,-0.00493
4.94,-0.03551
4.944,-0.02077
4.948,0.02694
4.952,0.03418
4.956,-0.00196
4.96,-0.00916
4.964,0.00765
4.968,0.04019
4.972,0.00776
4.976,-0.00893
4.98,0.05232
4.984,-0.03275
4.988,-0.04855
4.992,-0.00249
4.996,-0.01891
5.0,0.01255
5.004,-0.02061
5.008,0.04833
5.012,-0.04022
5.016,0.03631
5.02,0.00149
5.024,-0.03917
5.028,-0.01554
5.032,-0.03393
5.036,0.01307
5.04,0.052
5.044,-0.06855
5.048,-0.04515
5.052,0.05211
5.056,-0.00758
5.06,-0.00142
5.064,0.01383
5.068,-0.03409
5.072,-0.00242
5.076,-0.02623
5.08,-0.01132
5.084,-0.03079
5.088,-0.03959
5.092,-0.06653
5.096,0.01271
5.1,0.00342
5.104,-0.04237
5.108,-0.02611
5.112,0.00769
5.116,0.00923
5.12,0.00862
5.124,-0.08464
5.128,-0.03442
5.132,-0.01865
5.136,0.00981
5.14,0.06372
5.144,-0.00466
5.148,0.0018
5.152,-0.00015
5.156,0.03445
5.16,0.00525
5.164,-0.01669
5.168,-0.02901
5.172,-0.03627
5.176,-0.04012
5.18,0.00816
5.184,-0.05629
5.188,-0.0249
5.192,0.01828
5.196,0.00166
5.2,0.00241
5.204,0.01518
5.208,0.07758
5.212,-0.01115
5.216,0.01108
5.22,-0.05112
5.224,-0.01608
5.228,-0.04338
5.232,-0.01772
5.236,-0.04631
5.24,-0.01278
5.244,-0.05431
5.248,-0.07629
5.252,-0.00933
5.256,0.00667
5.26,-0.00097
5.264,-0.0598
5.268,-0.01461
5.272,-0.04328
5.276,0.00169
5.28,-0.05025
5.284,0.01983
5.288,-0.06274
5.292,-0.03225
5.296,-0.02271
5.3,-0.04458
5.304,-0.02632
5.308,0.01461
5.312,0.01595
5.316,0.0079
5.32,0.00454
5.324,0.01027
5.328,-0.05113
5.332,-0.04222
5.336,-0.02945
5.34,-0.0469
5.344,-0.03945
5.348,-0.00059
5.352,0.00243
5.356,0.02312
5.36,-0.04118
5.364,-0.05514
5.368,-0.02379
5.372,-0.03697
5.376,-0.02579
5.38,-0.06753
5.384,-0.02784
5.388,-0.08593
5.392,-0.05507
5.396,-0.09753
5.4,0.032
5.404,-0.04476
5.408,-0.07528
5.412,-0.02121
5.416,-0.02442
5.42,-0.03929
5.424,-0.01793
5.428,-0.00251
5.432,0.01699
5.436,0.02432
5.44,0.07418
5.444,0.09683
5.448,0.07354
5.452,0.11699
5.456,0.11141
5.46,0.03369
5.464,0.04872
5.468,0.09259
5.472,0.09257
5.476,0.12561
5.48,0.04653
5.484,0.04542
5.488,0.04632
5.492,0.03861
5.496,0.06439
5.5,0.00826
5.504,-0.01279
5.508,-0.01282
5.512,0.0654
5.516,-0.00943
5.52,-0.04637
5.524,-0.04754
5.528,-0.10059
5.532,-0.05297
5.536,0.01118
5.54,-0.04532
5.544,-0.02779
5.548,0.02113
5.552,0.00901
5.556,-0.01588
5.56,-0.00051
5.564,-0.09335
5.568,-0.01656
5.572,-0.02538
5.576,0.00226
5.58,-0.01781
5.584,-0.04931
5.588,-0.07374
5.592,-0.07437
5.596,-0.06866
5.6,-0.07617
5.604,0.0005
5.608,0.13552
5.612,0.30268
5.616,0.53131
5.62,0.82294
5.624,0.89137
5.628,0.89635
5.632,0.93513
5.636,0.7905
5.64,0.59115
5.644,0.40963
5.648,0.13874
5.652,-0.0222
5.656,-0.07412
5.66,-0.20925
5.664,-0.19432
5.668,-0.18828
5.672,-0.14572
5.676,-0.10619
5.68,-0.07069
5.684,-0.03492
5.688,-0.082
5.692,-0.00186
5.696,-0.02175
5.7,-0.109
5.704,-0.02803
5.708,-0.03745
5.712,-0.09816
5.716,-0.02285
5.72,-0.00569
5.724,-0.0765
5.728,-0.04515
5.732,-0.04965
5.736,-0.02966
5.74,0.03086
5.744,0.05267
5.748,-0.05399
5.752,0.03244
5.756,-0.05227
5.76,-0.05369
5.764,0.03322
5.768,-0.02969
5.772,-0.03655
5.776,-0.07234
5.78,-0.0286
5.784,-0.03495
5.788,-0.01495
5.792,-0.00519
5.796,-0.00507
5.8,-0.09969
5.804,-0.00538
5.808,-0.02057
5.812,0.02231
5.816,-0.023
5.82,-0.0153
5.824,0.00742
5.828,0.05519
5.832,0.00701
5.836,0.03575
5.84,0.00614
5.844,0.04512
5.848,0.00462
5.852,0.1246
5.856,0.09804
5.86,0.08415
5.864,0.1587
5.868,0.09864
5.872,0.06865
5.876,0.1927
5.88,0.19992
5.884,0.1271
5.888,0.16754
5.892,0.1958
5.896,0.13315
5.9,0.17757
5.904,0.20975
5.908,0.26028
5.912,0.21579
5.916,0.18863
5.92,0.18613
5.924,0.13834
5.928,0.18939
5.932,0.19116
5.936,0.20074
5.94,0.1553
5.944,0.13277
5.948,0.11745
5.952,0.15487
5.956,0.06331
5.96,0.10443
5.964,0.04365
5.968,0.03291
5.972,0.06099
5.976,0.08312
5.98,-0.00763
5.984,0.00522
5.988,0.0408
5.992,0.04664
5.996,0.02224
6.0,0.04278
6.004,0.00805
6.008,0.02193
6.012,-0.01102
6.016,0.0128
6.02,-0.03418
6.024,0.03786
6.028,-0.0298
6.032,0.02888
6.036,0.06835
6.04,-0.03055
6.044,-0.05311
6.048,-0.00128
6.052,-0.05684
6.056,-0.03417
6.06,-0.01802
6.064,-0.07029
6.068,-0.02416
6.072,0.02525
6.076,-0.00364
6.08,0.05406
6.084,0.04392
6.088,0.01435
6.092,0.12951
6.096,0.04657
6.1,0.04749
6.104,0.07071
6.108,-0.05629
6.112,0.09973
6.116,0.06721
6.12,0.04935
6.124,0.04877
6.128,0.02997
6.132,0.04901
6.136,-0.02991
6.14,0.01669
6.144,0.01423
6.148,0.01618
6.152,-0.02461
6.156,-0.0126
6.16,0.00344
6.164,-0.06697
6.168,0.00503
6.172,-0.02735
6.176,-0.00455
6.18,0.01996
6.184,-0.07922
6.188,-0.06134
6.192,-0.01447
6.196,-0.06644
6.2,-0.03232
6.204,-0.06585
6.208,-0.0234
6.212,-0.01801
6.216,-0.08272
6.22,-0.0481
6.224,-0.18639
6.228,-0.1448
6.232,-0.00784
6.236,0.1303
6.24,0.26455
6.244,0.47273
6.248,0.72555
6.252,0.82401
6.256,0.93923
6.26,0.94001
6.264,0.85568
6.268,0.64049
6.272,0.33243
6.276,0.17391
6.28,-0.01885
6.284,-0.09957
6.288,-0.17631
6.292,-0.19679
6.296,-0.17077
6.3,-0.03024
6.304,-0.00085
6.308,-0.0546
6.312,-0.0334
6.316,-0.01287
6.32,-0.07307
6.324,-0.01982
6.328,-0.10046
6.332,-0.00182
6.336,-0.03621
6.34,-0.02235
6.344,-0.01934
6.348,-0.00749
6.352,-0.06456
6.356,-0.04892
6.36,-0.05751
6.364,-0.03565
6.368,0.01013
6.372,-0.00861
6.376,-0.00011
6.38,-0.02508
6.384,0.01311
6.388,-0.01326
6.392,0.00992
6.396,-0.07902
6.4,-0.01532
6.404,-0.09012
6.408,-0.0187
6.412,-0.02012
6.416,-0.04399
6.42,-0.01556
6.424,-0.04011
6.428,-0.02704
6.432,-0.01074
6.436,-0.06411
6.44,-0.0085
6.444,-0.02977
6.448,-0.04726
6.452,0.02993
6.456,-0.00768
6.46,0.00181
6.464,0.04541
6.468,0.01298
6.472,0.03082
6.476,0.09955
6.48,0.04345
6.484,0.07482
6.488,0.04567
6.492,0.13936
6.496,0.09368
6.5,0.14954
6.504,0.13246
6.508,0.12985
6.512,0.15954
6.516,0.17566
6.52,0.21867
6.524,0.1256
6.528,0.27019
6.532,0.14145
6.536,0.22396
6.54,0.2365
6.544,0.16221
6.548,0.15461
6.552,0.21645
6.556,0.19637
6.56,0.14198
6.564,0.16561
6.568,0.15577
6.572,0.08375
6.576,0.07072
6.58,0.10912
6.584,0.09925
6.588,0.09923
6.592,0.12878
6.596,0.10874
6.6,0.09429
6.604,0.12268
6.608,0.02365
6.612,0.10565
6.616,0.01987
6.62,0.01686
6.624,-0.01651
6.628,-0.00052
6.632,-0.02027
6.636,-0.0095
6.64,-0.0252
6.644,-0.07347
6.648,-0.02837
6.652,0.05711
6.656,0.0142
6.66,-0.04885
6.664,-0.03684
6.668,0.01361
6.672,-0.02827
6.676,-0.0484
6.68,-0.08777
6.684,-0.07871
6.688,-0.04169
6.692,-0.01322
6.696,-0.03997
6.7,-0.06031
6.704,-0.0107
6.708,-0.04081
6.712,-0.03282
6.716,0.00263
6.72,-0.01356
6.724,0.00641
6.728,0.0143
6.732,-0.02081
6.736,0.03949
6.74,-0.08442
6.744,0.03841
6.748,-0.01685
6.752,-0.04347
6.756,0.06526
6.76,-0.08868
6.764,-0.00451
6.768,-0.05691
6.772,0.02443
6.776,0.01454
6.78,-0.00461
6.784,0.05493
6.788,-0.05711
6.792,0.00024
6.796,-0.02962
6.8,-0.02865
6.804,0.03136
6.808,-0.11209
6.812,-0.0848
6.816,-0.02436
6.82,0.02079
6.824,0.05169
6.828,0.01615
6.832,0.07087
6.836,0.03386
6.84,0.07605
6.844,0.0958
6.848,0.07545
6.852,0.11078
6.856,0.03733
6.86,0.03627
6.864,0.07793
6.868,0.02635
6.872,-0.00676
6.876,0.03363
6.88,0.03549
6.884,0.02503
6.888,0.01361
6.892,-0.04013
6.896,-0.05028
6.9,-0.04273
6.904,0.06384
6.908,-0.02132
6.912,-0.06464
6.916,-0.03379
6.92,-0.04431
6.924,0.00944
6.928,-0.00657
6.932,0.03996
6.936,-0.07526
6.94,-0.03352
6.944,0.00561
6.948,-0.00242
6.952,-0.02331
6.956,0.04876
6.96,-0.05331
6.964,-0.04724
6.968,-0.05217
6.972,-0.0619
6.976,-0.15758
6.98,-0.09826
6.984,-0.07056
6.988,0.11016
6.992,0.27017
6.996,0.51909
7.0,0.7636
7.004,0.84872
7.008,0.97413
7.012,0.94626
7.016,0.86111
7.02,0.64054
7.024,0.42166
7.028,0.28198
7.032,0.01982
7.036,-0.08962
7.04,-0.21018
7.044,-0.16742
7.048,-0.13816
7.052,-0.19722
7.056,-0.04036
7.06,-0.02035
7.064,-0.03076
7.068,-0.02167
7.072,-0.01553
7.076,0.02348
7.08,-0.01117
7.084,-0.02261
7.088,0.01466
7.092,-0.04492
7.096,0.04019
7.1,-0.0537
7.104,-0.11467
7.108,-0.01911
7.112,-0.02941
7.116,-0.00703
7.12,-0.02086
7.124,-0.0236
7.128,-0.0096
7.132,-0.0732
7.136,-0.04742
7.14,0.01082
7.144,-0.04019
7.148,0.01918
7.152,-0.05184
7.156,-0.03343
7.16,-0.00476
7.164,-0.06216
7.168,0.02192
7.172,-0.03221
7.176,-0.06016
7.18,-0.02485
7.184,0.00454
7.188,0.00203
7.192,0.01434
7.196,-0.03223
7.2,0.00355
7.204,0.03504
7.208,0.00532
7.212,-0.00293
7.216,0.03612
7.22,-0.00165
7.224,-0.02059
7.228,0.09517
7.232,0.0722
7.236,0.13248
7.24,0.16414
7.244,0.18915
7.248,0.14788
7.252,0.0969
7.256,0.1789
7.26,0.15644
7.264,0.15593
7.268,0.22237
7.272,0.11835
7.276,0.14082
7.28,0.16145
7.284,0.20494
7.288,0.20615
7.292,0.24689
7.296,0.17686
7.3,0.21696
7.304,0.15912
7.308,0.13095
7.312,0.16959
7.316,0.20886
7.32,0.21111
7.324,0.13698
7.328,0.07509
7.332,0.1191
7.336,0.0658
7.34,0.04932
7.344,0.13207
7.348,0.0812
7.352,0.10687
7.356,0.03782
7.36,0.02224
7.364,0.07409
7.368,0.08225
7.372,0.0259
7.376,-0.00806
7.38,-0.00824
7.384,0.05945
7.388,0.01179
7.392,-0.05307
7.396,-0.05539
7.4,0.02867
7.404,-0.05259
7.408,0.00542
7.412,-0.04912
7.416,-0.04092
7.42,0.05168
7.424,-0.01849
7.428,0.02429
7.432,-0.05134
7.436,-0.02769
7.44,0.03955
7.444,-0.04907
7.448,-0.00418
7.452,-0.04788
7.456,0.02082
7.46,-0.01136
7.464,-0.02584
7.468,0.07773
7.472,-0.00428
7.476,-0.05494
7.48,-0.02957
7.484,-0.01774
7.488,-0.04624
7.492,0.00529
7.496,0.04936
7.5,-0.03845
7.504,-0.04947
7.508,0.00727
7.512,-0.07135
7.516,-0.00875
7.52,0.01879
7.524,-0.05615
7.528,0.01814
7.532,-0.00528
7.536,0.01486
7.54,-0.02506
7.544,-0.08783
7.548,0.00185
7.552,-0.01945
7.556,-0.04875
7.56,-0.03217
7.564,-0.02646
7.568,-0.00957
7.572,-0.07614
7.576,-0.01803
7.58,-0.01486
7.584,-0.08892
7.588,0.00069
7.592,-0.04176
7.596,-0.02516
7.6,-0.0005
7.604,-0.02771
7.608,0.01318
7.612,0.10068
7.616,-0.03325
7.62,-0.04103
7.624,0.01433
7.628,-0.02103
7.632,-0.07827
7.636,-0.02833
7.64,-0.01049
7.644,-0.06228
7.648,-0.03199
7.652,0.0271
7.656,-0.00407
7.66,-0.02299
7.664,-0.00393
7.668,-0.01914
7.672,0.01491
7.676,-0.0072
7.68,-0.02824
7.684,-0.002
7.688,-0.04917
7.692,-0.01965
7.696,0.01818
7.7,-0.02461
7.704,-0.02042
7.708,-0.03982
7.712,-0.03397
7.716,-0.07947
7.72,-0.02374
7.724,-0.05012
7.728,-0.04951
7.732,0.00124
7.736,-0.01899
7.74,-0.03601
7.744,0.01743
7.748,-0.02066
7.752,-0.06314
7.756,-0.04044
7.76,-0.05853
7.764,0.02193
7.768,-0.07861
7.772,-0.00252
7.776,-0.0019
7.78,-0.03862
7.784,-0.01928
7.788,-0.02129
7.792,0.00812
7.796,-0.04783
7.8,0.06318
7.804,0.00873
7.808,0.03208
7.812,-0.0581
7.816,-0.08129
7.82,0.02204
7.824,-0.02982
7.828,0.00275
7.832,-0.01563
7.836,-0.01159
7.84,-0.00679
7.844,-0.01224
7.848,-0.15075
7.852,-0.00118
7.856,-0.04928
7.86,-0.03821
7.864,-0.02473
7.868,-0.00631
7.872,0.00349
7.876,-0.02824
7.88,-0.01423
7.884,-0.00663
7.888,0.00727
7.892,-0.02737
7.896,-0.0604
7.9,0.00446
7.904,-0.00532
7.908,0.01557
7.912,-0.02064
7.916,-0.0033
7.92,0.03523
7.924,-0.04109
7.928,-0.0229
7.932,-0.03523
7.936,-0.04025
7.94,-0.03058
7.944,-0.05089
7.948,-0.02425
7.952,-0.04931
7.956,0.00966
7.96,0.06237
7.964,-0.01135
7.968,0.03338
7.972,0.01473
7.976,0.04626
7.98,0.01938
7.984,0.02991
7.988,0.05804
7.992,0.05192
7.996,0.06117
8.0,0.04069
8.004,0.12664
8.008,0.16509
8.012,0.11326
8.016,0.10971
8.02,0.09064
8.024,0.07993
8.028,0.06306
8.032,0.00367
8.036,0.02888
8.04,-0.00529
8.044,0.00423
8.048,0.06189
8.052,-0.02722
8.056,-0.02707
8.06,0.04748
8.064,-0.0598
8.068,-0.03458
8.072,0.05813
8.076,0.05685
8.08,-0.02595
8.084,-0.0622
8.088,0.03532
8.092,-0.0676
8.096,-0.05908
8.1,0.00131
8.104,0.00345
8.108,0.00147
8.112,0.05031
8.116,0.06432
8.12,-0.02428
8.124,-0.04086
8.128,-0.07892
8.132,-0.08604
8.136,-0.09448
8.14,-0.01601
8.144,0.02755
8.148,0.23837
8.152,0.49713
8.156,0.66072
8.16,0.80725
8.164,0.94323
8.168,0.98007
8.172,0.90883
8.176,0.79232
8.18,0.49322
8.184,0.23862
8.188,0.07668
8.192,-0.09692
8.196,-0.15948
8.2,-0.17152
8.204,-0.12835
8.208,-0.16053
8.212,-0.0674
8.216,-0.10289
8.22,0.02805
8.224,0.0935
8.228,-0.02949
8.232,-0.04247
8.236,0.01215
8.24,-0.06277
8.244,0.02715
8.248,-0.03878
8.252,-0.03983
8.256,-0.06729
8.26,-0.01755
8.264,0.01023
8.268,-0.03284
8.272,-0.01123
8.276,0.0296
8.28,0.00187
8.284,-0.03035
8.288,0.06004
8.292,-0.0321
8.296,-0.0162
8.3,0.01615
8.304,-0.00651
8.308,-0.02323
8.312,-0.05288
8.316,0.04014
8.32,0.02305
8.324,-0.02367
8.328,-0.0217
8.332,-0.01579
8.336,-0.00054
8.34,-0.02361
8.344,0.03575
8.348,0.06483
8.352,0.10154
8.356,0.00728
8.36,0.05726
8.364,0.10095
8.368,-0.01083
8.372,0.07823
8.376,0.05198
8.38,0.0601
8.384,0.12059
8.388,0.09464
8.392,0.06273
8.396,0.08758
8.4,0.15422
8.404,0.14875
8.408,0.21256
8.412,0.21421
8.416,0.19319
8.42,0.1606
8.424,0.21277
8.428,0.21673
8.432,0.18172
8.436,0.21973
8.44,0.18375
8.444,0.17973
8.448,0.25139
8.452,0.27066
8.456,0.19254
8.46,0.24666
8.464,0.17664
8.468,0.22328
8.472,0.21202
8.476,0.22291
8.48,0.19181
8.484,0.26218
8.488,0.17234
8.492,0.05803
8.496,0.11585
8.5,0.12016
8.504,0.10983
8.508,0.07874
8.512,0.04348
8.516,0.0405
8.52,0.08603
8.524,0.08525
8.528,0.03264
8.532,0.0493
8.536,0.02954
8.54,0.05238
8.544,0.0877
8.548,0.00406
8.552,0.04362
8.556,0.0324
8.56,-0.00787
8.564,0.07153
8.568,0.0329
8.572,0.011
8.576,0.05495
8.58,0.00225
8.584,0.03834
8.588,0.03509
8.592,0.00524
8.596,0.02458
8.6,0.02381
8.604,-0.03874
8.608,-0.01022
8.612,0.00304
8.616,0.05322
8.62,-0.00867
8.624,0.06711
8.628,-0.0406
8.632,0.03655
8.636,-0.03048
8.64,0.04685
8.644,0.00582
8.648,-0.01503
8.652,-0.00801
8.656,-0.03073
8.66,-0.04861
8.664,0.03108
8.668,0.0089
8.672,0.00827
8.676,-0.02563
8.68,0.05912
8.684,0.0313
8.688,0.05157
8.692,-0.01241
8.696,-0.00207
8.7,0.0134
8.704,-0.07105
8.708,0.03991
8.712,0.04887
8.716,0.05709
8.72,-0.0068
8.724,0.06203
8.728,0.02715
8.732,0.07059
8.736,0.07842
8.74,0.00328
8.744,0.01381
8.748,-0.00616
8.752,-0.00065
8.756,0.02365
8.76,0.03352
8.764,0.07208
8.768,0.02059
8.772,0.02945
8.776,0.02963
8.78,0.06008
8.784,-0.03131
8.788,-0.0636
8.792,0.06209
8.796,-0.04202
8.8,0.04212
8.804,-0.00539
8.808,-0.00339
8.812,-0.00255
8.816,0.04337
8.82,0.08446
8.824,-0.05221
8.828,-0.01901
8.832,0.06054
8.836,0.0184
8.84,-0.06613
8.844,0.01484
8.848,0.0278
8.852,-0.05403
8.856,-0.02163
8.86,0.02933
8.864,0.07526
8.868,-0.01891
8.872,-0.015
8.876,-0.0362
8.88,0.07172
8.884,0.11233
8.888,0.03481
8.892,-0.00354
8.896,0.03099
8.9,0.0386
8.904,0.055
8.908,0.04373
8.912,0.04898
8.916,0.08608
8.92,0.04255
8.924,0.036
8.928,0.00649
8.932,0.02169
8.936,-0.03522
8.94,0.05107
8.944,0.04468
8.948,-0.02037
8.952,0.11738
8.956,0.01833
8.96,0.0246
8.964,0.05364
8.968,0.0833
8.972,0.02148
8.976,-0.01503
8.98,0.03741
8.984,-0.02995
8.988,-0.00061
8.992,0.01078
8.996,-0.0111
9.0,0.01333
9.004,0.03396
9.008,0.00823
9.012,0.01733
9.016,0.02947
9.02,0.02668
9.024,0.03361
9.028,0.0828
9.032,0.0611
9.036,0.04847
9.04,0.09155
9.044,0.09091
9.048,0.01912
9.052,-0.01616
9.056,0.00786
9.06,0.05917
9.064,0.05589
9.068,0.07968
9.072,-0.00994
9.076,0.04615
9.08,0.07796
9.084,-0.04488
9.088,0.02339
9.092,0.05696
9.096,-0.01041
9.1,0.06512
9.104,0.04394
9.108,0.04638
9.112,-0.00498
9.116,-0.00951
9.12,0.00431
9.124,0.04557
9.128,0.02022
9.132,0.01013
9.136,0.02315
9.14,0.06315
9.144,0.02312
9.148,0.06018
9.152,-0.04834
9.156,0.02109
9.16,0.03144
9.164,0.05652
9.168,0.02501
9.172,-0.00791
9.176,0.0154
9.18,0.05414
9.184,0.03851
9.188,0.029
9.192,0.06284
9.196,0.04709
9.2,0.05134
9.204,0.02866
9.208,0.04494
9.212,0.00589
9.216,0.00796
9.22,0.01484
9.224,-0.06861
9.228,-0.00646
9.232,-0.0047
9.236,0.01405
9.24,0.03414
9.244,0.02051
9.248,-0.0053
9.252,-0.05848
9.256,0.06021
9.26,0.04128
9.264,0.02998
9.268,0.03465
9.272,0.03793
9.276,0.00234
9.28,0.0861
9.284,-0.02258
9.288,0.04195
9.292,0.0793
9.296,-0.00614
9.3,0.0667
9.304,0.03025
9.308,-0.00135
9.312,0.01584
9.316,0.00432
9.32,0.01437
9.324,0.09765
9.328,0.02448
9.332,0.08699
9.336,0.01666
9.34,-0.02608
9.344,-0.03059
9.348,0.01487
9.352,-0.01469
9.356,-0.02044
9.36,0.05303
9.364,-0.00455
9.368,0.00485
9.372,0.06531
9.376,0.05082
9.38,0.02118
9.384,0.0366
9.388,0.08349
9.392,0.03893
9.396,-0.00849
9.4,0.08001
9.404,0.05113
9.408,0.04857
9.412,0.0302
9.416,0.04687
9.42,0.0357
9.424,-0.04472
9.428,-0.02357
9.432,0.06219
9.436,0.03323
9.44,0.04973
9.444,0.03666
9.448,0.01865
9.452,-0.0099
9.456,0.04371
9.46,0.03167
9.464,0.06302
9.468,0.02329
9.472,0.06537
9.476,0.07124
9.48,0.06328
9.484,0.08266
9.488,0.16168
9.492,0.18322
9.496,0.11435
9.5,0.14771
9.504,0.10567
9.508,0.08973
9.512,0.10079
9.516,0.06201
9.52,0.13149
9.524,0.03675
9.528,0.10234
9.532,0.02474
9.536,0.07481
9.54,-0.01771
9.544,0.04338
9.548,0.0686
9.552,0.04491
9.556,0.00501
9.56,0.03442
9.564,0.01434
9.568,0.02767
9.572,0.02379
9.576,0.06354
9.58,0.04515
9.584,0.0735
9.588,0.05601
9.592,0.05192
9.596,0.0748
9.6,0.10612
9.604,-0.02087
9.608,-0.00964
9.612,-0.01955
9.616,-0.0665
9.62,-0.03346
9.624,-0.03308
9.628,-0.1711
9.632,-0.05239
9.636,0.04149
9.64,0.26185
9.644,0.54556
9.648,0.78778
9.652,0.90842
9.656,0.92494
9.66,1.01086
9.664,0.9094
9.668,0.74896
9.672,0.46005
9.676,0.24528
9.68,0.03264
9.684,-0.10316
9.688,-0.17534
9.692,-0.09876
9.696,-0.1532
9.7,-0.0616
9.704,-0.05337
9.708,-0.02348
9.712,0.03823
9.716,0.01658
9.72,0.0498
9.724,-0.07215
9.728,0.02253
9.732,0.06111
9.736,0.0041
9.74,0.04059
9.744,0.06623
9.748,-0.02164
9.752,-0.03348
9.756,0.02148
9.76,0.04045
9.764,-0.00311
9.768,0.03673
9.772,0.04132
9.776,0.0445
9.78,0.03243
9.784,0.00854
9.788,0.0128
9.792,-0.00929
9.796,0.06528
9.8,0.0354
9.804,0.0406
9.808,0.05769
9.812,0.10005
9.816,0.04922
9.82,0.05801
9.824,-0.01214
9.828,0.01759
9.832,0.06897
9.836,0.10021
9.84,0.0767
9.844,0.03266
9.848,0.07137
9.852,0.03438
9.856,0.105
9.86,0.0287
9.864,0.06693
9.868,0.0655
9.872,0.1072
9.876,0.08336
9.88,0.14695
9.884,0.12306
9.888,0.11979
9.892,0.10404
9.896,0.16377
9.9,0.23517
9.904,0.17444
9.908,0.16675
9.912,0.18917
9.916,0.25682
9.92,0.2749
9.924,0.22015
9.928,0.24959
9.932,0.23605
9.936,0.30475
9.94,0.19077
9.944,0.29573
9.948,0.24461
9.952,0.21332
9.956,0.24873
9.96,0.26531
9.964,0.22681
9.968,0.20837
9.972,0.18362
9.976,0.14588
9.98,0.16221
9.984,0.1937
9.988,0.17267
9.992,0.22009
9.996,0.09448
