t_seg,ecg_mV
0.0,0.00381
0.004,0.02219
0.008,-0.0395
0.012,-0.02341
0.016,-0.04249
0.02,0.02216
0.024,0.08893
0.028,0.02184
0.032,0.01373
0.036,-0.0044
0.04,-0.01176
0.044,0.09819
0.048,0.03674
0.052,0.02232
0.056,0.05716
0.06,-0.05089
0.064,-0.00081
0.068,0.03292
0.072,0.06722
0.076,0.03554
0.08,0.04284
0.084,0.02874
0.088,-0.01839
0.092,-0.0021
0.096,-0.0121
0.1,0.00505
0.104,-0.02867
0.108,0.02751
0.112,-0.02231
0.116,0.01283
0.12,0.02241
0.124,0.08071
0.128,0.01443
0.132,-0.05521
0.136,0.0884
0.14,0.0548
0.144,0.02785
0.148,-0.01223
0.152,0.01893
0.156,0.07124
0.16,0.12881
0.164,0.10649
0.168,0.13395
0.172,0.10137
0.176,0.07533
0.18,0.05936
0.184,0.15668
0.188,0.05087
0.192,0.12054
0.196,0.1828
0.2,0.14831
0.204,0.04765
0.208,0.13366
0.212,0.03121
0.216,-0.00453
0.22,0.03271
0.224,0.02511
0.228,0.11474
0.232,0.02594
0.236,-0.02359
0.24,-0.04806
0.244,-0.01997
0.248,0.0091
0.252,-0.03321
0.256,-0.02219
0.26,-0.03024
0.264,0.03053
0.268,-0.03976
0.272,0.02009
0.276,-0.04326
0.28,-0.01751
0.284,0.06695
0.288,0.02428
0.292,0.02541
0.296,0.01469
0.3,-0.02952
0.304,-0.00061
0.308,-0.08986
0.312,-0.02869
0.316,-0.06381
0.32,-0.07092
0.324,0.00133
0.328,0.13845
0.332,0.34197
0.336,0.53084
0.34,0.75055
0.344,0.91145
0.348,1.02841
0.352,0.97366
0.356,0.87663
0.36,0.59458
0.364,0.47687
0.368,0.271
0.372,0.06052
0.376,-0.1077
0.38,-0.11748
0.384,-0.11145
0.388,-0.09807
0.392,-0.06334
0.396,-0.02125
0.4,0.02962
0.404,0.04896
0.408,0.00191
0.412,-0.00924
0.416,-0.00526
0.42,0.01334
0.424,-0.00052
0.428,-0.01549
0.432,0.00223
0.436,0.0245
0.44,-0.03783
0.444,-0.02648
0.448,0.04728
0.452,0.02192
0.456,0.0369
0.46,-0.02317
0.464,-0.02538
0.468,0.11659
0.472,0.01577
0.476,0.01698
0.48,0.05947
0.484,-0.00188
0.488,-0.03186
0.492,0.03151
0.496,0.03715
0.5,0.03295
0.504,0.02125
0.508,-0.0333
0.512,-0.02377
0.516,0.00798
0.52,0.01794
0.524,-0.00382
0.528,0.04966
0.532,0.03927
0.536,0.03864
0.54,0.04884
0.544,0.03666
0.548,0.02351
0.552,0.02783
0.556,0.06269
0.56,0.04552
0.564,0.0831
0.568,0.10899
0.572,0.11177
0.576,0.17785
0.58,0.12259
0.584,0.05495
0.588,0.10504
0.592,0.11826
0.596,0.21892
0.6,0.1741
0.604,0.20923
0.608,0.18612
0.612,0.165
0.616,0.19473
0.62,0.25617
0.624,0.27761
0.628,0.19534
0.632,0.23185
0.636,0.20247
0.64,0.24671
0.644,0.22033
0.648,0.16567
0.652,0.22837
0.656,0.16718
0.66,0.1484
0.664,0.14736
0.668,0.1638
0.672,0.11528
0.676,0.11833
0.68,0.04015
0.684,0.13627
0.688,0.07937
0.692,0.11036
0.696,0.10234
0.7,0.00707
0.704,0.06724
0.708,0.0547
0.712,0.03446
0.716,0.07471
0.72,0.04199
0.724,0.01628
0.728,0.0847
0.732,0.12194
0.736,0.07046
0.74,0.08845
0.744,0.15348
0.748,0.07963
0.752,0.07308
0.756,0.13269
0.76,0.12862
0.764,0.11887
0.768,0.08293
0.772,0.02716
0.776,-0.0906
0.78,0.0509
0.784,0.03773
0.788,-0.00922
0.792,-0.01263
0.796,-0.03219
0.8,0.01436
0.804,0.01782
0.808,-0.09538
0.812,-0.00453
0.816,0.00634
0.82,-0.05289
0.824,0.06187
0.828,0.01299
0.832,0.01524
0.836,-0.02493
0.84,-0.02283
0.844,0.00925
0.848,0.00789
0.852,-0.01662
0.856,-0.01374
0.86,-0.02572
0.864,-0.04218
0.868,-0.02401
0.872,-0.06598
0.876,-0.07942
0.88,-0.10491
0.884,-0.04866
0.888,0.05167
0.892,0.21581
0.896,0.49625
0.9,0.67413
0.904,0.84526
0.908,0.96428
0.912,1.03358
0.916,0.97916
0.92,0.78542
0.924,0.52409
0.928,0.33255
0.932,0.09623
0.936,-0.10015
0.94,-0.13447
0.944,-0.1593
0.948,-0.20562
0.952,-0.07307
0.956,-0.03432
0.96,-0.05651
0.964,-0.04591
0.968,-0.06352
0.972,-0.01876
0.976,0.00268
0.98,-0.01397
0.984,-0.02755
0.988,-0.02222
0.992,0.00738
0.996,-0.00142
1.0,0.01124
1.004,-0.01026
1.008,0.03089
1.012,0.01591
1.016,-0.03332
1.02,0.04333
1.024,0.00785
1.028,0.03379
1.032,0.04345
1.036,-0.05195
1.04,-0.04865
1.044,0.08337
1.048,-0.00084
1.052,-0.02239
1.056,-0.06198
1.06,-0.02378
1.064,-0.04033
1.068,-0.01293
1.072,-0.01023
1.076,-0.04324
1.08,-0.02339
1.084,-0.03083
1.088,-0.04716
1.092,-0.00077
1.096,0.00411
1.1,0.08881
1.104,0.047
1.108,0.04638
1.112,0.02867
1.116,0.07533
1.12,0.06328
1.124,0.05374
1.128,0.00794
1.132,0.07976
1.136,0.13329
1.14,0.09458
1.144,0.16549
1.148,0.13324
1.152,0.19325
1.156,0.17221
1.16,0.14337
1.164,0.17721
1.168,0.22574
1.172,0.14341
1.176,0.12458
1.18,0.18715
1.184,0.20817
1.188,0.16046
1.192,0.17977
1.196,0.19634
1.2,0.17634
1.204,0.22851
1.208,0.19577
1.212,0.19511
1.216,0.15253
1.22,0.19267
1.224,0.11
1.228,0.13979
1.232,0.1592
1.236,0.1042
1.24,0.09623
1.244,0.14909
1.248,0.03483
1.252,0.0589
1.256,0.08239
1.26,0.01556
1.264,0.00092
1.268,0.03023
1.272,-0.00438
1.276,0.02513
1.28,-0.01327
1.284,-0.0135
1.288,0.06039
1.292,0.0544
1.296,0.00805
1.3,0.0075
1.304,0.03041
1.308,-0.02985
1.312,-0.03055
1.316,-0.04432
1.32,-0.01071
1.324,-0.02539
1.328,-0.02662
1.332,0.04209
1.336,0.04466
1.34,0.1032
1.344,0.05425
1.348,0.0973
1.352,0.07828
1.356,0.07638
1.36,0.11656
1.364,0.15569
1.368,0.04901
1.372,0.05071
1.376,0.02806
1.38,0.00342
1.384,-0.01745
1.388,-0.00971
1.392,-0.04759
1.396,0.02554
1.4,-0.02521
1.404,0.02549
1.408,-0.07277
1.412,0.00748
1.416,0.01464
1.42,-0.01724
1.424,-0.0533
1.428,-0.04211
1.432,-0.02435
1.436,-0.01819
1.44,-0.02986
1.444,-0.03039
1.448,0.0248
1.452,-0.0331
1.456,0.05041
1.46,0.02596
1.464,0.01179
1.468,-0.0166
1.472,-0.04193
1.476,-0.0889
1.48,-0.11127
1.484,-0.11608
1.488,-0.13926
1.492,-0.08748
1.496,-0.00233
1.5,0.20008
1.504,0.36848
1.508,0.59241
1.512,0.83967
1.516,0.94933
1.52,0.95848
1.524,0.93499
1.528,0.73653
1.532,0.4817
1.536,0.24408
1.54,0.13522
1.544,-0.04803
1.548,-0.16525
1.552,-0.17051
1.556,-0.2087
1.56,-0.11835
1.564,-0.11793
1.568,-0.00588
1.572,-0.122
1.576,-0.01898
1.58,0.01946
1.584,0.00073
1.588,-0.04327
1.592,-0.08685
1.596,-0.01949
1.6,0.00948
1.604,-0.06817
1.608,0.04399
1.612,-0.02098
1.616,-0.02043
1.62,-0.00463
1.624,-0.00723
1.628,-0.00515
1.632,0.00116
1.636,-0.05688
1.64,-0.08526
1.644,0.03856
1.648,-0.05411
1.652,-0.03985
1.656,-0.06664
1.66,-0.00892
1.664,0.017
1.668,-0.03965
1.672,-0.06296
1.676,0.02043
1.68,-0.04056
1.684,-0.05679
1.688,-0.00368
1.692,0.00314
1.696,0.02524
1.7,0.06405
1.704,0.00711
1.708,-0.00349
1.712,-0.04084
1.716,0.04246
1.72,0.03765
1.724,0.01336
1.728,0.11244
1.732,0.03411
1.736,0.01603
1.74,5e-05
1.744,0.06982
1.748,0.08985
1.752,0.08468
1.756,0.11917
1.76,0.0923
1.764,0.18229
1.768,0.11439
1.772,0.14345
1.776,0.12269
1.78,0.13829
1.784,0.16033
1.788,0.24668
1.792,0.21151
1.796,0.21188
1.8,0.16987
1.804,0.20494
1.808,0.19811
1.812,0.23128
1.816,0.16013
1.82,0.15708
1.824,0.20805
1.828,0.12392
1.832,0.13967
1.836,0.13703
1.84,0.11601
1.844,0.06103
1.848,0.15447
1.852,0.05146
1.856,0.06492
1.86,0.07029
1.864,0.03592
1.868,0.06298
1.872,0.03161
1.876,0.04378
1.88,-0.0273
1.884,0.02531
1.888,0.01139
1.892,-0.00062
1.896,-0.05174
1.9,-0.00494
1.904,-0.04481
1.908,-0.02451
1.912,0.04659
1.916,-0.0223
1.92,0.02006
1.924,-0.03911
1.928,-0.0153
1.932,0.05112
1.936,-0.02632
1.94,-0.05027
1.944,-0.0237
1.948,-0.01189
1.952,0.05289
1.956,-0.03052
1.96,0.01283
1.964,0.00391
1.968,0.04781
1.972,0.02407
1.976,0.01377
1.98,0.10951
1.984,0.05921
1.988,0.07488
1.992,0.0985
1.996,0.06154
2.0,0.01382
2.004,0.0983
2.008,0.0864
2.012,0.01128
2.016,0.05942
2.02,-0.01968
2.024,-0.02045
2.028,-0.03942
2.032,0.00739
2.036,-0.00288
2.04,0.02266
2.044,-0.00948
2.048,-0.02402
2.052,0.01907
2.056,0.06928
2.06,-0.01911
2.064,-0.07806
2.068,-0.02071
2.072,0.03198
2.076,-0.05793
2.08,-0.05934
2.084,-0.00634
2.088,-0.0939
2.092,-0.04485
2.096,-0.05807
2.1,-0.04036
2.104,-0.09032
2.108,-0.07641
2.112,-0.13423
2.116,-0.09822
2.12,-0.00116
2.124,0.08797
2.128,0.22523
2.132,0.47372
2.136,0.6642
2.14,0.86306
2.144,0.91627
2.148,0.96791
2.152,0.85362
2.156,0.66436
2.16,0.39625
2.164,0.21448
2.168,0.00937
2.172,-0.09155
2.176,-0.16779
2.18,-0.20964
2.184,-0.18421
2.188,-0.1063
2.192,-0.05719
2.196,-0.06431
2.2,-0.05199
2.204,-0.06434
2.208,-0.00082
2.212,-0.05978
2.216,-0.00872
2.22,0.02285
2.224,-0.05712
2.228,-0.02684
2.232,-0.07541
2.236,-0.07776
2.24,-0.06738
2.244,-0.02903
2.248,-0.00284
2.252,-0.02872
2.256,-0.01025
2.26,0.009
2.264,0.03427
2.268,-0.01743
2.272,0.03029
2.276,-0.05604
2.28,-0.02444
2.284,-0.02864
2.288,-0.02247
2.292,-0.06394
2.296,-0.00783
2.3,0.01087
2.304,0.01107
2.308,0.00067
2.312,0.00182
2.316,-0.00895
2.32,0.03278
2.324,-0.03088
2.328,0.02358
2.332,0.03138
2.336,-0.04309
2.34,-0.00224
2.344,0.01799
2.348,0.02762
2.352,-0.00133
2.356,-0.01292
2.36,0.0398
2.364,0.10904
2.368,0.02699
2.372,0.03455
2.376,0.11321
2.38,0.07703
2.384,0.12842
2.388,0.11608
2.392,0.19376
2.396,0.14451
2.4,0.17887
2.404,0.13851
2.408,0.16667
2.412,0.17519
2.416,0.21479
2.42,0.20214
2.424,0.16276
2.428,0.16909
2.432,0.20087
2.436,0.17006
2.44,0.21163
2.444,0.07359
2.448,0.12796
2.452,0.1252
2.456,0.11329
2.46,0.17245
2.464,0.13633
2.468,0.07753
2.472,0.08895
2.476,0.03627
2.48,0.14208
2.484,0.07291
2.488,0.10052
2.492,0.07669
2.496,0.04058
2.5,0.03975
2.504,0.13989
2.508,0.10356
2.512,0.0705
2.516,0.01356
2.52,-0.00373
2.524,0.05806
2.528,0.08912
2.532,0.13061
2.536,0.07846
2.54,0.0791
2.544,0.0766
2.548,0.06415
2.552,-0.00497
2.556,-0.03196
2.56,-0.03116
2.564,0.00551
2.568,-0.03375
2.572,-0.06401
2.576,-0.00263
2.58,-0.06033
2.584,0.04297
2.588,-0.01469
2.592,-0.01645
2.596,-0.01638
2.6,-0.02355
2.604,0.0086
2.608,-0.01832
2.612,0.02415
2.616,-0.04036
2.62,-0.02595
2.624,-0.02511
2.628,-0.03869
2.632,0.01293
2.636,-0.03097
2.64,-0.10044
2.644,-0.07541
2.648,-0.1739
2.652,-0.19016
2.656,-0.17056
2.66,-0.03434
2.664,0.02137
2.668,0.15128
2.672,0.34681
2.676,0.51569
2.68,0.54877
2.684,0.57289
2.688,0.59097
2.692,0.52977
2.696,0.3076
2.7,0.16737
2.704,0.08351
2.708,-0.14857
2.712,-0.16837
2.716,-0.24928
2.72,-0.11851
2.724,-0.09669
2.728,-0.14474
2.732,-0.09293
2.736,-0.01959
2.74,-0.07472
2.744,-0.06511
2.748,-0.1083
2.752,-0.00625
2.756,-0.08965
2.76,-0.01316
2.764,-0.09647
2.768,-0.04347
2.772,-0.04515
2.776,-0.10832
2.78,-0.0061
2.784,-0.02827
2.788,-0.01669
2.792,-0.03284
2.796,-0.04205
2.8,0.01481
2.804,-0.04955
2.808,-0.03078
2.812,0.00682
2.816,0.03164
2.82,-0.02396
2.824,0.0009
2.828,0.03434
2.832,-0.01157
2.836,-0.07748
2.84,0.0071
2.844,0.00823
2.848,-0.07067
2.852,-0.02529
2.856,0.02563
2.86,0.00114
2.864,0.00912
2.868,-0.04291
2.872,-0.01834
2.876,0.02161
2.88,-0.01219
2.884,0.01857
2.888,0.02286
2.892,-0.05864
2.896,0.09972
2.9,0.06138
2.904,0.06473
2.908,0.04493
2.912,0.03143
2.916,0.11348
2.92,0.14482
2.924,0.11977
2.928,0.10323
2.932,0.12367
2.936,0.11139
2.94,0.15839
2.944,0.14884
2.948,0.20476
2.952,0.16925
2.956,0.16404
2.96,0.23637
2.964,0.1795
2.968,0.18929
2.972,0.16696
2.976,0.1386
2.98,0.23305
2.984,0.21398
2.988,0.1875
2.992,0.11351
2.996,0.11368
3.0,0.1224
3.004,0.14741
3.008,0.19166
3.012,0.10145
3.016,0.13283
3.02,0.17549
3.024,0.15926
3.028,0.06807
3.032,0.10676
3.036,0.11072
3.04,0.04016
3.044,0.14927
3.048,0.13728
3.052,0.05307
3.056,0.08687
3.06,0.06057
3.064,0.04715
3.068,0.04601
3.072,0.03471
3.076,0.0672
3.08,0.03239
3.084,0.00769
3.088,-0.02316
3.092,-0.07167
3.096,-0.02007
3.1,0.00266
3.104,-0.0105
3.108,-0.02562
3.112,-0.04341
3.116,-0.01124
3.12,-0.01986
3.124,-0.02843
3.128,-0.0308
3.132,-0.0281
3.136,-0.0501
3.14,-0.00386
3.144,-0.03915
3.148,-0.05691
3.152,-0.05222
3.156,-0.00216
3.16,-0.06019
3.164,-0.1082
3.168,-0.06538
3.172,-0.13893
3.176,-0.11467
3.18,0.03045
3.184,0.1771
3.188,0.41883
3.192,0.62328
3.196,0.82694
3.2,0.93332
3.204,1.00115
3.208,0.93028
3.212,0.68606
3.216,0.45664
3.22,0.30965
3.224,0.09497
3.228,-0.11151
3.232,-0.20255
3.236,-0.23835
3.24,-0.19844
3.244,-0.13036
3.248,-0.00017
3.252,-0.09616
3.256,-0.07427
3.26,0.02963
3.264,-0.0372
3.268,-0.03758
3.272,-0.06316
3.276,-0.06224
3.28,-0.07411
3.284,0.06983
3.288,0.02521
3.292,-0.05161
3.296,-0.00877
3.3,0.02041
3.304,-0.00315
3.308,-0.069
3.312,-0.03675
3.316,-0.06092
3.32,-0.06704
3.324,0.00116
3.328,-0.09829
3.332,-0.0136
3.336,-0.01614
3.34,-0.01754
3.344,-0.00391
3.348,0.00221
3.352,0.02272
3.356,0.04153
3.36,0.01579
3.364,-0.08402
3.368,0.00281
3.372,-0.00892
3.376,-0.06281
3.38,-0.04181
3.384,0.02121
3.388,0.00747
3.392,0.045
3.396,0.01282
3.4,0.05283
3.404,-0.0405
3.408,0.01787
3.412,0.00379
3.416,0.05137
3.42,0.07667
3.424,0.08487
3.428,0.09405
3.432,0.11548
3.436,0.12481
3.44,0.06046
3.444,0.15063
3.448,0.16152
3.452,0.17051
3.456,0.18048
3.46,0.16142
3.464,0.19924
3.468,0.22702
3.472,0.21475
3.476,0.1817
3.48,0.19302
3.484,0.23721
3.488,0.21343
3.492,0.1707
3.496,0.22
3.5,0.15241
3.504,0.15516
3.508,0.18154
3.512,0.19962
3.516,0.13117
3.52,0.14616
3.524,0.15489
3.528,0.1141
3.532,0.16358
3.536,0.09466
3.54,0.041
3.544,0.08879
3.548,0.13013
3.552,0.04483
3.556,0.06724
3.56,-0.07819
3.564,0.00517
3.568,0.04991
3.572,0.05314
3.576,0.00585
3.58,0.03231
3.584,0.01363
3.588,-0.03146
3.592,0.00319
3.596,-0.00481
3.6,-0.01237
3.604,-0.05742
3.608,0.04829
3.612,0.05936
3.616,-0.01665
3.62,0.00308
3.624,-0.03205
3.628,-0.03831
3.632,-0.01471
3.636,0.03626
3.64,-0.00661
3.644,-0.04272
3.648,-0.07245
3.652,1e-05
3.656,-0.06107
3.66,-0.03363
3.664,-0.02843
3.668,-0.03071
3.672,0.04726
3.676,-0.01989
3.68,0.00429
3.684,0.04582
3.688,0.0263
3.692,-0.0093
3.696,0.00222
3.7,-0.03674
3.704,0.01187
3.708,0.00211
3.712,0.04568
3.716,0.08933
3.72,0.14745
3.724,0.10883
3.728,0.08214
3.732,0.06695
3.736,0.11322
3.74,0.03084
3.744,0.05722
3.748,0.08278
3.752,0.01329
3.756,-0.03147
3.76,0.03785
3.764,0.01218
3.768,0.04141
3.772,0.04178
3.776,0.02174
3.78,0.03051
3.784,0.01558
3.788,-0.01301
3.792,0.06155
3.796,0.00833
3.8,-0.00913
3.804,0.00754
3.808,-0.07824
3.812,0.04947
3.816,-0.01025
3.82,0.05993
3.824,-0.03213
3.828,-0.01295
3.832,0.00962
3.836,-0.04509
3.84,-0.0099
3.844,0.03583
3.848,-0.07502
3.852,-0.1026
3.856,-0.14178
3.86,-0.13341
3.864,-0.08581
3.868,0.06909
3.872,0.23874
3.876,0.40621
3.88,0.71783
3.884,0.87782
3.888,0.9446
3.892,0.91661
3.896,0.84935
3.9,0.73263
3.904,0.47647
3.908,0.18314
3.912,0.0381
3.916,-0.04823
3.92,-0.16901
3.924,-0.10708
3.928,-0.1621
3.932,-0.1578
3.936,-0.06553
3.94,0.04382
3.944,-0.05903
3.948,-0.0421
3.952,-0.00991
3.956,-0.028
3.96,-0.07111
3.964,0.00994
3.968,-0.02223
3.972,0.046
3.976,-0.07383
3.98,0.05915
3.984,-0.03244
3.988,-0.03427
3.992,-0.03621
3.996,-0.00652
4.0,-0.01328
4.004,-0.01401
4.008,0.01153
4.012,-0.0121
4.016,0.03498
4.02,-0.01949
4.024,-0.05909
4.028,0.01506
4.032,0.03664
4.036,0.02228
4.04,0.03022
4.044,0.0111
4.048,0.03156
4.052,-0.00486
4.056,-0.02053
4.06,-0.00163
4.064,-0.02856
4.068,0.05069
4.072,0.00444
4.076,0.00718
4.08,0.02523
4.084,0.09054
4.088,0.05455
4.092,-0.02417
4.096,0.13837
4.1,0.10058
4.104,0.09253
4.108,0.05468
4.112,0.14459
4.116,0.13452
4.12,0.12252
4.124,0.12011
4.128,0.13583
4.132,0.22396
4.136,0.08072
4.14,0.15393
4.144,0.22233
4.148,0.15028
4.152,0.20654
4.156,0.23466
4.16,0.22598
4.164,0.16539
4.168,0.26345
4.172,0.23428
4.176,0.20887
4.18,0.17889
4.184,0.25021
4.188,0.21615
4.192,0.21573
4.196,0.12065
4.2,0.11252
4.204,0.11278
4.208,0.15442
4.212,0.15258
4.216,0.10549
4.22,0.14306
4.224,0.12892
4.228,0.07568
4.232,0.0705
4.236,0.03438
4.24,0.0524
4.244,0.13369
4.248,0.05042
4.252,0.12142
4.256,0.07615
4.26,0.01618
4.264,-0.03087
4.268,0.03263
4.272,0.04393
4.276,0.0321
4.28,0.04684
4.284,-0.00756
4.288,-0.04273
4.292,0.02119
4.296,0.0265
4.3,0.00028
4.304,0.03593
4.308,0.03227
4.312,0.01246
4.316,0.05445
4.32,0.0495
4.324,0.08993
4.328,0.07602
4.332,0.10029
4.336,0.12795
4.34,0.13265
4.344,0.08934
4.348,0.07861
4.352,0.09788
4.356,0.11813
4.36,0.08142
4.364,0.02779
4.368,-0.07277
4.372,0.08519
4.376,0.051
4.38,0.04175
4.384,0.02423
4.388,0.02915
4.392,0.00818
4.396,-0.00311
4.4,-0.00053
4.404,0.00862
4.408,-0.04683
4.412,-0.01713
4.416,0.00885
4.42,0.08206
4.424,0.00268
4.428,0.03064
4.432,0.00639
4.436,0.00449
4.44,-0.02116
4.444,0.01656
4.448,-0.01383
4.452,-0.01497
4.456,-0.05033
4.46,-0.0862
4.464,-0.08471
4.468,-0.11248
4.472,-0.00602
4.476,0.10814
4.48,0.34879
4.484,0.50513
4.488,0.74236
4.492,0.91094
4.496,1.03205
4.5,1.01733
4.504,0.8286
4.508,0.67596
4.512,0.47535
4.516,0.1925
4.52,0.01194
4.524,-0.1546
4.528,-0.14006
4.532,-0.1444
4.536,-0.14632
4.54,-0.13551
4.544,-0.05082
4.548,-0.03132
4.552,0.00211
4.556,0.03071
4.56,-0.01408
4.564,0.03121
4.568,0.01738
4.572,0.0549
4.576,0.04869
4.58,0.07227
4.584,-0.00221
4.588,-0.02637
4.592,0.08808
4.596,-0.02791
4.6,0.04583
4.604,0.04748
4.608,0.03701
4.612,0.06396
4.616,0.05481
4.62,-0.00518
4.624,-0.00646
4.628,0.00912
4.632,0.05525
4.636,0.09747
4.64,0.09092
4.644,0.02944
4.648,-0.0205
4.652,-0.00571
4.656,0.03202
4.66,0.01755
4.664,0.05775
4.668,0.02345
4.672,0.03381
4.676,0.02606
4.68,-0.00198
4.684,0.04278
4.688,0.01876
4.692,0.07265
4.696,0.06034
4.7,0.01906
4.704,0.11283
4.708,0.04636
4.712,0.09063
4.716,0.12592
4.72,0.11733
4.724,0.15378
4.728,0.19881
4.732,0.10376
4.736,0.14896
4.74,0.22304
4.744,0.20694
4.748,0.20492
4.752,0.21073
4.756,0.22258
4.76,0.29172
4.764,0.21436
4.768,0.2375
4.772,0.27522
4.776,0.23798
4.78,0.2799
4.784,0.19752
4.788,0.22969
4.792,0.26374
4.796,0.27546
4.8,0.22641
4.804,0.24895
4.808,0.21737
4.812,0.17278
4.816,0.15016
4.82,0.10503
4.824,0.14704
4.828,0.14909
4.832,0.13346
4.836,0.09775
4.84,0.09807
4.844,0.10382
4.848,0.06724
4.852,0.09274
4.856,0.13381
4.86,0.09034
4.864,0.03021
4.868,0.07527
4.872,0.08607
4.876,0.05657
4.88,0.05817
4.884,-0.00334
4.888,0.05195
4.892,0.02082
4.896,0.07512
4.9,0.0671
4.904,-0.00313
4.908,0.02234
4.912,-0.01751
4.916,0.0653
4.92,0.03592
4.924,-0.00761
4.928,-0.02797
4.932,0.02179
4.936,-0.07114
4.94,0.00676
4.944,-0.02296
4.948,-0.02473
4.952,0.08862
4.956,-0.00279
4.96,0.03669
4.964,0.07917
4.968,0.05611
4.972,0.02883
4.976,0.0427
4.98,0.03374
4.984,0.03475
4.988,0.0735
4.992,0.08262
4.996,0.00168
5.0,0.03764
5.004,-0.01427
5.008,0.05371
5.012,0.0579
5.016,0.03754
5.02,-0.01987
5.024,-0.0101
5.028,0.01632
5.032,0.04299
5.036,0.05165
5.04,0.01375
5.044,0.06859
5.048,0.02755
5.052,0.05181
5.056,0.03585
5.06,0.00275
5.064,0.07296
5.068,-0.01498
5.072,0.03363
5.076,0.04923
5.08,0.03445
5.084,0.02544
5.088,-0.04265
5.092,0.0181
5.096,0.01024
5.1,0.02334
5.104,-0.015
5.108,-0.002
5.112,0.05069
5.116,-0.00339
5.12,0.03313
5.124,0.08398
5.128,0.09052
5.132,0.08832
5.136,0.0848
5.14,0.08394
5.144,0.08706
5.148,0.07157
5.152,0.06739
5.156,0.16319
5.16,0.14127
5.164,0.13589
5.168,0.0921
5.172,0.06095
5.176,0.09691
5.18,0.17493
5.184,0.09788
5.188,0.1043
5.192,0.08348
5.196,0.05584
5.2,0.08626
5.204,0.00541
5.208,0.01449
5.212,0.0894
5.216,0.01674
5.22,0.03794
5.224,0.03541
5.228,0.02836
5.232,-0.00232
5.236,0.05827
5.24,0.0067
5.244,0.08134
5.248,0.10586
5.252,0.11755
5.256,0.03942
5.26,-0.04422
5.264,0.03081
5.268,-0.00945
5.272,0.06567
5.276,0.00168
5.28,0.01369
5.284,-0.02909
5.288,-0.09037
5.292,-0.05494
5.296,-0.01533
5.3,0.13121
5.304,0.22515
5.308,0.48524
5.312,0.73146
5.316,0.89913
5.32,1.03748
5.324,1.00101
5.328,0.92057
5.332,0.74638
5.336,0.45557
5.34,0.32252
5.344,0.06836
5.348,0.01886
5.352,-0.13278
5.356,-0.1338
5.36,-0.05043
5.364,-0.0451
5.368,-0.03774
5.372,-0.07454
5.376,0.01761
5.38,-0.00103
5.384,0.01157
5.388,-0.03681
5.392,0.022
5.396,0.05587
5.4,-0.00313
5.404,0.03169
5.408,-0.0075
5.412,0.00756
5.416,0.04446
5.42,-0.01251
5.424,0.00882
5.428,0.04276
5.432,0.08147
5.436,0.11893
5.44,0.02528
5.444,-0.01364
5.448,0.06876
5.452,-0.01996
5.456,0.00418
5.46,0.00845
5.464,0.05533
5.468,-0.00507
5.472,0.02884
5.476,0.00899
5.48,-0.01839
5.484,0.00359
5.488,0.09549
5.492,0.00884
5.496,0.02343
5.5,0.07714
5.504,0.07233
5.508,0.12477
5.512,0.06497
5.516,0.06817
5.52,0.05051
5.524,0.07713
5.528,0.15193
5.532,0.09495
5.536,0.14535
5.54,0.1421
5.544,0.087
5.548,0.15268
5.552,0.17596
5.556,0.1036
5.56,0.17074
5.564,0.19588
5.568,0.21579
5.572,0.17685
5.576,0.20208
5.58,0.17944
5.584,0.2416
5.588,0.24563
5.592,0.21248
5.596,0.25609
5.6,0.24041
5.604,0.25524
5.608,0.27804
5.612,0.29425
5.616,0.25105
5.62,0.27984
5.624,0.2525
5.628,0.22198
5.632,0.20949
5.636,0.2241
5.64,0.23499
5.644,0.11194
5.648,0.19266
5.652,0.17162
5.656,0.19793
5.66,0.10937
5.664,0.12871
5.668,0.07712
5.672,0.05427
5.676,0.07371
5.68,0.07499
5.684,0.06191
5.688,0.10444
5.692,0.04926
5.696,0.05567
5.7,0.05001
5.704,0.04975
5.708,-0.01757
5.712,0.02907
5.716,0.02189
5.72,0.06977
5.724,0.08683
5.728,0.02071
5.732,0.01698
5.736,0.00012
5.74,0.05002
5.744,-0.00931
5.748,0.02383
5.752,0.01195
5.756,0.02689
5.76,0.02289
5.764,0.02054
5.768,0.0798
5.772,-0.00763
5.776,0.03928
5.78,0.07485
5.784,0.06113
5.788,-0.03331
5.792,0.06348
5.796,-0.0165
5.8,0.10295
5.804,0.02152
5.808,0.05298
5.812,0.08548
5.816,0.03373
5.82,0.00074
5.824,0.05282
5.828,0.14655
5.832,0.1107
5.836,0.10666
5.84,0.13279
5.844,0.04124
5.848,0.18237
5.852,0.11336
5.856,0.09668
5.86,0.07905
5.864,0.08901
5.868,0.0558
5.872,0.05414
5.876,0.05538
5.88,0.03365
5.884,-0.01083
5.888,0.06572
5.892,0.03853
5.896,0.06219
5.9,0.00982
5.904,0.05361
5.908,0.03728
5.912,-0.01586
5.916,-0.00453
5.92,0.03957
5.924,0.02747
5.928,0.04202
5.932,0.09044
5.936,0.07755
5.94,0.06131
5.944,0.03124
5.948,0.00797
5.952,-0.014
5.956,-0.04177
5.96,-0.03676
5.964,0.0068
5.968,-0.03069
5.972,-0.05407
5.976,-0.04927
5.98,0.02495
5.984,0.0158
5.988,0.25037
5.992,0.45989
5.996,0.66574
6.0,0.85953
6.004,0.9189
6.008,1.04611
6.012,0.93797
6.016,0.75255
6.02,0.55275
6.024,0.35588
6.028,0.15138
6.032,-0.045
6.036,-0.09181
6.04,-0.12385
6.044,-0.10852
6.048,-0.0786
6.052,-0.02747
6.056,0.00706
6.06,0.02876
6.064,-0.0301
6.068,0.0133
6.072,0.05696
6.076,0.03066
6.08,0.03008
6.084,-0.00579
6.088,-0.02397
6.092,0.0184
6.096,-0.00405
6.1,0.03919
6.104,0.08584
6.108,0.03035
6.112,0.08741
6.116,0.02273
6.12,0.0352
6.124,-0.00905
6.128,0.0404
6.132,0.01558
6.136,0.00348
6.14,0.08629
6.144,0.00462
6.148,0.0326
6.152,0.05069
6.156,0.09824
6.16,0.00403
6.164,0.02213
6.168,-0.02375
6.172,0.09032
6.176,0.02427
6.18,0.03778
6.184,0.07214
6.188,0.05202
6.192,0.06051
6.196,0.04461
6.2,0.05958
6.204,0.06903
6.208,0.10436
6.212,0.03384
6.216,0.15145
6.22,0.1108
6.224,0.06736
6.228,0.15553
6.232,0.0853
6.236,0.13161
6.24,0.13705
6.244,0.19155
6.248,0.11615
6.252,0.17809
6.256,0.19799
6.26,0.23325
6.264,0.17088
6.268,0.20634
6.272,0.23077
6.276,0.30351
6.28,0.21942
6.284,0.23216
6.288,0.21484
6.292,0.31119
6.296,0.24358
6.3,0.22535
6.304,0.22986
6.308,0.2289
6.312,0.21374
6.316,0.19982
6.32,0.1825
6.324,0.17679
6.328,0.14946
6.332,0.20812
6.336,0.18241
6.34,0.12729
6.344,0.10842
6.348,0.0649
6.352,0.16842
6.356,0.08287
6.36,0.09772
6.364,0.09265
6.368,0.04274
6.372,0.07165
6.376,0.0447
6.38,0.05884
6.384,0.00417
6.388,0.06122
6.392,0.07926
6.396,0.08959
6.4,0.05935
6.404,0.09588
6.408,0.06392
6.412,0.09698
6.416,0.12024
6.42,0.12348
6.424,0.17002
6.428,0.13357
6.432,0.11323
6.436,0.18748
6.44,0.13736
6.444,0.13171
6.448,0.11219
6.452,0.08265
6.456,0.11658
6.46,0.09727
6.464,-0.00405
6.468,0.13201
6.472,0.06413
6.476,0.02149
6.48,0.00265
6.484,0.01083
6.488,0.04931
6.492,-0.00191
6.496,0.04121
6.5,0.0475
6.504,0.10006
6.508,0.01433
6.512,0.11273
6.516,0.02924
6.52,0.03671
6.524,0.05556
6.528,0.01297
6.532,-0.03165
6.536,0.03382
6.54,0.084
6.544,-0.02199
6.548,-0.01538
6.552,0.0249
6.556,0.01184
6.56,-0.08975
6.564,-0.03615
6.568,-0.11867
6.572,0.02177
6.576,0.10995
6.58,0.34115
6.584,0.60647
6.588,0.80844
6.592,0.9913
6.596,0.96949
6.6,1.04544
6.604,0.8684
6.608,0.71053
6.612,0.44224
6.616,0.26725
6.62,0.04531
6.624,-0.11296
6.628,-0.17829
6.632,-0.12687
6.636,-0.10479
6.64,-0.1263
6.644,-0.01608
6.648,0.01665
6.652,-0.00056
6.656,-0.01249
6.66,0.06354
6.664,-0.00483
6.668,0.04198
6.672,0.10629
6.676,0.01904
6.68,0.03195
6.684,-0.07372
6.688,0.02846
6.692,0.04941
6.696,0.00621
6.7,0.03705
6.704,0.05959
6.708,-0.02598
6.712,0.04055
6.716,0.01144
6.72,0.02484
6.724,0.01396
6.728,0.0245
6.732,0.01596
6.736,0.03052
6.74,-0.00115
6.744,0.03671
6.748,-0.04252
6.752,0.05623
6.756,0.05329
6.76,-0.00559
6.764,0.03394
6.768,0.03718
6.772,0.03566
6.776,0.00448
6.78,0.0029
6.784,0.05159
6.788,0.01488
6.792,0.09816
6.796,0.11638
6.8,0.11244
6.804,0.06308
6.808,0.11867
6.812,0.06576
6.816,0.06134
6.82,0.09622
6.824,0.14174
6.828,0.15618
6.832,0.08208
6.836,0.18506
6.84,0.13226
6.844,0.24162
6.848,0.20175
6.852,0.2147
6.856,0.20459
6.86,0.19878
6.864,0.2236
6.868,0.21167
6.872,0.19971
6.876,0.265
6.88,0.21995
6.884,0.19747
6.888,0.26439
6.892,0.25502
6.896,0.23142
6.9,0.25157
6.904,0.3094
6.908,0.19908
6.912,0.09199
6.916,0.18587
6.92,0.18197
6.924,0.18999
6.928,0.11396
6.932,0.10881
6.936,0.07557
6.94,0.1204
6.944,0.08377
6.948,0.03654
6.952,0.01446
6.956,0.06381
6.96,0.03998
6.964,-0.01891
6.968,0.03978
6.972,0.03776
6.976,0.00904
6.98,0.08778
6.984,0.017
6.988,0.04536
6.992,0.00685
6.996,0.00662
7.0,0.06303
7.004,0.06884
7.008,-0.0518
7.012,-0.01629
7.016,0.03145
7.02,0.01119
7.024,0.03203
7.028,0.03382
7.032,-0.04417
7.036,0.05433
7.04,0.03264
7.044,0.07284
7.048,0.09277
7.052,0.03762
7.056,0.01987
7.06,0.07223
7.064,0.03302
7.068,0.06694
7.072,0.09796
7.076,0.07558
7.08,0.12035
7.084,0.06127
7.088,0.16745
7.092,0.07282
7.096,0.077
7.1,0.1215
7.104,0.08169
7.108,0.04497
7.112,0.08192
7.116,0.04339
7.12,0.01317
7.124,0.02606
7.128,0.00046
7.132,-0.03154
7.136,-0.05414
7.14,0.04686
7.144,0.00714
7.148,-0.0186
7.152,-0.01165
7.156,-0.05889
7.16,0.07702
7.164,0.01055
7.168,0.01774
7.172,0.01777
7.176,-0.0046
7.18,-0.03192
7.184,0.03571
7.188,-0.03626
7.192,0.03166
7.196,-0.02471
7.2,-0.02046
7.204,-0.08456
7.208,-0.08209
7.212,-0.04811
7.216,0.04638
7.22,0.17952
7.224,0.44492
7.228,0.65483
7.232,0.80768
7.236,0.90812
7.24,1.00019
7.244,0.87603
7.248,0.7634
7.252,0.54049
7.256,0.30882
7.26,0.1059
7.264,-0.02014
7.268,-0.10949
7.272,-0.20698
7.276,-0.12927
7.28,-0.09116
7.284,-0.08956
7.288,-0.04374
7.292,0.02359
7.296,-0.01886
7.3,-0.05321
7.304,-0.01113
7.308,0.0457
7.312,0.00829
7.316,0.0043
7.32,-0.00147
7.324,-4e-05
7.328,-0.0182
7.332,-0.05833
7.336,-0.04588
7.34,0.05991
7.344,-0.01714
7.348,0.04179
7.352,-0.00325
7.356,0.03597
7.36,0.00102
7.364,0.03407
7.368,-0.04142
7.372,-0.0855
7.376,-0.01464
7.38,0.00142
7.384,-0.03375
7.388,0.04905
7.392,0.01425
7.396,-0.01112
7.4,0.00446
7.404,-0.01516
7.408,0.00953
7.412,0.03349
7.416,0.06179
7.42,-0.01918
7.424,0.11361
7.428,0.00653
7.432,0.05263
7.436,0.07041
7.44,0.05982
7.444,0.01528
7.448,0.02676
7.452,0.08749
7.456,0.05217
7.46,0.03212
7.464,0.05368
7.468,0.10112
7.472,0.10018
7.476,0.17401
7.48,0.13481
7.484,0.11223
7.488,0.15377
7.492,0.18676
7.496,0.11381
7.5,0.18877
7.504,0.2751
7.508,0.16778
7.512,0.20335
7.516,0.17049
7.52,0.20999
7.524,0.18062
7.528,0.23048
7.532,0.20671
7.536,0.17289
7.54,0.19811
7.544,0.24141
7.548,0.12328
7.552,0.16487
7.556,0.17664
7.56,0.10835
7.564,0.11149
7.568,0.10039
7.572,0.09441
7.576,0.05093
7.58,0.06895
7.584,0.06112
7.588,0.06354
7.592,0.0078
7.596,0.05692
7.6,-0.00458
7.604,0.07068
7.608,0.04226
7.612,0.00191
7.616,0.00832
7.62,-0.01026
7.624,0.03142
7.628,-0.06738
7.632,0.03957
7.636,0.06814
7.64,0.04696
7.644,-0.04292
7.648,-0.05642
7.652,0.04038
7.656,0.05699
7.66,0.02506
7.664,-0.01327
7.668,0.05191
7.672,-0.02507
7.676,-0.04748
7.68,0.05099
7.684,0.01073
7.688,0.02926
7.692,-0.01832
7.696,-0.00864
7.7,-0.05054
7.704,0.01124
7.708,-0.05965
7.712,-0.00404
7.716,0.00453
7.72,0.00926
7.724,-0.01181
7.728,-0.02531
7.732,0.02301
7.736,0.03142
7.74,-0.03252
7.744,-0.01115
7.748,-0.01933
7.752,-0.05338
7.756,-0.04684
7.76,0.0027
7.764,0.01862
7.768,-0.08708
7.772,0.002
7.776,-0.00954
7.78,-0.01444
7.784,0.05401
7.788,0.00661
7.792,0.01771
7.796,-0.02252
7.8,-0.00111
7.804,0.03771
7.808,-0.0249
7.812,0.02195
7.816,-0.01251
7.82,0.01183
7.824,0.02519
7.828,-0.06072
7.832,0.03089
7.836,-0.06715
7.84,-0.02024
7.844,0.01579
7.848,-0.00321
7.852,-0.05396
7.856,0.00093
7.86,0.00048
7.864,0.01484
7.868,0.0486
7.872,0.08639
7.876,0.08582
7.88,0.00205
7.884,0.14121
7.888,0.03616
7.892,0.09704
7.896,0.03525
7.9,0.09851
7.904,0.09501
7.908,0.02449
7.912,0.06148
7.916,0.04676
7.92,0.08963
7.924,-0.01557
7.928,0.00677
7.932,-0.02454
7.936,0.03294
7.94,0.01525
7.944,-0.00546
7.948,0.00678
7.952,0.03989
7.956,-0.08355
7.96,-0.00542
7.964,0.00172
7.968,0.02061
7.972,0.03769
7.976,-0.00674
7.98,-0.00062
7.984,-0.07696
7.988,0.04946
7.992,-0.0487
7.996,-0.02309
8.0,-0.01685
8.004,-0.00111
8.008,-0.04469
8.012,-0.02082
8.016,-0.10108
8.02,-0.08598
8.024,-0.12987
8.028,-0.14506
8.032,-0.05714
8.036,0.17761
8.04,0.36389
8.044,0.53794
8.048,0.72829
8.052,0.89737
8.056,1.00609
8.06,0.90706
8.064,0.81795
8.068,0.53174
8.072,0.3723
8.076,0.10888
8.08,-0.0184
8.084,-0.15338
8.088,-0.18336
8.092,-0.19771
8.096,-0.12202
8.1,-0.11686
8.104,-0.08243
8.108,-0.05854
8.112,-0.01932
8.116,-0.06595
8.12,-0.07604
8.124,-0.05069
8.128,0.0016
8.132,-0.03242
8.136,0.00562
8.14,-0.02127
8.144,-0.00897
8.148,-0.002
8.152,-0.03302
8.156,0.00148
8.16,0.00034
8.164,0.00303
8.168,-0.00313
8.172,-0.01838
8.176,0.01263
8.18,-0.06683
8.184,0.00648
8.188,-0.03784
8.192,-0.0106
8.196,-0.01174
8.2,-0.08638
8.204,-0.03396
8.208,0.02408
8.212,-0.04334
8.216,0.02705
8.22,-0.03182
8.224,-0.05342
8.228,0.08112
8.232,-0.07401
8.236,-0.0284
8.24,-0.04195
8.244,0.03402
8.248,-0.00134
8.252,0.01207
8.256,0.06745
8.26,-0.00889
8.264,0.05276
8.268,0.05792
8.272,0.06436
8.276,0.05113
8.28,0.06076
8.284,0.06901
8.288,0.11689
8.292,0.05135
8.296,0.13129
8.3,0.13216
8.304,0.20257
8.308,0.13658
8.312,0.20233
8.316,0.21204
8.32,0.18934
8.324,0.23888
8.328,0.21497
8.332,0.18744
8.336,0.17881
8.34,0.25401
8.344,0.28397
8.348,0.20662
8.352,0.22036
8.356,0.16724
8.36,0.17923
8.364,0.13283
8.368,0.20613
8.372,0.20553
8.376,0.13509
8.38,0.03804
8.384,0.0724
8.388,0.12534
8.392,0.06401
8.396,0.07034
8.4,0.04871
8.404,0.0752
8.408,0.08839
8.412,0.02905
8.416,0.01732
8.42,0.05693
8.424,-0.03768
8.428,0.03984
8.432,-0.01093
8.436,-0.00425
8.44,-0.0578
8.444,0.04412
8.448,0.04228
8.452,-0.0918
8.456,-0.04016
8.46,0.00244
8.464,-0.02829
8.468,0.02738
8.472,-0.00942
8.476,-0.00038
8.48,-0.04796
8.484,-0.00303
8.488,-0.01094
8.492,-0.03779
8.496,-0.02843
8.5,-0.06579
8.504,-0.01806
8.508,-0.09657
8.512,0.00255
8.516,-0.0684
8.52,0.04705
8.524,-0.03152
8.528,-0.0252
8.532,0.00941
8.536,-0.07077
8.54,0.04662
8.544,0.04895
8.548,-0.02572
8.552,-0.0513
8.556,-0.00238
8.56,-0.00414
8.564,-0.02818
8.568,-0.06695
8.572,-0.02329
8.576,-0.07909
8.58,-0.06982
8.584,0.00405
8.588,0.00249
8.592,-0.00536
8.596,-0.02174
8.6,-0.05021
8.604,-0.01843
8.608,-0.03178
8.612,-0.00266
8.616,-0.03106
8.62,0.07103
8.624,-0.00565
8.628,0.02693
8.632,0.03128
8.636,0.05352
8.64,0.11038
8.644,0.01588
8.648,0.0744
8.652,0.03737
8.656,0.05541
8.66,-0.01195
8.664,-0.00956
8.668,0.0456
8.672,0.01292
8.676,-0.01567
8.68,-0.00258
8.684,-0.01348
8.688,-0.04588
8.692,-0.07291
8.696,0.03483
8.7,0.00125
8.704,-0.02837
8.708,-0.04684
8.712,-0.11836
8.716,-0.0649
8.72,-0.00485
8.724,-0.02234
8.728,-0.06156
8.732,-0.00683
8.736,0.00549
8.74,0.02307
8.744,-0.03913
8.748,0.01163
8.752,-0.02238
8.756,-0.02238
8.76,-0.03701
8.764,-0.02614
8.768,-0.07742
8.772,-0.1119
8.776,-0.16132
8.78,-0.07802
8.784,-0.0044
8.788,0.16672
8.792,0.41694
8.796,0.5561
8.8,0.73795
8.804,0.88188
8.808,0.99513
8.812,0.87443
8.816,0.7732
8.82,0.57575
8.824,0.29156
8.828,0.11697
8.832,-0.01635
8.836,-0.17018
8.84,-0.19335
8.844,-0.18306
8.848,-0.15792
8.852,-0.04711
8.856,-0.07956
8.86,-0.04614
8.864,-0.07324
8.868,-0.08136
8.872,-0.00755
8.876,-0.0396
8.88,0.00291
8.884,-0.07713
8.888,-0.02163
8.892,-0.0462
8.896,-0.05171
8.9,-0.037
8.904,-0.00281
8.908,-0.03947
8.912,-0.0194
8.916,0.03178
8.92,0.02848
8.924,-0.0734
8.928,-0.02604
8.932,-0.03926
8.936,0.01615
8.94,-0.04397
8.944,-0.0066
8.948,0.0044
8.952,-0.00716
8.956,-0.01215
8.96,-0.01886
8.964,-0.06096
8.968,-0.03316
8.972,-0.04871
8.976,-0.02491
8.98,-0.01572
8.984,0.03202
8.988,0.0275
8.992,0.00991
8.996,0.02876
9.0,0.00462
9.004,0.0739
9.008,0.0043
9.012,-0.02455
9.016,0.02152
9.02,0.0392
9.024,0.116
9.028,0.10301
9.032,0.07117
9.036,0.08858
9.04,0.20934
9.044,0.1329
9.048,0.18762
9.052,0.21278
9.056,0.26033
9.06,0.3
9.064,0.23234
9.068,0.29002
9.072,0.18601
9.076,0.22523
9.08,0.29163
9.084,0.21277
9.088,0.21403
9.092,0.25314
9.096,0.17601
9.1,0.25994
9.104,0.13711
9.108,0.15217
9.112,0.17151
9.116,0.22741
9.12,0.0817
9.124,0.16768
9.128,0.11889
9.132,0.11
9.136,0.07176
9.14,0.08268
9.144,0.08786
9.148,0.11383
9.152,0.01359
9.156,0.05835
9.16,0.04622
9.164,-0.03192
9.168,0.01712
9.172,0.03995
9.176,-0.04886
9.18,-0.04589
9.184,-0.16793
9.188,-0.15272
9.192,-0.06483
9.196,-0.02583
9.2,0.18686
9.204,0.39736
9.208,0.57617
9.212,0.72989
9.216,0.87241
9.22,0.90192
9.224,0.94307
9.228,0.74158
9.232,0.58124
9.236,0.31235
9.24,0.07417
9.244,-0.04808
9.248,-0.15151
9.252,-0.17187
9.256,-0.11184
9.26,-0.14097
9.264,-0.14491
9.268,-0.06059
9.272,-0.07236
9.276,-0.10955
9.28,-0.00591
9.284,0.00997
9.288,0.01709
9.292,-0.05754
9.296,-0.10007
9.3,-0.04487
9.304,-0.04945
9.308,-0.02661
9.312,-0.02236
9.316,-0.01938
9.32,-0.00348
9.324,-0.02549
9.328,-0.08569
9.332,0.02576
9.336,-0.05102
9.34,-0.02913
9.344,0.00261
9.348,-0.06307
9.352,-0.00866
9.356,-0.0167
9.36,-0.00885
9.364,-0.01005
9.368,-0.06249
9.372,-0.06301
9.376,-0.03383
9.38,-0.02313
9.384,0.00562
9.388,-0.02124
9.392,0.03976
9.396,0.03442
9.4,-0.04466
9.404,0.01365
9.408,-0.0335
9.412,0.03171
9.416,0.02377
9.42,0.03815
9.424,0.03466
9.428,0.02734
9.432,0.11623
9.436,0.13207
9.44,0.04242
9.444,0.13517
9.448,0.05758
9.452,0.06434
9.456,0.09547
9.46,0.08788
9.464,0.09947
9.468,0.13462
9.472,0.17832
9.476,0.14809
9.48,0.13584
9.484,0.14588
9.488,0.19519
9.492,0.18812
9.496,0.20514
9.5,0.2212
9.504,0.16064
9.508,0.13877
9.512,0.21262
9.516,0.1598
9.52,0.16788
9.524,0.07904
9.528,0.13297
9.532,0.12666
9.536,0.06789
9.54,0.09749
9.544,0.15824
9.548,0.12742
9.552,0.06363
9.556,0.04219
9.56,0.05063
9.564,0.04409
9.568,0.0177
9.572,0.01727
9.576,0.06195
9.58,0.05054
9.584,-0.02301
9.588,-0.03652
9.592,0.01136
9.596,-0.0006
9.6,-0.00177
9.604,-0.00815
9.608,0.04749
9.612,-0.00259
9.616,0.04972
9.62,0.01982
9.624,0.00259
9.628,0.05614
9.632,0.0541
9.636,0.11794
9.64,0.06403
9.644,0.09975
9.648,0.11412
9.652,0.01604
9.656,0.02048
9.66,-0.00564
9.664,-0.03453
9.668,0.00837
9.672,0.00418
9.676,0.03051
9.68,0.0209
9.684,-0.05188
9.688,0.01842
9.692,-0.00088
9.696,-0.0509
9.7,-0.05413
9.704,0.01316
9.708,-0.12629
9.712,-0.02277
9.716,-0.03299
9.72,-0.06686
9.724,-0.07619
9.728,-0.02492
9.732,0.00971
9.736,-0.01349
9.74,0.0253
9.744,-0.03751
9.748,-0.03293
9.752,0.05343
9.756,-0.02372
9.76,-0.07086
9.764,-0.08732
9.768,-0.1377
9.772,-0.06196
9.776,-0.01757
9.78,0.12587
9.784,0.40107
9.788,0.54302
9.792,0.74156
9.796,0.91121
9.8,0.96152
9.804,0.95695
9.808,0.76684
9.812,0.55571
9.816,0.28356
9.82,0.08399
9.824,-0.05208
9.828,-0.17034
9.832,-0.17542
9.836,-0.17687
9.84,-0.12913
9.844,-0.10763
9.848,-0.13543
9.852,-0.07461
9.856,-0.05655
9.86,0.03921
9.864,0.03125
9.868,-0.02273
9.872,0.01895
9.876,-0.06039
9.88,-0.06531
9.884,0.05043
9.888,0.03273
9.892,-0.03448
9.896,0.00743
9.9,-0.10405
9.904,-0.06516
9.908,-0.04012
9.912,0.0048
9.916,-0.05182
9.92,-0.02665
9.924,-0.06208
9.928,-0.02516
9.932,-0.00956
9.936,-0.06252
9.94,0.01996
9.944,-0.00222
9.948,0.02655
9.952,0.02312
9.956,0.05057
9.96,0.02239
9.964,0.0199
9.968,0.04437
9.972,0.05883
9.976,0.00945
9.98,-0.07957
9.984,-0.00519
9.988,-0.01287
9.992,-0.02224
9.996,0.03352
