t_seg,ecg_mV
0.0,0.00941
0.004,0.01923
0.008,0.0534
0.012,0.05138
0.016,0.04446
0.02,0.01771
0.024,0.0395
0.028,0.05075
0.032,0.06679
0.036,0.03656
0.04,0.01759
0.044,0.043
0.048,0.03877
0.052,0.03671
0.056,0.03091
0.06,0.01839
0.064,0.04476
0.068,0.04979
0.072,0.01239
0.076,0.03548
0.08,0.06259
0.084,0.06549
0.088,0.01357
0.092,0.03637
0.096,0.03749
0.1,0.03083
0.104,0.02296
0.108,0.00029
0.112,0.01118
0.116,0.01606
0.12,0.03628
0.124,0.03647
0.128,0.03493
0.132,0.02191
0.136,0.01553
0.14,0.047
0.144,0.02462
0.148,0.01823
0.152,0.03202
0.156,0.03389
0.16,0.02465
0.164,0.01188
0.168,0.02201
0.172,0.02803
0.176,0.04996
0.18,0.06821
0.184,0.02097
0.188,0.03104
0.192,0.0385
0.196,0.03114
0.2,0.04721
0.204,0.0469
0.208,0.04208
0.212,0.01846
0.216,0.02036
0.22,0.01857
0.224,0.02301
0.228,0.02385
0.232,0.04123
0.236,0.03215
0.24,0.01496
0.244,0.06007
0.248,0.00394
0.252,0.05445
0.256,0.0389
0.26,0.0414
0.264,0.00886
0.268,0.04008
0.272,0.01983
0.276,0.0393
0.28,0.01194
0.284,0.03278
0.288,0.03003
0.292,0.01049
0.296,0.0416
0.3,0.04342
0.304,-0.02191
0.308,0.06033
0.312,-0.00379
0.316,-0.00333
0.32,0.0421
0.324,0.03167
0.328,0.0217
0.332,0.00603
0.336,-0.01408
0.34,0.028
0.344,-0.01783
0.348,0.0438
0.352,0.03362
0.356,0.02674
0.36,0.00567
0.364,0.03782
0.368,0.04599
0.372,0.01272
0.376,0.03088
0.38,0.04727
0.384,-0.00565
0.388,0.01152
0.392,0.02862
0.396,0.01836
0.4,0.03597
0.404,0.06033
0.408,0.07203
0.412,0.05536
0.416,0.03646
0.42,0.03121
0.424,0.01468
0.428,0.01387
0.432,0.01289
0.436,-0.00381
0.44,0.01296
0.444,0.01172
0.448,-0.00368
0.452,0.02818
0.456,0.02091
0.46,0.04006
0.464,0.03217
0.468,0.01309
0.472,0.04723
0.476,-0.00456
0.48,0.00702
0.484,0.02349
0.488,0.018
0.492,-0.00233
0.496,0.04466
0.5,0.01156
0.504,0.03334
0.508,0.03455
0.512,0.01927
0.516,-0.00038
0.52,0.06494
0.524,0.0277
0.528,0.05227
0.532,0.01833
0.536,0.03187
0.54,0.05713
0.544,0.05557
0.548,0.05107
0.552,0.07122
0.556,0.09386
0.56,0.094
0.564,0.10359
0.568,0.10103
0.572,0.11072
0.576,0.10154
0.58,0.12006
0.584,0.10371
0.588,0.11061
0.592,0.08274
0.596,0.07524
0.6,0.09572
0.604,0.05087
0.608,0.03994
0.612,0.04798
0.616,0.02632
0.62,0.02937
0.624,0.04226
0.628,0.03903
0.632,-0.00121
0.636,0.03254
0.64,0.04131
0.644,0.02924
0.648,0.01691
0.652,0.04057
0.656,0.0107
0.66,0.02925
0.664,0.05078
0.668,0.02679
0.672,0.04744
0.676,0.01891
0.68,0.01154
0.684,0.02207
0.688,0.02008
0.692,-0.05546
0.696,-0.05933
0.7,-0.07734
0.704,-0.08079
0.708,-0.03049
0.712,0.11483
0.716,0.26009
0.72,0.48801
0.724,0.72018
0.728,0.86138
0.732,1.00856
0.736,1.0076
0.74,0.92088
0.744,0.72204
0.748,0.49067
0.752,0.30515
0.756,0.09339
0.76,-0.05303
0.764,-0.1358
0.768,-0.15121
0.772,-0.14187
0.776,-0.08185
0.78,-0.06391
0.784,-0.02545
0.788,-0.01233
0.792,0.03522
0.796,0.01427
0.8,0.00161
0.804,0.01474
0.808,0.01039
0.812,0.02335
0.816,-0.00696
0.82,0.03232
0.824,0.03861
0.828,0.02495
0.832,0.03615
0.836,0.02493
0.84,-0.00313
0.844,0.01474
0.848,0.02189
0.852,0.00594
0.856,0.02046
0.86,0.01205
0.864,0.04315
0.868,0.01918
0.872,0.03082
0.876,0.01946
0.88,-0.00355
0.884,0.00896
0.888,-0.00065
0.892,0.02014
0.896,0.01183
0.9,0.03426
0.904,0.02633
0.908,0.02294
0.912,0.03213
0.916,0.04202
0.92,0.05564
0.924,0.06351
0.928,0.08556
0.932,0.04611
0.936,0.06304
0.94,0.06635
0.944,0.07119
0.948,0.08093
0.952,0.06876
0.956,0.07449
0.96,0.11095
0.964,0.12973
0.968,0.13336
0.972,0.16529
0.976,0.14208
0.98,0.17035
0.984,0.21639
0.988,0.19786
0.992,0.19477
0.996,0.2276
1.0,0.20853
1.004,0.24147
1.008,0.23638
1.012,0.23707
1.016,0.20072
1.02,0.24721
1.024,0.21218
1.028,0.2293
1.032,0.22851
1.036,0.22489
1.04,0.1987
1.044,0.19361
1.048,0.19674
1.052,0.1721
1.056,0.16589
1.06,0.14099
1.064,0.12795
1.068,0.11829
1.072,0.11109
1.076,0.11255
1.08,0.0904
1.084,0.06763
1.088,0.05861
1.092,0.05819
1.096,0.03458
1.1,0.04182
1.104,0.03402
1.108,0.02789
1.112,0.06712
1.116,0.04777
1.12,0.05755
1.124,-0.00266
1.128,0.01013
1.132,0.007
1.136,0.016
1.14,0.01349
1.144,0.02002
1.148,0.01636
1.152,0.01576
1.156,0.01476
1.16,0.02855
1.164,-0.00555
1.168,0.02599
1.172,-0.00045
1.176,0.0291
1.18,0.02148
1.184,0.02717
1.188,0.03211
1.192,0.01686
1.196,0.02065
1.2,0.04009
1.204,0.00105
1.208,0.02992
1.212,0.02119
1.216,-0.01274
1.22,-0.0194
1.224,-0.01765
1.228,0.02501
1.232,-0.01783
1.236,0.00592
1.24,-0.00528
1.244,0.00561
1.248,0.00588
1.252,-0.0071
1.256,-0.00145
1.26,0.02168
1.264,-0.00183
1.268,0.01789
1.272,-0.01658
1.276,-0.00385
1.28,0.03105
1.284,0.01387
1.288,0.01523
1.292,0.01022
1.296,0.01306
1.3,-0.00686
1.304,-0.01172
1.308,0.02163
1.312,0.02302
1.316,0.0015
1.32,0.02491
1.324,0.00384
1.328,0.00333
1.332,0.0054
1.336,0.00258
1.34,-0.00685
1.344,0.01326
1.348,-0.00498
1.352,0.00983
1.356,0.01715
1.36,0.02636
1.364,-0.00478
1.368,0.00907
1.372,-0.03067
1.376,-0.00394
1.38,0.01787
1.384,0.00335
1.388,0.03989
1.392,-0.00744
1.396,0.01604
1.4,0.00071
1.404,0.00402
1.408,0.00787
1.412,0.01056
1.416,0.01389
1.42,0.00462
1.424,-0.03665
1.428,0.00565
1.432,-0.02264
1.436,0.0008
1.44,-0.01269
1.444,0.00294
1.448,0.00319
1.452,-0.01823
1.456,-0.00494
1.46,-0.00731
1.464,-0.04452
1.468,0.02573
1.472,0.03267
1.476,-0.00522
1.48,0.02252
1.484,0.0217
1.488,0.00733
1.492,0.00307
1.496,0.01409
1.5,0.02019
1.504,-0.03165
1.508,-0.00992
1.512,0.00602
1.516,-0.00149
1.52,0.00574
1.524,-0.01395
1.528,0.01185
1.532,-0.00056
1.536,-0.01013
1.54,-0.00106
1.544,-0.00661
1.548,0.00269
1.552,-0.01431
1.556,-0.02523
1.56,0.00493
1.564,-3e-05
1.568,0.02717
1.572,0.02957
1.576,-0.00327
1.58,0.01962
1.584,0.01576
1.588,-0.00586
1.592,-0.00565
1.596,-0.01118
1.6,0.00914
1.604,0.01195
1.608,0.01603
1.612,-0.00252
1.616,-0.01654
1.62,0.0109
1.624,-0.00742
1.628,-0.00205
1.632,0.01708
1.636,-0.00962
1.64,0.01094
1.644,-0.00481
1.648,-0.0019
1.652,0.00774
1.656,0.00415
1.66,0.00959
1.664,0.00326
1.668,-0.01092
1.672,0.03609
1.676,-0.02142
1.68,-0.00236
1.684,0.00289
1.688,-0.00698
1.692,-0.02116
1.696,-0.0109
1.7,0.00548
1.704,-0.01333
1.708,0.00339
1.712,-0.01702
1.716,-0.00485
1.72,0.01588
1.724,-0.01853
1.728,-0.01359
1.732,-0.00074
1.736,-0.01522
1.74,-0.02363
1.744,-0.04213
1.748,0.02311
1.752,-0.00723
1.756,-0.01157
1.76,-0.01942
1.764,0.01727
1.768,-0.00244
1.772,-0.01714
1.776,0.01082
1.78,0.00421
1.784,-0.00371
1.788,0.01651
1.792,-0.03551
1.796,0.00193
1.8,-0.02505
1.804,0.04333
1.808,0.04745
1.812,0.0643
1.816,0.05044
1.82,0.07759
1.824,0.04363
1.828,0.07098
1.832,0.07307
1.836,0.10484
1.84,0.07307
1.844,0.09779
1.848,0.08691
1.852,0.08455
1.856,0.05047
1.86,0.0837
1.864,0.02525
1.868,0.01066
1.872,0.01963
1.876,0.01836
1.88,-0.00277
1.884,0.01174
1.888,0.01381
1.892,-0.01399
1.896,0.01384
1.9,-0.01155
1.904,-0.01627
1.908,-0.02995
1.912,-0.01291
1.916,-0.00635
1.92,-0.01107
1.924,-0.01367
1.928,-0.02373
1.932,-0.00786
1.936,0.009
1.94,-0.0075
1.944,-0.01169
1.948,0.00085
1.952,-0.01342
1.956,-0.04675
1.96,-0.09453
1.964,-0.13184
1.968,-0.15423
1.972,-0.07355
1.976,0.03437
1.98,0.18084
1.984,0.40385
1.988,0.6134
1.992,0.81222
1.996,0.94099
2.0,0.98075
2.004,0.89382
2.008,0.79137
2.012,0.54678
2.016,0.29068
2.02,0.09421
2.024,-0.0589
2.028,-0.12763
2.032,-0.17577
2.036,-0.15312
2.04,-0.15198
2.044,-0.08101
2.048,-0.0334
2.052,-0.02208
2.056,-0.02766
2.06,0.00083
2.064,-0.02284
2.068,-0.03457
2.072,-0.01364
2.076,-0.01025
2.08,-0.02386
2.084,-0.00434
2.088,-0.00261
2.092,-0.02145
2.096,-0.00498
2.1,-0.00656
2.104,-0.01902
2.108,-0.00947
2.112,-0.01518
2.116,-0.00231
2.12,-0.01973
2.124,-0.03139
2.128,-0.00096
2.132,-0.02273
2.136,-0.01979
2.14,-0.0218
2.144,-0.03611
2.148,-0.02389
2.152,-0.01701
2.156,-0.01655
2.16,0.01216
2.164,0.01155
2.168,0.00102
2.172,-0.02849
2.176,0.0347
2.18,-0.00477
2.184,0.0171
2.188,-0.00684
2.192,0.02345
2.196,0.05036
2.2,0.02224
2.204,0.0198
2.208,0.07354
2.212,0.04541
2.216,0.08054
2.22,0.08484
2.224,0.1093
2.228,0.1198
2.232,0.14215
2.236,0.1442
2.24,0.11334
2.244,0.1413
2.248,0.14005
2.252,0.13899
2.256,0.20256
2.26,0.17153
2.264,0.19107
2.268,0.16904
2.272,0.20986
2.276,0.19799
2.28,0.17421
2.284,0.21864
2.288,0.19189
2.292,0.2153
2.296,0.19742
2.3,0.1957
2.304,0.18381
2.308,0.17412
2.312,0.15551
2.316,0.11447
2.32,0.11925
2.324,0.12658
2.328,0.09642
2.332,0.06291
2.336,0.06211
2.34,0.07463
2.344,0.07412
2.348,0.03741
2.352,0.0539
2.356,0.03859
2.36,0.00835
2.364,0.02327
2.368,0.01902
2.372,0.00333
2.376,-0.0091
2.38,-0.02991
2.384,0.0158
2.388,-0.01661
2.392,-0.00532
2.396,-0.0227
2.4,-0.01471
2.404,-0.0357
2.408,-0.03295
2.412,-0.01977
2.416,-0.03636
2.42,-0.01957
2.424,-0.01985
2.428,-0.01852
2.432,-0.02903
2.436,-0.00255
2.44,-0.0194
2.444,-0.02077
2.448,-0.02556
2.452,-0.00533
2.456,0.01043
2.46,-0.04343
2.464,-0.02579
2.468,-0.01386
2.472,-0.0312
2.476,-0.04679
2.48,0.02653
2.484,-0.00754
2.488,-0.00726
2.492,-0.06621
2.496,-0.04307
2.5,-0.05261
2.504,0.00496
2.508,-0.06254
2.512,-0.0116
2.516,-0.03067
2.52,-0.02394
2.524,0.0019
2.528,-0.02648
2.532,-0.0285
2.536,0.03441
2.54,-0.01801
2.544,-0.01805
2.548,-0.02687
2.552,-0.02959
2.556,-0.03756
2.56,-0.04169
2.564,-0.03079
2.568,-0.02016
2.572,-0.0181
2.576,-0.04973
2.58,-0.01217
2.584,-0.0478
2.588,-0.02787
2.592,-0.03337
2.596,-0.04018
2.6,-0.04396
2.604,-0.00508
2.608,-0.03052
2.612,-0.00994
2.616,-0.00878
2.62,-0.04987
2.624,-0.03046
2.628,-0.03699
2.632,-0.02345
2.636,-0.03719
2.64,-0.04714
2.644,-0.03913
2.648,-0.02237
2.652,-0.02071
2.656,-0.02637
2.66,-0.00537
2.664,-0.02888
2.668,-0.03685
2.672,-0.02266
2.676,-0.02351
2.68,-0.03392
2.684,0.00541
2.688,-0.00962
2.692,-0.02462
2.696,-0.01011
2.7,-0.01211
2.704,-0.02137
2.708,-0.03611
2.712,-0.03111
2.716,-0.02023
2.72,-0.01898
2.724,-0.02284
2.728,-0.03179
2.732,0.01906
2.736,-0.01547
2.74,-0.01224
2.744,-0.01903
2.748,0.00431
2.752,-0.03526
2.756,-0.04777
2.76,-0.04743
2.764,-0.02907
2.768,0.00632
2.772,-0.04103
2.776,-0.00058
2.78,-0.02944
2.784,-0.0319
2.788,-0.04227
2.792,-0.05186
2.796,-0.0019
2.8,-0.05202
2.804,-0.01883
2.808,-0.01897
2.812,0.00035
2.816,-0.02668
2.82,0.01106
2.824,-0.05165
2.828,-0.02749
2.832,-0.04329
2.836,-0.03624
2.84,-0.00774
2.844,-0.03298
2.848,-0.00928
2.852,-0.01398
2.856,-0.03219
2.86,-0.01409
2.864,-0.01873
2.868,-0.03609
2.872,-0.01108
2.876,-0.05636
2.88,-0.01953
2.884,-0.04498
2.888,-0.05247
2.892,-0.01321
2.896,-0.03338
2.9,-0.03218
2.904,-0.01552
2.908,-0.02751
2.912,-0.00575
2.916,-0.03167
2.92,-0.03283
2.924,-0.03706
2.928,-0.01201
2.932,-0.0084
2.936,-0.0189
2.94,-0.02847
2.944,-0.04543
2.948,-0.03712
2.952,-0.03821
2.956,-0.04173
2.96,-0.00588
2.964,-0.06326
2.968,-0.03187
2.972,-0.00989
2.976,-0.01591
2.98,-0.01309
2.984,-0.04472
2.988,-0.00743
2.992,-0.02122
2.996,-0.01194
3.0,-0.0004
3.004,-0.02234
3.008,-0.00794
3.012,0.00109
3.016,-0.00967
3.02,-0.00585
3.024,0.01559
3.028,0.01692
3.032,0.03519
3.036,0.05085
3.04,0.05307
3.044,0.06124
3.048,0.07845
3.052,0.07389
3.056,0.0689
3.06,0.06109
3.064,0.05996
3.068,0.0497
3.072,0.0061
3.076,0.0037
3.08,-0.00302
3.084,0.00948
3.088,-0.00393
3.092,0.00365
3.096,-0.00631
3.1,-0.03149
3.104,-0.04187
3.108,-0.03351
3.112,-0.00243
3.116,-0.0211
3.12,-0.03987
3.124,-0.02426
3.128,-0.04095
3.132,-0.03633
3.136,-0.03302
3.14,-0.01552
3.144,-0.02587
3.148,-0.02647
3.152,-0.03852
3.156,-0.02101
3.16,-0.02935
3.164,-0.04414
3.168,-0.08415
3.172,-0.12576
3.176,-0.13736
3.18,-0.13381
3.184,-0.08959
3.188,0.02732
3.192,0.22388
3.196,0.39724
3.2,0.6138
3.204,0.8247
3.208,0.97588
3.212,0.95653
3.216,0.85082
3.22,0.72238
3.224,0.47013
3.228,0.23327
3.232,0.04428
3.236,-0.10898
3.24,-0.14176
3.244,-0.21449
3.248,-0.16454
3.252,-0.16005
3.256,-0.07288
3.26,-0.05675
3.264,-0.05027
3.268,-0.03294
3.272,-0.0429
3.276,-0.05886
3.28,-0.02645
3.284,-0.03048
3.288,-0.02867
3.292,-0.01772
3.296,-0.00302
3.3,-0.02532
3.304,-0.04404
3.308,-0.01295
3.312,-0.02086
3.316,-0.02879
3.32,-0.00077
3.324,-0.04119
3.328,-0.00199
3.332,-0.02204
3.336,-0.00603
3.34,-0.04296
3.344,-0.01552
3.348,-0.0247
3.352,-0.01605
3.356,-0.04231
3.36,-0.01795
3.364,-0.01619
3.368,-0.00138
3.372,-0.04983
3.376,-0.0269
3.38,-0.03123
3.384,-0.02165
3.388,-0.03283
3.392,-0.03339
3.396,-0.02113
3.4,-0.00932
3.404,0.03102
3.408,0.01283
3.412,0.02803
3.416,0.00871
3.42,0.03948
3.424,0.04584
3.428,0.04951
3.432,0.06529
3.436,0.07986
3.44,0.10734
3.444,0.06456
3.448,0.08641
3.452,0.10819
3.456,0.14233
3.46,0.16652
3.464,0.14733
3.468,0.17253
3.472,0.15905
3.476,0.17817
3.48,0.18676
3.484,0.19485
3.488,0.1914
3.492,0.19793
3.496,0.19652
3.5,0.18934
3.504,0.19834
3.508,0.20085
3.512,0.15711
3.516,0.1523
3.52,0.1513
3.524,0.15279
3.528,0.09748
3.532,0.11244
3.536,0.101
3.54,0.064
3.544,0.07217
3.548,0.07705
3.552,0.04117
3.556,0.0416
3.56,0.03438
3.564,0.01451
3.568,0.0191
3.572,0.02522
3.576,0.02308
3.58,0.03333
3.584,-0.00777
3.588,0.02215
3.592,3e-05
3.596,-0.0364
3.6,0.00308
3.604,-0.007
3.608,-0.01074
3.612,0.00571
3.616,-0.01766
3.62,-0.02436
3.624,-0.02713
3.628,-0.02856
3.632,-0.04163
3.636,-0.03869
3.64,-0.01033
3.644,-0.01967
3.648,-0.03641
3.652,-0.01494
3.656,-0.00727
3.66,-0.00137
3.664,-0.01716
3.668,-0.03082
3.672,-0.01728
3.676,-0.0453
3.68,-0.0232
3.684,-0.02772
3.688,-0.0395
3.692,-0.03964
3.696,-0.01345
3.7,-0.04755
3.704,-0.01797
3.708,-0.05759
3.712,-0.02314
3.716,-0.02655
3.72,-0.01634
3.724,-0.01494
3.728,-0.01767
3.732,-0.04743
3.736,0.013
3.74,-0.02457
3.744,-0.05726
3.748,-0.0181
3.752,-0.01915
3.756,-0.03004
3.76,-0.02435
3.764,-0.02054
3.768,-0.04011
3.772,-0.00651
3.776,-0.00349
3.78,-0.03974
3.784,-0.02058
3.788,-0.04235
3.792,-0.01874
3.796,-0.03934
3.8,-0.05125
3.804,-0.02955
3.808,-0.00162
3.812,-0.04813
3.816,-0.03669
3.82,-0.02871
3.824,-0.02889
3.828,-0.02978
3.832,-0.04394
3.836,-0.0364
3.84,-0.03263
3.844,-0.04307
3.848,-0.01531
3.852,-0.02763
3.856,-0.01677
3.86,-0.01813
3.864,-0.02318
3.868,-0.02407
3.872,-0.02961
3.876,-0.07095
3.88,-0.04821
3.884,-0.04097
3.888,-0.01116
3.892,-0.0097
3.896,-0.01834
3.9,-0.02353
3.904,-0.04075
3.908,-0.01212
3.912,-0.01231
3.916,-0.02479
3.92,-0.028
3.924,-0.02238
3.928,0.00358
3.932,-0.03973
3.936,-0.02192
3.94,-0.01742
3.944,-0.02563
3.948,-0.02098
3.952,-0.01176
3.956,-0.00676
3.96,0.00719
3.964,-0.01516
3.968,-0.03036
3.972,-0.01942
3.976,-0.03467
3.98,-0.02236
3.984,0.0002
3.988,-0.03328
3.992,-0.03266
3.996,-0.02266
4.0,-0.00366
4.004,-0.02311
4.008,-0.03579
4.012,-0.01538
4.016,0.0132
4.02,-0.02344
4.024,-0.03567
4.028,-0.03219
4.032,-0.00841
4.036,-0.03295
4.04,-0.00201
4.044,-0.03101
4.048,-0.01665
4.052,-0.01611
4.056,-0.00903
4.06,-0.00178
4.064,-0.01372
4.068,-0.00867
4.072,-0.0416
4.076,-0.03224
4.08,-0.03177
4.084,-0.03089
4.088,-0.01983
4.092,-0.00791
4.096,-0.01518
4.1,-0.01568
4.104,-0.01756
4.108,-0.0131
4.112,-0.01583
4.116,-0.0106
4.12,-0.03051
4.124,-0.01521
4.128,-0.0018
4.132,-0.00109
4.136,-0.00403
4.14,-0.00807
4.144,-0.0088
4.148,0.01014
4.152,0.01395
4.156,0.0462
4.16,0.09158
4.164,0.05391
4.168,0.05985
4.172,0.0615
4.176,0.06899
4.18,0.07592
4.184,0.08618
4.188,0.07299
4.192,0.05307
4.196,0.06764
4.2,0.04037
4.204,0.02158
4.208,0.03422
4.212,0.00195
4.216,-0.00096
4.22,0.01663
4.224,-0.03103
4.228,-0.00215
4.232,-0.02337
4.236,-0.02955
4.24,-0.01951
4.244,-0.01033
4.248,-0.04382
4.252,-0.01973
4.256,-0.01842
4.26,-0.00345
4.264,-0.01844
4.268,-0.02779
4.272,-0.01731
4.276,-0.05275
4.28,0.01252
4.284,-0.01286
4.288,-0.05762
4.292,-0.06069
4.296,-0.07934
4.3,-0.08047
4.304,-0.11936
4.308,-0.14119
4.312,-0.08909
4.316,0.07013
4.32,0.22844
4.324,0.44674
4.328,0.66659
4.332,0.85433
4.336,0.98402
4.34,0.97963
4.344,0.89081
4.348,0.65423
4.352,0.45675
4.356,0.2743
4.36,0.02947
4.364,-0.11012
4.368,-0.17829
4.372,-0.18132
4.376,-0.16537
4.38,-0.0934
4.384,-0.06211
4.388,-0.03005
4.392,-0.03365
4.396,-0.03707
4.4,-0.00619
4.404,-0.01723
4.408,-0.01174
4.412,-0.03753
4.416,0.00493
4.42,-0.02381
4.424,-0.0365
4.428,-0.02752
4.432,-0.01597
4.436,-0.04953
4.44,-0.00565
4.444,-0.02381
4.448,-0.02401
4.452,-0.01134
4.456,-0.00842
4.46,-0.04191
4.464,-0.03505
4.468,-0.0201
4.472,-0.02673
4.476,-0.02404
4.48,-0.02122
4.484,-0.00755
4.488,-0.0023
4.492,0.00844
4.496,-0.00067
4.5,-0.007
4.504,0.00372
4.508,0.02549
4.512,-0.00194
4.516,-0.02216
4.52,-0.02943
4.524,0.00967
4.528,0.01993
4.532,0.00602
4.536,0.04456
4.54,0.05043
4.544,0.0608
4.548,0.08015
4.552,0.04608
4.556,0.07768
4.56,0.08455
4.564,0.09817
4.568,0.09446
4.572,0.12342
4.576,0.11285
4.58,0.13993
4.584,0.18735
4.588,0.16862
4.592,0.15039
4.596,0.18633
4.6,0.20708
4.604,0.20192
4.608,0.23692
4.612,0.20258
4.616,0.1864
4.62,0.24176
4.624,0.20346
4.628,0.22015
4.632,0.20127
4.636,0.19831
4.64,0.17139
4.644,0.19472
4.648,0.14888
4.652,0.17112
4.656,0.14115
4.66,0.12135
4.664,0.09685
4.668,0.143
4.672,0.11839
4.676,0.08033
4.68,0.08463
4.684,0.06549
4.688,0.06812
4.692,0.0364
4.696,0.07428
4.7,0.02204
4.704,0.00263
4.708,0.04362
4.712,0.03002
4.716,0.02709
4.72,-0.01575
4.724,-0.01702
4.728,-0.00607
4.732,0.027
4.736,0.01596
4.74,-0.01455
4.744,-0.04141
4.748,-0.02717
4.752,-0.01788
4.756,-0.00794
4.76,0.01341
4.764,0.00309
4.768,0.0038
4.772,0.01044
4.776,0.0031
4.78,0.04179
4.784,0.01802
4.788,0.00114
4.792,-0.0084
4.796,0.01978
4.8,-0.00967
4.804,-0.00343
4.808,0.00262
4.812,-0.01319
4.816,-0.02124
4.82,8e-05
4.824,-0.01632
4.828,0.0137
4.832,-0.02004
4.836,-0.01349
4.84,-0.00084
4.844,0.00672
4.848,0.01253
4.852,-0.00179
4.856,-0.02155
4.86,-0.01274
4.864,-0.00376
4.868,0.01404
4.872,0.0091
4.876,-0.01581
4.88,0.03514
4.884,0.01737
4.888,0.01769
4.892,-0.00534
4.896,0.01597
4.9,0.01867
4.904,-0.00145
4.908,-0.01763
4.912,-0.01214
4.916,-0.0083
4.92,-0.00337
4.924,0.00102
4.928,0.00714
4.932,-0.00834
4.936,-0.0126
4.94,0.00242
4.944,-0.02272
4.948,-0.03103
4.952,0.00266
4.956,-0.0119
4.96,0.00187
4.964,0.00102
4.968,0.01147
4.972,-0.02973
4.976,0.01683
4.98,-0.00846
4.984,-0.01065
4.988,-0.03498
4.992,-0.01927
4.996,0.01924
5.0,0.03574
5.004,0.0112
5.008,0.00144
5.012,0.00201
5.016,0.0039
5.02,-0.01023
5.024,-0.01597
5.028,0.00547
5.032,0.00263
5.036,0.00147
5.04,-0.0245
5.044,-0.00844
5.048,-0.02106
5.052,0.0247
5.056,0.01689
5.06,0.00112
5.064,0.03012
5.068,0.00909
5.072,-0.00967
5.076,0.02324
5.08,0.01413
5.084,0.0267
5.088,0.02147
5.092,-0.01506
5.096,-0.0168
5.1,-0.00141
5.104,-0.03167
5.108,0.00239
5.112,0.02144
5.116,0.00953
5.12,-0.02422
5.124,0.00859
5.128,-0.01864
5.132,0.00146
5.136,0.01943
5.14,0.02394
5.144,-0.0114
5.148,0.00788
5.152,0.01489
5.156,0.00599
5.16,0.03522
5.164,0.04927
5.168,0.07346
5.172,0.07479
5.176,0.06885
5.18,0.03851
5.184,0.10475
5.188,0.09065
5.192,0.08909
5.196,0.10424
5.2,0.10595
5.204,0.08709
5.208,0.11672
5.212,0.08717
5.216,0.06677
5.22,0.05301
5.224,0.0465
5.228,0.05225
5.232,0.0188
5.236,0.01995
5.24,0.00087
5.244,0.02078
5.248,0.00948
5.252,0.03338
5.256,-0.0038
5.26,0.0021
5.264,0.00647
5.268,0.03324
5.272,0.02241
5.276,0.00393
5.28,0.00138
5.284,0.01793
5.288,0.00442
5.292,0.01854
5.296,0.00253
5.3,0.01069
5.304,0.00367
5.308,0.02845
5.312,-0.01102
5.316,-0.0266
5.32,-0.07231
5.324,-0.10923
5.328,-0.09435
5.332,0.01427
5.336,0.18403
5.34,0.33662
5.344,0.56742
5.348,0.76997
5.352,0.93621
5.356,0.9788
5.36,0.9666
5.364,0.84781
5.368,0.60311
5.372,0.37733
5.376,0.1883
5.38,0.01618
5.384,-0.11539
5.388,-0.16048
5.392,-0.15393
5.396,-0.09898
5.4,-0.07329
5.404,-0.02901
5.408,0.01139
5.412,-0.00617
5.416,-0.02071
5.42,-0.00426
5.424,0.00945
5.428,-0.00793
5.432,-0.00634
5.436,0.015
5.44,0.01205
5.444,0.02259
5.448,0.00934
5.452,0.01107
5.456,0.00891
5.46,0.0145
5.464,0.03624
5.468,0.0136
5.472,0.02248
5.476,0.03198
5.48,0.01983
5.484,0.00763
5.488,0.03157
5.492,0.01965
5.496,0.00804
5.5,0.02505
5.504,0.00019
5.508,0.01687
5.512,-0.00177
5.516,0.02329
5.52,0.03109
5.524,0.02686
5.528,0.03262
5.532,0.03911
5.536,0.04074
5.54,0.03768
5.544,0.06446
5.548,0.03154
5.552,0.04175
5.556,0.04489
5.56,0.08422
5.564,0.08527
5.568,0.06428
5.572,0.10301
5.576,0.09698
5.58,0.12223
5.584,0.10755
5.588,0.11414
5.592,0.16524
5.596,0.19621
5.6,0.16973
5.604,0.19322
5.608,0.18078
5.612,0.18044
5.616,0.20396
5.62,0.22849
5.624,0.22796
5.628,0.23536
5.632,0.23295
5.636,0.20939
5.64,0.24881
5.644,0.21385
5.648,0.1961
5.652,0.24545
5.656,0.22881
5.66,0.1896
5.664,0.20343
5.668,0.17521
5.672,0.17324
5.676,0.17661
5.68,0.17578
5.684,0.15208
5.688,0.1398
5.692,0.13946
5.696,0.13335
5.7,0.10018
5.704,0.0952
5.708,0.06352
5.712,0.06623
5.716,0.10668
5.72,0.06255
5.724,0.05946
5.728,0.0584
5.732,0.0284
5.736,0.02135
5.74,0.03729
5.744,0.02095
5.748,0.02326
5.752,0.04255
5.756,0.03278
5.76,0.02721
5.764,0.01592
5.768,0.02723
5.772,0.01981
5.776,0.00142
5.78,0.03618
5.784,0.03327
5.788,0.00389
5.792,0.01771
5.796,0.04916
5.8,0.01996
5.804,0.02867
5.808,0.05875
5.812,0.00412
5.816,0.02397
5.82,0.02452
5.824,0.00613
5.828,-0.00538
5.832,0.03118
5.836,0.02839
5.84,0.01143
5.844,0.00579
5.848,0.0142
5.852,0.04814
5.856,0.04359
5.86,0.02759
5.864,-0.00384
5.868,0.00938
5.872,0.03788
5.876,0.00705
5.88,0.00201
5.884,0.01052
5.888,0.04175
5.892,0.01343
5.896,0.01966
5.9,-0.01099
5.904,0.04461
5.908,0.01866
5.912,0.02559
5.916,0.02209
5.92,0.03905
5.924,0.00092
5.928,0.03038
5.932,0.02764
5.936,0.01845
5.94,0.02244
5.944,0.02667
5.948,0.01126
5.952,0.02601
5.956,0.03947
5.96,0.02559
5.964,0.03179
5.968,0.05239
5.972,0.01324
5.976,0.01876
5.98,0.04986
5.984,0.01198
5.988,0.00928
5.992,0.01975
5.996,0.02903
6.0,0.03125
6.004,0.03641
6.008,0.04028
6.012,0.03197
6.016,0.01785
6.02,0.02714
6.024,0.01313
6.028,0.01001
6.032,0.03875
6.036,0.03235
6.04,0.03336
6.044,0.03941
6.048,0.06786
6.052,0.05594
6.056,0.0014
6.06,0.03155
6.064,0.01754
6.068,0.05226
6.072,0.01352
6.076,0.02351
6.08,0.01811
6.084,0.02607
6.088,0.04693
6.092,0.04452
6.096,0.03013
6.1,-0.01341
6.104,0.00829
6.108,0.00858
6.112,0.02667
6.116,0.00523
6.12,0.02425
6.124,0.01008
6.128,0.04194
6.132,0.0315
6.136,0.05064
6.14,0.07993
6.144,0.04684
6.148,0.03627
6.152,0.08028
6.156,0.07187
6.16,0.09447
6.164,0.1028
6.168,0.10877
6.172,0.09896
6.176,0.09654
6.18,0.13012
6.184,0.13419
6.188,0.12081
6.192,0.08697
6.196,0.12795
6.2,0.08908
6.204,0.07217
6.208,0.06003
6.212,0.05449
6.216,0.06281
6.22,0.05114
6.224,0.0023
6.228,0.04809
6.232,0.02405
6.236,0.01981
6.24,0.00897
6.244,0.03882
6.248,0.0364
6.252,0.00409
6.256,0.00566
6.26,0.01577
6.264,0.0118
6.268,0.00732
6.272,0.02611
6.276,0.06527
6.28,0.0316
6.284,0.04869
6.288,0.02243
6.292,0.03335
6.296,0.01704
6.3,-0.00821
6.304,-0.06347
6.308,-0.09187
6.312,-0.0776
6.316,-0.00142
6.32,0.11407
6.324,0.30262
6.328,0.48568
6.332,0.71076
6.336,0.89648
6.34,1.00361
6.344,0.99525
6.348,0.89998
6.352,0.73695
6.356,0.5129
6.36,0.26979
6.364,0.0828
6.368,-0.03501
6.372,-0.09125
6.376,-0.13126
6.38,-0.12051
6.384,-0.084
6.388,-0.02095
6.392,-0.01916
6.396,0.02997
6.4,0.03535
6.404,0.05468
6.408,0.01725
6.412,0.02628
6.416,0.01932
6.42,0.05217
6.424,0.01164
6.428,0.03259
6.432,0.04217
6.436,0.00788
6.44,0.01777
6.444,0.06344
6.448,0.01017
6.452,0.02936
6.456,0.03225
6.46,0.02227
6.464,0.02384
6.468,0.03041
6.472,0.02946
6.476,0.03396
6.48,0.04024
6.484,0.04116
6.488,0.04664
6.492,0.03651
6.496,0.04023
6.5,0.02891
6.504,0.04337
6.508,0.038
6.512,0.03265
6.516,0.03007
6.52,0.05949
6.524,0.01446
6.528,0.04079
6.532,0.07022
6.536,0.08421
6.54,0.06816
6.544,0.06081
6.548,0.09003
6.552,0.10274
6.556,0.08558
6.56,0.12626
6.564,0.13022
6.568,0.11908
6.572,0.13201
6.576,0.16898
6.58,0.15839
6.584,0.16092
6.588,0.18284
6.592,0.20334
6.596,0.2221
6.6,0.21489
6.604,0.19823
6.608,0.23073
6.612,0.24399
6.616,0.2557
6.62,0.25606
6.624,0.26743
6.628,0.25817
6.632,0.25616
6.636,0.22295
6.64,0.22813
6.644,0.23836
6.648,0.21066
6.652,0.21368
6.656,0.2076
6.66,0.16893
6.664,0.15229
6.668,0.16526
6.672,0.1659
6.676,0.14361
6.68,0.12602
6.684,0.08997
6.688,0.10735
6.692,0.1156
6.696,0.09249
6.7,0.07288
6.704,0.09164
6.708,0.0626
6.712,0.0752
6.716,0.07561
6.72,0.07082
6.724,0.04925
6.728,0.01699
6.732,0.02876
6.736,0.0358
6.74,0.03289
6.744,0.03183
6.748,0.0269
6.752,0.04514
6.756,0.05987
6.76,0.0065
6.764,0.0607
6.768,0.03342
6.772,0.03553
6.776,0.02
6.78,0.03181
6.784,0.02316
6.788,0.05912
6.792,0.02305
6.796,0.03473
6.8,0.06575
6.804,0.04558
6.808,0.03081
6.812,0.05091
6.816,0.00648
6.82,0.07859
6.824,0.00195
6.828,0.03196
6.832,0.03872
6.836,0.01084
6.84,0.03018
6.844,0.05852
6.848,0.01955
6.852,0.02596
6.856,0.03419
6.86,0.01887
6.864,0.02508
6.868,0.02157
6.872,0.02762
6.876,0.0223
6.88,0.02231
6.884,0.01708
6.888,0.04565
6.892,0.04445
6.896,0.02502
6.9,0.02637
6.904,-0.0022
6.908,0.04977
6.912,0.04901
6.916,0.05836
6.92,0.03211
6.924,0.03788
6.928,0.02304
6.932,0.02519
6.936,0.01659
6.94,0.03644
6.944,0.03396
6.948,0.01566
6.952,0.01738
6.956,0.02003
6.96,0.03244
6.964,0.03439
6.968,0.018
6.972,0.0351
6.976,0.03505
6.98,0.02896
6.984,0.04215
6.988,0.04602
6.992,0.01634
6.996,0.00814
7.0,0.0452
7.004,0.03624
7.008,0.04206
7.012,0.03314
7.016,0.04807
7.02,0.01483
7.024,0.0545
7.028,0.01852
7.032,0.01912
7.036,0.01993
7.04,0.03358
7.044,0.05324
7.048,0.05356
7.052,0.04179
7.056,0.02679
7.06,0.0348
7.064,0.04994
7.068,0.0285
7.072,0.04542
7.076,0.06147
7.08,0.02652
7.084,0.03799
7.088,0.01082
7.092,0.03041
7.096,0.02344
7.1,0.02553
7.104,0.01246
7.108,0.02657
7.112,0.00906
7.116,0.02538
7.12,0.01879
7.124,0.02762
7.128,0.01668
7.132,0.03291
7.136,0.04418
7.14,0.03078
7.144,0.03317
7.148,0.03168
7.152,0.01893
7.156,0.02432
7.16,0.01865
7.164,0.02584
7.168,0.05248
7.172,0.01168
7.176,0.00653
7.18,-0.00626
7.184,-0.00204
7.188,0.02132
7.192,0.01102
7.196,0.01841
7.2,0.01374
7.204,0.02912
7.208,0.00286
7.212,0.06865
7.216,0.02798
7.22,0.03142
7.224,0.03758
7.228,0.01438
7.232,0.02887
7.236,-0.0052
7.24,0.02067
7.244,0.02715
7.248,0.03514
7.252,0.03813
7.256,0.0204
7.26,0.02888
7.264,0.00865
7.268,0.03579
7.272,0.03666
7.276,-0.00126
7.28,0.01721
7.284,0.02722
7.288,0.03326
7.292,0.01597
7.296,0.04623
7.3,-0.0039
7.304,-0.00208
7.308,0.03077
7.312,0.0052
7.316,0.0278
7.32,0.02454
7.324,0.0088
7.328,0.00631
7.332,0.03434
7.336,0.02632
7.34,0.0651
7.344,0.0099
7.348,0.00338
7.352,0.0261
7.356,0.03378
7.36,0.01718
7.364,-0.02592
7.368,-0.00163
7.372,0.04916
7.376,0.02619
7.38,0.01226
7.384,0.01823
7.388,0.01201
7.392,0.01968
7.396,-0.00424
7.4,0.01695
7.404,0.02605
7.408,-0.00918
7.412,0.0284
7.416,-0.00063
7.42,0.04628
7.424,0.05252
7.428,0.02937
7.432,0.02502
7.436,0.03803
7.44,-0.00212
7.444,0.01347
7.448,0.02294
7.452,0.0263
7.456,0.03839
7.46,0.059
7.464,0.05848
7.468,0.0593
7.472,0.05395
7.476,0.05988
7.48,0.07318
7.484,0.09588
7.488,0.1085
7.492,0.11462
7.496,0.12309
7.5,0.11542
7.504,0.12033
7.508,0.099
7.512,0.09193
7.516,0.08209
7.52,0.07019
7.524,0.03928
7.528,0.04424
7.532,0.0331
7.536,0.04355
7.54,0.03693
7.544,0.00604
7.548,0.01314
7.552,0.01817
7.556,0.02351
7.56,-0.00039
7.564,0.01521
7.568,0.05354
7.572,0.01714
7.576,0.00795
7.58,0.01058
7.584,-0.00775
7.588,-0.00268
7.592,0.0252
7.596,0.02467
7.6,-0.00636
7.604,0.01872
7.608,0.01083
7.612,-0.0087
7.616,-0.02588
7.62,-0.05307
7.624,-0.09909
7.628,-0.11945
7.632,-0.06464
7.636,0.10021
7.64,0.27637
7.644,0.48422
7.648,0.70664
7.652,0.88639
7.656,0.98936
7.66,0.99905
7.664,0.91473
7.668,0.7117
7.672,0.45792
7.676,0.25106
7.68,0.08504
7.684,-0.05703
7.688,-0.13892
7.692,-0.13405
7.696,-0.12602
7.7,-0.07583
7.704,-0.02421
7.708,-0.02826
7.712,-0.01419
7.716,0.00336
7.72,-0.00546
7.724,0.04425
7.728,0.00996
7.732,0.03025
7.736,-0.01199
7.74,-0.01899
7.744,0.00905
7.748,0.00803
7.752,0.02643
7.756,-0.00328
7.76,0.01821
7.764,0.02477
7.768,0.00144
7.772,0.03911
7.776,-0.00634
7.78,0.00342
7.784,0.01742
7.788,0.02307
7.792,0.03275
7.796,0.0107
7.8,0.00147
7.804,0.01434
7.808,0.02519
7.812,0.00931
7.816,0.00817
7.82,0.01179
7.824,0.0261
7.828,0.02126
7.832,0.03313
7.836,0.03899
7.84,0.02657
7.844,0.03959
7.848,0.06922
7.852,0.0652
7.856,0.02845
7.86,0.06371
7.864,0.06408
7.868,0.08464
7.872,0.0716
7.876,0.09731
7.88,0.09533
7.884,0.11991
7.888,0.13025
7.892,0.16295
7.896,0.17026
7.9,0.17642
7.904,0.17487
7.908,0.18344
7.912,0.19401
7.916,0.19965
7.92,0.20628
7.924,0.22794
7.928,0.22273
7.932,0.24556
7.936,0.23331
7.94,0.20888
7.944,0.26436
7.948,0.22605
7.952,0.23425
7.956,0.22208
7.96,0.19701
7.964,0.18944
7.968,0.2117
7.972,0.17268
7.976,0.16696
7.98,0.15754
7.984,0.12775
7.988,0.13476
7.992,0.13203
7.996,0.11056
8.0,0.09581
8.004,0.07769
8.008,0.05871
8.012,0.06596
8.016,0.05798
8.02,0.05481
8.024,0.01703
8.028,0.02087
8.032,-0.00633
8.036,0.04066
8.04,0.02797
8.044,0.01086
8.048,0.02188
8.052,0.01587
8.056,-0.00205
8.06,-0.00118
8.064,0.01067
8.068,0.02726
8.072,0.01324
8.076,-0.01324
8.08,-0.02078
8.084,0.00291
8.088,0.01334
8.092,-0.0201
8.096,0.00438
8.1,0.01599
8.104,-0.02354
8.108,0.01218
8.112,0.01526
8.116,0.00972
8.12,0.01088
8.124,-0.01266
8.128,0.02054
8.132,-0.00777
8.136,0.0282
8.14,-0.00669
8.144,0.01295
8.148,-0.00439
8.152,-0.01712
8.156,-0.01202
8.16,-0.00107
8.164,-0.00911
8.168,-0.005
8.172,0.01631
8.176,-0.01382
8.18,-0.01484
8.184,-0.00569
8.188,0.01595
8.192,-0.00798
8.196,-0.0051
8.2,-0.02829
8.204,-0.01982
8.208,0.01464
8.212,-0.03345
8.216,-0.00032
8.22,0.00527
8.224,0.0174
8.228,-0.00044
8.232,-0.0208
8.236,-0.02601
8.24,0.02231
8.244,0.00803
8.248,0.00592
8.252,-0.0009
8.256,0.01575
8.26,-0.00262
8.264,0.00175
8.268,-0.04008
8.272,0.01984
8.276,0.02595
8.28,-0.00449
8.284,-0.03207
8.288,-0.02043
8.292,0.00394
8.296,-0.00531
8.3,0.01275
8.304,0.02213
8.308,0.00895
8.312,0.01108
8.316,-0.00353
8.32,0.00036
8.324,0.01025
8.328,0.01049
8.332,-0.01474
8.336,0.01305
8.34,-0.01641
8.344,0.00398
8.348,0.03533
8.352,-0.01102
8.356,0.01804
8.36,-0.00693
8.364,-0.04742
8.368,-0.02671
8.372,-0.0041
8.376,0.02284
8.38,0.01013
8.384,-0.03328
8.388,-0.00968
8.392,-0.0166
8.396,-0.00734
8.4,-0.00412
8.404,0.00174
8.408,-0.00497
8.412,0.00391
8.416,-0.03033
8.42,-0.01844
8.424,0.01457
8.428,-0.01432
8.432,-0.01514
8.436,-0.01046
8.44,0.02303
8.444,-0.00303
8.448,0.00167
8.452,0.00607
8.456,-0.02444
8.46,-0.00499
8.464,-0.01318
8.468,0.00226
8.472,-0.02063
8.476,-0.00565
8.48,-0.01651
8.484,-0.02008
8.488,0.02643
8.492,0.02535
8.496,-0.0127
8.5,-0.00698
8.504,-0.0206
8.508,-0.00268
8.512,0.01068
8.516,0.00923
8.52,0.00234
8.524,-0.00666
8.528,-0.0039
8.532,0.00625
8.536,0.01147
8.54,0.02303
8.544,0.00427
8.548,0.00473
8.552,-0.01842
8.556,0.00867
8.56,-0.00286
8.564,0.01092
8.568,-0.00147
8.572,-0.00189
8.576,-0.01206
8.58,-0.00594
8.584,0.01236
8.588,0.01696
8.592,0.00233
8.596,0.00456
8.6,-0.02474
8.604,0.00686
8.608,0.00965
8.612,-0.00133
8.616,-0.02955
8.62,-0.01932
8.624,-0.01495
8.628,-0.0137
8.632,-0.02361
8.636,-0.01799
8.64,-0.02969
8.644,-0.01254
8.648,-0.02215
8.652,-0.03101
8.656,-0.00061
8.66,0.00504
8.664,-0.00653
8.668,-0.04299
8.672,0.01084
8.676,-0.02677
8.68,-0.00519
8.684,-0.03873
8.688,0.00198
8.692,-0.01932
8.696,-0.00027
8.7,-0.03437
8.704,0.01202
8.708,-0.01121
8.712,-0.01097
8.716,-0.0342
8.72,0.01411
8.724,-0.00905
8.728,0.00348
8.732,0.00545
8.736,-0.01254
8.74,-0.00415
8.744,-0.02207
8.748,0.01147
8.752,-0.00357
8.756,-0.03698
8.76,-0.00298
8.764,-0.00416
8.768,-0.01688
8.772,-0.02118
8.776,-0.00287
8.78,0.00646
8.784,-0.02109
8.788,0.00419
8.792,0.03066
8.796,0.0073
8.8,0.04511
8.804,0.04595
8.808,0.06177
8.812,0.06591
8.816,0.07492
8.82,0.0742
8.824,0.06107
8.828,0.08264
8.832,0.06349
8.836,0.06847
8.84,0.08324
8.844,0.05561
8.848,0.00563
8.852,0.00863
8.856,0.02962
8.86,-0.01186
8.864,0.02977
8.868,-0.00898
8.872,-0.02106
8.876,-0.04026
8.88,-0.02134
8.884,0.00152
8.888,-0.02459
8.892,-0.01469
8.896,-0.02377
8.9,-0.01903
8.904,-0.02701
8.908,-0.04861
8.912,-0.02898
8.916,-0.02894
8.92,-0.03768
8.924,-0.04569
8.928,0.00553
8.932,-0.00342
8.936,-0.04627
8.94,-0.05102
8.944,-0.06165
8.948,-0.11264
8.952,-0.12763
8.956,-0.12269
8.96,-0.05671
8.964,0.05371
8.968,0.25954
8.972,0.50858
8.976,0.70484
8.98,0.81183
8.984,0.97537
8.988,0.976
8.992,0.84561
8.996,0.66867
9.0,0.41769
9.004,0.24228
9.008,0.01852
9.012,-0.0865
9.016,-0.16064
9.02,-0.19298
9.024,-0.13096
9.028,-0.09743
9.032,-0.07281
9.036,-0.0408
9.04,-0.0201
9.044,-0.04143
9.048,-0.04836
9.052,-0.03794
9.056,-0.01511
9.06,-0.02252
9.064,0.00598
9.068,0.00044
9.072,-0.01467
9.076,-0.03221
9.08,-0.01788
9.084,0.02987
9.088,-0.01197
9.092,-0.02247
9.096,-0.02022
9.1,-0.01471
9.104,-0.01579
9.108,-0.0284
9.112,-0.02989
9.116,-0.01044
9.12,-0.0392
9.124,-0.03893
9.128,-0.0208
9.132,-0.026
9.136,-0.02765
9.14,-0.00952
9.144,-0.00618
9.148,-0.01382
9.152,-0.00343
9.156,-0.00781
9.16,-0.01098
9.164,0.01048
9.168,0.00097
9.172,0.01039
9.176,0.00614
9.18,0.01373
9.184,0.00223
9.188,0.03865
9.192,0.01104
9.196,0.04463
9.2,0.03692
9.204,0.08241
9.208,0.04446
9.212,0.09214
9.216,0.07131
9.22,0.10943
9.224,0.11609
9.228,0.12178
9.232,0.1368
9.236,0.17834
9.24,0.1739
9.244,0.16721
9.248,0.174
9.252,0.177
9.256,0.20229
9.26,0.20324
9.264,0.20027
9.268,0.21873
9.272,0.19575
9.276,0.20718
9.28,0.16631
9.284,0.17803
9.288,0.19198
9.292,0.14734
9.296,0.16294
9.3,0.11153
9.304,0.17184
9.308,0.08647
9.312,0.12919
9.316,0.07388
9.32,0.07071
9.324,0.05291
9.328,0.08019
9.332,0.05232
9.336,0.03256
9.34,0.02116
9.344,0.03084
9.348,0.00289
9.352,0.01985
9.356,0.00298
9.36,0.01364
9.364,0.00898
9.368,-0.00929
9.372,0.01429
9.376,-0.01381
9.38,-0.02479
9.384,-0.04864
9.388,-0.00858
9.392,-0.01427
9.396,-0.03116
9.4,-0.0358
9.404,-0.01592
9.408,-0.0383
9.412,-0.04223
9.416,-0.01805
9.42,-0.03451
9.424,-0.05251
9.428,-0.03814
9.432,-0.00195
9.436,-0.03974
9.44,-0.02755
9.444,-0.00518
9.448,-0.03043
9.452,0.0024
9.456,-0.03791
9.46,-0.00234
9.464,-0.03502
9.468,-0.0158
9.472,-0.04088
9.476,-0.03601
9.48,-0.04894
9.484,-0.01149
9.488,-0.02316
9.492,-0.03629
9.496,-0.02894
9.5,-0.0155
9.504,-0.04746
9.508,-0.01461
9.512,-0.02989
9.516,-0.06708
9.52,-0.023
9.524,-0.02409
9.528,-0.02293
9.532,-0.05282
9.536,-0.03772
9.54,-0.02588
9.544,-0.04149
9.548,-0.0206
9.552,-0.04983
9.556,-0.02416
9.56,-0.01066
9.564,-0.06178
9.568,-0.03177
9.572,-0.04969
9.576,-0.01586
9.58,-0.02387
9.584,0.01124
9.588,-0.01698
9.592,-0.02381
9.596,0.01008
9.6,-0.00371
9.604,0.03811
9.608,0.03687
9.612,0.01069
9.616,0.03563
9.62,0.04518
9.624,0.0623
9.628,0.0843
9.632,0.08127
9.636,0.05424
9.64,0.06724
9.644,0.05973
9.648,0.07932
9.652,0.02052
9.656,0.026
9.66,0.0044
9.664,-0.02163
9.668,-0.04014
9.672,-0.01523
9.676,-0.00059
9.68,-0.02151
9.684,-0.00341
9.688,-0.02555
9.692,-0.04146
9.696,-0.04617
9.7,-0.02078
9.704,-0.02784
9.708,-0.03668
9.712,-0.04639
9.716,-0.04213
9.72,-0.01757
9.724,0.02475
9.728,-0.0432
9.732,-0.0205
9.736,-0.0413
9.74,-0.01141
9.744,-0.04133
9.748,-0.06505
9.752,-0.11037
9.756,-0.13679
9.76,-0.13991
9.764,-0.0639
9.768,0.03784
9.772,0.2258
9.776,0.44294
9.78,0.64936
9.784,0.84313
9.788,0.93147
9.792,0.96828
9.796,0.825
9.8,0.6785
9.804,0.43419
9.808,0.21031
9.812,0.03367
9.816,-0.11387
9.82,-0.18624
9.824,-0.1963
9.828,-0.18516
9.832,-0.14293
9.836,-0.07655
9.84,-0.06656
9.844,-0.04388
9.848,-0.03989
9.852,-0.03305
9.856,-0.00602
9.86,-0.05541
9.864,-0.03013
9.868,-0.00912
9.872,-0.05558
9.876,-0.0304
9.88,-0.02299
9.884,-0.0484
9.888,-0.03102
9.892,-0.05366
9.896,-0.04482
9.9,-0.0016
9.904,-0.03613
9.908,0.00992
9.912,-0.04107
9.916,-0.0361
9.92,-0.03685
9.924,-0.02329
9.928,-0.01557
9.932,-0.03719
9.936,-0.0188
9.94,-0.03079
9.944,-0.00343
9.948,-0.00063
9.952,-0.03107
9.956,-0.00857
9.96,-0.01446
9.964,-0.01871
9.968,-0.02496
9.972,-0.03376
9.976,0.00564
9.98,0.00704
9.984,0.01697
9.988,0.01596
9.992,0.00795
9.996,0.03649
