t_seg,ecg_mV
0.0,-0.03533
0.004,-0.05595
0.008,-0.02902
0.012,-0.03292
0.016,-0.00604
0.02,-0.04059
0.024,-0.01599
0.028,-0.02853
0.032,-0.01376
0.036,-0.02397
0.04,-0.06324
0.044,-0.04458
0.048,-0.04796
0.052,-0.03669
0.056,-0.01852
0.06,-0.02391
0.064,-0.04519
0.068,-0.05561
0.072,-0.04126
0.076,-0.03656
0.08,-0.01843
0.084,-0.04143
0.088,-0.03462
0.092,-0.011
0.096,-0.03395
0.1,-0.02834
0.104,-0.02647
0.108,-0.0312
0.112,-0.02126
0.116,-0.03934
0.12,-0.04518
0.124,-0.0509
0.128,-0.03464
0.132,-0.01783
0.136,-0.05403
0.14,-0.03759
0.144,-0.02527
0.148,-0.03054
0.152,-0.03017
0.156,-0.03117
0.16,-0.04123
0.164,-0.02614
0.168,-0.02385
0.172,-0.05569
0.176,-0.05956
0.18,-0.03398
0.184,-0.05471
0.188,-0.02635
0.192,-0.01399
0.196,-0.03574
0.2,-0.01249
0.204,-0.03154
0.208,-0.05444
0.212,-0.02047
0.216,-0.03094
0.22,-0.02544
0.224,-0.02522
0.228,-0.0195
0.232,-0.03199
0.236,-0.06247
0.24,-0.03974
0.244,-0.0072
0.248,-0.06738
0.252,-0.03085
0.256,-0.04385
0.26,-0.03077
0.264,-0.01566
0.268,-0.04846
0.272,-0.03081
0.276,-0.04012
0.28,-0.04331
0.284,-0.02043
0.288,-0.02592
0.292,-0.03742
0.296,-0.02991
0.3,-0.01737
0.304,-0.01632
0.308,-0.05199
0.312,-0.02708
0.316,-0.02778
0.32,-0.03208
0.324,-0.03255
0.328,-0.04583
0.332,-0.01931
0.336,-0.03127
0.34,-0.02774
0.344,-0.01291
0.348,-0.02231
0.352,0.0001
0.356,0.01261
0.36,0.01451
0.364,0.02998
0.368,0.06251
0.372,0.05973
0.376,0.07747
0.38,0.06565
0.384,0.07486
0.388,0.09009
0.392,0.07623
0.396,0.06433
0.4,0.02167
0.404,0.04231
0.408,0.02382
0.412,-0.00282
0.416,0.01599
0.42,0.00133
0.424,-0.01908
0.428,-0.03799
0.432,-0.02069
0.436,-0.03352
0.44,-0.02061
0.444,-0.01876
0.448,-0.03127
0.452,-0.0296
0.456,-0.0019
0.46,-0.00592
0.464,-0.02699
0.468,-0.02405
0.472,-0.03002
0.476,-0.02947
0.48,-0.03108
0.484,-0.03553
0.488,-0.03638
0.492,-0.00527
0.496,-0.03753
0.5,-0.07578
0.504,-0.0968
0.508,-0.10746
0.512,-0.14418
0.516,-0.10469
0.52,0.03142
0.524,0.15426
0.528,0.36389
0.532,0.56577
0.536,0.76029
0.54,0.92414
0.544,0.96021
0.548,0.92444
0.552,0.7775
0.556,0.52818
0.56,0.29065
0.564,0.09935
0.568,-0.05596
0.572,-0.14108
0.576,-0.18673
0.58,-0.18317
0.584,-0.1362
0.588,-0.10595
0.592,-0.07719
0.596,-0.05972
0.6,-0.03136
0.604,-0.02106
0.608,-0.04046
0.612,-0.02014
0.616,-0.02884
0.62,-0.00152
0.624,-0.03378
0.628,-0.03468
0.632,-0.00257
0.636,-0.01819
0.64,-0.02493
0.644,-0.01851
0.648,-0.0168
0.652,-0.00377
0.656,-0.00696
0.66,-0.00803
0.664,-0.01455
0.668,-0.0394
0.672,-0.01825
0.676,-0.04185
0.68,-0.03464
0.684,-0.00899
0.688,-0.00279
0.692,-0.01959
0.696,-0.03237
0.7,-0.02939
0.704,0.00276
0.708,-0.02283
0.712,-0.01637
0.716,0.00833
0.72,-0.0076
0.724,-0.01747
0.728,0.00161
0.732,0.00266
0.736,-0.00967
0.74,0.01889
0.744,0.02109
0.748,0.02792
0.752,0.04095
0.756,0.06089
0.76,0.0786
0.764,0.08179
0.768,0.08257
0.772,0.10507
0.776,0.09149
0.78,0.14249
0.784,0.13153
0.788,0.1272
0.792,0.15558
0.796,0.19744
0.8,0.1999
0.804,0.20508
0.808,0.18702
0.812,0.19381
0.816,0.21153
0.82,0.22443
0.824,0.21496
0.828,0.19032
0.832,0.2307
0.836,0.17427
0.84,0.19345
0.844,0.18278
0.848,0.16408
0.852,0.14436
0.856,0.13585
0.86,0.12727
0.864,0.12442
0.868,0.13321
0.872,0.09317
0.876,0.10985
0.88,0.07301
0.884,0.06851
0.888,0.04742
0.892,0.03325
0.896,0.06908
0.9,0.01229
0.904,0.03332
0.908,0.03601
0.912,0.00429
0.916,0.00323
0.92,-0.01288
0.924,0.0044
0.928,-0.01169
0.932,-0.00379
0.936,-0.02292
0.94,0.02098
0.944,-0.00509
0.948,-0.01526
0.952,-0.01285
0.956,0.00129
0.96,-0.03909
0.964,-0.01595
0.968,-0.01843
0.972,-0.00757
0.976,-0.00676
0.98,0.0099
0.984,-0.06437
0.988,-0.00725
0.992,-0.03824
0.996,-0.02065
1.0,-0.02587
1.004,-0.0311
1.008,0.00239
1.012,0.00658
1.016,-0.03067
1.02,-0.00463
1.024,-0.03663
1.028,-0.00941
1.032,-0.02975
1.036,-0.03572
1.04,-0.01074
1.044,-0.00304
1.048,-0.02946
1.052,-0.0255
1.056,-0.02739
1.06,-0.01611
1.064,-0.02142
1.068,-0.01327
1.072,-0.0072
1.076,-0.01009
1.08,-0.03246
1.084,-0.01369
1.088,-0.03715
1.092,-0.01151
1.096,0.00418
1.1,0.00526
1.104,0.00473
1.108,-0.04608
1.112,-0.0076
1.116,-0.01803
1.12,-0.02795
1.124,-0.0306
1.128,-0.00403
1.132,-0.00248
1.136,-0.04426
1.14,0.00121
1.144,0.00819
1.148,-0.0245
1.152,0.00635
1.156,-0.00991
1.16,0.01313
1.164,0.03272
1.168,0.01685
1.172,0.03879
1.176,0.00958
1.18,0.06408
1.184,0.02303
1.188,0.03256
1.192,0.08775
1.196,0.06762
1.2,0.07385
1.204,0.06996
1.208,0.07596
1.212,0.07123
1.216,0.05066
1.22,0.05662
1.224,0.0388
1.228,0.00652
1.232,0.00522
1.236,0.02215
1.24,0.01509
1.244,-0.00648
1.248,-0.02284
1.252,-0.01393
1.256,-0.02447
1.26,0.02239
1.264,-0.00353
1.268,-0.0081
1.272,-0.01221
1.276,-0.01557
1.28,-0.00949
1.284,-0.0037
1.288,-0.00354
1.292,0.03141
1.296,-0.01073
1.3,-0.02054
1.304,0.00231
1.308,-0.01716
1.312,-0.00384
1.316,-0.04945
1.32,-0.08652
1.324,-0.10437
1.328,-0.13706
1.332,-0.11405
1.336,-0.06044
1.34,0.13485
1.344,0.29258
1.348,0.49441
1.352,0.70263
1.356,0.89038
1.36,0.99213
1.364,0.96558
1.368,0.84547
1.372,0.63535
1.376,0.4314
1.38,0.19488
1.384,-0.00918
1.388,-0.10667
1.392,-0.16304
1.396,-0.15476
1.4,-0.13013
1.404,-0.08784
1.408,-0.0729
1.412,-0.03843
1.416,-0.01314
1.42,-0.02361
1.424,-0.00807
1.428,-0.01742
1.432,0.00455
1.436,0.00992
1.44,-0.01995
1.444,0.00303
1.448,-0.01039
1.452,0.00356
1.456,0.00448
1.46,-0.00226
1.464,-0.0219
1.468,0.01061
1.472,-0.00809
1.476,-0.00422
1.48,0.00413
1.484,-0.00068
1.488,-0.0286
1.492,-0.03295
1.496,-0.01192
1.5,-0.00888
1.504,-0.00931
1.508,0.03496
1.512,0.01869
1.516,0.01325
1.52,-0.00395
1.524,0.0187
1.528,0.01829
1.532,0.01934
1.536,-0.00468
1.54,-0.00909
1.544,0.02122
1.548,0.03273
1.552,0.01357
1.556,-0.00375
1.56,0.06693
1.564,0.04929
1.568,0.05118
1.572,0.08247
1.576,0.06659
1.58,0.0784
1.584,0.11398
1.588,0.09765
1.592,0.11355
1.596,0.12776
1.6,0.15409
1.604,0.15849
1.608,0.13291
1.612,0.17487
1.616,0.16938
1.62,0.20975
1.624,0.1759
1.628,0.20248
1.632,0.19239
1.636,0.24461
1.64,0.19714
1.644,0.25019
1.648,0.20671
1.652,0.22398
1.656,0.20852
1.66,0.20956
1.664,0.21151
1.668,0.16722
1.672,0.16214
1.676,0.1704
1.68,0.11554
1.684,0.12838
1.688,0.10814
1.692,0.11886
1.696,0.10993
1.7,0.11502
1.704,0.07758
1.708,0.06193
1.712,0.05255
1.716,0.05179
1.72,0.0383
1.724,0.05302
1.728,0.04914
1.732,0.05263
1.736,0.03065
1.74,0.02961
1.744,0.00283
1.748,-0.00132
1.752,0.00367
1.756,0.00959
1.76,0.01572
1.764,0.00716
1.768,0.00036
1.772,0.02247
1.776,-0.00184
1.78,0.00284
1.784,0.01509
1.788,-0.02422
1.792,0.01394
1.796,0.00689
1.8,0.001
1.804,0.03879
1.808,0.04644
1.812,0.00207
1.816,-0.00179
1.82,0.03149
1.824,0.01905
1.828,0.03131
1.832,0.05992
1.836,0.06263
1.84,0.08135
1.844,0.10179
1.848,0.11899
1.852,0.1115
1.856,0.11453
1.86,0.08975
1.864,0.1151
1.868,0.08143
1.872,0.06748
1.876,0.06064
1.88,0.05577
1.884,0.01149
1.888,0.02646
1.892,-0.00105
1.896,0.01893
1.9,0.00149
1.904,0.02375
1.908,-0.02195
1.912,-0.00902
1.916,-0.00541
1.92,-0.00556
1.924,0.00859
1.928,0.01705
1.932,-0.02546
1.936,0.01018
1.94,-0.01386
1.944,0.00479
1.948,-0.01685
1.952,-0.00686
1.956,0.01012
1.96,-0.00526
1.964,-0.02806
1.968,-0.01237
1.972,-0.05562
1.976,-0.13197
1.98,-0.13561
1.984,-0.08365
1.988,-0.00438
1.992,0.14158
1.996,0.33583
2.0,0.57936
2.004,0.76553
2.008,0.93054
2.012,1.01263
2.016,0.98629
2.02,0.82676
2.024,0.63706
2.028,0.40269
2.032,0.21144
2.036,0.05201
2.04,-0.09744
2.044,-0.14438
2.048,-0.16533
2.052,-0.13536
2.056,-0.06574
2.06,-0.03694
2.064,-0.0337
2.068,-0.01389
2.072,0.03133
2.076,0.02341
2.08,0.02237
2.084,-0.00158
2.088,0.02905
2.092,-0.00686
2.096,0.0246
2.1,0.00429
2.104,0.02927
2.108,0.03344
2.112,-0.01066
2.116,-0.01232
2.12,-0.00653
2.124,0.02913
2.128,-0.01214
2.132,0.01758
2.136,-0.01469
2.14,0.00085
2.144,0.00638
2.148,0.00913
2.152,0.02453
2.156,0.02413
2.16,0.02819
2.164,-0.00146
2.168,0.00027
2.172,-0.0154
2.176,0.02686
2.18,0.02385
2.184,0.02449
2.188,0.04927
2.192,0.03705
2.196,0.04075
2.2,0.01507
2.204,0.04614
2.208,0.03015
2.212,0.08233
2.216,0.04881
2.22,0.07535
2.224,0.07745
2.228,0.10435
2.232,0.10629
2.236,0.10474
2.24,0.15
2.244,0.1443
2.248,0.15338
2.252,0.17727
2.256,0.17039
2.26,0.18848
2.264,0.17864
2.268,0.19687
2.272,0.20971
2.276,0.22626
2.28,0.25129
2.284,0.21198
2.288,0.25211
2.292,0.26028
2.296,0.26169
2.3,0.23121
2.304,0.22429
2.308,0.18389
2.312,0.20685
2.316,0.22003
2.32,0.19781
2.324,0.19119
2.328,0.18305
2.332,0.15338
2.336,0.15755
2.34,0.12729
2.344,0.11194
2.348,0.11745
2.352,0.09772
2.356,0.08284
2.36,0.11439
2.364,0.10842
2.368,0.06683
2.372,0.08421
2.376,0.06901
2.38,0.05443
2.384,0.04212
2.388,0.02304
2.392,0.0011
2.396,0.04998
2.4,0.00952
2.404,0.00604
2.408,0.03042
2.412,0.00864
2.416,0.00448
2.42,0.01802
2.424,-0.02473
2.428,0.01917
2.432,0.01253
2.436,0.0171
2.44,0.03697
2.444,0.01305
2.448,0.03915
2.452,0.00509
2.456,0.02987
2.46,0.0109
2.464,0.02685
2.468,0.00983
2.472,-0.01331
2.476,0.00158
2.48,-0.01573
2.484,0.02482
2.488,-0.00085
2.492,0.02115
2.496,0.00773
2.5,0.05034
2.504,0.01854
2.508,0.02043
2.512,0.00752
2.516,-0.00366
2.52,0.01493
2.524,0.0366
2.528,0.0261
2.532,0.02708
2.536,0.01214
2.54,0.01027
2.544,0.00596
2.548,0.00319
2.552,0.01145
2.556,0.0213
2.56,0.02843
2.564,0.0325
2.568,0.02575
2.572,0.02414
2.576,0.01459
2.58,0.01444
2.584,0.03526
2.588,0.03788
2.592,0.01432
2.596,0.03812
2.6,0.01992
2.604,0.02428
2.608,0.05523
2.612,0.05773
2.616,0.04273
2.62,0.05855
2.624,0.0688
2.628,0.06069
2.632,0.0871
2.636,0.09384
2.64,0.11954
2.644,0.11436
2.648,0.11129
2.652,0.12661
2.656,0.12468
2.66,0.11067
2.664,0.08894
2.668,0.10587
2.672,0.04704
2.676,0.07952
2.68,0.05615
2.684,0.04
2.688,0.03775
2.692,-0.0004
2.696,0.03693
2.7,0.00973
2.704,0.02064
2.708,0.02971
2.712,0.03335
2.716,0.02956
2.72,0.03446
2.724,0.04619
2.728,0.0229
2.732,0.02508
2.736,0.02067
2.74,0.01293
2.744,-0.01505
2.748,0.02061
2.752,0.02559
2.756,0.00192
2.76,0.02017
2.764,-0.00318
2.768,-0.02538
2.772,-0.08568
2.776,-0.06955
2.78,-0.0839
2.784,0.00259
2.788,0.15238
2.792,0.34256
2.796,0.55618
2.8,0.76289
2.804,0.92118
2.808,1.03884
2.812,1.00976
2.816,0.88705
2.82,0.68523
2.824,0.44639
2.828,0.20309
2.832,0.05043
2.836,-0.05428
2.84,-0.12427
2.844,-0.12337
2.848,-0.09154
2.852,-0.05705
2.856,-0.0244
2.86,0.01588
2.864,0.00883
2.868,0.00631
2.872,0.0601
2.876,0.01516
2.88,0.00858
2.884,0.00999
2.888,0.04365
2.892,0.02187
2.896,0.03461
2.9,0.05428
2.904,0.03642
2.908,0.04643
2.912,0.04918
2.916,0.0325
2.92,0.05992
2.924,0.04354
2.928,0.0144
2.932,0.0383
2.936,0.04606
2.94,0.04155
2.944,0.04515
2.948,0.05771
2.952,0.02236
2.956,0.02637
2.96,0.03329
2.964,0.03421
2.968,0.02506
2.972,0.01758
2.976,0.03318
2.98,0.0283
2.984,0.04142
2.988,0.03871
2.992,0.03324
2.996,0.06839
3.0,0.08288
3.004,0.04782
3.008,0.09448
3.012,0.06299
3.016,0.10024
3.02,0.11523
3.024,0.07702
3.028,0.10859
3.032,0.12913
3.036,0.12146
3.04,0.15815
3.044,0.14383
3.048,0.15934
3.052,0.17503
3.056,0.19604
3.06,0.19852
3.064,0.22581
3.068,0.23145
3.072,0.24017
3.076,0.23796
3.08,0.23276
3.084,0.24741
3.088,0.27484
3.092,0.25457
3.096,0.24545
3.1,0.23972
3.104,0.21533
3.108,0.23037
3.112,0.22082
3.116,0.21371
3.12,0.20802
3.124,0.20906
3.128,0.19602
3.132,0.17667
3.136,0.16367
3.14,0.1605
3.144,0.1315
3.148,0.12885
3.152,0.10358
3.156,0.10367
3.16,0.11888
3.164,0.10276
3.168,0.0768
3.172,0.07715
3.176,0.06436
3.18,0.0127
3.184,0.03899
3.188,0.03484
3.192,0.04415
3.196,0.06128
3.2,0.05792
3.204,0.04032
3.208,0.06526
3.212,0.03145
3.216,0.01196
3.22,0.04126
3.224,0.02803
3.228,0.02773
3.232,0.0076
3.236,0.03777
3.24,0.02648
3.244,0.01545
3.248,0.0237
3.252,0.00792
3.256,0.02357
3.26,0.03736
3.264,0.03549
3.268,0.02965
3.272,0.0406
3.276,0.01543
3.28,0.04791
3.284,0.03346
3.288,0.02061
3.292,0.01349
3.296,0.05369
3.3,0.0159
3.304,0.05416
3.308,0.02038
3.312,0.03972
3.316,0.03817
3.32,0.0487
3.324,0.05955
3.328,0.04458
3.332,0.05054
3.336,0.04835
3.34,0.01808
3.344,0.05545
3.348,0.04217
3.352,0.02797
3.356,0.02706
3.36,0.04616
3.364,0.00708
3.368,0.03582
3.372,0.05547
3.376,0.04276
3.38,0.03343
3.384,0.04068
3.388,0.05685
3.392,0.03166
3.396,0.06022
3.4,0.06557
3.404,0.05109
3.408,0.03346
3.412,0.05739
3.416,0.08405
3.42,0.09869
3.424,0.09943
3.428,0.10238
3.432,0.10256
3.436,0.12271
3.44,0.13037
3.444,0.11379
3.448,0.12663
3.452,0.07922
3.456,0.10671
3.46,0.08903
3.464,0.06616
3.468,0.06881
3.472,0.05994
3.476,0.07291
3.48,0.02421
3.484,0.05001
3.488,0.05462
3.492,0.05712
3.496,0.02299
3.5,0.00226
3.504,0.06185
3.508,0.02124
3.512,0.03362
3.516,0.023
3.52,0.03334
3.524,0.00734
3.528,0.03093
3.532,0.04123
3.536,0.0389
3.54,0.0477
3.544,0.02881
3.548,0.02556
3.552,0.01443
3.556,0.02243
3.56,-0.03529
3.564,-0.063
3.568,-0.09496
3.572,-0.05737
3.576,0.0095
3.58,0.14429
3.584,0.30765
3.588,0.50126
3.592,0.76419
3.596,0.89069
3.6,1.03939
3.604,1.01604
3.608,0.88444
3.612,0.70458
3.616,0.45764
3.62,0.2434
3.624,0.05884
3.628,-0.07415
3.632,-0.12482
3.636,-0.12008
3.64,-0.10595
3.644,-0.09016
3.648,-0.02186
3.652,0.02032
3.656,0.00822
3.66,0.03621
3.664,0.02891
3.668,0.03218
3.672,0.01049
3.676,0.05427
3.68,0.02319
3.684,0.00484
3.688,0.02244
3.692,0.06372
3.696,0.01758
3.7,0.02425
3.704,0.02584
3.708,0.03828
3.712,0.03751
3.716,0.02492
3.72,0.00979
3.724,0.04855
3.728,0.024
3.732,0.03951
3.736,0.04747
3.74,0.02001
3.744,0.02584
3.748,0.03551
3.752,0.01594
3.756,0.02334
3.76,0.04191
3.764,0.02471
3.768,0.0282
3.772,0.02583
3.776,0.01634
3.78,0.05075
3.784,0.04997
3.788,0.0609
3.792,0.03688
3.796,0.06164
3.8,0.05069
3.804,0.08166
3.808,0.08523
3.812,0.08647
3.816,0.09182
3.82,0.11877
3.824,0.128
3.828,0.16397
3.832,0.15218
3.836,0.14771
3.84,0.1435
3.844,0.18252
3.848,0.20311
3.852,0.22016
3.856,0.239
3.86,0.24754
3.864,0.22765
3.868,0.24342
3.872,0.22612
3.876,0.2426
3.88,0.21998
3.884,0.24233
3.888,0.25314
3.892,0.25463
3.896,0.24052
3.9,0.2244
3.904,0.21642
3.908,0.19218
3.912,0.20898
3.916,0.18928
3.92,0.18896
3.924,0.1799
3.928,0.13377
3.932,0.13773
3.936,0.15761
3.94,0.12341
3.944,0.10521
3.948,0.09663
3.952,0.09379
3.956,0.06475
3.96,0.07158
3.964,0.04276
3.968,0.05622
3.972,0.05865
3.976,0.06757
3.98,0.03996
3.984,0.04858
3.988,0.04099
3.992,0.03203
3.996,0.03781
4.0,0.0096
4.004,0.00454
4.008,0.03688
4.012,0.03745
4.016,0.02696
4.02,0.02355
4.024,0.06888
4.028,0.03078
4.032,0.03268
4.036,0.01559
4.04,0.02672
4.044,0.01718
4.048,0.02447
4.052,0.03552
4.056,0.05247
4.06,0.02101
4.064,0.00013
4.068,0.04368
4.072,0.03959
4.076,0.02561
4.08,-0.01204
4.084,0.03868
4.088,-0.00908
4.092,0.02754
4.096,0.02734
4.1,-0.00358
4.104,0.01962
4.108,0.03347
4.112,0.01321
4.116,0.0235
4.12,0.02121
4.124,0.01495
4.128,0.02964
4.132,0.0506
4.136,0.01994
4.14,0.01085
4.144,0.01303
4.148,0.02506
4.152,0.03415
4.156,0.02699
4.16,0.01971
4.164,0.00378
4.168,0.01066
4.172,0.01472
4.176,0.02483
4.18,0.02979
4.184,0.02495
4.188,0.00881
4.192,0.00659
4.196,0.00307
4.2,0.0374
4.204,-0.00925
4.208,0.01413
4.212,0.01713
4.216,0.02463
4.22,0.00465
4.224,0.02402
4.228,0.01703
4.232,0.04883
4.236,0.02042
4.24,-0.01006
4.244,0.00051
4.248,0.04284
4.252,0.0002
4.256,0.01882
4.26,0.00658
4.264,0.03413
4.268,0.03189
4.272,0.09365
4.276,0.09789
4.28,0.06616
4.284,0.07995
4.288,0.09758
4.292,0.12108
4.296,0.12344
4.3,0.11224
4.304,0.09643
4.308,0.11294
4.312,0.09654
4.316,0.08493
4.32,0.10556
4.324,0.06004
4.328,0.02169
4.332,0.05507
4.336,0.04866
4.34,0.0384
4.344,0.0258
4.348,0.0271
4.352,0.02226
4.356,0.01371
4.36,0.02492
4.364,0.02204
4.368,0.02326
4.372,0.0393
4.376,0.00396
4.38,0.00492
4.384,0.00658
4.388,0.00458
4.392,0.02012
4.396,0.02224
4.4,0.01548
4.404,-0.00313
4.408,0.01295
4.412,0.01134
4.416,0.012
4.42,-0.0407
4.424,-0.08433
4.428,-0.10544
4.432,-0.09331
4.436,0.01072
4.44,0.15288
4.444,0.32472
4.448,0.57935
4.452,0.7708
4.456,0.9223
4.46,1.01647
4.464,0.97714
4.468,0.85152
4.472,0.65746
4.476,0.40252
4.48,0.18096
4.484,0.00707
4.488,-0.1031
4.492,-0.15195
4.496,-0.15393
4.5,-0.12737
4.504,-0.07719
4.508,-0.01534
4.512,0.00025
4.516,0.00625
4.52,0.00994
4.524,0.01579
4.528,0.04125
4.532,0.00069
4.536,0.01618
4.54,0.00052
4.544,0.03041
4.548,0.0169
4.552,0.01574
4.556,0.02905
4.56,0.01429
4.564,0.01529
4.568,0.01701
4.572,0.03666
4.576,0.0164
4.58,0.02255
4.584,0.00396
4.588,0.02624
4.592,0.01395
4.596,0.00996
4.6,-0.00504
4.604,0.02041
4.608,0.01445
4.612,0.01519
4.616,0.02105
4.62,0.05402
4.624,0.02681
4.628,0.0295
4.632,0.02916
4.636,0.01195
4.64,0.02191
4.644,0.02235
4.648,0.02982
4.652,0.05011
4.656,0.06671
4.66,0.03089
4.664,0.04926
4.668,0.05678
4.672,0.08056
4.676,0.10579
4.68,0.10471
4.684,0.10923
4.688,0.14563
4.692,0.10609
4.696,0.14101
4.7,0.15196
4.704,0.1852
4.708,0.18814
4.712,0.19991
4.716,0.21648
4.72,0.22358
4.724,0.22456
4.728,0.2097
4.732,0.23577
4.736,0.2312
4.74,0.22065
4.744,0.24673
4.748,0.24266
4.752,0.22325
4.756,0.20552
4.76,0.22957
4.764,0.19933
4.768,0.18171
4.772,0.18216
4.776,0.16605
4.78,0.15227
4.784,0.16563
4.788,0.14414
4.792,0.11925
4.796,0.12228
4.8,0.09416
4.804,0.06249
4.808,0.09523
4.812,0.06129
4.816,0.04709
4.82,0.04978
4.824,0.03866
4.828,0.03673
4.832,0.00211
4.836,0.03823
4.84,0.01523
4.844,0.00811
4.848,0.00976
4.852,0.02069
4.856,0.03263
4.86,-4e-05
4.864,-0.00661
4.868,0.01131
4.872,0.0308
4.876,-0.01871
4.88,0.01392
4.884,-0.02233
4.888,-0.0016
4.892,-0.01638
4.896,0.01779
4.9,0.01289
4.904,0.03351
4.908,0.00458
4.912,0.01428
4.916,-0.01278
4.92,0.02329
4.924,0.00757
4.928,0.00673
4.932,0.00714
4.936,-0.00776
4.94,-0.00331
4.944,0.02822
4.948,0.02019
4.952,-0.00969
4.956,-0.01055
4.96,0.01738
4.964,0.01246
4.968,0.00502
4.972,-0.02079
4.976,0.02777
4.98,0.02823
4.984,0.0183
4.988,-0.00407
4.992,-0.02893
4.996,-0.00164
5.0,-0.02971
5.004,0.01729
5.008,-0.00056
5.012,0.02202
5.016,-0.00394
5.02,-0.00177
5.024,0.01037
5.028,0.00104
5.032,0.00264
5.036,0.01193
5.04,0.03156
5.044,0.03866
5.048,0.04016
5.052,0.0236
5.056,0.03946
5.06,0.03974
5.064,0.06909
5.068,0.06927
5.072,0.08106
5.076,0.09769
5.08,0.10391
5.084,0.06535
5.088,0.09515
5.092,0.09206
5.096,0.0461
5.1,0.05722
5.104,0.04863
5.108,0.04328
5.112,0.03025
5.116,-0.003
5.12,0.02187
5.124,-0.00704
5.128,0.00085
5.132,0.00283
5.136,-0.02133
5.14,0.00461
5.144,0.02163
5.148,-0.00462
5.152,0.00328
5.156,-0.0031
5.16,0.01362
5.164,0.02177
5.168,0.00055
5.172,-0.00236
5.176,-0.02118
5.18,-0.00112
5.184,-0.00337
5.188,-0.03371
5.192,-0.00664
5.196,-0.04995
5.2,-0.06997
5.204,-0.11165
5.208,-0.09745
5.212,-0.07402
5.216,0.03339
5.22,0.22138
5.224,0.41422
5.228,0.64733
5.232,0.81688
5.236,0.94861
5.24,0.9803
5.244,0.89963
5.248,0.7545
5.252,0.52347
5.256,0.27114
5.26,0.07652
5.264,-0.05116
5.268,-0.13137
5.272,-0.15684
5.276,-0.16462
5.28,-0.12272
5.284,-0.08557
5.288,-0.01432
5.292,-0.01387
5.296,-0.00495
5.3,-0.02473
5.304,-0.0002
5.308,0.01733
5.312,-0.01819
5.316,0.00333
5.32,-0.0132
5.324,-0.01024
5.328,-0.00293
5.332,-0.00814
5.336,-0.01124
5.34,-0.02291
5.344,0.02645
5.348,-0.01108
5.352,0.00233
5.356,-0.00566
5.36,0.00268
5.364,-0.04092
5.368,-0.01532
5.372,0.01934
5.376,-0.01441
5.38,0.01368
5.384,0.01004
5.388,-0.00387
5.392,-0.0107
5.396,-0.00732
5.4,-0.02546
5.404,0.0049
5.408,-0.01947
5.412,0.01017
5.416,0.03794
5.42,0.02391
5.424,-0.00518
5.428,0.0056
5.432,0.03518
5.436,0.02459
5.44,0.03156
5.444,0.03285
5.448,0.04129
5.452,0.05425
5.456,0.09136
5.46,0.0827
5.464,0.11185
5.468,0.12574
5.472,0.12443
5.476,0.11042
5.48,0.15452
5.484,0.15337
5.488,0.1402
5.492,0.18408
5.496,0.16077
5.5,0.18094
5.504,0.19387
5.508,0.20603
5.512,0.19319
5.516,0.2001
5.52,0.19148
5.524,0.24003
5.528,0.2003
5.532,0.20748
5.536,0.21723
5.54,0.18808
5.544,0.17308
5.548,0.16085
5.552,0.17904
5.556,0.16295
5.56,0.1338
5.564,0.13146
5.568,0.10873
5.572,0.08486
5.576,0.0685
5.58,0.09442
5.584,0.0741
5.588,0.05571
5.592,0.02712
5.596,0.04326
5.6,0.02562
5.604,0.01277
5.608,0.05003
5.612,0.00683
5.616,-0.00086
5.62,0.00386
5.624,0.00423
5.628,-0.00644
5.632,-0.012
5.636,0.01031
5.64,-0.02098
5.644,-0.01662
5.648,-0.01042
5.652,-0.01728
5.656,0.01242
5.66,-0.00206
5.664,-0.03167
5.668,-0.02084
5.672,-0.00433
5.676,-0.01299
5.68,-0.03268
5.684,-0.01301
5.688,-0.0086
5.692,-0.04599
5.696,-0.02276
5.7,-0.01973
5.704,-0.0205
5.708,-0.01532
5.712,0.00343
5.716,-0.00377
5.72,-0.00861
5.724,-0.00179
5.728,-0.00689
5.732,-0.00476
5.736,-0.01384
5.74,-0.02368
5.744,-0.03347
5.748,-0.02868
5.752,0.00411
5.756,-0.02049
5.76,-0.0059
5.764,-0.01782
5.768,-0.03798
5.772,-0.02884
5.776,0.00265
5.78,-0.01772
5.784,0.02841
5.788,0.0048
5.792,-0.00144
5.796,0.02525
5.8,-0.02643
5.804,-0.03057
5.808,-0.03124
5.812,-0.01497
5.816,-0.02832
5.82,-0.03151
5.824,-0.01878
5.828,-0.00335
5.832,-0.04414
5.836,-0.01789
5.84,-0.02658
5.844,-0.04206
5.848,-0.05402
5.852,-0.0271
5.856,-0.01967
5.86,-0.02149
5.864,-0.0149
5.868,-0.01731
5.872,-0.00943
5.876,-0.01986
5.88,-0.02935
5.884,-0.02895
5.888,-0.02919
5.892,0.0061
5.896,0.0148
5.9,0.02531
5.904,0.02645
5.908,0.04621
5.912,0.07786
5.916,0.06869
5.92,0.08416
5.924,0.09813
5.928,0.07267
5.932,0.06281
5.936,0.04882
5.94,0.05905
5.944,0.05713
5.948,0.04293
5.952,-0.0001
5.956,0.00159
5.96,0.00968
5.964,0.0095
5.968,-0.00279
5.972,0.00766
5.976,-0.07107
5.98,-0.02516
5.984,-0.0369
5.988,-0.00357
5.992,-0.00354
5.996,-0.02193
6.0,-0.01991
6.004,-0.02169
6.008,-0.03993
6.012,-0.01706
6.016,-0.02386
6.02,0.00794
6.024,0.00762
6.028,-0.02716
6.032,-0.03819
6.036,-0.05079
6.04,-0.06377
6.044,-0.09371
6.048,-0.14031
6.052,-0.14704
6.056,-0.07289
6.06,0.00545
6.064,0.20198
6.068,0.38891
6.072,0.61641
6.076,0.81456
6.08,0.93883
6.084,0.94567
6.088,0.88939
6.092,0.74076
6.096,0.49682
6.1,0.29694
6.104,0.08151
6.108,-0.08539
6.112,-0.16205
6.116,-0.19883
6.12,-0.16623
6.124,-0.13048
6.128,-0.06816
6.132,-0.06019
6.136,-0.02901
6.14,-0.01618
6.144,-0.02927
6.148,-0.01833
6.152,-0.03856
6.156,-0.02907
6.16,-0.03261
6.164,-0.02136
6.168,-0.02952
6.172,-0.02771
6.176,-0.01643
6.18,-0.01449
6.184,-0.00598
6.188,-0.01804
6.192,-0.02602
6.196,-0.03394
6.2,-0.03416
6.204,-0.01085
6.208,-0.05331
6.212,-0.04626
6.216,-0.04858
6.22,-0.01759
6.224,-0.05012
6.228,-0.02936
6.232,-0.04739
6.236,-0.01853
6.24,-0.00837
6.244,-0.026
6.248,-0.01084
6.252,-0.00597
6.256,-0.03274
6.26,0.0003
6.264,-0.02299
6.268,-0.0344
6.272,0.03194
6.276,0.00584
6.28,0.0112
6.284,0.03654
6.288,0.00808
6.292,0.03404
6.296,0.06011
6.3,0.06773
6.304,0.0743
6.308,0.06749
6.312,0.08196
6.316,0.10677
6.32,0.0882
6.324,0.12099
6.328,0.13587
6.332,0.14109
6.336,0.18028
6.34,0.18426
6.344,0.1824
6.348,0.1855
6.352,0.19992
6.356,0.17479
6.36,0.18718
6.364,0.19823
6.368,0.1891
6.372,0.18191
6.376,0.20775
6.38,0.16441
6.384,0.17212
6.388,0.13855
6.392,0.14616
6.396,0.10676
6.4,0.12511
6.404,0.13693
6.408,0.11514
6.412,0.10745
6.416,0.06087
6.42,0.07548
6.424,0.06423
6.428,0.05733
6.432,0.0238
6.436,0.01203
6.44,0.01947
6.444,0.02065
6.448,0.01975
6.452,0.00349
6.456,-0.01851
6.46,0.01591
6.464,-0.01385
6.468,-0.02111
6.472,-0.01764
6.476,-0.01066
6.48,-0.02983
6.484,-0.03557
6.488,-0.04025
6.492,-0.01428
6.496,-0.02128
6.5,-0.00231
6.504,-0.02451
6.508,-0.03939
6.512,-0.02468
6.516,-0.01566
6.52,-0.07284
6.524,-0.01457
6.528,-0.01886
6.532,-0.00595
6.536,-0.00716
6.54,-0.03781
6.544,-0.04223
6.548,-0.02348
6.552,-0.031
6.556,-0.01381
6.56,-0.02878
6.564,-0.02234
6.568,-0.00093
6.572,-0.0401
6.576,-0.03407
6.58,-0.0326
6.584,-0.00803
6.588,-0.0207
6.592,-0.0529
6.596,-0.03287
6.6,-0.00846
6.604,-0.02877
6.608,-0.01634
6.612,-0.03376
6.616,-0.05407
6.62,-0.01935
6.624,-0.02745
6.628,-0.00694
6.632,-0.0285
6.636,-0.02787
6.64,-0.0174
6.644,0.00037
6.648,-0.01806
6.652,0.02089
6.656,0.00021
6.66,0.03283
6.664,0.02641
6.668,0.00188
6.672,0.03918
6.676,0.05322
6.68,0.05042
6.684,0.06123
6.688,0.07855
6.692,0.06438
6.696,0.05273
6.7,0.01914
6.704,0.0244
6.708,0.02358
6.712,0.03286
6.716,0.00407
6.72,-0.00717
6.724,0.00265
6.728,-0.02189
6.732,-0.01307
6.736,0.00595
6.74,-0.04131
6.744,-0.05592
6.748,-0.03216
6.752,-0.04532
6.756,-0.04783
6.76,-0.0368
6.764,-0.04602
6.768,-0.03909
6.772,-0.07123
6.776,-0.01412
6.78,-0.02895
6.784,-0.03254
6.788,-0.02329
6.792,-0.04326
6.796,-0.06017
6.8,-0.04314
6.804,-0.04332
6.808,-0.11266
6.812,-0.11893
6.816,-0.13249
6.82,-0.08704
6.824,0.02551
6.828,0.17696
6.832,0.39286
6.836,0.62873
6.84,0.80751
6.844,0.90116
6.848,0.96614
6.852,0.87931
6.856,0.72898
6.86,0.48171
6.864,0.26412
6.868,0.07311
6.872,-0.1146
6.876,-0.17514
6.88,-0.17021
6.884,-0.18618
6.888,-0.13621
6.892,-0.09672
6.896,-0.06622
6.9,-0.0828
6.904,-0.05351
6.908,-0.01806
6.912,-0.03721
6.916,-0.04738
6.92,-0.03139
6.924,-0.03221
6.928,-0.0429
6.932,-0.04312
6.936,-0.04057
6.94,-0.01942
6.944,-0.01688
6.948,-0.06069
6.952,-0.04291
6.956,-0.02893
6.96,-0.03297
6.964,-0.01829
6.968,-0.01303
6.972,-0.03745
6.976,-0.03318
6.98,-0.01722
6.984,-0.03212
6.988,-0.03828
6.992,-0.00594
6.996,-0.04161
7.0,-0.01891
7.004,0.0109
7.008,-0.00994
7.012,-0.01282
7.016,-0.0101
7.02,0.00818
7.024,0.00683
7.028,0.00922
7.032,-0.00468
7.036,-0.01315
7.04,-0.02039
7.044,0.0391
7.048,0.01541
7.052,0.04066
7.056,0.02353
7.06,0.03823
7.064,0.04501
7.068,0.07058
7.072,0.10618
7.076,0.08632
7.08,0.12431
7.084,0.10677
7.088,0.13859
7.092,0.14901
7.096,0.13061
7.1,0.16717
7.104,0.17853
7.108,0.15503
7.112,0.1782
7.116,0.20828
7.12,0.18405
7.124,0.20595
7.128,0.18874
7.132,0.19007
7.136,0.16259
7.14,0.18582
7.144,0.18076
7.148,0.16739
7.152,0.17063
7.156,0.16563
7.16,0.13544
7.164,0.14498
7.168,0.12755
7.172,0.10476
7.176,0.09246
7.18,0.06179
7.184,0.04737
7.188,0.06693
7.192,0.06842
7.196,0.01983
7.2,0.02179
7.204,0.02044
7.208,-0.00973
7.212,0.01766
7.216,0.01123
7.22,0.01759
7.224,-0.00929
7.228,-0.02754
7.232,-0.00645
7.236,-0.00633
7.24,-0.01603
7.244,-0.02682
7.248,-0.0078
7.252,-0.02037
7.256,-0.02382
7.26,0.00668
7.264,-0.04388
7.268,-0.01581
7.272,-0.05952
7.276,-0.01793
7.28,-0.05237
7.284,0.00441
7.288,-0.01361
7.292,-0.01551
7.296,-0.02976
7.3,-0.0625
7.304,0.01214
7.308,-0.0441
7.312,-0.02434
7.316,-0.02772
7.32,-0.04427
7.324,-0.02863
7.328,-0.03345
7.332,-0.02147
7.336,-0.00481
7.34,-0.02958
7.344,-0.02883
7.348,-0.03629
7.352,-0.0442
7.356,-0.03264
7.36,0.00235
7.364,-0.0161
7.368,-0.02524
7.372,-0.00044
7.376,0.0018
7.38,-0.01984
7.384,-0.03656
7.388,-0.0092
7.392,-0.01923
7.396,0.00631
7.4,-0.02315
7.404,-0.00825
7.408,-0.03092
7.412,-0.00244
7.416,0.01293
7.42,-0.02277
7.424,0.01046
7.428,-0.04992
7.432,-0.0298
7.436,-0.03329
7.44,-0.04801
7.444,-0.05184
7.448,-0.02949
7.452,-0.00018
7.456,0.01576
7.46,-0.01162
7.464,-0.04069
7.468,-0.03017
7.472,-0.02374
7.476,-0.02171
7.48,-0.03156
7.484,-0.03799
7.488,-0.02179
7.492,0.00138
7.496,-0.00364
7.5,-0.04296
7.504,-0.02943
7.508,-0.03103
7.512,-0.00249
7.516,-0.03674
7.52,0.00036
7.524,-0.0245
7.528,-0.01857
7.532,0.00439
7.536,0.0003
7.54,0.0347
7.544,0.03627
7.548,0.04615
7.552,0.05501
7.556,0.05445
7.56,0.05732
7.564,0.05677
7.568,0.08874
7.572,0.08851
7.576,0.07267
7.58,0.05831
7.584,0.04838
7.588,0.03108
7.592,0.00899
7.596,0.00872
7.6,0.03106
7.604,-0.02895
7.608,-0.00545
7.612,-0.03168
7.616,-0.02935
7.62,-0.03039
7.624,-0.02361
7.628,-0.03202
7.632,0.00781
7.636,-0.02744
7.64,-0.02944
7.644,-0.02552
7.648,0.00592
7.652,-0.00698
7.656,-0.01327
7.66,-0.00168
7.664,-0.02007
7.668,-0.01632
7.672,-0.01065
7.676,-0.01408
7.68,-0.02724
7.684,-0.07258
7.688,-0.08367
7.692,-0.12313
7.696,-0.11853
7.7,-0.07598
7.704,0.01473
7.708,0.19937
7.712,0.3722
7.716,0.61796
7.72,0.83031
7.724,0.95306
7.728,0.97127
7.732,0.88984
7.736,0.74005
7.74,0.50568
7.744,0.28078
7.748,0.09785
7.752,-0.10318
7.756,-0.1498
7.76,-0.17659
7.764,-0.18241
7.768,-0.15387
7.772,-0.07591
7.776,-0.02455
7.78,-0.06389
7.784,-0.0159
7.788,-0.02571
7.792,-0.02165
7.796,-0.02609
7.8,-0.01956
7.804,-0.00544
7.808,-0.01944
7.812,-0.0368
7.816,0.00848
7.82,-0.02384
7.824,-0.01798
7.828,-0.02545
7.832,-0.0056
7.836,0.00153
7.84,-0.03087
7.844,-0.01542
7.848,-0.03095
7.852,-0.01493
7.856,-0.01374
7.86,-0.01691
7.864,0.00556
7.868,-0.02006
7.872,0.0151
7.876,-0.01333
7.88,-0.0426
7.884,-0.00377
7.888,-0.00127
7.892,-0.02632
7.896,-0.01204
7.9,-0.02388
7.904,0.00782
7.908,0.00905
7.912,0.00316
7.916,0.02308
7.92,0.03561
7.924,0.00926
7.928,-0.00976
7.932,0.0207
7.936,0.02724
7.94,0.04571
7.944,0.09658
7.948,0.09157
7.952,0.09938
7.956,0.12074
7.96,0.12824
7.964,0.10844
7.968,0.11709
7.972,0.14145
7.976,0.19609
7.98,0.15219
7.984,0.18672
7.988,0.18907
7.992,0.17745
7.996,0.21506
8.0,0.19244
8.004,0.23879
8.008,0.21137
8.012,0.18821
8.016,0.19828
8.02,0.21117
8.024,0.18741
8.028,0.19914
8.032,0.15244
8.036,0.17973
8.04,0.18092
8.044,0.15993
8.048,0.1606
8.052,0.09454
8.056,0.12228
8.06,0.07959
8.064,0.10169
8.068,0.06079
8.072,0.05638
8.076,0.06739
8.08,0.06081
8.084,0.07109
8.088,0.01609
8.092,0.02022
8.096,0.05688
8.1,0.00062
8.104,0.00803
8.108,0.04041
8.112,-0.00994
8.116,-0.00273
8.12,-0.00604
8.124,0.00864
8.128,0.03714
8.132,0.01331
8.136,0.01645
8.14,0.0069
8.144,-0.00714
8.148,0.00463
8.152,-0.01437
8.156,-0.022
8.16,-0.01448
8.164,-0.00203
8.168,-0.00318
8.172,-0.02176
8.176,0.01105
8.18,0.02557
8.184,-0.00233
8.188,-0.02135
8.192,-0.00117
8.196,-0.0184
8.2,-0.003
8.204,-0.02302
8.208,-0.01292
8.212,0.01551
8.216,-0.01059
8.22,-0.01788
8.224,0.00229
8.228,-0.0092
8.232,-0.0054
8.236,-0.01281
8.24,0.00243
8.244,-0.01919
8.248,0.00925
8.252,-0.01476
8.256,0.00291
8.26,-0.01393
8.264,-0.02437
8.268,0.0019
8.272,-0.00785
8.276,-0.00689
8.28,-0.02913
8.284,-0.01919
8.288,-0.00095
8.292,-0.02039
8.296,0.01229
8.3,-0.02438
8.304,-0.00954
8.308,-0.01121
8.312,0.00359
8.316,-0.02924
8.32,-0.02444
8.324,0.03323
8.328,0.03584
8.332,0.01433
8.336,0.01749
8.34,-0.00879
8.344,0.01869
8.348,0.02239
8.352,0.04868
8.356,0.03729
8.36,0.0771
8.364,0.0316
8.368,0.08794
8.372,0.0995
8.376,0.09741
8.38,0.11517
8.384,0.10916
8.388,0.08641
8.392,0.09367
8.396,0.07208
8.4,0.06214
8.404,0.03982
8.408,0.03174
8.412,0.01556
8.416,0.01244
8.42,0.02414
8.424,-0.0031
8.428,-0.01787
8.432,0.00997
8.436,-0.00411
8.44,-0.00104
8.444,0.0121
8.448,0.01488
8.452,-0.00472
8.456,-0.00094
8.46,0.01046
8.464,0.00234
8.468,0.00176
8.472,-0.00722
8.476,-0.00883
8.48,0.01022
8.484,-0.02096
8.488,0.03125
8.492,-0.00069
8.496,-0.01814
8.5,-0.04832
8.504,-0.07246
8.508,-0.10269
8.512,-0.06173
8.516,-0.03913
8.52,0.14204
8.524,0.28296
8.528,0.50622
8.532,0.70771
8.536,0.91246
8.54,0.99978
8.544,0.9809
8.548,0.86248
8.552,0.65314
8.556,0.42547
8.56,0.21731
8.564,0.03724
8.568,-0.09597
8.572,-0.15229
8.576,-0.16781
8.58,-0.12457
8.584,-0.09882
8.588,-0.07314
8.592,-0.00199
8.596,0.00429
8.6,0.01734
8.604,-1e-05
8.608,0.0107
8.612,0.02642
8.616,0.00776
8.62,0.00635
8.624,-0.0
8.628,-0.00649
8.632,-0.00946
8.636,0.03453
8.64,0.00766
8.644,0.03134
8.648,0.01595
8.652,-0.01129
8.656,0.00507
8.66,0.01236
8.664,-0.00203
8.668,-0.00783
8.672,0.00416
8.676,0.03897
8.68,0.02458
8.684,0.02806
8.688,0.04291
8.692,-0.00214
8.696,0.03409
8.7,0.01507
8.704,0.00635
8.708,0.01323
8.712,0.02943
8.716,0.04971
8.72,0.04656
8.724,0.03583
8.728,0.02767
8.732,0.0172
8.736,0.04785
8.74,0.05145
8.744,0.0355
8.748,0.05132
8.752,0.08816
8.756,0.08542
8.76,0.0904
8.764,0.1096
8.768,0.11418
8.772,0.12394
8.776,0.14757
8.78,0.13451
8.784,0.19465
8.788,0.17144
8.792,0.2138
8.796,0.19917
8.8,0.21472
8.804,0.22171
8.808,0.22766
8.812,0.23539
8.816,0.23692
8.82,0.21588
8.824,0.22569
8.828,0.23453
8.832,0.20288
8.836,0.21432
8.84,0.21228
8.844,0.22278
8.848,0.20345
8.852,0.20841
8.856,0.18292
8.86,0.18691
8.864,0.14983
8.868,0.1324
8.872,0.14429
8.876,0.13557
8.88,0.09414
8.884,0.08746
8.888,0.08993
8.892,0.10203
8.896,0.07323
8.9,0.02335
8.904,0.06081
8.908,0.04392
8.912,0.04671
8.916,0.02166
8.92,0.02961
8.924,0.04144
8.928,0.038
8.932,0.0301
8.936,0.02481
8.94,0.02347
8.944,0.02387
8.948,0.00901
8.952,0.01735
8.956,0.03269
8.96,0.03509
8.964,0.03087
8.968,0.03128
8.972,0.00505
8.976,0.0192
8.98,0.02192
8.984,0.00784
8.988,0.0187
8.992,0.02016
8.996,0.00975
9.0,0.03449
9.004,0.01918
9.008,-0.00314
9.012,0.02234
9.016,0.01869
9.02,0.03497
9.024,0.01888
9.028,-0.00886
9.032,0.02113
9.036,0.02558
9.04,0.00873
9.044,0.02899
9.048,0.01492
9.052,0.02593
9.056,0.01624
9.06,0.03729
9.064,0.02141
9.068,0.02033
9.072,0.01787
9.076,0.00975
9.08,0.02711
9.084,0.03215
9.088,0.02586
9.092,0.00424
9.096,0.01829
9.1,0.01029
9.104,0.04239
9.108,0.00933
9.112,0.04213
9.116,0.00865
9.12,-0.00586
9.124,0.01866
9.128,0.03807
9.132,0.0399
9.136,0.01897
9.14,0.02732
9.144,0.02039
9.148,0.04189
9.152,0.03628
9.156,0.07332
9.16,0.0806
9.164,0.08248
9.168,0.07933
9.172,0.08728
9.176,0.09793
9.18,0.0902
9.184,0.12059
9.188,0.12263
9.192,0.1277
9.196,0.07944
9.2,0.09818
9.204,0.08158
9.208,0.05644
9.212,0.07093
9.216,0.03322
9.22,0.05965
9.224,0.02438
9.228,0.02042
9.232,0.03503
9.236,0.03553
9.24,-0.0028
9.244,0.04058
9.248,0.03374
9.252,0.01336
9.256,0.00515
9.26,0.01013
9.264,0.00734
9.268,0.02175
9.272,0.02178
9.276,0.00398
9.28,0.01385
9.284,0.01273
9.288,0.0175
9.292,0.03079
9.296,0.0092
9.3,-0.00804
9.304,-0.04564
9.308,-0.07662
9.312,-0.0925
9.316,-0.0258
9.32,0.06277
9.324,0.19909
9.328,0.40173
9.332,0.64277
9.336,0.8333
9.34,0.9763
9.344,1.01302
9.348,0.95106
9.352,0.78689
9.356,0.56029
9.36,0.35431
9.364,0.11905
9.368,-0.00387
9.372,-0.1
9.376,-0.18037
9.38,-0.12072
9.384,-0.10369
9.388,-0.06013
9.392,0.01168
9.396,-3e-05
9.4,0.02209
9.404,0.02767
9.408,0.01881
9.412,0.0078
9.416,0.04136
9.42,0.02183
9.424,0.03486
9.428,0.00808
9.432,0.01081
9.436,0.02973
9.44,0.03203
9.444,0.02884
9.448,0.0106
9.452,-0.00245
9.456,0.04041
9.46,0.00924
9.464,0.01075
9.468,0.01406
9.472,0.02399
9.476,0.04252
9.48,0.04209
9.484,0.04207
9.488,0.03095
9.492,0.02646
9.496,0.02212
9.5,0.02009
9.504,0.04135
9.508,0.0516
9.512,0.0578
9.516,0.02602
9.52,0.02964
9.524,0.0528
9.528,0.05818
9.532,0.06761
9.536,0.03315
9.54,0.06276
9.544,0.07034
9.548,0.07857
9.552,0.09479
9.556,0.07975
9.56,0.09563
9.564,0.12146
9.568,0.10546
9.572,0.12783
9.576,0.15891
9.58,0.18296
9.584,0.18527
9.588,0.1886
9.592,0.20031
9.596,0.19928
9.6,0.22785
9.604,0.22212
9.608,0.22024
9.612,0.24928
9.616,0.25042
9.62,0.26439
9.624,0.23496
9.628,0.25141
9.632,0.25786
9.636,0.24322
9.64,0.23491
9.644,0.21375
9.648,0.20964
9.652,0.24781
9.656,0.18618
9.66,0.16024
9.664,0.19165
9.668,0.17087
9.672,0.14781
9.676,0.13525
9.68,0.12457
9.684,0.11494
9.688,0.11086
9.692,0.08993
9.696,0.05449
9.7,0.0987
9.704,0.0614
9.708,0.06432
9.712,0.0522
9.716,0.05526
9.72,0.05496
9.724,0.03274
9.728,0.07464
9.732,0.03413
9.736,0.04036
9.74,0.0229
9.744,0.04671
9.748,0.03777
9.752,0.04148
9.756,0.03177
9.76,0.01537
9.764,0.06996
9.768,0.03715
9.772,0.04295
9.776,0.05428
9.78,0.03165
9.784,0.0145
9.788,0.02473
9.792,0.04128
9.796,0.02855
9.8,0.02978
9.804,0.02195
9.808,0.03121
9.812,0.00827
9.816,0.02874
9.82,0.05055
9.824,0.02795
9.828,0.04431
9.832,0.01766
9.836,0.02559
9.84,0.03382
9.844,0.03602
9.848,0.0563
9.852,0.05652
9.856,0.03053
9.86,0.01707
9.864,0.02597
9.868,0.02781
9.872,0.03039
9.876,0.0423
9.88,0.0348
9.884,0.03324
9.888,0.02917
9.892,0.0189
9.896,-0.00901
9.9,0.02849
9.904,0.01493
9.908,0.0281
9.912,0.02864
9.916,0.0217
9.92,0.02219
9.924,-0.0215
9.928,0.0294
9.932,0.04304
9.936,0.05385
9.94,0.02622
9.944,0.03744
9.948,0.02177
9.952,0.04038
9.956,0.02671
9.96,0.03382
9.964,0.02165
9.968,0.03613
9.972,0.01046
9.976,0.03092
9.98,0.02379
9.984,0.04896
9.988,0.02722
9.992,0.01401
9.996,0.04555
