t_seg,ecg_mV
0.0,0.03144
0.004,0.01148
0.008,0.02041
0.012,-0.00496
0.016,0.01656
0.02,0.00658
0.024,-0.00185
0.028,0.01242
0.032,0.00461
0.036,-0.02544
0.04,0.00417
0.044,0.00649
0.048,0.0225
0.052,0.02165
0.056,-0.01621
0.06,0.01138
0.064,-0.02962
0.068,-0.0041
0.072,0.01722
0.076,0.00702
0.08,-0.01921
0.084,0.02405
0.088,0.01019
0.092,0.01346
0.096,0.02879
0.1,0.04381
0.104,0.03618
0.108,0.05783
0.112,0.04996
0.116,0.07245
0.12,0.08599
0.124,0.09798
0.128,0.10347
0.132,0.09037
0.136,0.11801
0.14,0.10352
0.144,0.07136
0.148,0.06194
0.152,0.07372
0.156,0.05223
0.16,0.05999
0.164,0.05189
0.168,0.02181
0.172,-0.0039
0.176,0.01799
0.18,0.01467
0.184,0.01404
0.188,-0.01058
0.192,-0.00258
0.196,0.01824
0.2,0.01571
0.204,0.02519
0.208,-0.02725
0.212,-0.01546
0.216,-0.00357
0.22,-0.03058
0.224,-0.00785
0.228,-0.00109
0.232,-0.01085
0.236,-0.01231
0.24,-0.00286
0.244,0.0031
0.248,-0.01895
0.252,-0.06717
0.256,-0.0857
0.26,-0.12888
0.264,-0.09711
0.268,-0.01669
0.272,0.14636
0.276,0.33471
0.28,0.51854
0.284,0.73879
0.288,0.90527
0.292,0.97472
0.296,0.97093
0.3,0.83362
0.304,0.61318
0.308,0.41009
0.312,0.16977
0.316,-0.00968
0.32,-0.09068
0.324,-0.16191
0.328,-0.14817
0.332,-0.13269
0.336,-0.10168
0.34,-0.05151
0.344,-0.02663
0.348,-0.02992
0.352,0.00984
0.356,-0.05002
0.36,-0.00298
0.364,0.00149
0.368,-0.00635
0.372,0.00101
0.376,0.0175
0.38,-0.0058
0.384,-0.01665
0.388,-0.00802
0.392,0.02702
0.396,0.01919
0.4,-0.02941
0.404,0.00418
0.408,-0.01079
0.412,0.03028
0.416,0.01535
0.42,-0.03347
0.424,0.01492
0.428,-0.02262
0.432,-0.01019
0.436,-0.02335
0.44,-0.00328
0.444,-0.0013
0.448,-0.01705
0.452,-0.00639
0.456,-0.01268
0.46,0.03326
0.464,0.02255
0.468,-0.00457
0.472,0.00041
0.476,0.01633
0.48,0.00079
0.484,0.03907
0.488,0.01477
0.492,0.04291
0.496,0.03987
0.5,0.06931
0.504,0.07548
0.508,0.07199
0.512,0.07181
0.516,0.07809
0.52,0.12186
0.524,0.11958
0.528,0.13657
0.532,0.13643
0.536,0.13067
0.54,0.16405
0.544,0.17278
0.548,0.17987
0.552,0.17081
0.556,0.18266
0.56,0.18261
0.564,0.21031
0.568,0.20488
0.572,0.1991
0.576,0.21722
0.58,0.19837
0.584,0.23556
0.588,0.19592
0.592,0.20865
0.596,0.16653
0.6,0.16525
0.604,0.17605
0.608,0.1322
0.612,0.12851
0.616,0.136
0.62,0.10555
0.624,0.11311
0.628,0.10036
0.632,0.07701
0.636,0.0512
0.64,0.07314
0.644,0.06053
0.648,0.0307
0.652,0.03336
0.656,0.0258
0.66,0.00778
0.664,-0.00713
0.668,-0.02192
0.672,0.0331
0.676,0.01323
0.68,0.00348
0.684,0.01522
0.688,0.02329
0.692,0.0648
0.696,0.02484
0.7,0.05097
0.704,0.04722
0.708,0.05227
0.712,0.07444
0.716,0.0996
0.72,0.08195
0.724,0.07903
0.728,0.08046
0.732,0.06261
0.736,0.03074
0.74,0.04713
0.744,0.01284
0.748,0.02714
0.752,0.01343
0.756,0.0189
0.76,-0.00951
0.764,0.01983
0.768,-0.01274
0.772,-0.02268
0.776,-0.02268
0.78,-0.01292
0.784,0.01793
0.788,0.00329
0.792,-0.01674
0.796,0.00942
0.8,-0.00659
0.804,-0.03409
0.808,-0.04101
0.812,-0.02768
0.816,-0.01092
0.82,-0.01185
0.824,-0.02239
0.828,-0.03694
0.832,-0.02599
0.836,-0.05299
0.84,-0.03272
0.844,-0.11258
0.848,-0.14243
0.852,-0.0943
0.856,-0.06443
0.86,0.0765
0.864,0.25334
0.868,0.48481
0.872,0.70077
0.876,0.87544
0.88,0.94988
0.884,0.93761
0.888,0.89261
0.892,0.65086
0.896,0.4203
0.9,0.23273
0.904,0.03218
0.908,-0.10929
0.912,-0.18019
0.916,-0.17621
0.92,-0.14783
0.924,-0.12662
0.928,-0.06419
0.932,-0.0656
0.936,-0.06684
0.94,-0.02858
0.944,0.00292
0.948,-0.02394
0.952,-0.02211
0.956,-0.04769
0.96,-0.00694
0.964,-0.0295
0.968,-0.04006
0.972,-0.02859
0.976,-0.05259
0.98,-0.02599
0.984,-0.03241
0.988,-0.01943
0.992,-0.05437
0.996,-0.01343
1.0,-0.04352
1.004,-0.03508
1.008,-0.0252
1.012,-0.02376
1.016,-0.01185
1.02,-0.03866
1.024,-0.01723
1.028,-0.01714
1.032,-0.01549
1.036,-0.01052
1.04,-0.01449
1.044,-0.00358
1.048,-0.00645
1.052,-0.01354
1.056,-0.02698
1.06,-0.00939
1.064,0.01606
1.068,-0.0
1.072,0.02813
1.076,0.02753
1.08,0.04581
1.084,0.00405
1.088,0.04751
1.092,0.02503
1.096,0.06141
1.1,0.06255
1.104,0.0659
1.108,0.0896
1.112,0.09041
1.116,0.11072
1.12,0.12193
1.124,0.10786
1.128,0.16407
1.132,0.12733
1.136,0.14642
1.14,0.15617
1.144,0.16972
1.148,0.15027
1.152,0.21793
1.156,0.19895
1.16,0.18156
1.164,0.18433
1.168,0.19767
1.172,0.19541
1.176,0.18815
1.18,0.17172
1.184,0.17537
1.188,0.14962
1.192,0.12971
1.196,0.17532
1.2,0.1332
1.204,0.11465
1.208,0.11477
1.212,0.10519
1.216,0.07296
1.22,0.08937
1.224,0.05338
1.228,0.05298
1.232,0.03087
1.236,0.06398
1.24,0.00242
1.244,0.02378
1.248,0.012
1.252,0.03148
1.256,0.0393
1.26,0.04583
1.264,0.02599
1.268,0.03985
1.272,0.0624
1.276,0.05514
1.28,0.07533
1.284,0.11735
1.288,0.05285
1.292,0.07577
1.296,0.08205
1.3,0.05501
1.304,0.07277
1.308,0.03524
1.312,0.02716
1.316,0.02654
1.32,0.01752
1.324,0.0261
1.328,0.01082
1.332,-0.01178
1.336,0.00817
1.34,-0.03001
1.344,-0.02094
1.348,-0.02381
1.352,-0.03053
1.356,-0.04813
1.36,-0.0089
1.364,-0.04008
1.368,-0.02161
1.372,-0.02251
1.376,-0.03601
1.38,-0.02858
1.384,-0.02195
1.388,-0.01061
1.392,-0.0346
1.396,-0.01952
1.4,-0.0314
1.404,-0.04953
1.408,-0.05373
1.412,-0.11301
1.416,-0.13145
1.42,-0.14207
1.424,-0.09839
1.428,-0.01239
1.432,0.15025
1.436,0.38392
1.44,0.54949
1.444,0.78168
1.448,0.91562
1.452,0.9622
1.456,0.94933
1.46,0.74984
1.464,0.52297
1.468,0.33846
1.472,0.09013
1.476,-0.03864
1.48,-0.158
1.484,-0.18864
1.488,-0.19149
1.492,-0.11088
1.496,-0.10375
1.5,-0.06478
1.504,-0.02479
1.508,-0.02286
1.512,-0.04163
1.516,-0.04709
1.52,-0.06426
1.524,-0.05817
1.528,-0.01984
1.532,-0.02836
1.536,-0.0305
1.54,-0.0196
1.544,-0.00507
1.548,-0.02944
1.552,-0.00633
1.556,-0.03106
1.56,-0.03268
1.564,0.01182
1.568,-0.02645
1.572,-0.03991
1.576,-0.02536
1.58,-0.04787
1.584,-0.0276
1.588,-0.03612
1.592,-0.02448
1.596,-0.00993
1.6,-0.0583
1.604,-0.03445
1.608,-0.01982
1.612,-0.02229
1.616,-0.02791
1.62,0.00216
1.624,-0.00244
1.628,-0.02426
1.632,-0.01802
1.636,-0.02533
1.64,-0.00011
1.644,0.00277
1.648,0.00943
1.652,0.03692
1.656,0.02985
1.66,0.04971
1.664,0.04385
1.668,0.0579
1.672,0.06851
1.676,0.08667
1.68,0.08586
1.684,0.08947
1.688,0.10496
1.692,0.10919
1.696,0.11916
1.7,0.13473
1.704,0.15219
1.708,0.14234
1.712,0.17351
1.716,0.18015
1.72,0.20839
1.724,0.1975
1.728,0.21056
1.732,0.18851
1.736,0.20426
1.74,0.20027
1.744,0.16594
1.748,0.16967
1.752,0.16895
1.756,0.16146
1.76,0.15743
1.764,0.14386
1.768,0.11708
1.772,0.11506
1.776,0.10318
1.78,0.07304
1.784,0.09153
1.788,0.08551
1.792,0.05836
1.796,0.0652
1.8,0.04267
1.804,0.01741
1.808,0.02157
1.812,0.01422
1.816,0.00079
1.82,0.02359
1.824,-0.01188
1.828,-0.02403
1.832,-0.0153
1.836,-0.02163
1.84,-0.03933
1.844,0.00198
1.848,-0.00426
1.852,-0.00498
1.856,-0.03726
1.86,-0.05602
1.864,-0.02472
1.868,-0.03783
1.872,-0.03552
1.876,-0.03142
1.88,-0.02807
1.884,-0.02362
1.888,-0.03002
1.892,-0.02196
1.896,-0.00739
1.9,-0.00482
1.904,0.0089
1.908,0.00404
1.912,0.06478
1.916,0.02723
1.92,0.08896
1.924,0.08288
1.928,0.05593
1.932,0.08666
1.936,0.0939
1.94,0.02939
1.944,0.0276
1.948,0.04302
1.952,0.03625
1.956,0.014
1.96,0.02863
1.964,0.00709
1.968,-0.02101
1.972,-0.01474
1.976,-0.02886
1.98,-0.02279
1.984,-0.04873
1.988,-0.01755
1.992,-0.03163
1.996,-0.03156
2.0,-0.04108
2.004,-0.02084
2.008,-0.03841
2.012,0.00026
2.016,-0.05094
2.02,-0.01685
2.024,-0.03139
2.028,-0.02277
2.032,-0.02613
2.036,-0.03631
2.04,-0.04814
2.044,-0.02481
2.048,-0.04805
2.052,-0.07388
2.056,-0.10684
2.06,-0.14916
2.064,-0.13424
2.068,-0.03693
2.072,0.12889
2.076,0.32477
2.08,0.53699
2.084,0.74016
2.088,0.91399
2.092,0.96705
2.096,0.91071
2.1,0.81942
2.104,0.56229
2.108,0.34441
2.112,0.111
2.116,-0.04404
2.12,-0.14429
2.124,-0.20102
2.128,-0.17661
2.132,-0.15754
2.136,-0.11697
2.14,-0.0686
2.144,-0.02741
2.148,-0.0199
2.152,-0.02858
2.156,-0.01563
2.16,-0.03377
2.164,-0.04674
2.168,-0.02061
2.172,-0.03725
2.176,-0.02287
2.18,-0.02784
2.184,-0.03114
2.188,-0.04839
2.192,-0.02155
2.196,-0.02761
2.2,-0.02044
2.204,-0.0095
2.208,-0.0238
2.212,-0.01968
2.216,-0.03494
2.22,-0.02886
2.224,-0.03575
2.228,-0.03317
2.232,-0.00453
2.236,-0.02763
2.24,-0.02465
2.244,-0.04487
2.248,-0.01053
2.252,-0.03356
2.256,-0.04049
2.26,-0.00769
2.264,-0.02974
2.268,-0.00375
2.272,0.00336
2.276,0.00252
2.28,-0.00243
2.284,0.02952
2.288,0.01685
2.292,-0.00061
2.296,0.00712
2.3,0.00966
2.304,0.02329
2.308,0.06014
2.312,0.05534
2.316,0.08731
2.32,0.08079
2.324,0.09514
2.328,0.10551
2.332,0.11935
2.336,0.11805
2.34,0.13747
2.344,0.15218
2.348,0.15937
2.352,0.15819
2.356,0.17758
2.36,0.20047
2.364,0.21455
2.368,0.18727
2.372,0.21995
2.376,0.19398
2.38,0.1955
2.384,0.17204
2.388,0.18827
2.392,0.19336
2.396,0.16808
2.4,0.17746
2.404,0.14611
2.408,0.12255
2.412,0.12032
2.416,0.12224
2.42,0.07991
2.424,0.06964
2.428,0.08412
2.432,0.0629
2.436,0.0588
2.44,0.03661
2.444,0.03917
2.448,0.0239
2.452,0.01436
2.456,0.03441
2.46,-0.01366
2.464,0.02017
2.468,-0.0256
2.472,-0.01647
2.476,-0.03822
2.48,-0.01446
2.484,0.01024
2.488,-0.00831
2.492,-0.01071
2.496,0.00476
2.5,-0.02542
2.504,-0.02364
2.508,-0.0374
2.512,-0.03537
2.516,0.00364
2.52,-0.02308
2.524,-0.01581
2.528,-0.06031
2.532,-0.03423
2.536,-0.0424
2.54,-0.01341
2.544,-0.03875
2.548,0.00022
2.552,-0.01242
2.556,0.00219
2.56,-0.00871
2.564,-0.01635
2.568,0.00134
2.572,-0.02181
2.576,-0.01717
2.58,-0.01255
2.584,-0.00333
2.588,-0.04061
2.592,-0.01048
2.596,-0.00694
2.6,-0.03001
2.604,0.00478
2.608,-0.04578
2.612,-0.01323
2.616,-0.02057
2.62,-0.00271
2.624,-0.00174
2.628,0.04295
2.632,0.05681
2.636,0.03138
2.64,0.06659
2.644,0.05404
2.648,0.08575
2.652,0.08062
2.656,0.07817
2.66,0.08258
2.664,0.09614
2.668,0.05909
2.672,0.05647
2.676,0.0241
2.68,0.02757
2.684,0.02152
2.688,0.00773
2.692,-0.0128
2.696,0.00613
2.7,-0.02249
2.704,-0.01842
2.708,-0.02105
2.712,-0.0566
2.716,-0.04115
2.72,-0.00819
2.724,-0.03074
2.728,-0.00093
2.732,-0.01679
2.736,-0.01393
2.74,-0.03643
2.744,-0.01734
2.748,-0.00417
2.752,-0.04802
2.756,-0.0198
2.76,-0.02354
2.764,-0.01442
2.768,-0.01537
2.772,-0.03727
2.776,-0.06782
2.78,-0.13489
2.784,-0.14468
2.788,-0.0819
2.792,-0.03116
2.796,0.14944
2.8,0.32725
2.804,0.49529
2.808,0.74066
2.812,0.86583
2.816,0.98775
2.82,0.96609
2.824,0.78563
2.828,0.58731
2.832,0.3611
2.836,0.13402
2.84,-0.01686
2.844,-0.11964
2.848,-0.18223
2.852,-0.17077
2.856,-0.13925
2.86,-0.11377
2.864,-0.08079
2.868,-0.05306
2.872,-0.02216
2.876,-0.00431
2.88,-0.02936
2.884,-0.02561
2.888,-0.02973
2.892,-0.01435
2.896,-0.00047
2.9,-0.03954
2.904,-0.02792
2.908,0.00142
2.912,-0.00624
2.916,-0.01522
2.92,-0.01764
2.924,-0.01159
2.928,0.00712
2.932,-0.02849
2.936,-0.00369
2.94,-0.00224
2.944,0.00785
2.948,-0.01707
2.952,-0.01931
2.956,-0.01049
2.96,-0.00931
2.964,0.00275
2.968,-0.01173
2.972,-0.01
2.976,0.00234
2.98,-0.02168
2.984,-0.00106
2.988,0.0101
2.992,-0.0007
2.996,0.0112
3.0,0.01864
3.004,0.007
3.008,0.03235
3.012,0.01788
3.016,0.04272
3.02,0.01735
3.024,0.0337
3.028,0.07886
3.032,0.06024
3.036,0.06662
3.04,0.08338
3.044,0.09369
3.048,0.10949
3.052,0.12648
3.056,0.14537
3.06,0.14851
3.064,0.13395
3.068,0.17736
3.072,0.15862
3.076,0.19246
3.08,0.22563
3.084,0.2231
3.088,0.20482
3.092,0.2136
3.096,0.21573
3.1,0.20015
3.104,0.17415
3.108,0.21212
3.112,0.18975
3.116,0.18343
3.12,0.19808
3.124,0.14192
3.128,0.14661
3.132,0.1572
3.136,0.15197
3.14,0.12544
3.144,0.10825
3.148,0.09638
3.152,0.06437
3.156,0.07671
3.16,0.07736
3.164,0.05375
3.168,0.07292
3.172,0.06322
3.176,0.02726
3.18,0.01934
3.184,0.03933
3.188,0.03587
3.192,0.02127
3.196,0.03775
3.2,0.02853
3.204,0.0614
3.208,0.0487
3.212,0.0743
3.216,0.05987
3.22,0.09348
3.224,0.08293
3.228,0.06751
3.232,0.09103
3.236,0.10016
3.24,0.09713
3.244,0.07282
3.248,0.06812
3.252,0.08491
3.256,0.02876
3.26,0.0398
3.264,0.00356
3.268,0.00731
3.272,0.02359
3.276,0.05316
3.28,-0.00433
3.284,-0.00556
3.288,-0.02853
3.292,0.00271
3.296,-0.00821
3.3,0.0026
3.304,-0.01803
3.308,-0.01372
3.312,-0.00182
3.316,0.01601
3.32,0.00756
3.324,2e-05
3.328,-0.02063
3.332,-0.00217
3.336,-0.01201
3.34,0.01455
3.344,-0.02913
3.348,-0.04891
3.352,-0.06402
3.356,-0.0801
3.36,-0.13766
3.364,-0.09973
3.368,-0.01013
3.372,0.13532
3.376,0.34804
3.38,0.58263
3.384,0.78208
3.388,0.92614
3.392,1.00739
3.396,0.9663
3.4,0.80872
3.404,0.5867
3.408,0.32063
3.412,0.14954
3.416,-0.00388
3.42,-0.13694
3.424,-0.18319
3.428,-0.15921
3.432,-0.11991
3.436,-0.07049
3.44,-0.05894
3.444,-0.02911
3.448,-0.00443
3.452,-0.00207
3.456,0.00925
3.46,-0.00298
3.464,-0.00788
3.468,-0.00857
3.472,0.01247
3.476,0.00335
3.48,-0.00095
3.484,-0.00843
3.488,0.01907
3.492,0.00079
3.496,-0.02456
3.5,-0.01184
3.504,0.00457
3.508,0.00172
3.512,-0.01025
3.516,0.01464
3.52,0.00336
3.524,0.00656
3.528,-0.00384
3.532,0.00424
3.536,-0.0107
3.54,0.0019
3.544,0.00757
3.548,0.00276
3.552,-0.00195
3.556,0.01377
3.56,0.03533
3.564,-0.00349
3.568,0.00092
3.572,0.01914
3.576,0.01623
3.58,0.02737
3.584,0.01952
3.588,0.03173
3.592,0.02656
3.596,0.02878
3.6,0.06627
3.604,0.06764
3.608,0.05927
3.612,0.09009
3.616,0.09601
3.62,0.14078
3.624,0.1168
3.628,0.14714
3.632,0.14332
3.636,0.19086
3.64,0.18804
3.644,0.19924
3.648,0.22074
3.652,0.20218
3.656,0.19046
3.66,0.19127
3.664,0.23005
3.668,0.1996
3.672,0.21392
3.676,0.22614
3.68,0.22279
3.684,0.22719
3.688,0.19083
3.692,0.19841
3.696,0.18724
3.7,0.18067
3.704,0.18908
3.708,0.17782
3.712,0.16303
3.716,0.13722
3.72,0.1269
3.724,0.14061
3.728,0.09543
3.732,0.10294
3.736,0.08214
3.74,0.09068
3.744,0.08308
3.748,0.07476
3.752,0.06789
3.756,0.03891
3.76,0.01826
3.764,-0.00894
3.768,0.01528
3.772,0.02698
3.776,0.0145
3.78,0.01716
3.784,0.02622
3.788,0.01286
3.792,0.00366
3.796,0.00219
3.8,0.02031
3.804,-0.00953
3.808,-0.00649
3.812,0.01035
3.816,0.0249
3.82,0.00175
3.824,0.01359
3.828,0.01189
3.832,-0.00664
3.836,0.01512
3.84,0.03201
3.844,-0.00385
3.848,0.00785
3.852,-0.01436
3.856,0.0097
3.86,-0.0384
3.864,0.02297
3.868,0.0224
3.872,0.02425
3.876,0.02233
3.88,0.02492
3.884,-0.0013
3.888,0.00233
3.892,0.0216
3.896,0.01777
3.9,-0.00475
3.904,0.01174
3.908,0.01396
3.912,0.0166
3.916,-0.00018
3.92,-0.00562
3.924,0.00682
3.928,0.02131
3.932,0.00127
3.936,0.02835
3.94,0.01156
3.944,-0.01944
3.948,-0.0278
3.952,-0.01628
3.956,0.01467
3.96,0.01407
3.964,0.0226
3.968,0.02492
3.972,0.02804
3.976,0.03237
3.98,0.02562
3.984,0.05928
3.988,0.06447
3.992,0.07101
3.996,0.1053
4.0,0.10483
4.004,0.11362
4.008,0.11236
4.012,0.12657
4.016,0.11605
4.02,0.10378
4.024,0.08892
4.028,0.07199
4.032,0.06563
4.036,0.04492
4.04,0.05069
4.044,0.03007
4.048,0.0236
4.052,0.02738
4.056,0.01939
4.06,0.02705
4.064,0.03108
4.068,0.00858
4.072,0.00785
4.076,0.01645
4.08,-0.00497
4.084,-0.00171
4.088,0.01296
4.092,-0.0033
4.096,0.01586
4.1,-0.01492
4.104,0.00707
4.108,0.02934
4.112,0.00601
4.116,-0.03121
4.12,0.0221
4.124,-0.00963
4.128,-0.05691
4.132,-0.07439
4.136,-0.09504
4.14,-0.07263
4.144,0.0112
4.148,0.17489
4.152,0.38853
4.156,0.56378
4.16,0.78673
4.164,0.97099
4.168,1.02974
4.172,0.97318
4.176,0.84756
4.18,0.65713
4.184,0.41235
4.188,0.20109
4.192,-0.01448
4.196,-0.09139
4.2,-0.1465
4.204,-0.13627
4.208,-0.1356
4.212,-0.06414
4.216,-0.01339
4.22,-0.00812
4.224,0.0064
4.228,0.00478
4.232,0.01966
4.236,0.00536
4.24,0.00016
4.244,-0.0073
4.248,0.01836
4.252,0.02242
4.256,0.00908
4.26,0.0211
4.264,0.02881
4.268,0.01895
4.272,0.02052
4.276,0.00828
4.28,-0.00597
4.284,0.0159
4.288,0.02385
4.292,0.03957
4.296,0.04505
4.3,0.02845
4.304,-0.00604
4.308,0.0335
4.312,0.01703
4.316,0.02128
4.32,0.02683
4.324,0.04889
4.328,0.02258
4.332,0.03788
4.336,0.04037
4.34,0.06446
4.344,0.02227
4.348,0.01841
4.352,0.04553
4.356,0.07077
4.36,0.07592
4.364,0.05311
4.368,0.0628
4.372,0.07089
4.376,0.07204
4.38,0.07782
4.384,0.08895
4.388,0.11636
4.392,0.12539
4.396,0.12193
4.4,0.15799
4.404,0.16528
4.408,0.15025
4.412,0.16221
4.416,0.18644
4.42,0.19591
4.424,0.23235
4.428,0.21826
4.432,0.21695
4.436,0.22772
4.44,0.23141
4.444,0.25136
4.448,0.2506
4.452,0.25046
4.456,0.23071
4.46,0.26047
4.464,0.24626
4.468,0.24235
4.472,0.21266
4.476,0.23825
4.48,0.19578
4.484,0.18788
4.488,0.20067
4.492,0.17587
4.496,0.15314
4.5,0.12688
4.504,0.14352
4.508,0.11991
4.512,0.08969
4.516,0.11903
4.52,0.09931
4.524,0.08472
4.528,0.07671
4.532,0.06964
4.536,0.07142
4.54,0.05282
4.544,0.05461
4.548,0.04559
4.552,0.03008
4.556,0.01996
4.56,0.04629
4.564,0.03894
4.568,0.02664
4.572,0.03319
4.576,0.02604
4.58,0.02613
4.584,0.02363
4.588,-0.00059
4.592,0.04152
4.596,0.05169
4.6,0.01927
4.604,0.02938
4.608,0.00188
4.612,0.03489
4.616,0.03599
4.62,0.00153
4.624,0.00551
4.628,0.02169
4.632,0.04154
4.636,0.01934
4.64,0.04062
4.644,0.01099
4.648,0.03861
4.652,0.01612
4.656,0.05747
4.66,0.02547
4.664,0.05344
4.668,0.0744
4.672,0.07242
4.676,0.08286
4.68,0.07346
4.684,0.10568
4.688,0.10012
4.692,0.15241
4.696,0.12744
4.7,0.11432
4.704,0.11451
4.708,0.10797
4.712,0.1187
4.716,0.08869
4.72,0.08861
4.724,0.03672
4.728,0.04192
4.732,0.07341
4.736,0.01502
4.74,0.02742
4.744,0.02845
4.748,0.03771
4.752,0.05206
4.756,0.04464
4.76,0.00535
4.764,0.04346
4.768,0.06244
4.772,0.04952
4.776,0.00681
4.78,0.03388
4.784,0.02001
4.788,0.02155
4.792,0.02409
4.796,0.01577
4.8,0.0424
4.804,0.01996
4.808,0.03596
4.812,0.02824
4.816,-0.01203
4.82,-0.05635
4.824,-0.08736
4.828,-0.06842
4.832,0.00687
4.836,0.12714
4.84,0.32396
4.844,0.51153
4.848,0.73652
4.852,0.91454
4.856,0.99099
4.86,1.02603
4.864,0.87979
4.868,0.6952
4.872,0.46796
4.876,0.25539
4.88,0.0691
4.884,-0.05058
4.888,-0.14386
4.892,-0.14078
4.896,-0.11996
4.9,-0.05103
4.904,-0.04171
4.908,0.02784
4.912,0.01862
4.916,0.02164
4.92,0.0265
4.924,0.06391
4.928,0.0278
4.932,0.00809
4.936,0.02748
4.94,0.01951
4.944,0.02458
4.948,0.01305
4.952,0.02537
4.956,0.01951
4.96,0.04038
4.964,0.02156
4.968,0.02143
4.972,0.03743
4.976,0.00028
4.98,0.02092
4.984,0.01704
4.988,0.01606
4.992,0.01514
4.996,-0.00221
5.0,0.02611
5.004,0.00247
5.008,0.03994
5.012,0.04125
5.016,0.02746
5.02,0.03478
5.024,0.04043
5.028,0.0143
5.032,0.02934
5.036,0.07572
5.04,0.04215
5.044,0.05842
5.048,0.06431
5.052,0.03946
5.056,0.10021
5.06,0.07654
5.064,0.08453
5.068,0.09043
5.072,0.11486
5.076,0.14695
5.08,0.13123
5.084,0.1511
5.088,0.16239
5.092,0.13751
5.096,0.17339
5.1,0.19215
5.104,0.18188
5.108,0.18706
5.112,0.24916
5.116,0.23046
5.12,0.24895
5.124,0.26663
5.128,0.21625
5.132,0.22495
5.136,0.26182
5.14,0.26028
5.144,0.26543
5.148,0.23868
5.152,0.23736
5.156,0.22442
5.16,0.20972
5.164,0.19412
5.168,0.20386
5.172,0.19099
5.176,0.18053
5.18,0.13393
5.184,0.17718
5.188,0.12523
5.192,0.15449
5.196,0.10369
5.2,0.1253
5.204,0.09272
5.208,0.0968
5.212,0.08499
5.216,0.09539
5.22,0.05774
5.224,0.04725
5.228,0.0527
5.232,0.07137
5.236,0.06659
5.24,0.04035
5.244,0.04968
5.248,0.06005
5.252,0.02868
5.256,0.04233
5.26,0.01922
5.264,0.03103
5.268,0.00998
5.272,0.00522
5.276,0.02107
5.28,0.02991
5.284,0.01455
5.288,0.00858
5.292,0.03577
5.296,0.00575
5.3,0.04352
5.304,0.03116
5.308,0.04143
5.312,0.02048
5.316,0.06233
5.32,0.0192
5.324,0.03287
5.328,0.04947
5.332,0.0298
5.336,0.03736
5.34,0.02194
5.344,0.02197
5.348,0.05319
5.352,0.02603
5.356,0.0146
5.36,0.02955
5.364,0.011
5.368,0.04001
5.372,0.02471
5.376,0.04974
5.38,0.03476
5.384,0.04823
5.388,0.05702
5.392,0.06244
5.396,0.08816
5.4,0.07195
5.404,0.11139
5.408,0.12895
5.412,0.11234
5.416,0.10659
5.42,0.14004
5.424,0.14348
5.428,0.09611
5.432,0.10872
5.436,0.14675
5.44,0.1252
5.444,0.08217
5.448,0.07032
5.452,0.09695
5.456,0.07558
5.46,0.03494
5.464,0.05888
5.468,0.04701
5.472,0.01543
5.476,0.02434
5.48,0.02252
5.484,0.03861
5.488,0.02365
5.492,0.03881
5.496,0.04553
5.5,0.04253
5.504,0.02961
5.508,0.0611
5.512,0.03384
5.516,0.05713
5.52,0.00812
5.524,0.02848
5.528,0.05935
5.532,0.05955
5.536,0.01944
5.54,-0.02504
5.544,-0.05378
5.548,-0.08112
5.552,-0.09161
5.556,-0.03974
5.56,0.09749
5.564,0.29682
5.568,0.46779
5.572,0.68155
5.576,0.87662
5.58,0.99842
5.584,1.0197
5.588,0.93974
5.592,0.71537
5.596,0.52726
5.6,0.28083
5.604,0.09019
5.608,-0.0655
5.612,-0.1184
5.616,-0.13496
5.62,-0.13097
5.624,-0.07859
5.628,-0.04131
5.632,-0.04163
5.636,0.00782
5.64,-0.00797
5.644,0.03143
5.648,0.02836
5.652,0.02705
5.656,0.01521
5.66,-0.00076
5.664,0.03907
5.668,0.02946
5.672,0.03104
5.676,0.00916
5.68,0.02804
5.684,0.00138
5.688,0.01652
5.692,0.01214
5.696,0.02808
5.7,0.03467
5.704,0.03821
5.708,0.04475
5.712,0.05275
5.716,0.00507
5.72,0.04488
5.724,0.0297
5.728,0.01877
5.732,0.00975
5.736,0.04211
5.74,0.02733
5.744,0.05419
5.748,0.04022
5.752,0.02991
5.756,0.02019
5.76,0.03213
5.764,0.04101
5.768,0.0509
5.772,0.04259
5.776,0.02589
5.78,0.08873
5.784,0.10551
5.788,0.06767
5.792,0.11432
5.796,0.12836
5.8,0.1212
5.804,0.08057
5.808,0.10655
5.812,0.13104
5.816,0.15294
5.82,0.1504
5.824,0.20834
5.828,0.186
5.832,0.20357
5.836,0.21518
5.84,0.19773
5.844,0.20648
5.848,0.2787
5.852,0.20644
5.856,0.22049
5.86,0.25039
5.864,0.20665
5.868,0.2694
5.872,0.24373
5.876,0.22448
5.88,0.23142
5.884,0.21897
5.888,0.22658
5.892,0.19933
5.896,0.20757
5.9,0.19206
5.904,0.16123
5.908,0.17052
5.912,0.15727
5.916,0.11728
5.92,0.12344
5.924,0.14162
5.928,0.1057
5.932,0.10776
5.936,0.08502
5.94,0.08291
5.944,0.0589
5.948,0.05261
5.952,0.05494
5.956,0.04782
5.96,0.02453
5.964,0.04871
5.968,0.03934
5.972,0.04249
5.976,0.01331
5.98,0.03041
5.984,0.01406
5.988,0.03262
5.992,0.05026
5.996,0.01253
6.0,0.02742
6.004,0.01672
6.008,0.03731
6.012,0.01841
6.016,0.00637
6.02,0.05445
6.024,0.03687
6.028,0.03774
6.032,0.02027
6.036,0.03311
6.04,0.02686
6.044,0.03889
6.048,0.03809
6.052,0.0363
6.056,0.06726
6.06,0.06674
6.064,0.05983
6.068,0.09844
6.072,0.11174
6.076,0.12569
6.08,0.14484
6.084,0.11918
6.088,0.10878
6.092,0.11396
6.096,0.10671
6.1,0.0792
6.104,0.08918
6.108,0.07068
6.112,0.08469
6.116,0.04508
6.12,0.0501
6.124,0.03465
6.128,0.00949
6.132,0.00884
6.136,0.01513
6.14,-0.00882
6.144,0.01299
6.148,0.01947
6.152,0.00936
6.156,0.01111
6.16,0.00296
6.164,0.02302
6.168,0.03043
6.172,0.03079
6.176,0.03751
6.18,0.01761
6.184,0.00304
6.188,-0.01061
6.192,0.02137
6.196,0.00576
6.2,0.0058
6.204,-0.04633
6.208,-0.0742
6.212,-0.07979
6.216,-0.08735
6.22,-0.0156
6.224,0.15416
6.228,0.29998
6.232,0.52748
6.236,0.75992
6.24,0.91906
6.244,0.98751
6.248,1.01021
6.252,0.85743
6.256,0.6648
6.26,0.42294
6.264,0.1969
6.268,0.02931
6.272,-0.09065
6.276,-0.1476
6.28,-0.13753
6.284,-0.13434
6.288,-0.07357
6.292,-0.01429
6.296,-0.02627
6.3,0.01719
6.304,0.04246
6.308,0.00986
6.312,0.02185
6.316,0.01166
6.32,0.0239
6.324,0.03397
6.328,0.03463
6.332,0.03048
6.336,-0.01359
6.34,0.00922
6.344,0.02241
6.348,0.03912
6.352,0.02936
6.356,0.03705
6.36,0.03946
6.364,0.01674
6.368,-0.0031
6.372,0.00745
6.376,0.0191
6.38,-0.00616
6.384,0.00855
6.388,0.02249
6.392,0.01836
6.396,0.02159
6.4,0.03407
6.404,0.01077
6.408,0.01117
6.412,0.01592
6.416,0.03085
6.42,0.0427
6.424,0.04417
6.428,0.05478
6.432,0.0217
6.436,0.0824
6.44,0.03461
6.444,0.056
6.448,0.08255
6.452,0.07151
6.456,0.08861
6.46,0.09815
6.464,0.0955
6.468,0.12676
6.472,0.09396
6.476,0.11889
6.48,0.13088
6.484,0.16233
6.488,0.15429
6.492,0.18058
6.496,0.15534
6.5,0.1567
6.504,0.19641
6.508,0.22913
6.512,0.20874
6.516,0.21622
6.52,0.24187
6.524,0.23132
6.528,0.23528
6.532,0.21718
6.536,0.19121
6.54,0.2393
6.544,0.21269
6.548,0.20986
6.552,0.19196
6.556,0.19313
6.56,0.15548
6.564,0.14402
6.568,0.15831
6.572,0.1544
6.576,0.13514
6.58,0.08477
6.584,0.0982
6.588,0.08526
6.592,0.07607
6.596,0.08367
6.6,0.04137
6.604,0.04635
6.608,0.06226
6.612,0.0537
6.616,0.0414
6.62,0.02045
6.624,0.02178
6.628,-0.00897
6.632,0.03174
6.636,0.01737
6.64,0.02321
6.644,0.03791
6.648,0.01723
6.652,0.01644
6.656,0.0032
6.66,0.04275
6.664,0.00411
6.668,0.0087
6.672,0.01122
6.676,-0.03154
6.68,-0.00223
6.684,-0.01746
6.688,0.01737
6.692,0.02568
6.696,0.02832
6.7,0.01623
6.704,0.01664
6.708,0.01855
6.712,-0.00181
6.716,-0.0208
6.72,0.00404
6.724,0.00775
6.728,-0.01313
6.732,0.00286
6.736,-0.00217
6.74,0.01491
6.744,0.01422
6.748,4e-05
6.752,0.03316
6.756,0.01445
6.76,0.04194
6.764,0.07832
6.768,0.05015
6.772,0.06468
6.776,0.08457
6.78,0.08151
6.784,0.1018
6.788,0.1136
6.792,0.08669
6.796,0.0797
6.8,0.09181
6.804,0.07187
6.808,0.0245
6.812,0.04262
6.816,0.02436
6.82,0.03244
6.824,0.03686
6.828,0.01493
6.832,0.00334
6.836,0.03106
6.84,0.02383
6.844,-0.02566
6.848,0.01095
6.852,-0.01693
6.856,-0.01531
6.86,0.02117
6.864,-0.01369
6.868,-0.00721
6.872,0.00638
6.876,-0.02636
6.88,0.00328
6.884,-0.00883
6.888,0.00816
6.892,0.02352
6.896,0.00467
6.9,-0.01218
6.904,-0.04353
6.908,-0.06816
6.912,-0.09412
6.916,-0.1162
6.92,-0.03445
6.924,0.07345
6.928,0.27699
6.932,0.49539
6.936,0.69802
6.94,0.90663
6.944,0.99332
6.948,0.97344
6.952,0.87322
6.956,0.66761
6.96,0.45002
6.964,0.22105
6.968,0.02597
6.972,-0.10143
6.976,-0.18278
6.98,-0.16934
6.984,-0.13085
6.988,-0.09693
6.992,-0.05877
6.996,-0.02659
7.0,-0.03516
7.004,-0.0032
7.008,-0.01649
7.012,-0.01583
7.016,0.01026
7.02,0.0153
7.024,-0.01941
7.028,0.01064
7.032,0.01245
7.036,0.00868
7.04,-0.01842
7.044,0.01629
7.048,0.0156
7.052,-0.0139
7.056,-0.01253
7.06,0.00739
7.064,0.02334
7.068,0.02492
7.072,0.0248
7.076,-0.01494
7.08,0.02897
7.084,0.02281
7.088,0.00918
7.092,-0.01447
7.096,0.00085
7.1,0.00442
7.104,0.00637
7.108,0.00934
7.112,0.00958
7.116,0.02183
7.12,0.00072
7.124,0.01715
7.128,0.01289
7.132,-0.01055
7.136,0.00697
7.14,0.02253
7.144,0.02156
7.148,0.04536
7.152,0.04457
7.156,0.07127
7.16,0.05531
7.164,0.05858
7.168,0.08201
7.172,0.10783
7.176,0.13352
7.18,0.13622
7.184,0.14729
7.188,0.13811
7.192,0.13651
7.196,0.15249
7.2,0.19433
7.204,0.19302
7.208,0.20044
7.212,0.21015
7.216,0.20175
7.22,0.18389
7.224,0.20936
7.228,0.2286
7.232,0.25343
7.236,0.2025
7.24,0.20633
7.244,0.18142
7.248,0.18535
7.252,0.20641
7.256,0.17232
7.26,0.13814
7.264,0.15828
7.268,0.12638
7.272,0.1336
7.276,0.11157
7.28,0.10737
7.284,0.08257
7.288,0.09515
7.292,0.04028
7.296,0.05895
7.3,0.06572
7.304,0.03628
7.308,-0.0109
7.312,-0.00206
7.316,-0.00436
7.32,0.01124
7.324,0.00177
7.328,-0.00012
7.332,0.0121
7.336,0.00935
7.34,0.00783
7.344,-0.02056
7.348,-0.01106
7.352,-0.02275
7.356,0.00496
7.36,0.00632
7.364,-0.04141
7.368,-0.01435
7.372,-0.00485
7.376,-0.00901
7.38,-0.03871
7.384,-0.01075
7.388,-0.00141
7.392,0.00604
7.396,-0.01484
7.4,-0.02364
7.404,-0.01595
7.408,-0.01031
7.412,-0.00731
7.416,-0.00718
7.42,-0.00788
7.424,-0.01997
7.428,0.00082
7.432,-0.01652
7.436,-0.01371
7.44,-0.01283
7.444,-0.01302
7.448,-0.00269
7.452,-0.00932
7.456,0.01015
7.46,0.01403
7.464,0.0581
7.468,0.02994
7.472,0.0327
7.476,0.05347
7.48,0.08944
7.484,0.07903
7.488,0.09725
7.492,0.11001
7.496,0.07503
7.5,0.08535
7.504,0.06317
7.508,0.02064
7.512,0.01869
7.516,0.03719
7.52,0.01484
7.524,0.00157
7.528,0.01685
7.532,0.01199
7.536,-0.03021
7.54,-0.03329
7.544,-0.03255
7.548,-0.03253
7.552,-0.03567
7.556,-0.04354
7.56,-0.00821
7.564,-0.01515
7.568,-0.02225
7.572,-0.02333
7.576,-0.01044
7.58,-0.00611
7.584,-0.02132
7.588,-0.00486
7.592,-0.00197
7.596,-0.00055
7.6,-0.03983
7.604,-0.05196
7.608,-0.05986
7.612,-0.09953
7.616,-0.13283
7.62,-0.14121
7.624,-0.02477
7.628,0.09484
7.632,0.27215
7.636,0.50865
7.64,0.72637
7.644,0.86105
7.648,0.95401
7.652,0.96589
7.656,0.81237
7.66,0.62692
7.664,0.38425
7.668,0.17771
7.672,-0.01543
7.676,-0.11287
7.68,-0.20616
7.684,-0.20495
7.688,-0.13841
7.692,-0.12025
7.696,-0.07307
7.7,-0.05514
7.704,-0.02885
7.708,-0.01392
7.712,-0.00892
7.716,-0.0375
7.72,-0.04727
7.724,-0.03052
7.728,-0.02517
7.732,-0.02429
7.736,-0.04312
7.74,-0.00652
7.744,-0.02499
7.748,-0.03253
7.752,-0.03774
7.756,-0.01155
7.76,-0.01298
7.764,-0.00621
7.768,-0.01726
7.772,-0.02636
7.776,-0.04467
7.78,-0.01831
7.784,-0.02841
7.788,-0.01235
7.792,-0.01721
7.796,-0.01324
7.8,-0.02366
7.804,-0.02088
7.808,-0.0193
7.812,-0.00099
7.816,-0.006
7.82,-0.0075
7.824,-0.01601
7.828,0.00164
7.832,-0.00897
7.836,-0.00205
7.84,0.01114
7.844,0.01924
7.848,0.02969
7.852,0.02646
7.856,0.04137
7.86,0.04666
7.864,0.05648
7.868,0.08267
7.872,0.09958
7.876,0.11595
7.88,0.14559
7.884,0.14838
7.888,0.17223
7.892,0.2062
7.896,0.20708
7.9,0.25393
7.904,0.23086
7.908,0.25671
7.912,0.27384
7.916,0.30397
7.92,0.3039
7.924,0.2694
7.928,0.27045
7.932,0.2588
7.936,0.23964
7.94,0.26194
7.944,0.2194
7.948,0.19285
7.952,0.22387
7.956,0.1677
7.96,0.14255
7.964,0.1551
7.968,0.13385
7.972,0.11219
7.976,0.13083
7.98,0.09216
7.984,0.05806
7.988,0.03961
7.992,0.03728
7.996,0.04444
8.0,0.03717
8.004,0.01682
8.008,0.00439
8.012,0.00218
8.016,0.0368
8.02,-0.00198
8.024,-0.01677
8.028,-0.0654
8.032,-0.0758
8.036,-0.09749
8.04,-0.11056
8.044,-0.08917
8.048,0.03157
8.052,0.16682
8.056,0.36517
8.06,0.60641
8.064,0.78203
8.068,0.93074
8.072,0.98783
8.076,0.91215
8.08,0.74003
8.084,0.5031
8.088,0.30306
8.092,0.10434
8.096,-0.06716
8.1,-0.18023
8.104,-0.19045
8.108,-0.18032
8.112,-0.14477
8.116,-0.11827
8.12,-0.04344
8.124,-0.03363
8.128,-0.01954
8.132,-0.04664
8.136,-0.03132
8.14,-0.04756
8.144,-0.02884
8.148,-0.01158
8.152,-0.03667
8.156,-0.04302
8.16,-0.01728
8.164,-0.02724
8.168,-0.03226
8.172,-0.03092
8.176,-0.00425
8.18,-0.02892
8.184,-0.0257
8.188,-0.00118
8.192,-0.01497
8.196,-0.01456
8.2,-0.02221
8.204,-0.02978
8.208,0.01622
8.212,-0.00169
8.216,-0.01567
8.22,-0.01679
8.224,-0.00736
8.228,-0.02873
8.232,-0.02963
8.236,0.00235
8.24,0.0054
8.244,0.00062
8.248,-0.00741
8.252,-0.01136
8.256,-0.01439
8.26,-0.00882
8.264,-0.03
8.268,-0.00547
8.272,0.03261
8.276,0.01406
8.28,0.05758
8.284,0.02693
8.288,0.03321
8.292,0.08793
8.296,0.08002
8.3,0.11697
8.304,0.09339
8.308,0.10299
8.312,0.11313
8.316,0.12682
8.32,0.15916
8.324,0.18188
8.328,0.15703
8.332,0.16151
8.336,0.19394
8.34,0.16504
8.344,0.18829
8.348,0.17754
8.352,0.21074
8.356,0.18147
8.36,0.19475
8.364,0.18335
8.368,0.15637
8.372,0.15913
8.376,0.1594
8.38,0.18241
8.384,0.14739
8.388,0.09007
8.392,0.11674
8.396,0.08247
8.4,0.07952
8.404,0.08672
8.408,0.06894
8.412,0.06544
8.416,0.06861
8.42,0.00604
8.424,0.01508
8.428,-0.00022
8.432,-0.01078
8.436,-0.00567
8.44,0.016
8.444,-0.00257
8.448,-0.02367
8.452,-0.01954
8.456,-0.00984
8.46,-0.02421
8.464,-0.00582
8.468,-0.01565
8.472,-0.02426
8.476,-0.02729
8.48,-0.01633
8.484,-0.04082
8.488,-0.00542
8.492,-0.0424
8.496,-0.00953
8.5,-0.05579
8.504,-0.02579
8.508,-0.03566
8.512,-0.03847
8.516,-0.01613
8.52,-0.02643
8.524,-0.04319
8.528,-0.02476
8.532,-0.04727
8.536,-0.02773
8.54,-0.0191
8.544,-0.04162
8.548,-0.03709
8.552,0.00282
8.556,-0.01074
8.56,-0.03062
8.564,-0.04223
8.568,-0.04165
8.572,-0.04253
8.576,-0.03154
8.58,-0.03216
8.584,-0.0582
8.588,-0.02379
8.592,0.00136
8.596,-0.03536
8.6,-0.03633
8.604,-0.01434
8.608,-0.02261
8.612,-0.05322
8.616,-0.04239
8.62,-0.0549
8.624,-0.03706
8.628,-0.02425
8.632,-0.03885
8.636,-0.01012
8.64,-0.03294
8.644,-0.04868
8.648,-0.03662
8.652,-0.02636
8.656,-0.03633
8.66,-0.01376
8.664,-0.01837
8.668,-0.03712
8.672,-0.03195
8.676,-0.01429
8.68,0.00486
8.684,0.00413
8.688,0.00898
8.692,0.02861
8.696,0.03071
8.7,0.05516
8.704,0.04678
8.708,0.07381
8.712,0.06348
8.716,0.05381
8.72,0.06921
8.724,0.05061
8.728,0.06298
8.732,0.04375
8.736,0.02342
8.74,0.00586
8.744,0.00527
8.748,-0.01431
8.752,-0.03348
8.756,-0.01778
8.76,-0.04408
8.764,-0.01301
8.768,-0.00708
8.772,0.00286
8.776,-0.03058
8.78,-0.03723
8.784,-0.03809
8.788,-0.03089
8.792,-0.01339
8.796,-0.04534
8.8,-6e-05
8.804,-0.01584
8.808,-0.04629
8.812,-0.01737
8.816,-0.02094
8.82,-0.03509
8.824,-0.03376
8.828,-0.07746
8.832,-0.06047
8.836,-0.12468
8.84,-0.15198
8.844,-0.14
8.848,-0.03102
8.852,0.10259
8.856,0.26135
8.86,0.50423
8.864,0.71423
8.868,0.89305
8.872,0.96804
8.876,0.91693
8.88,0.82303
8.884,0.58849
8.888,0.36181
8.892,0.14286
8.896,-0.04385
8.9,-0.12654
8.904,-0.19878
8.908,-0.17447
8.912,-0.1917
8.916,-0.11166
8.92,-0.07135
8.924,-0.04259
8.928,-0.02247
8.932,-0.05436
8.936,-0.03177
8.94,-0.01631
8.944,-0.00781
8.948,-0.02483
8.952,-0.02706
8.956,-0.00584
8.96,-0.06414
8.964,-0.03026
8.968,-0.03108
8.972,-0.00751
8.976,-0.04446
8.98,-0.00962
8.984,-0.03105
8.988,-0.05808
8.992,-0.03542
8.996,-0.00675
9.0,-0.02145
9.004,-0.02533
9.008,-0.01547
9.012,-0.03636
9.016,-0.01119
9.02,-0.02097
9.024,-0.05577
9.028,-0.03666
9.032,-0.03512
9.036,-0.00663
9.04,-0.06041
9.044,-0.02377
9.048,-0.00667
9.052,0.00279
9.056,-0.03515
9.06,-0.00119
9.064,0.01231
9.068,-0.00165
9.072,0.01979
9.076,-0.00083
9.08,0.0395
9.084,0.04052
9.088,0.05055
9.092,0.04939
9.096,0.09325
9.1,0.08723
9.104,0.09601
9.108,0.13159
9.112,0.14487
9.116,0.1239
9.12,0.15614
9.124,0.1701
9.128,0.16051
9.132,0.19354
9.136,0.1779
9.14,0.20928
9.144,0.16813
9.148,0.15887
9.152,0.21241
9.156,0.16419
9.16,0.21571
9.164,0.19543
9.168,0.16915
9.172,0.15764
9.176,0.15431
9.18,0.1641
9.184,0.14178
9.188,0.13715
9.192,0.13479
9.196,0.10055
9.2,0.11047
9.204,0.08908
9.208,0.09384
9.212,0.07036
9.216,0.04529
9.22,0.04949
9.224,0.0438
9.228,0.04916
9.232,0.01878
9.236,0.01262
9.24,0.03338
9.244,0.00535
9.248,0.00773
9.252,-0.01126
9.256,-0.01618
9.26,-0.00984
9.264,-0.0148
9.268,-0.03153
9.272,0.00863
9.276,-0.01992
9.28,-0.02603
9.284,-0.03629
9.288,-0.03482
9.292,-0.05422
9.296,-0.02049
9.3,-0.01706
9.304,-0.04559
9.308,-0.02453
9.312,-0.02812
9.316,-0.03578
9.32,-0.01309
9.324,-0.00625
9.328,-0.02743
9.332,0.00193
9.336,-0.01341
9.34,-0.00487
9.344,-0.03605
9.348,-0.00657
9.352,-0.03905
9.356,-0.01412
9.36,-0.02517
9.364,-0.04185
9.368,-0.01564
9.372,-0.01521
9.376,-0.00628
9.38,-0.01272
9.384,-0.0021
9.388,-0.02293
9.392,-0.01341
9.396,0.00411
9.4,-0.03505
9.404,-0.00914
9.408,0.01534
9.412,-0.00533
9.416,0.02436
9.42,0.01041
9.424,0.04037
9.428,0.03403
9.432,0.04797
9.436,0.07498
9.44,0.05454
9.444,0.07507
9.448,0.04899
9.452,0.0811
9.456,0.04787
9.46,0.09057
9.464,0.045
9.468,0.0446
9.472,0.0399
9.476,0.05116
9.48,-0.00379
9.484,-0.00604
9.488,0.00553
9.492,-0.00274
9.496,0.00315
9.5,-0.02558
9.504,0.0028
9.508,0.02326
9.512,-0.01482
9.516,-0.0474
9.52,-0.01882
9.524,0.00993
9.528,-0.01983
9.532,0.01784
9.536,-0.02016
9.54,0.00456
9.544,-0.01819
9.548,-0.00351
9.552,-0.00757
9.556,-0.03807
9.56,-0.03268
9.564,-0.04276
9.568,-0.06522
9.572,-0.11271
9.576,-0.14749
9.58,-0.10614
9.584,-0.00102
9.588,0.1193
9.592,0.33505
9.596,0.53929
9.6,0.70219
9.604,0.89182
9.608,0.98037
9.612,0.95983
9.616,0.85365
9.62,0.60197
9.624,0.38148
9.628,0.14168
9.632,-0.00612
9.636,-0.15406
9.64,-0.2017
9.644,-0.17702
9.648,-0.11942
9.652,-0.09757
9.656,-0.06883
9.66,-0.03625
9.664,-0.03381
9.668,-0.02114
9.672,-0.0256
9.676,-0.02187
9.68,0.00256
9.684,-0.02983
9.688,-0.02503
9.692,-0.01044
9.696,-0.02866
9.7,-0.00251
9.704,-0.00535
9.708,-0.01917
9.712,-0.01725
9.716,-0.01012
9.72,-0.01693
9.724,-0.02144
9.728,-0.02548
9.732,-0.00231
9.736,0.00378
9.74,-0.02871
9.744,-0.00052
9.748,0.00984
9.752,0.00266
9.756,-0.01572
9.76,-0.00178
9.764,-0.02276
9.768,0.00325
9.772,-0.01047
9.776,0.0058
9.78,0.02782
9.784,0.0046
9.788,0.00936
9.792,0.02407
9.796,0.00894
9.8,0.03696
9.804,0.02915
9.808,0.04045
9.812,0.03048
9.816,0.01121
9.82,0.04683
9.824,0.04613
9.828,0.07201
9.832,0.06998
9.836,0.08571
9.84,0.08889
9.844,0.11742
9.848,0.13574
9.852,0.14808
9.856,0.17124
9.86,0.16395
9.864,0.17059
9.868,0.15963
9.872,0.19131
9.876,0.20634
9.88,0.19306
9.884,0.20448
9.888,0.21187
9.892,0.21652
9.896,0.19118
9.9,0.20724
9.904,0.21322
9.908,0.18167
9.912,0.20382
9.916,0.17712
9.92,0.15374
9.924,0.15811
9.928,0.13078
9.932,0.14064
9.936,0.11803
9.94,0.11477
9.944,0.10175
9.948,0.07406
9.952,0.07621
9.956,0.03695
9.96,0.05236
9.964,0.04722
9.968,0.04505
9.972,0.02552
9.976,0.01553
9.98,0.02465
9.984,-0.00683
9.988,0.01989
9.992,0.00691
9.996,0.00442
