t_seg,ecg_mV
0.0,0.02734
0.004,0.00389
0.008,-0.0129
0.012,0.02779
0.016,0.02864
0.02,0.02302
0.024,0.00806
0.028,0.00162
0.032,0.00085
0.036,0.03743
0.04,-0.00313
0.044,0.04639
0.048,0.03262
0.052,0.02959
0.056,-0.00993
0.06,0.00167
0.064,0.01763
0.068,0.01692
0.072,0.03056
0.076,0.01092
0.08,0.00859
0.084,0.01252
0.088,0.00376
0.092,0.00168
0.096,0.00982
0.1,-0.00698
0.104,0.0004
0.108,0.00561
0.112,0.01096
0.116,0.02928
0.12,0.03112
0.124,0.01284
0.128,0.02412
0.132,0.02581
0.136,-0.00878
0.14,0.02883
0.144,0.03203
0.148,0.00948
0.152,0.00134
0.156,0.02303
0.16,0.01889
0.164,-0.00076
0.168,0.01056
0.172,-0.00492
0.176,0.03158
0.18,0.02588
0.184,0.04815
0.188,0.00823
0.192,0.04584
0.196,0.03595
0.2,0.0222
0.204,0.007
0.208,0.00678
0.212,0.02515
0.216,0.03023
0.22,0.02305
0.224,0.01146
0.228,0.01445
0.232,0.02683
0.236,0.01898
0.24,-0.02261
0.244,0.00241
0.248,-0.00041
0.252,0.00102
0.256,0.00026
0.26,0.02227
0.264,-0.00075
0.268,0.0248
0.272,0.00859
0.276,0.01519
0.28,0.00903
0.284,0.03244
0.288,-2e-05
0.292,0.01138
0.296,0.01999
0.3,0.01354
0.304,0.01568
0.308,0.01474
0.312,0.02012
0.316,0.0109
0.32,0.02412
0.324,0.00085
0.328,0.02949
0.332,0.01938
0.336,0.04819
0.34,0.0133
0.344,0.0448
0.348,-0.00598
0.352,0.03737
0.356,0.0156
0.36,0.01264
0.364,0.0231
0.368,0.0396
0.372,0.04533
0.376,-0.00615
0.38,0.02117
0.384,0.01788
0.388,0.02173
0.392,0.0229
0.396,0.02185
0.4,0.0218
0.404,0.02982
0.408,0.00809
0.412,0.03912
0.416,0.02459
0.42,0.02688
0.424,0.00652
0.428,0.01108
0.432,0.01366
0.436,0.04419
0.44,0.02304
0.444,0.03944
0.448,0.02374
0.452,0.05574
0.456,0.05662
0.46,0.07922
0.464,0.07849
0.468,0.10159
0.472,0.09931
0.476,0.11425
0.48,0.14701
0.484,0.12053
0.488,0.12459
0.492,0.12141
0.496,0.11548
0.5,0.07092
0.504,0.07481
0.508,0.06346
0.512,0.07649
0.516,0.04963
0.52,0.05969
0.524,0.02618
0.528,0.03319
0.532,-3e-05
0.536,0.01522
0.54,0.01964
0.544,0.02279
0.548,0.03958
0.552,0.03296
0.556,0.0037
0.56,0.03256
0.564,0.05284
0.568,0.0278
0.572,0.0099
0.576,0.0173
0.58,0.02457
0.584,0.01866
0.588,0.05788
0.592,0.01944
0.596,0.01416
0.6,-0.00662
0.604,-0.02598
0.608,-0.09795
0.612,-0.10571
0.616,-0.07613
0.62,0.00859
0.624,0.15654
0.628,0.36134
0.632,0.57084
0.636,0.79285
0.64,0.91362
0.644,1.05352
0.648,0.97169
0.652,0.84845
0.656,0.64159
0.66,0.40265
0.664,0.20011
0.668,0.03081
0.672,-0.06772
0.676,-0.14733
0.68,-0.12684
0.684,-0.09567
0.688,-0.03261
0.692,-0.01725
0.696,-0.00208
0.7,0.03127
0.704,0.00564
0.708,0.03178
0.712,0.02581
0.716,0.01777
0.72,0.02986
0.724,0.02979
0.728,0.03468
0.732,-0.00323
0.736,0.01237
0.74,0.00998
0.744,0.01644
0.748,0.04763
0.752,0.01258
0.756,0.02651
0.76,0.03769
0.764,0.0415
0.768,0.03969
0.772,0.02327
0.776,0.02534
0.78,0.00129
0.784,-3e-05
0.788,0.0431
0.792,0.01434
0.796,0.03645
0.8,0.01107
0.804,0.06552
0.808,0.03808
0.812,0.03001
0.816,0.05721
0.82,0.05956
0.824,0.05777
0.828,0.03936
0.832,0.04975
0.836,0.0655
0.84,0.05867
0.844,0.08466
0.848,0.08239
0.852,0.11401
0.856,0.08087
0.86,0.09185
0.864,0.14433
0.868,0.14403
0.872,0.11523
0.876,0.17736
0.88,0.16185
0.884,0.15394
0.888,0.20581
0.892,0.17619
0.896,0.22234
0.9,0.22583
0.904,0.25035
0.908,0.21049
0.912,0.2315
0.916,0.22313
0.92,0.24993
0.924,0.23436
0.928,0.25858
0.932,0.23469
0.936,0.23935
0.94,0.23246
0.944,0.20576
0.948,0.21639
0.952,0.22476
0.956,0.19426
0.96,0.22549
0.964,0.17985
0.968,0.16595
0.972,0.14258
0.976,0.13219
0.98,0.13937
0.984,0.13786
0.988,0.12182
0.992,0.12011
0.996,0.09801
1.0,0.07475
1.004,0.06252
1.008,0.06253
1.012,0.07338
1.016,0.06322
1.02,0.03397
1.024,0.05734
1.028,0.05495
1.032,0.0397
1.036,0.05215
1.04,0.05253
1.044,0.03214
1.048,0.05699
1.052,0.06336
1.056,0.02954
1.06,0.04034
1.064,0.05672
1.068,0.0123
1.072,0.03126
1.076,0.03429
1.08,0.00805
1.084,-0.01142
1.088,0.03952
1.092,0.03034
1.096,0.04176
1.1,0.04922
1.104,0.03884
1.108,0.02612
1.112,0.0086
1.116,0.04109
1.12,0.04263
1.124,0.04286
1.128,0.01928
1.132,0.06403
1.136,0.04817
1.14,0.04621
1.144,0.01017
1.148,0.03814
1.152,0.04066
1.156,0.01641
1.16,0.01958
1.164,0.01515
1.168,0.05778
1.172,0.03719
1.176,0.02694
1.18,0.02688
1.184,0.06358
1.188,0.03541
1.192,0.04093
1.196,0.05412
1.2,0.02616
1.204,0.01671
1.208,0.03531
1.212,0.04832
1.216,0.03698
1.22,0.01801
1.224,0.02716
1.228,0.02453
1.232,0.03989
1.236,0.01755
1.24,0.01751
1.244,0.02382
1.248,0.04387
1.252,0.04269
1.256,0.02648
1.26,0.01879
1.264,0.03418
1.268,0.03927
1.272,0.0219
1.276,0.01294
1.28,0.01432
1.284,0.01351
1.288,0.01266
1.292,0.0168
1.296,0.01761
1.3,0.03977
1.304,0.01045
1.308,0.03725
1.312,0.02086
1.316,0.04357
1.32,0.05442
1.324,0.01504
1.328,0.04346
1.332,0.03183
1.336,0.05639
1.34,0.02622
1.344,0.05802
1.348,0.03911
1.352,0.02963
1.356,0.04225
1.36,0.03359
1.364,0.03223
1.368,0.01518
1.372,0.0282
1.376,0.0327
1.38,0.04273
1.384,0.02335
1.388,0.02768
1.392,0.02625
1.396,0.01975
1.4,0.04477
1.404,0.02766
1.408,0.04797
1.412,0.02553
1.416,0.01239
1.42,0.02654
1.424,0.03523
1.428,0.05447
1.432,0.04212
1.436,0.02695
1.44,-0.00323
1.444,0.00143
1.448,0.01159
1.452,0.02888
1.456,0.02261
1.46,0.00377
1.464,0.04193
1.468,0.02701
1.472,0.05401
1.476,0.01547
1.48,0.02227
1.484,0.03823
1.488,0.03921
1.492,0.05233
1.496,0.03871
1.5,0.03527
1.504,0.02496
1.508,0.04918
1.512,0.02187
1.516,0.02747
1.52,0.04049
1.524,0.00252
1.528,0.04561
1.532,0.03323
1.536,0.0252
1.54,0.03993
1.544,0.02039
1.548,0.03724
1.552,0.02219
1.556,0.04967
1.56,0.01473
1.564,0.04087
1.568,0.02312
1.572,0.04768
1.576,0.03428
1.58,0.02231
1.584,0.05955
1.588,0.03442
1.592,0.02238
1.596,0.03744
1.6,0.03173
1.604,0.03293
1.608,0.04171
1.612,0.08153
1.616,0.03646
1.62,0.08303
1.624,0.06767
1.628,0.06945
1.632,0.10551
1.636,0.11238
1.64,0.12171
1.644,0.10706
1.648,0.13211
1.652,0.12127
1.656,0.12474
1.66,0.11713
1.664,0.08346
1.668,0.11854
1.672,0.09752
1.676,0.07661
1.68,0.02254
1.684,0.05179
1.688,0.02459
1.692,0.03656
1.696,0.02851
1.7,0.00564
1.704,0.02605
1.708,0.01585
1.712,0.03577
1.716,0.00259
1.72,0.00056
1.724,0.01979
1.728,0.02425
1.732,0.00729
1.736,0.02945
1.74,0.03659
1.744,0.02988
1.748,0.01381
1.752,0.05093
1.756,0.03922
1.76,0.01015
1.764,0.00125
1.768,-0.01036
1.772,-0.04081
1.776,-0.08088
1.78,-0.0791
1.784,-0.06787
1.788,0.02618
1.792,0.18095
1.796,0.39665
1.8,0.61001
1.804,0.82065
1.808,0.96715
1.812,1.02283
1.816,0.96691
1.82,0.82324
1.824,0.578
1.828,0.3419
1.832,0.13962
1.836,0.00065
1.84,-0.08359
1.844,-0.17512
1.848,-0.13696
1.852,-0.08714
1.856,-0.03835
1.86,0.00101
1.864,0.00245
1.868,0.01173
1.872,0.04241
1.876,0.00635
1.88,0.035
1.884,0.01423
1.888,0.0111
1.892,-0.00299
1.896,0.02821
1.9,0.03466
1.904,0.01703
1.908,0.0182
1.912,-0.00142
1.916,0.01926
1.92,0.01328
1.924,0.0194
1.928,0.04584
1.932,0.02165
1.936,0.02303
1.94,0.03601
1.944,0.03597
1.948,0.02327
1.952,0.02596
1.956,0.01338
1.96,0.00982
1.964,0.01422
1.968,0.04549
1.972,0.05047
1.976,0.01954
1.98,0.04468
1.984,0.03228
1.988,0.03791
1.992,0.03111
1.996,0.04382
2.0,0.03642
2.004,0.03064
2.008,0.09763
2.012,0.06799
2.016,0.06377
2.02,0.08466
2.024,0.09485
2.028,0.10513
2.032,0.0813
2.036,0.12025
2.04,0.14356
2.044,0.15141
2.048,0.13934
2.052,0.18321
2.056,0.17513
2.06,0.19499
2.064,0.19782
2.068,0.18724
2.072,0.19808
2.076,0.21936
2.08,0.25996
2.084,0.2141
2.088,0.24193
2.092,0.25552
2.096,0.25162
2.1,0.2264
2.104,0.24697
2.108,0.21318
2.112,0.2143
2.116,0.21062
2.12,0.20226
2.124,0.1972
2.128,0.18421
2.132,0.16795
2.136,0.15194
2.14,0.16323
2.144,0.15232
2.148,0.13437
2.152,0.14945
2.156,0.10509
2.16,0.05271
2.164,0.07645
2.168,0.08134
2.172,0.06927
2.176,0.05147
2.18,0.06903
2.184,0.04426
2.188,0.02704
2.192,0.05476
2.196,0.01924
2.2,0.02722
2.204,0.03073
2.208,0.02997
2.212,0.03792
2.216,0.06042
2.22,0.02226
2.224,0.03131
2.228,0.03734
2.232,0.00925
2.236,0.01727
2.24,-0.00772
2.244,0.03502
2.248,0.00203
2.252,0.00359
2.256,0.01353
2.26,-0.00665
2.264,0.01397
2.268,0.01132
2.272,0.01283
2.276,0.00361
2.28,0.0058
2.284,0.02443
2.288,0.00697
2.292,0.00574
2.296,0.01882
2.3,0.02148
2.304,0.00087
2.308,-0.00249
2.312,0.0164
2.316,0.00517
2.32,0.00551
2.324,-0.00871
2.328,0.00876
2.332,0.03096
2.336,0.01107
2.34,-0.00289
2.344,0.00345
2.348,0.02204
2.352,0.01231
2.356,0.00046
2.36,0.00622
2.364,-0.00572
2.368,0.00376
2.372,0.02302
2.376,0.01924
2.38,0.02015
2.384,0.01749
2.388,0.02682
2.392,0.00163
2.396,0.00143
2.4,0.02265
2.404,0.03747
2.408,0.01201
2.412,0.00735
2.416,0.01745
2.42,0.01091
2.424,0.00463
2.428,0.00772
2.432,0.01189
2.436,0.01577
2.44,-0.01642
2.444,0.01503
2.448,0.03461
2.452,0.01577
2.456,0.02796
2.46,0.00765
2.464,0.0417
2.468,0.01473
2.472,0.00527
2.476,0.03288
2.48,0.04015
2.484,0.00393
2.488,0.01513
2.492,-0.02207
2.496,0.00312
2.5,0.01761
2.504,0.01112
2.508,-0.00705
2.512,0.01633
2.516,-0.01038
2.52,-0.02505
2.524,0.01593
2.528,0.01535
2.532,-0.0021
2.536,0.0109
2.54,0.00658
2.544,0.01182
2.548,0.0021
2.552,0.00101
2.556,0.01327
2.56,0.00804
2.564,0.00258
2.568,-0.00624
2.572,0.02481
2.576,0.03054
2.58,-0.00271
2.584,0.00456
2.588,0.0269
2.592,0.03815
2.596,0.03699
2.6,0.03699
2.604,0.06297
2.608,0.07665
2.612,0.0841
2.616,0.10661
2.62,0.11879
2.624,0.10105
2.628,0.10698
2.632,0.07577
2.636,0.0831
2.64,0.08755
2.644,0.08797
2.648,0.0565
2.652,0.03557
2.656,0.04789
2.66,0.02325
2.664,0.0261
2.668,0.00436
2.672,-0.024
2.676,-0.00847
2.68,-0.01628
2.684,-0.01013
2.688,-0.00647
2.692,-0.00018
2.696,0.02012
2.7,0.00816
2.704,0.00414
2.708,-0.00617
2.712,0.01948
2.716,0.00853
2.72,0.02154
2.724,0.02045
2.728,0.00325
2.732,-0.04507
2.736,-0.03254
2.74,-0.02618
2.744,-0.03419
2.748,-0.07668
2.752,-0.12046
2.756,-0.09331
2.76,-0.03087
2.764,0.09829
2.768,0.31333
2.772,0.50626
2.776,0.76904
2.78,0.90689
2.784,0.99004
2.788,0.9602
2.792,0.86435
2.796,0.67106
2.8,0.42015
2.804,0.19298
2.808,0.03293
2.812,-0.10042
2.816,-0.18414
2.82,-0.16369
2.824,-0.14187
2.828,-0.08439
2.832,-0.05832
2.836,-0.02357
2.84,-0.0009
2.844,0.01304
2.848,-0.00782
2.852,-0.00535
2.856,-0.01124
2.86,-0.00256
2.864,-0.01082
2.868,0.0164
2.872,0.00592
2.876,0.0154
2.88,0.02535
2.884,0.00563
2.888,-0.01365
2.892,0.00251
2.896,-0.02716
2.9,-0.01479
2.904,0.02429
2.908,-0.00063
2.912,0.00233
2.916,-0.00623
2.92,-0.01039
2.924,-0.0183
2.928,0.0125
2.932,-0.00073
2.936,-0.02405
2.94,0.00172
2.944,0.00983
2.948,-0.00333
2.952,0.02748
2.956,0.01159
2.96,0.01859
2.964,-0.00376
2.968,0.02701
2.972,0.0242
2.976,0.01459
2.98,0.04238
2.984,0.0426
2.988,0.06889
2.992,0.04463
2.996,0.07574
3.0,0.05059
3.004,0.08685
3.008,0.12094
3.012,0.10381
3.016,0.11365
3.02,0.12524
3.024,0.12842
3.028,0.14377
3.032,0.17998
3.036,0.16257
3.04,0.19431
3.044,0.16999
3.048,0.19586
3.052,0.18504
3.056,0.21952
3.06,0.21143
3.064,0.21391
3.068,0.20224
3.072,0.20846
3.076,0.20085
3.08,0.18524
3.084,0.20042
3.088,0.18577
3.092,0.13909
3.096,0.16554
3.1,0.17397
3.104,0.14137
3.108,0.14109
3.112,0.12565
3.116,0.08843
3.12,0.10472
3.124,0.08966
3.128,0.07371
3.132,0.05491
3.136,0.06488
3.14,0.06613
3.144,0.05747
3.148,0.01212
3.152,0.01533
3.156,0.02138
3.16,0.03247
3.164,0.02211
3.168,0.01492
3.172,0.02425
3.176,-0.01923
3.18,-0.0013
3.184,-0.00983
3.188,0.00714
3.192,0.01072
3.196,0.01036
3.2,-0.02173
3.204,-0.00866
3.208,-0.00288
3.212,0.00276
3.216,0.0101
3.22,-0.00331
3.224,0.00594
3.228,-0.02143
3.232,-0.00548
3.236,0.01667
3.24,-0.03125
3.244,0.00202
3.248,0.00658
3.252,-0.00919
3.256,0.00746
3.26,-0.01272
3.264,0.02308
3.268,-0.00839
3.272,-0.0009
3.276,0.00408
3.28,-0.01293
3.284,-0.00724
3.288,-0.00318
3.292,-0.02347
3.296,0.00418
3.3,0.01741
3.304,-0.02383
3.308,0.01926
3.312,-0.0025
3.316,-0.02552
3.32,-0.01908
3.324,-0.04806
3.328,0.0004
3.332,0.01008
3.336,0.0174
3.34,-0.00446
3.344,-0.03098
3.348,-0.05096
3.352,-0.01754
3.356,-0.01666
3.36,-0.05665
3.364,-0.01522
3.368,-0.01078
3.372,-0.04588
3.376,0.00212
3.38,-0.00774
3.384,-0.00734
3.388,-0.00701
3.392,-0.00523
3.396,-0.03788
3.4,-0.01643
3.404,-0.01832
3.408,-0.01319
3.412,-0.00671
3.416,0.01399
3.42,-0.01592
3.424,-0.02645
3.428,-0.00307
3.432,-0.0128
3.436,-0.00288
3.44,-0.01768
3.444,-0.01641
3.448,-0.03259
3.452,-0.00385
3.456,-0.01975
3.46,-0.00589
3.464,-0.02839
3.468,-0.03578
3.472,-0.03992
3.476,-0.0358
3.48,-0.01291
3.484,-0.01123
3.488,-0.00328
3.492,-0.02038
3.496,-0.02674
3.5,-0.03021
3.504,-0.01364
3.508,-0.00551
3.512,-0.01541
3.516,-0.02376
3.52,-0.02261
3.524,-0.03901
3.528,-0.00975
3.532,-0.01459
3.536,-0.01213
3.54,-0.02438
3.544,-0.04722
3.548,0.00793
3.552,-0.03598
3.556,-0.01505
3.56,-0.013
3.564,2e-05
3.568,-0.0222
3.572,-0.00972
3.576,-0.0535
3.58,-0.01831
3.584,-0.02229
3.588,-0.00332
3.592,-0.00498
3.596,-0.01598
3.6,0.0018
3.604,-0.04582
3.608,-0.02382
3.612,-0.01148
3.616,-0.01764
3.62,-0.03198
3.624,-0.0358
3.628,-0.0094
3.632,-0.01623
3.636,-0.018
3.64,-0.00769
3.644,0.00301
3.648,0.00055
3.652,0.01067
3.656,0.02967
3.66,0.01244
3.664,0.03841
3.668,0.03191
3.672,0.04246
3.676,0.07236
3.68,0.06335
3.684,0.09032
3.688,0.06504
3.692,0.05435
3.696,0.06334
3.7,0.07491
3.704,0.00863
3.708,0.03755
3.712,0.02216
3.716,0.021
3.72,-0.00312
3.724,-0.01005
3.728,-0.00673
3.732,0.00156
3.736,-0.04695
3.74,-0.01157
3.744,-0.03087
3.748,-0.01348
3.752,-0.03138
3.756,-0.00165
3.76,-0.0079
3.764,-0.01893
3.768,-0.03369
3.772,-0.01803
3.776,-0.01749
3.78,-0.01911
3.784,-0.05388
3.788,-0.01053
3.792,-0.00627
3.796,-0.02145
3.8,-0.07058
3.804,-0.10573
3.808,-0.12941
3.812,-0.15552
3.816,-0.10643
3.82,0.01126
3.824,0.17037
3.828,0.37144
3.832,0.59936
3.836,0.7783
3.84,0.95079
3.844,0.96914
3.848,0.90113
3.852,0.7331
3.856,0.49725
3.86,0.28269
3.864,0.07487
3.868,-0.09133
3.872,-0.17092
3.876,-0.18971
3.88,-0.178
3.884,-0.13195
3.888,-0.09878
3.892,-0.05464
3.896,-0.03449
3.9,-0.04331
3.904,-0.01838
3.908,-0.03765
3.912,-0.02436
3.916,-0.04869
3.92,-0.03073
3.924,-0.02747
3.928,-0.02743
3.932,-0.01343
3.936,-0.02905
3.94,-0.00202
3.944,-0.0315
3.948,-0.01513
3.952,-0.03976
3.956,-0.04114
3.96,-0.02859
3.964,-0.03144
3.968,-0.02804
3.972,-0.01823
3.976,-0.00689
3.98,-0.03605
3.984,-0.02122
3.988,-0.04585
3.992,-0.02779
3.996,-0.00545
4.0,-0.02679
4.004,-0.02398
4.008,-0.01685
4.012,-0.01538
4.016,0.01226
4.02,-0.03701
4.024,0.00045
4.028,0.02275
4.032,-0.01064
4.036,0.01082
4.04,-0.00628
4.044,0.04343
4.048,0.04821
4.052,0.04737
4.056,0.02734
4.06,0.05755
4.064,0.03495
4.068,0.08367
4.072,0.07461
4.076,0.08021
4.08,0.14341
4.084,0.12597
4.088,0.13189
4.092,0.17166
4.096,0.17063
4.1,0.15622
4.104,0.16823
4.108,0.19098
4.112,0.19579
4.116,0.17431
4.12,0.17324
4.124,0.19897
4.128,0.18449
4.132,0.16248
4.136,0.18481
4.14,0.1823
4.144,0.18917
4.148,0.15416
4.152,0.14113
4.156,0.1257
4.16,0.14741
4.164,0.09698
4.168,0.09825
4.172,0.11916
4.176,0.07466
4.18,0.07544
4.184,0.06109
4.188,0.02931
4.192,0.04826
4.196,0.02433
4.2,-0.00777
4.204,0.02574
4.208,-0.01527
4.212,-0.01748
4.216,0.02106
4.22,-0.01067
4.224,-0.01508
4.228,-0.01034
4.232,-0.02696
4.236,-0.01444
4.24,-0.03246
4.244,-0.02975
4.248,-0.04241
4.252,0.01005
4.256,-0.03728
4.26,-0.05436
4.264,-0.01627
4.268,-0.0299
4.272,-0.02988
4.276,-0.03434
4.28,-0.01185
4.284,-0.02768
4.288,-0.03053
4.292,-0.04779
4.296,-0.04473
4.3,-0.00757
4.304,-0.01891
4.308,-0.04111
4.312,-0.01624
4.316,-0.02471
4.32,-0.02073
4.324,-0.01091
4.328,-0.03704
4.332,-0.02755
4.336,-0.01577
4.34,-0.02499
4.344,-0.025
4.348,-0.01465
4.352,0.00427
4.356,-0.02979
4.36,-0.02196
4.364,-0.01545
4.368,-0.00643
4.372,-0.02585
4.376,-0.00556
4.38,0.01266
4.384,0.05185
4.388,0.05229
4.392,0.04989
4.396,0.0775
4.4,0.07982
4.404,0.07311
4.408,0.05886
4.412,0.07293
4.416,0.04033
4.42,0.02527
4.424,0.03283
4.428,0.03946
4.432,-0.015
4.436,-0.00856
4.44,0.01384
4.444,-0.00631
4.448,-0.02005
4.452,-0.01478
4.456,-0.02063
4.46,-0.05479
4.464,-0.03688
4.468,-0.02349
4.472,-0.06098
4.476,-0.05536
4.48,-0.0265
4.484,-0.02321
4.488,-0.03007
4.492,-0.02723
4.496,-0.00645
4.5,-0.07968
4.504,-0.01371
4.508,-0.01185
4.512,-0.03578
4.516,-0.04272
4.52,-0.05617
4.524,-0.07747
4.528,-0.16864
4.532,-0.12209
4.536,-0.11421
4.54,-0.01087
4.544,0.15202
4.548,0.34527
4.552,0.53872
4.556,0.76637
4.56,0.91291
4.564,0.96953
4.568,0.91956
4.572,0.75066
4.576,0.54162
4.58,0.32873
4.584,0.08858
4.588,-0.05212
4.592,-0.16915
4.596,-0.21831
4.6,-0.18255
4.604,-0.13188
4.608,-0.09038
4.612,-0.08673
4.616,-0.05897
4.62,-0.0302
4.624,-0.02705
4.628,-0.05452
4.632,-0.01232
4.636,-0.00931
4.64,-0.00985
4.644,-0.00671
4.648,-0.03849
4.652,-0.03134
4.656,-0.03094
4.66,-0.05005
4.664,-0.04947
4.668,-0.03328
4.672,-0.02602
4.676,-0.02998
4.68,-0.03005
4.684,-0.01674
4.688,-0.02604
4.692,-0.03228
4.696,-0.00229
4.7,-0.01723
4.704,-0.00099
4.708,-0.01826
4.712,-0.00976
4.716,-0.04998
4.72,-0.04528
4.724,-0.0067
4.728,-0.0346
4.732,-0.00756
4.736,-0.03112
4.74,-0.01354
4.744,-0.02316
4.748,-0.00285
4.752,-0.02054
4.756,0.019
4.76,0.00945
4.764,0.03321
4.768,0.00234
4.772,0.03922
4.776,0.04839
4.78,0.07975
4.784,0.05425
4.788,0.05887
4.792,0.09218
4.796,0.07924
4.8,0.10138
4.804,0.11052
4.808,0.11371
4.812,0.15993
4.816,0.18168
4.82,0.14348
4.824,0.15362
4.828,0.17322
4.832,0.16959
4.836,0.19917
4.84,0.18394
4.844,0.18565
4.848,0.17492
4.852,0.17894
4.856,0.16645
4.86,0.19876
4.864,0.15533
4.868,0.18892
4.872,0.13952
4.876,0.14926
4.88,0.10859
4.884,0.12876
4.888,0.12106
4.892,0.09122
4.896,0.08272
4.9,0.08547
4.904,0.06378
4.908,0.04831
4.912,0.05593
4.916,0.03313
4.92,-0.00057
4.924,0.00079
4.928,0.00244
4.932,-0.01071
4.936,-0.00847
4.94,-0.0101
4.944,-0.01521
4.948,0.00271
4.952,-0.0023
4.956,-0.0449
4.96,0.00092
4.964,-0.03672
4.968,-0.01334
4.972,-0.02204
4.976,-0.00268
4.98,-0.01699
4.984,-0.04408
4.988,-0.01245
4.992,-0.03616
4.996,-0.02775
5.0,-0.03519
5.004,-0.02671
5.008,-0.04137
5.012,-0.00674
5.016,-0.00893
5.02,-0.02867
5.024,-0.00881
5.028,-0.04264
5.032,-0.06288
5.036,-0.03359
5.04,-0.01703
5.044,-0.00928
5.048,-0.03379
5.052,-0.0237
5.056,0.00516
5.06,-0.00959
5.064,-0.01574
5.068,-0.01622
5.072,-0.03571
5.076,-0.01428
5.08,-0.02069
5.084,-0.0517
5.088,-0.05574
5.092,-0.01602
5.096,-0.03649
5.1,-0.06583
5.104,-0.03204
5.108,-0.04277
5.112,-0.02519
5.116,-0.03928
5.12,-0.03139
5.124,-0.01376
5.128,-0.03457
5.132,-0.01064
5.136,-0.02953
5.14,-0.02392
5.144,-0.02298
5.148,-0.02884
5.152,-0.02762
5.156,-0.03914
5.16,-0.03802
5.164,-0.0452
5.168,-0.00687
5.172,-0.0
5.176,-0.03786
5.18,-0.0169
5.184,-0.02689
5.188,-0.00903
5.192,-0.01881
5.196,-0.03719
5.2,-0.02651
5.204,-0.0263
5.208,-0.02766
5.212,-0.00572
5.216,-0.03056
5.22,-0.02265
5.224,0.0023
5.228,-0.02285
5.232,-0.02074
5.236,0.0001
5.24,-0.02634
5.244,-0.00679
5.248,-0.03907
5.252,-0.01051
5.256,-0.01892
5.26,-0.00345
5.264,-0.01806
5.268,-0.04319
5.272,0.0092
5.276,-0.0459
5.28,-0.02245
5.284,-0.03307
5.288,-0.03256
5.292,-0.03918
5.296,-0.03308
5.3,-0.01581
5.304,0.00769
5.308,-0.01024
5.312,-0.00574
5.316,0.00279
5.32,0.03923
5.324,0.01637
5.328,0.0333
5.332,0.04015
5.336,0.05896
5.34,0.06511
5.344,0.05932
5.348,0.07573
5.352,0.06233
5.356,0.05775
5.36,0.0613
5.364,0.04869
5.368,0.05686
5.372,0.03549
5.376,0.01716
5.38,0.01772
5.384,0.01764
5.388,0.00117
5.392,-0.01551
5.396,-0.02837
5.4,-0.00111
5.404,-0.00999
5.408,-0.03458
5.412,-0.0114
5.416,-0.0214
5.42,-0.01277
5.424,-0.02022
5.428,0.00267
5.432,-0.00132
5.436,-0.01894
5.44,-0.00888
5.444,-0.04044
5.448,-0.00587
5.452,-0.02614
5.456,-0.0111
5.46,-0.03289
5.464,-0.04216
5.468,-0.08605
5.472,-0.09937
5.476,-0.12967
5.48,-0.12254
5.484,-0.06208
5.488,0.13799
5.492,0.31933
5.496,0.53031
5.5,0.70969
5.504,0.87423
5.508,0.96497
5.512,0.96678
5.516,0.81701
5.52,0.62642
5.524,0.37985
5.528,0.15368
5.532,-0.01375
5.536,-0.09367
5.54,-0.19199
5.544,-0.18863
5.548,-0.14121
5.552,-0.10665
5.556,-0.05575
5.56,-0.02977
5.564,-0.02577
5.568,-0.01213
5.572,-0.02354
5.576,-0.0346
5.58,-0.00799
5.584,-0.02296
5.588,-0.02897
5.592,-0.00932
5.596,-0.01711
5.6,-0.03272
5.604,-0.02961
5.608,-0.04693
5.612,-0.0325
5.616,-0.04995
5.62,-0.00476
5.624,0.00147
5.628,-0.00761
5.632,-0.0222
5.636,-0.01999
5.64,0.00539
5.644,-0.01546
5.648,-0.02335
5.652,-0.02428
5.656,-0.02899
5.66,-0.02124
5.664,0.00191
5.668,-0.03658
5.672,-0.02272
5.676,0.02972
5.68,0.00264
5.684,8e-05
5.688,0.00164
5.692,0.00845
5.696,0.01405
5.7,0.0266
5.704,0.04383
5.708,0.06521
5.712,0.03483
5.716,0.03784
5.72,0.05958
5.724,0.08396
5.728,0.05941
5.732,0.10399
5.736,0.09759
5.74,0.11354
5.744,0.12437
5.748,0.12368
5.752,0.13872
5.756,0.1571
5.76,0.1802
5.764,0.21476
5.768,0.17584
5.772,0.2041
5.776,0.21681
5.78,0.19095
5.784,0.23095
5.788,0.19537
5.792,0.21368
5.796,0.21175
5.8,0.20822
5.804,0.19552
5.808,0.20231
5.812,0.19197
5.816,0.16787
5.82,0.14871
5.824,0.14202
5.828,0.15896
5.832,0.11983
5.836,0.09281
5.84,0.10529
5.844,0.10902
5.848,0.06641
5.852,0.08623
5.856,0.07525
5.86,0.07785
5.864,0.04802
5.868,0.05492
5.872,0.03729
5.876,0.01593
5.88,-0.00486
5.884,0.02289
5.888,0.01305
5.892,0.00255
5.896,0.02954
5.9,0.01156
5.904,0.01845
5.908,0.0125
5.912,0.00687
5.916,-0.00909
5.92,-0.02473
5.924,0.014
5.928,0.01572
5.932,-0.00988
5.936,-0.03311
5.94,-0.01498
5.944,-0.05194
5.948,-0.00613
5.952,-0.01344
5.956,-0.00048
5.96,0.00633
5.964,0.01669
5.968,0.00528
5.972,-9e-05
5.976,-0.00352
5.98,0.01105
5.984,-0.00303
5.988,-0.02925
5.992,-0.00176
5.996,-0.00777
6.0,-0.02514
6.004,-0.00273
6.008,0.00013
6.012,-0.0201
6.016,-0.00078
6.02,-0.01144
6.024,-0.01424
6.028,-0.00021
6.032,-0.00559
6.036,-0.01794
6.04,0.01362
6.044,0.00803
6.048,-0.02015
6.052,0.01143
6.056,-0.01216
6.06,-0.03003
6.064,0.01499
6.068,0.00735
6.072,0.02999
6.076,-0.02842
6.08,-0.03061
6.084,-0.00028
6.088,0.00181
6.092,0.03342
6.096,0.01595
6.1,-0.02084
6.104,0.0451
6.108,-0.01046
6.112,0.01043
6.116,-0.00203
6.12,-0.01725
6.124,0.00421
6.128,-0.02811
6.132,0.01333
6.136,0.02748
6.14,0.00549
6.144,0.00563
6.148,0.00708
6.152,-0.03189
6.156,0.02755
6.16,-0.01865
6.164,0.01256
6.168,-0.00861
6.172,-0.0088
6.176,-0.01008
6.18,0.01789
6.184,0.01962
6.188,-0.00816
6.192,0.02018
6.196,-0.00151
6.2,-0.02488
6.204,0.00572
6.208,0.00407
6.212,-0.03309
6.216,-0.0097
6.22,0.01565
6.224,0.0019
6.228,-0.00085
6.232,-0.00499
6.236,-8e-05
6.24,-0.01037
6.244,0.01678
6.248,0.01492
6.252,-0.0123
6.256,-0.01488
6.26,0.01153
6.264,0.02976
6.268,-0.00613
6.272,0.01488
6.276,0.01143
6.28,-0.01131
6.284,0.00183
6.288,0.01946
6.292,-0.00196
6.296,-0.00882
6.3,0.00077
6.304,0.0061
6.308,0.02425
6.312,-0.00029
6.316,-0.00592
6.32,0.0105
6.324,0.01063
6.328,0.01115
6.332,0.00332
6.336,0.01607
6.34,0.01828
6.344,0.0015
6.348,0.01475
6.352,0.00459
6.356,-0.00883
6.36,-0.0135
6.364,0.0009
6.368,0.0151
6.372,-0.01849
6.376,0.00929
6.38,0.01139
6.384,-0.0107
6.388,3e-05
6.392,0.01202
6.396,-0.00156
6.4,-0.01554
6.404,0.00944
6.408,-0.01761
6.412,0.02078
6.416,0.00986
6.42,0.01737
6.424,0.00082
6.428,0.00303
6.432,0.02717
6.436,0.01942
6.44,-0.02598
6.444,-0.01064
6.448,0.03663
6.452,0.01815
6.456,-0.00746
6.46,0.01997
6.464,-0.0065
6.468,0.0276
6.472,0.00922
6.476,0.01372
6.48,0.02929
6.484,0.0223
6.488,0.01832
6.492,0.0451
6.496,0.06972
6.5,0.05829
6.504,0.10413
6.508,0.08376
6.512,0.11601
6.516,0.09071
6.52,0.1204
6.524,0.1027
6.528,0.10951
6.532,0.10687
6.536,0.09945
6.54,0.06302
6.544,0.06432
6.548,0.02613
6.552,0.035
6.556,0.04081
6.56,0.03752
6.564,0.00348
6.568,0.00707
6.572,0.0205
6.576,0.04389
6.58,-0.00569
6.584,-0.00645
6.588,0.00935
6.592,0.03464
6.596,-0.0118
6.6,0.00137
6.604,0.01026
6.608,0.02248
6.612,0.03071
6.616,0.03301
6.62,-0.00087
6.624,0.02401
6.628,0.019
6.632,0.01691
6.636,-0.01535
6.64,-0.07102
6.644,-0.08707
6.648,-0.07798
6.652,-0.0635
6.656,0.08308
6.66,0.23074
6.664,0.45973
6.668,0.64768
6.672,0.83697
6.676,0.98147
6.68,1.00593
6.684,0.93626
6.688,0.75326
6.692,0.51434
6.696,0.25732
6.7,0.07031
6.704,-0.04608
6.708,-0.11823
6.712,-0.13184
6.716,-0.14851
6.72,-0.07019
6.724,-0.03229
6.728,-0.02636
6.732,0.02575
6.736,-0.01563
6.74,0.01174
6.744,0.04074
6.748,0.01658
6.752,0.01541
6.756,0.01379
6.76,0.00547
6.764,-0.00412
6.768,-0.00997
6.772,0.042
6.776,0.00227
6.78,-0.00224
6.784,0.0128
6.788,0.0183
6.792,0.0062
6.796,-0.01109
6.8,-0.03946
6.804,0.04137
6.808,0.01754
6.812,0.02426
6.816,0.02084
6.82,0.01214
6.824,0.04015
6.828,0.01907
6.832,0.01974
6.836,0.00719
6.84,0.05086
6.844,0.03912
6.848,0.02206
6.852,0.01188
6.856,0.0033
6.86,0.06445
6.864,0.02992
6.868,0.03123
6.872,0.04389
6.876,0.05899
6.88,0.08006
6.884,0.07532
6.888,0.06759
6.892,0.09375
6.896,0.11691
6.9,0.11272
6.904,0.14501
6.908,0.13001
6.912,0.14021
6.916,0.13834
6.92,0.18295
6.924,0.17761
6.928,0.17659
6.932,0.22004
6.936,0.23092
6.94,0.20568
6.944,0.24418
6.948,0.25191
6.952,0.22278
6.956,0.25394
6.96,0.21817
6.964,0.20321
6.968,0.25158
6.972,0.23582
6.976,0.19709
6.98,0.22932
6.984,0.21143
6.988,0.20576
6.992,0.17584
6.996,0.15307
7.0,0.17709
7.004,0.17836
7.008,0.16021
7.012,0.12379
7.016,0.11607
7.02,0.0945
7.024,0.08868
7.028,0.1029
7.032,0.08549
7.036,0.02411
7.04,0.05811
7.044,0.05801
7.048,0.02942
7.052,0.06551
7.056,0.03642
7.06,0.01471
7.064,0.03491
7.068,0.05766
7.072,0.03282
7.076,0.04351
7.08,-0.01263
7.084,0.02083
7.088,0.02773
7.092,0.01279
7.096,0.01184
7.1,0.03177
7.104,0.02656
7.108,0.02015
7.112,0.03269
7.116,0.01392
7.12,0.01584
7.124,0.00549
7.128,0.02904
7.132,0.01146
7.136,0.00906
7.14,0.02961
7.144,0.03139
7.148,0.04584
7.152,0.04416
7.156,0.03214
7.16,0.03872
7.164,0.00725
7.168,0.02366
7.172,0.0285
7.176,0.00874
7.18,-0.00139
7.184,0.01234
7.188,0.03307
7.192,0.04777
7.196,0.01372
7.2,0.03109
7.204,0.01852
7.208,0.04277
7.212,0.04898
7.216,0.0162
7.22,0.02398
7.224,0.03492
7.228,0.02468
7.232,0.03522
7.236,0.01723
7.24,0.00617
7.244,0.01011
7.248,0.02633
7.252,0.03556
7.256,0.01114
7.26,0.02865
7.264,0.02007
7.268,0.07702
7.272,0.01642
7.276,0.03478
7.28,0.01641
7.284,0.01632
7.288,-0.00653
7.292,0.03123
7.296,0.0054
7.3,0.028
7.304,0.02164
7.308,0.02199
7.312,0.02545
7.316,0.02944
7.32,0.01124
7.324,0.02123
7.328,0.04129
7.332,0.0409
7.336,0.05962
7.34,0.07555
7.344,0.07324
7.348,0.08532
7.352,0.11839
7.356,0.103
7.36,0.10874
7.364,0.1197
7.368,0.10283
7.372,0.11643
7.376,0.12984
7.38,0.10915
7.384,0.07137
7.388,0.06805
7.392,0.09354
7.396,0.04804
7.4,0.03237
7.404,0.02884
7.408,0.03392
7.412,0.03128
7.416,0.02456
7.42,0.04393
7.424,0.00266
7.428,0.04168
7.432,0.03227
7.436,0.01349
7.44,0.02442
7.444,0.04818
7.448,0.04111
7.452,0.00246
7.456,-0.01098
7.46,0.02973
7.464,0.04163
7.468,0.04045
7.472,0.02238
7.476,0.02158
7.48,0.00175
7.484,-0.00189
7.488,-0.04657
7.492,-0.08056
7.496,-0.07229
7.5,-0.00726
7.504,0.13109
7.508,0.27463
7.512,0.51776
7.516,0.70264
7.52,0.85713
7.524,1.00003
7.528,1.01676
7.532,0.92312
7.536,0.72862
7.54,0.49758
7.544,0.28485
7.548,0.0783
7.552,-0.0468
7.556,-0.13393
7.56,-0.13604
7.564,-0.10577
7.568,-0.06994
7.572,-0.02556
7.576,0.00818
7.58,-0.00477
7.584,0.01459
7.588,0.01438
7.592,0.04528
7.596,0.01328
7.6,0.06288
7.604,0.03696
7.608,0.0224
7.612,0.04911
7.616,0.03295
7.62,0.03042
7.624,0.03662
7.628,0.04222
7.632,0.02134
7.636,0.04472
7.64,0.02821
7.644,0.03118
7.648,0.03412
7.652,0.04126
7.656,0.02033
7.66,0.01668
7.664,0.02469
7.668,0.02879
7.672,0.02065
7.676,0.02673
7.68,0.04347
7.684,0.04248
7.688,0.03011
7.692,0.03819
7.696,0.05398
7.7,0.05549
7.704,0.04863
7.708,0.0513
7.712,0.05748
7.716,0.0478
7.72,0.06853
7.724,0.05525
7.728,0.06077
7.732,0.10447
7.736,0.08701
7.74,0.08052
7.744,0.11357
7.748,0.11751
7.752,0.13629
7.756,0.14764
7.76,0.14201
7.764,0.17173
7.768,0.17724
7.772,0.20514
7.776,0.1958
7.78,0.21521
7.784,0.21593
7.788,0.26181
7.792,0.26798
7.796,0.23219
7.8,0.26564
7.804,0.21686
7.808,0.24904
7.812,0.23855
7.816,0.21345
7.82,0.23969
7.824,0.21522
7.828,0.22584
7.832,0.22756
7.836,0.19806
7.84,0.20803
7.844,0.1978
7.848,0.18322
7.852,0.15501
7.856,0.15134
7.86,0.14006
7.864,0.13148
7.868,0.11932
7.872,0.12533
7.876,0.07988
7.88,0.09044
7.884,0.08546
7.888,0.10293
7.892,0.06935
7.896,0.06729
7.9,0.0453
7.904,0.086
7.908,0.03506
7.912,0.04295
7.916,0.04803
7.92,0.03227
7.924,0.05095
7.928,0.0468
7.932,0.01234
7.936,0.01557
7.94,0.01831
7.944,0.01712
7.948,0.03347
7.952,-0.00803
7.956,0.02654
7.96,0.05577
7.964,0.03676
7.968,0.00885
7.972,0.0012
7.976,0.04254
7.98,0.02882
7.984,0.02744
7.988,0.01311
7.992,0.05726
7.996,0.01079
8.0,0.01139
8.004,0.03034
8.008,0.04221
8.012,0.04455
8.016,0.01557
8.02,0.02694
8.024,0.02779
8.028,0.01219
8.032,0.03224
8.036,0.02917
8.04,0.03186
8.044,0.05041
8.048,0.06265
8.052,0.03327
8.056,0.04576
8.06,0.03195
8.064,0.04264
8.068,0.04318
8.072,0.02117
8.076,0.02436
8.08,0.02504
8.084,0.00503
8.088,0.04172
8.092,0.00035
8.096,0.01773
8.1,0.03005
8.104,0.04254
8.108,0.04383
8.112,0.04115
8.116,0.02255
8.12,0.03968
8.124,0.03397
8.128,0.05433
8.132,0.02375
8.136,0.02859
8.14,0.01398
8.144,0.0529
8.148,0.03803
8.152,0.03793
8.156,0.05757
8.16,0.03241
8.164,0.02086
8.168,0.01695
8.172,0.01545
8.176,0.0031
8.18,0.03583
8.184,0.02071
8.188,0.04559
8.192,0.02282
8.196,0.02414
8.2,0.01682
8.204,0.03473
8.208,0.00231
8.212,0.02616
8.216,0.0159
8.22,0.03285
8.224,0.02586
8.228,0.0193
8.232,0.04405
8.236,0.00923
8.24,0.02116
8.244,0.00406
8.248,0.03637
8.252,0.01105
8.256,0.04013
8.26,0.0247
8.264,0.02115
8.268,0.03271
8.272,0.03121
8.276,0.04938
8.28,0.02503
8.284,0.00802
8.288,0.03605
8.292,0.02745
8.296,0.03599
8.3,0.02959
8.304,0.0604
8.308,0.02492
8.312,0.0237
8.316,0.01402
8.32,0.02383
8.324,0.03599
8.328,0.0206
8.332,0.0363
8.336,0.02468
8.34,0.00492
8.344,0.03885
8.348,0.03619
8.352,0.04297
8.356,0.01863
8.36,0.04181
8.364,0.02868
8.368,0.04213
8.372,0.01369
8.376,0.01963
8.38,0.07284
8.384,0.07186
8.388,0.0779
8.392,0.0946
8.396,0.09993
8.4,0.12065
8.404,0.11545
8.408,0.11946
8.412,0.14375
8.416,0.14843
8.42,0.1494
8.424,0.10665
8.428,0.133
8.432,0.07379
8.436,0.08102
8.44,0.08591
8.444,0.05231
8.448,0.04421
8.452,0.03151
8.456,0.04606
8.46,0.02839
8.464,0.03088
8.468,0.03062
8.472,0.02583
8.476,0.02663
8.48,0.05956
8.484,0.02373
8.488,0.04629
8.492,0.02109
8.496,0.02244
8.5,0.03176
8.504,0.02378
8.508,0.04815
8.512,0.02643
8.516,0.01395
8.52,0.01105
8.524,0.01252
8.528,-0.02316
8.532,-0.0435
8.536,-0.05907
8.54,-0.12704
8.544,-0.03959
8.548,0.03071
8.552,0.18205
8.556,0.36605
8.56,0.58897
8.564,0.78642
8.568,0.93864
8.572,1.00596
8.576,0.99249
8.58,0.8484
8.584,0.63078
8.588,0.39948
8.592,0.15744
8.596,0.00635
8.6,-0.09645
8.604,-0.14867
8.608,-0.10823
8.612,-0.1082
8.616,-0.06065
8.62,0.01167
8.624,-0.01611
8.628,0.0156
8.632,0.00369
8.636,-0.00089
8.64,-0.00278
8.644,0.02576
8.648,0.05502
8.652,0.02652
8.656,0.00914
8.66,0.03087
8.664,0.02599
8.668,0.00995
8.672,0.01828
8.676,0.02376
8.68,0.03032
8.684,0.00761
8.688,0.00803
8.692,0.01725
8.696,0.0406
8.7,0.03227
8.704,0.01036
8.708,0.0392
8.712,-0.00492
8.716,0.03055
8.72,0.02201
8.724,0.03179
8.728,0.01925
8.732,0.03642
8.736,0.01161
8.74,0.01831
8.744,0.04713
8.748,0.05146
8.752,0.03037
8.756,0.03326
8.76,0.03954
8.764,0.06221
8.768,0.07973
8.772,0.05736
8.776,0.08847
8.78,0.06391
8.784,0.08391
8.788,0.0816
8.792,0.09798
8.796,0.12035
8.8,0.12039
8.804,0.13499
8.808,0.15569
8.812,0.13354
8.816,0.1552
8.82,0.16789
8.824,0.19439
8.828,0.20537
8.832,0.195
8.836,0.22727
8.84,0.23875
8.844,0.23093
8.848,0.22318
8.852,0.23807
8.856,0.24648
8.86,0.25143
8.864,0.20906
8.868,0.2348
8.872,0.20957
8.876,0.20016
8.88,0.18284
8.884,0.20325
8.888,0.16929
8.892,0.17446
8.896,0.1571
8.9,0.12555
8.904,0.16076
8.908,0.13614
8.912,0.09609
8.916,0.11358
8.92,0.08583
8.924,0.09024
8.928,0.06269
8.932,0.06878
8.936,0.08493
8.94,0.06208
8.944,0.02281
8.948,0.04112
8.952,0.02837
8.956,0.02643
8.96,0.03822
8.964,0.02001
8.968,0.02445
8.972,0.02917
8.976,0.02959
8.98,0.02556
8.984,0.02355
8.988,0.03496
8.992,0.04415
8.996,0.02735
9.0,0.02001
9.004,-0.01167
9.008,0.01237
9.012,0.00919
9.016,-0.00577
9.02,0.01001
9.024,0.03808
9.028,0.01931
9.032,0.02043
9.036,0.02212
9.04,0.01168
9.044,0.01575
9.048,0.02829
9.052,0.03436
9.056,-0.00413
9.06,0.00513
9.064,0.02312
9.068,-0.00361
9.072,0.01086
9.076,0.0285
9.08,0.01378
9.084,0.03622
9.088,-0.00713
9.092,0.02951
9.096,0.01765
9.1,0.01008
9.104,0.02916
9.108,-0.00029
9.112,0.01038
9.116,0.0136
9.12,0.0045
9.124,0.00207
9.128,0.02239
9.132,0.01189
9.136,-0.01704
9.14,0.00046
9.144,0.01287
9.148,-0.01092
9.152,0.00589
9.156,0.01864
9.16,-0.00514
9.164,0.00412
9.168,-0.01927
9.172,0.01461
9.176,0.01046
9.18,0.04934
9.184,0.03014
9.188,-0.001
9.192,0.01357
9.196,-0.00482
9.2,0.02424
9.204,0.04136
9.208,0.0277
9.212,0.00634
9.216,0.01595
9.22,0.03328
9.224,0.00787
9.228,-0.0023
9.232,0.04835
9.236,0.02936
9.24,0.03247
9.244,0.00229
9.248,0.00385
9.252,-0.00133
9.256,-0.00305
9.26,0.01743
9.264,0.02117
9.268,0.01979
9.272,0.01626
9.276,0.01822
9.28,0.00043
9.284,0.00584
9.288,0.04957
9.292,0.0045
9.296,0.01543
9.3,-0.00608
9.304,-0.00738
9.308,0.01157
9.312,0.03877
9.316,-0.00112
9.32,0.01782
9.324,-0.00336
9.328,-0.02286
9.332,0.01383
9.336,0.03182
9.34,0.0134
9.344,0.02036
9.348,0.03344
9.352,0.01295
9.356,0.0164
9.36,0.02714
9.364,0.00626
9.368,0.00565
9.372,0.00857
9.376,0.01273
9.38,-0.00928
9.384,-0.01947
9.388,-0.00792
9.392,0.02258
9.396,-0.00432
9.4,-6e-05
9.404,0.02497
9.408,0.0038
9.412,-0.01589
9.416,-0.00028
9.42,-0.00204
9.424,0.01091
9.428,0.00121
9.432,-0.00255
9.436,0.00961
9.44,0.013
9.444,-0.00948
9.448,0.00677
9.452,0.00563
9.456,0.00516
9.46,0.00669
9.464,-0.01006
9.468,-0.00706
9.472,0.00139
9.476,0.00537
9.48,0.02012
9.484,-0.00942
9.488,0.01059
9.492,0.00982
9.496,-0.01505
9.5,0.00041
9.504,0.00429
9.508,-0.0036
9.512,0.01365
9.516,-0.00442
9.52,0.00223
9.524,0.00721
9.528,0.00147
9.532,0.01542
9.536,0.00124
9.54,0.03856
9.544,0.05594
9.548,0.04196
9.552,0.01756
9.556,0.03942
9.56,0.03884
9.564,0.07854
9.568,0.08689
9.572,0.11707
9.576,0.07846
9.58,0.10632
9.584,0.08989
9.588,0.08196
9.592,0.0962
9.596,0.07432
9.6,0.03083
9.604,0.07026
9.608,-0.00548
9.612,0.01805
9.616,0.02855
9.62,0.03052
9.624,-0.01515
9.628,-0.0094
9.632,0.0063
9.636,0.01191
9.64,-0.01032
9.644,0.0192
9.648,-0.0134
9.652,2e-05
9.656,-0.04113
9.66,0.01177
9.664,0.02027
9.668,0.01613
9.672,-0.00611
9.676,0.00947
9.68,0.0191
9.684,-0.00898
9.688,0.01248
9.692,-0.0321
9.696,-0.00708
9.7,-0.06459
9.704,-0.11531
9.708,-0.10496
9.712,-0.11137
9.716,0.01653
9.72,0.12795
9.724,0.32343
9.728,0.53278
9.732,0.76754
9.736,0.91534
9.74,0.98226
9.744,0.94438
9.748,0.82091
9.752,0.59729
9.756,0.39006
9.76,0.15152
9.764,-0.02911
9.768,-0.10514
9.772,-0.15732
9.776,-0.16962
9.78,-0.1295
9.784,-0.08752
9.788,-0.04455
9.792,-0.02915
9.796,-0.02599
9.8,-0.0089
9.804,-0.01449
9.808,-0.01959
9.812,-0.01807
9.816,0.00385
9.82,-0.00311
9.824,-0.01398
9.828,-0.03013
9.832,-0.01071
9.836,-0.00641
9.84,-0.02248
9.844,-0.00661
9.848,-0.02931
9.852,0.01035
9.856,0.01089
9.86,-0.02284
9.864,-0.01244
9.868,-0.01563
9.872,-0.00613
9.876,-0.01669
9.88,-0.01014
9.884,0.00019
9.888,-0.02308
9.892,0.01457
9.896,0.00168
9.9,0.00621
9.904,-0.01035
9.908,0.0093
9.912,-0.01194
9.916,-0.0068
9.92,0.0034
9.924,0.00605
9.928,0.01318
9.932,0.0149
9.936,0.03466
9.94,0.04057
9.944,0.03625
9.948,0.04199
9.952,0.0746
9.956,0.10005
9.96,0.05648
9.964,0.08342
9.968,0.11218
9.972,0.11582
9.976,0.12658
9.98,0.12079
9.984,0.15822
9.988,0.15085
9.992,0.15845
9.996,0.16742
