t_seg,ecg_mV
0.0,-0.01397
0.004,0.00771
0.008,-0.0553
0.012,-0.03864
0.016,-0.01176
0.02,0.01844
0.024,-0.03999
0.028,0.02822
0.032,-0.03063
0.036,-0.01129
0.04,-0.01073
0.044,0.01325
0.048,-0.03722
0.052,0.02725
0.056,-0.00235
0.06,0.02333
0.064,0.00875
0.068,-0.07459
0.072,0.03331
0.076,-0.00091
0.08,-0.02685
0.084,0.00974
0.088,0.05668
0.092,-0.04474
0.096,0.03369
0.1,0.06465
0.104,-0.04174
0.108,0.03927
0.112,-5e-05
0.116,-0.00689
0.12,0.00426
0.124,0.0491
0.128,-0.02517
0.132,0.00696
0.136,-0.01038
0.14,-0.04274
0.144,0.00438
0.148,-0.02737
0.152,0.01852
0.156,-0.08416
0.16,0.00367
0.164,-0.0217
0.168,0.08854
0.172,-0.02845
0.176,-0.02472
0.18,0.08089
0.184,-0.0209
0.188,-0.0073
0.192,-0.05715
0.196,-0.01089
0.2,0.02279
0.204,-0.0144
0.208,0.00726
0.212,0.01523
0.216,0.03114
0.22,-0.00507
0.224,0.01908
0.228,-0.03237
0.232,-0.00316
0.236,0.02195
0.24,0.02395
0.244,-0.03893
0.248,0.05997
0.252,0.00783
0.256,0.00205
0.26,0.05993
0.264,0.01707
0.268,0.01679
0.272,0.00554
0.276,-0.03608
0.28,0.02523
0.284,0.04005
0.288,0.04354
0.292,0.0388
0.296,0.02894
0.3,0.01362
0.304,0.01062
0.308,-0.02471
0.312,-0.05367
0.316,-0.01287
0.32,-0.03477
0.324,0.06627
0.328,0.02705
0.332,0.04013
0.336,0.02488
0.34,0.01149
0.344,-0.07621
0.348,0.03945
0.352,0.00312
0.356,0.01252
0.36,0.00469
0.364,-0.06088
0.368,0.03212
0.372,0.00131
0.376,-0.00087
0.38,-0.00644
0.384,0.02047
0.388,0.03921
0.392,0.01084
0.396,0.02001
0.4,0.06812
0.404,0.02585
0.408,0.01905
0.412,0.05591
0.416,0.06432
0.42,0.11521
0.424,0.13452
0.428,0.05283
0.432,0.09497
0.436,0.12377
0.44,0.09143
0.444,0.07848
0.448,0.08305
0.452,0.00082
0.456,0.05785
0.46,-0.01779
0.464,-0.02205
0.468,-0.01345
0.472,0.0639
0.476,-0.04267
0.48,0.00277
0.484,0.05475
0.488,0.01186
0.492,-0.07476
0.496,0.00901
0.5,-0.05089
0.504,-0.06404
0.508,0.00623
0.512,0.06025
0.516,0.05468
0.52,-0.05812
0.524,0.00959
0.528,0.00661
0.532,-0.00984
0.536,0.05644
0.54,0.00577
0.544,-0.0047
0.548,-0.04729
0.552,-0.15861
0.556,-0.11254
0.56,-0.09853
0.564,0.05973
0.568,0.1077
0.572,0.30344
0.576,0.58374
0.58,0.82924
0.584,0.89151
0.588,1.0046
0.592,0.97558
0.596,0.77884
0.6,0.58341
0.604,0.43804
0.608,0.18497
0.612,-0.04109
0.616,-0.13956
0.62,-0.11502
0.624,-0.14336
0.628,-0.10819
0.632,-0.10493
0.636,-0.05662
0.64,-0.04288
0.644,-0.00485
0.648,0.03322
0.652,0.04789
0.656,0.00012
0.66,-0.07029
0.664,-0.02104
0.668,-0.00372
0.672,-0.08975
0.676,0.06265
0.68,-0.014
0.684,-0.01072
0.688,-0.0186
0.692,0.015
0.696,-0.00953
0.7,0.02925
0.704,0.06411
0.708,0.02333
0.712,0.05276
0.716,-0.00683
0.72,-0.02068
0.724,0.04957
0.728,-0.00345
0.732,-0.01443
0.736,-0.03313
0.74,-0.02067
0.744,0.03543
0.748,-0.02845
0.752,0.06244
0.756,0.05326
0.76,0.01428
0.764,0.01122
0.768,0.03279
0.772,0.04819
0.776,0.0312
0.78,0.1322
0.784,-0.01506
0.788,0.01438
0.792,0.03728
0.796,0.09907
0.8,0.08818
0.804,0.06323
0.808,0.14692
0.812,0.12932
0.816,0.16551
0.82,0.13359
0.824,0.14488
0.828,0.09711
0.832,0.2075
0.836,0.16529
0.84,0.25123
0.844,0.21535
0.848,0.20708
0.852,0.18267
0.856,0.20007
0.86,0.23111
0.864,0.22109
0.868,0.2283
0.872,0.1705
0.876,0.24358
0.88,0.27078
0.884,0.19981
0.888,0.19588
0.892,0.17698
0.896,0.26037
0.9,0.14163
0.904,0.2028
0.908,0.18848
0.912,0.2062
0.916,0.19176
0.92,0.20207
0.924,0.08997
0.928,0.07059
0.932,0.18221
0.936,0.16324
0.94,0.15271
0.944,0.15876
0.948,0.15415
0.952,0.19928
0.956,0.20142
0.96,0.06852
0.964,0.14542
0.968,0.15058
0.972,0.05307
0.976,0.03778
0.98,0.03395
0.984,0.0641
0.988,0.03962
0.992,0.05862
0.996,0.00826
1.0,0.10183
1.004,0.0551
1.008,0.02958
1.012,0.05533
1.016,0.04658
1.02,0.05544
1.024,0.06724
1.028,-0.05227
1.032,-0.00553
1.036,0.0473
1.04,0.02454
1.044,-0.0003
1.048,0.02548
1.052,0.02117
1.056,0.01674
1.06,0.01671
1.064,0.03624
1.068,-0.03417
1.072,-0.10484
1.076,-0.10863
1.08,-0.10474
1.084,-0.02487
1.088,0.15658
1.092,0.37554
1.096,0.58288
1.1,0.75858
1.104,0.91381
1.108,0.99086
1.112,0.992
1.116,0.88882
1.12,0.63994
1.124,0.43817
1.128,0.15565
1.132,0.05813
1.136,-0.07536
1.14,-0.12015
1.144,-0.11606
1.148,-0.12383
1.152,-0.10311
1.156,-0.07721
1.16,-0.02069
1.164,0.00132
1.168,-0.02951
1.172,-0.0062
1.176,0.01832
1.18,0.02498
1.184,0.00914
1.188,-0.0402
1.192,0.0725
1.196,0.03007
1.2,0.10815
1.204,0.01845
1.208,0.05049
1.212,0.07413
1.216,0.06848
1.22,0.00158
1.224,0.01553
1.228,0.04212
1.232,-0.00136
1.236,0.0524
1.24,0.00986
1.244,0.03921
1.248,0.01097
1.252,0.009
1.256,-0.00012
1.26,-0.01403
1.264,0.02186
1.268,0.0082
1.272,0.08081
1.276,0.02643
1.28,0.01309
1.284,0.05202
1.288,0.0092
1.292,-0.02362
1.296,0.0309
1.3,0.05709
1.304,0.02899
1.308,0.14295
1.312,0.03963
1.316,0.04474
1.32,0.18564
1.324,0.06877
1.328,0.13493
1.332,0.10819
1.336,0.08831
1.34,0.15269
1.344,0.15097
1.348,0.17932
1.352,0.26165
1.356,0.19666
1.36,0.21589
1.364,0.16627
1.368,0.25132
1.372,0.21792
1.376,0.26755
1.38,0.26916
1.384,0.24561
1.388,0.28427
1.392,0.2388
1.396,0.21779
1.4,0.19498
1.404,0.22929
1.408,0.26494
1.412,0.27413
1.416,0.18829
1.42,0.20924
1.424,0.1738
1.428,0.14191
1.432,0.20339
1.436,0.16272
1.44,0.18491
1.444,0.16739
1.448,0.16253
1.452,0.12904
1.456,0.01373
1.46,0.10616
1.464,0.08175
1.468,0.03326
1.472,0.07722
1.476,0.04044
1.48,0.01762
1.484,0.09357
1.488,0.05728
1.492,0.06579
1.496,-0.00844
1.5,0.04295
1.504,-0.01545
1.508,0.01598
1.512,0.04524
1.516,0.03482
1.52,0.01929
1.524,-0.00109
1.528,0.08308
1.532,-0.01193
1.536,0.05657
1.54,0.10579
1.544,0.04341
1.548,0.07975
1.552,0.04978
1.556,0.00238
1.56,0.04385
1.564,0.0674
1.568,0.00956
1.572,0.02284
1.576,0.05291
1.58,0.04271
1.584,0.00515
1.588,0.06185
1.592,0.0566
1.596,0.04226
1.6,0.01794
1.604,0.02709
1.608,0.07113
1.612,0.00688
1.616,0.04412
1.62,0.10404
1.624,0.06613
1.628,0.05655
1.632,-0.01286
1.636,-0.01085
1.64,-0.02038
1.644,0.01383
1.648,0.00341
1.652,0.00208
1.656,0.04266
1.66,0.00487
1.664,0.05214
1.668,0.02661
1.672,0.04547
1.676,0.05585
1.68,0.03266
1.684,0.06924
1.688,0.03553
1.692,-0.00301
1.696,0.01427
1.7,0.05115
1.704,0.06722
1.708,0.00318
1.712,0.00115
1.716,0.09761
1.72,0.08925
1.724,0.01814
1.728,0.02326
1.732,0.01404
1.736,0.0717
1.74,0.10343
1.744,0.02961
1.748,0.03739
1.752,0.01581
1.756,0.01941
1.76,-0.0243
1.764,0.01471
1.768,0.05732
1.772,0.07941
1.776,-0.03059
1.78,0.02553
1.784,0.0625
1.788,0.09347
1.792,0.02045
1.796,0.05875
1.8,0.05201
1.804,0.02513
1.808,0.05189
1.812,0.08415
1.816,0.04401
1.82,0.08018
1.824,0.07175
1.828,0.09777
1.832,0.1042
1.836,0.1122
1.84,0.09662
1.844,0.11544
1.848,0.11376
1.852,0.14697
1.856,0.13586
1.86,0.06174
1.864,0.1154
1.868,0.11473
1.872,0.10236
1.876,0.00297
1.88,0.05832
1.884,0.01744
1.888,0.03699
1.892,0.00644
1.896,0.04606
1.9,0.02241
1.904,0.07426
1.908,0.03178
1.912,0.04197
1.916,0.03296
1.92,0.05496
1.924,-0.01965
1.928,0.02143
1.932,0.00588
1.936,0.05794
1.94,0.07271
1.944,-0.01633
1.948,-0.00385
1.952,0.07694
1.956,0.02224
1.96,0.01037
1.964,0.03723
1.968,0.0062
1.972,-0.08937
1.976,-0.08009
1.98,-0.0938
1.984,0.00278
1.988,0.13682
1.992,0.30695
1.996,0.49302
2.0,0.67403
2.004,0.94067
2.008,1.0678
2.012,1.06876
2.016,0.92239
2.02,0.73836
2.024,0.51557
2.028,0.26756
2.032,0.11294
2.036,-0.03801
2.04,-0.18523
2.044,-0.20979
2.048,-0.11465
2.052,-0.0829
2.056,-0.09333
2.06,-0.01484
2.064,0.00573
2.068,0.02093
2.072,0.04047
2.076,0.05298
2.08,0.09357
2.084,-0.00627
2.088,0.03707
2.092,-0.04313
2.096,0.00737
2.1,-0.0002
2.104,0.02878
2.108,0.04645
2.112,0.00756
2.116,0.05184
2.12,0.04543
2.124,0.01284
2.128,-0.01574
2.132,0.0566
2.136,-0.00747
2.14,0.01478
2.144,0.02478
2.148,0.09766
2.152,0.02699
2.156,-0.00524
2.16,0.01676
2.164,0.03642
2.168,0.04565
2.172,0.00699
2.176,0.02794
2.18,0.04624
2.184,0.06962
2.188,0.06415
2.192,0.07848
2.196,0.00981
2.2,0.09345
2.204,0.08539
2.208,0.03586
2.212,0.11994
2.216,0.05058
2.22,0.10538
2.224,0.1266
2.228,0.04281
2.232,0.11371
2.236,0.09646
2.24,0.13599
2.244,0.19725
2.248,0.15051
2.252,0.12753
2.256,0.16213
2.26,0.1801
2.264,0.25214
2.268,0.22513
2.272,0.21118
2.276,0.25682
2.28,0.21815
2.284,0.29893
2.288,0.29818
2.292,0.25553
2.296,0.28212
2.3,0.20227
2.304,0.26202
2.308,0.23207
2.312,0.22729
2.316,0.21553
2.32,0.18919
2.324,0.22803
2.328,0.242
2.332,0.19445
2.336,0.1061
2.34,0.12234
2.344,0.10137
2.348,0.05109
2.352,0.10868
2.356,0.12328
2.36,0.04282
2.364,0.0637
2.368,0.1157
2.372,0.07463
2.376,0.03289
2.38,0.02164
2.384,0.04591
2.388,0.05239
2.392,0.12496
2.396,0.08699
2.4,0.0336
2.404,0.04307
2.408,0.10576
2.412,0.06001
2.416,0.04105
2.42,-0.01519
2.424,-0.03251
2.428,0.04372
2.432,-0.02078
2.436,0.02954
2.44,0.02262
2.444,0.03105
2.448,0.09141
2.452,-0.04266
2.456,-0.02028
2.46,0.04735
2.464,0.08774
2.468,0.06117
2.472,-0.06263
2.476,0.07735
2.48,0.03889
2.484,-0.01592
2.488,-0.00178
2.492,0.00407
2.496,0.02411
2.5,0.0487
2.504,-0.01748
2.508,0.03922
2.512,0.02982
2.516,0.02773
2.52,0.0612
2.524,-0.02986
2.528,-0.03029
2.532,-0.043
2.536,0.00559
2.54,0.00512
2.544,0.0383
2.548,0.03896
2.552,-0.02941
2.556,-0.04009
2.56,0.06918
2.564,0.0782
2.568,0.02587
2.572,0.07306
2.576,0.05412
2.58,0.05484
2.584,0.08809
2.588,0.10118
2.592,0.08168
2.596,0.19056
2.6,0.13626
2.604,0.16101
2.608,0.17107
2.612,0.08558
2.616,0.16468
2.62,0.13859
2.624,0.10044
2.628,0.04846
2.632,0.03806
2.636,0.02533
2.64,0.06792
2.644,0.08899
2.648,0.0801
2.652,0.0207
2.656,-0.01427
2.66,-0.01672
2.664,-0.03097
2.668,-0.00441
2.672,0.03247
2.676,0.0008
2.68,-0.00721
2.684,0.08132
2.688,-0.01835
2.692,0.0152
2.696,-0.00118
2.7,-0.02729
2.704,0.01116
2.708,0.05454
2.712,0.07078
2.716,-0.04753
2.72,0.02464
2.724,-0.02069
2.728,-0.09278
2.732,-0.02655
2.736,-0.07424
2.74,0.12618
2.744,0.26346
2.748,0.54316
2.752,0.65801
2.756,0.90596
2.76,1.01267
2.764,1.06065
2.768,0.91307
2.772,0.63516
2.776,0.43414
2.78,0.22591
2.784,0.02827
2.788,-0.1236
2.792,-0.13995
2.796,-0.13439
2.8,-0.12279
2.804,-0.0928
2.808,-0.07436
2.812,0.01055
2.816,-0.03692
2.82,-0.03273
2.824,-0.03969
2.828,-0.05027
2.832,0.0009
2.836,0.04757
2.84,-0.00518
2.844,0.05607
2.848,-0.01063
2.852,0.00464
2.856,0.01308
2.86,0.00223
2.864,0.03472
2.868,-0.04056
2.872,0.00556
2.876,-0.04684
2.88,0.01381
2.884,0.04587
2.888,-0.0047
2.892,-0.05256
2.896,0.02327
2.9,0.02219
2.904,0.10575
2.908,0.02236
2.912,-0.03793
2.916,0.00904
2.92,-0.00694
2.924,0.10435
2.928,-0.06655
2.932,0.07224
2.936,0.03903
2.94,0.01611
2.944,0.06892
2.948,0.07233
2.952,0.07433
2.956,0.0978
2.96,0.02034
2.964,0.10125
2.968,0.12238
2.972,0.07115
2.976,0.05406
2.98,0.05197
2.984,0.10148
2.988,0.15885
2.992,0.12434
2.996,0.12386
3.0,0.13802
3.004,0.22753
3.008,0.20564
3.012,0.23912
3.016,0.184
3.02,0.21672
3.024,0.17698
3.028,0.23221
3.032,0.25538
3.036,0.17988
3.04,0.19185
3.044,0.19399
3.048,0.18493
3.052,0.24718
3.056,0.18332
3.06,0.1875
3.064,0.22206
3.068,0.22646
3.072,0.22899
3.076,0.13976
3.08,0.16286
3.084,0.15342
3.088,0.18589
3.092,0.1042
3.096,0.11122
3.1,0.11623
3.104,0.07705
3.108,0.0712
3.112,0.09858
3.116,0.02346
3.12,0.06134
3.124,0.0701
3.128,-0.00384
3.132,0.06804
3.136,0.07412
3.14,0.05966
3.144,0.04722
3.148,0.04467
3.152,-0.01184
3.156,-0.03048
3.16,0.02493
3.164,0.06072
3.168,0.01323
3.172,0.03171
3.176,-0.00033
3.18,-0.04533
3.184,-0.06753
3.188,0.05981
3.192,0.00378
3.196,0.03002
3.2,0.04
3.204,-0.01089
3.208,0.02984
3.212,0.03013
3.216,-0.00984
3.22,-0.0088
3.224,0.04927
3.228,0.0093
3.232,0.02564
3.236,-0.05186
3.24,0.04569
3.244,0.01632
3.248,0.03831
3.252,0.03734
3.256,-0.03647
3.26,0.03301
3.264,0.00889
3.268,-0.0142
3.272,0.02497
3.276,0.02906
3.28,0.02046
3.284,0.02411
3.288,0.12668
3.292,0.08606
3.296,0.02303
3.3,0.10118
3.304,0.11794
3.308,0.05984
3.312,0.11563
3.316,0.10075
3.32,0.08302
3.324,0.17076
3.328,0.03208
3.332,0.05552
3.336,0.00259
3.34,0.04017
3.344,0.01489
3.348,0.08282
3.352,0.02284
3.356,0.0109
3.36,0.00654
3.364,-0.0249
3.368,-0.04952
3.372,0.0037
3.376,0.01771
3.38,-0.03571
3.384,0.0081
3.388,0.03624
3.392,0.00961
3.396,-0.07004
3.4,0.01754
3.404,-0.02405
3.408,0.03397
3.412,0.01175
3.416,0.06258
3.42,-0.07624
3.424,-0.01652
3.428,-0.0359
3.432,-0.05635
3.436,-0.15772
3.44,-0.08998
3.444,-0.02686
3.448,0.1829
3.452,0.3101
3.456,0.51993
3.46,0.76945
3.464,0.92812
3.468,1.00557
3.472,0.94878
3.476,0.83223
3.48,0.65789
3.484,0.36556
3.488,0.18841
3.492,-0.01235
3.496,-0.08718
3.5,-0.18442
3.504,-0.1293
3.508,-0.10257
3.512,-0.12333
3.516,0.00986
3.52,-0.07185
3.524,0.00497
3.528,-0.00313
3.532,0.01105
3.536,-0.00634
3.54,0.00529
3.544,-0.04062
3.548,-0.03065
3.552,-0.04761
3.556,-0.01345
3.56,-0.00443
3.564,0.00713
3.568,-0.0084
3.572,-0.04796
3.576,-0.06307
3.58,-0.02471
3.584,0.02533
3.588,-0.03128
3.592,0.02606
3.596,-0.02134
3.6,0.04828
3.604,-0.02301
3.608,-0.04646
3.612,-0.0016
3.616,-0.04171
3.62,0.00086
3.624,-0.03892
3.628,0.02802
3.632,0.01504
3.636,-0.01252
3.64,-0.00852
3.644,0.00142
3.648,0.06601
3.652,-0.01126
3.656,0.046
3.66,0.01652
3.664,0.03785
3.668,0.04998
3.672,0.05192
3.676,0.04662
3.68,0.0839
3.684,0.05396
3.688,0.10748
3.692,0.05642
3.696,-0.00972
3.7,0.08985
3.704,0.11555
3.708,0.14852
3.712,0.16249
3.716,0.21812
3.72,0.1764
3.724,0.15749
3.728,0.16505
3.732,0.14794
3.736,0.19564
3.74,0.26362
3.744,0.20637
3.748,0.25883
3.752,0.1719
3.756,0.198
3.76,0.27108
3.764,0.13284
3.768,0.23092
3.772,0.1581
3.776,0.1298
3.78,0.17022
3.784,0.14233
3.788,0.07477
3.792,0.19009
3.796,0.08611
3.8,0.08897
3.804,0.12174
3.808,0.03501
3.812,0.07333
3.816,0.10777
3.82,0.04047
3.824,0.08198
3.828,0.06901
3.832,0.00443
3.836,0.03455
3.84,0.03299
3.844,-0.00814
3.848,-0.03012
3.852,0.02986
3.856,0.04837
3.86,-0.0112
3.864,0.03178
3.868,-0.0024
3.872,0.00619
3.876,-0.0779
3.88,-0.02013
3.884,-0.02239
3.888,-0.03318
3.892,-0.02553
3.896,-0.04904
3.9,0.00888
3.904,0.02582
3.908,-0.05884
3.912,-0.04774
3.916,-0.0123
3.92,-0.01625
3.924,0.02365
3.928,0.03
3.932,-0.03471
3.936,-0.01023
3.94,-0.01857
3.944,-0.0181
3.948,-0.06409
3.952,-0.01886
3.956,-0.04329
3.96,0.00947
3.964,-0.06157
3.968,-0.08816
3.972,0.00087
3.976,-0.0269
3.98,0.06841
3.984,-0.06361
3.988,-0.00608
3.992,-0.01033
3.996,0.01481
4.0,0.00469
4.004,0.06398
4.008,0.01781
4.012,-0.00874
4.016,-0.05092
4.02,-0.01692
4.024,-0.02333
4.028,0.01071
4.032,-0.04301
4.036,-0.05634
4.04,-0.05374
4.044,-0.03506
4.048,0.03553
4.052,-0.00785
4.056,-0.01107
4.06,-0.01363
4.064,-4e-05
4.068,-0.03003
4.072,-0.04839
4.076,0.00259
4.08,0.0018
4.084,0.00866
4.088,-0.01562
4.092,0.00218
4.096,-0.0423
4.1,0.01108
4.104,-0.00241
4.108,-0.06615
4.112,-0.03733
4.116,-0.01177
4.12,0.01431
4.124,0.0162
4.128,-0.00802
4.132,-0.01616
4.136,-0.00184
4.14,-0.04365
4.144,0.04555
4.148,-0.01829
4.152,0.03887
4.156,0.00326
4.16,-0.05288
4.164,-0.03041
4.168,0.03665
4.172,0.03303
4.176,-0.04468
4.18,0.03188
4.184,-0.03343
4.188,0.00559
4.192,0.0261
4.196,-0.02162
4.2,0.11245
4.204,0.01335
4.208,0.06215
4.212,0.06736
4.216,0.05667
4.22,0.08631
4.224,0.07107
4.228,0.07772
4.232,0.04059
4.236,0.05307
4.24,0.05262
4.244,-0.01459
4.248,-0.03189
4.252,-0.08062
4.256,-0.04292
4.26,-0.00763
4.264,0.04191
4.268,-0.04513
4.272,0.01667
4.276,0.03565
4.28,0.00827
4.284,0.0051
4.288,0.02291
4.292,-0.04838
4.296,-0.01011
4.3,-0.012
4.304,0.04873
4.308,-0.06921
4.312,-0.06462
4.316,0.0013
4.32,0.00153
4.324,0.00592
4.328,-0.03016
4.332,-0.12233
4.336,-0.12133
4.34,-0.12586
4.344,-0.1281
4.348,-0.01028
4.352,0.00533
4.356,0.16912
4.36,0.42203
4.364,0.55668
4.368,0.84432
4.372,0.95127
4.376,1.01309
4.38,0.93737
4.384,0.7214
4.388,0.51639
4.392,0.29048
4.396,0.08708
4.4,-0.11362
4.404,-0.14778
4.408,-0.15306
4.412,-0.16094
4.416,-0.1919
4.42,-0.08274
4.424,-0.0322
4.428,-0.08117
4.432,0.03181
4.436,0.02789
4.44,-0.05433
4.444,-0.02558
4.448,-0.10462
4.452,-0.07795
4.456,0.02218
4.46,-0.01053
4.464,-0.0166
4.468,0.02746
4.472,-0.04978
4.476,-0.07313
4.48,0.02223
4.484,-0.02641
4.488,-0.01855
4.492,-0.03555
4.496,-0.01271
4.5,-0.00697
4.504,-0.00018
4.508,-0.07284
4.512,-0.06351
4.516,-0.01699
4.52,-0.05196
4.524,-0.01922
4.528,-0.09491
4.532,-0.00618
4.536,-0.02635
4.54,0.00307
4.544,-0.00074
4.548,-0.00555
4.552,-0.00706
4.556,0.03176
4.56,0.00738
4.564,0.03213
4.568,0.03153
4.572,0.02396
4.576,0.02038
4.58,0.03165
4.584,0.00748
4.588,0.08691
4.592,0.07128
4.596,0.01923
4.6,0.0553
4.604,0.15594
4.608,0.08793
4.612,0.10216
4.616,0.18091
4.62,0.16547
4.624,0.1837
4.628,0.22076
4.632,0.25138
4.636,0.13457
4.64,0.19961
4.644,0.13187
4.648,0.14341
4.652,0.2034
4.656,0.22944
4.66,0.20106
4.664,0.157
4.668,0.25964
4.672,0.16223
4.676,0.17722
4.68,0.12551
4.684,0.16769
4.688,0.12956
4.692,0.07375
4.696,0.19022
4.7,0.19019
4.704,0.07713
4.708,0.07767
4.712,0.0695
4.716,0.03356
4.72,0.00206
4.724,0.03776
4.728,0.01944
4.732,0.02217
4.736,0.00392
4.74,0.03883
4.744,0.06215
4.748,0.05252
4.752,0.01168
4.756,0.00716
4.76,0.00469
4.764,-0.01494
4.768,0.00604
4.772,-0.01261
4.776,-0.0571
4.78,-0.04365
4.784,-0.03891
4.788,-0.02277
4.792,-0.05895
4.796,-0.07511
4.8,-0.0912
4.804,-0.0122
4.808,0.02871
4.812,-0.02946
4.816,-0.09986
4.82,-0.00639
4.824,-0.01465
4.828,-0.04463
4.832,-0.04319
4.836,-0.02574
4.84,-0.02751
4.844,-0.03509
4.848,-0.03161
4.852,-0.03857
4.856,0.0059
4.86,-0.0945
4.864,-0.02316
4.868,0.00497
4.872,-0.03425
4.876,-0.02358
4.88,-0.03489
4.884,0.02092
4.888,0.03138
4.892,-0.07221
4.896,-0.02327
4.9,0.00345
4.904,0.03723
4.908,-0.03998
4.912,-0.07258
4.916,-0.03635
4.92,-0.02319
4.924,0.03965
4.928,0.07742
4.932,0.037
4.936,0.01308
4.94,-0.06544
4.944,-0.03426
4.948,-0.06208
4.952,-0.01472
4.956,-0.05044
4.96,-0.02923
4.964,-0.0008
4.968,0.00195
4.972,-0.05681
4.976,0.01526
4.98,-0.0642
4.984,-0.0257
4.988,-0.06127
4.992,-0.06327
4.996,-0.00898
5.0,-0.00403
5.004,-0.00465
5.008,-0.01652
5.012,0.00922
5.016,-0.00273
5.02,-0.04279
5.024,0.02069
5.028,0.03373
5.032,0.01323
5.036,0.0492
5.04,-0.05512
5.044,-0.06803
5.048,-0.05631
5.052,0.00362
5.056,0.00619
5.06,-0.04156
5.064,-0.01599
5.068,-0.01051
5.072,0.05545
5.076,-0.07982
5.08,-0.01874
5.084,0.03409
5.088,-0.03308
5.092,-0.00822
5.096,-0.0149
5.1,-0.08411
5.104,-0.02823
5.108,-0.06801
5.112,-0.06162
5.116,-0.01314
5.12,-0.0627
5.124,-0.02825
5.128,-0.03366
5.132,-0.00589
5.136,-0.01507
5.14,0.07809
5.144,0.08591
5.148,0.07055
5.152,0.03551
5.156,0.01734
5.16,0.06825
5.164,0.09072
5.168,-0.02141
5.172,0.02066
5.176,0.02807
5.18,0.028
5.184,0.01215
5.188,0.04254
5.192,-0.01982
5.196,-0.09234
5.2,-0.01859
5.204,-0.00859
5.208,-0.02979
5.212,-0.04344
5.216,0.03291
5.22,-0.05294
5.224,-0.0345
5.228,-0.00296
5.232,-0.03541
5.236,0.01332
5.24,-0.00403
5.244,-0.03292
5.248,-0.03976
5.252,-0.07094
5.256,0.00124
5.26,-0.01719
5.264,-0.05555
5.268,0.0065
5.272,-0.02718
5.276,-0.09332
5.28,-0.20028
5.284,-0.17036
5.288,-0.07023
5.292,-0.04789
5.296,0.11941
5.3,0.34844
5.304,0.51202
5.308,0.72496
5.312,0.85931
5.316,0.92231
5.32,0.89979
5.324,0.83178
5.328,0.54487
5.332,0.34329
5.336,0.12113
5.34,-0.02412
5.344,-0.12077
5.348,-0.21466
5.352,-0.20408
5.356,-0.21439
5.36,-0.05649
5.364,-0.05163
5.368,0.05495
5.372,-0.06736
5.376,-0.07837
5.38,-0.06211
5.384,-0.03437
5.388,-0.0129
5.392,0.03378
5.396,-0.0112
5.4,0.02021
5.404,0.00633
5.408,-0.11365
5.412,-0.02443
5.416,-0.03551
5.42,-0.05209
5.424,-0.05296
5.428,-0.05521
5.432,-0.08783
5.436,0.01913
5.44,-0.1132
5.444,-0.05535
5.448,0.01468
5.452,-0.03037
5.456,0.02029
5.46,-0.03438
5.464,-0.08144
5.468,-0.02928
5.472,-0.03269
5.476,-0.03836
5.48,-0.04046
5.484,0.00979
5.488,0.03073
5.492,-0.00184
5.496,-0.0378
5.5,0.0018
5.504,0.03123
5.508,-0.01854
5.512,0.02285
5.516,0.03855
5.52,0.09117
5.524,0.05885
5.528,0.14653
5.532,0.17268
5.536,0.19643
5.54,0.20597
5.544,0.14939
5.548,0.17321
5.552,0.18797
5.556,0.21687
5.56,0.25339
5.564,0.16453
5.568,0.18922
5.572,0.17653
5.576,0.21047
5.58,0.2196
5.584,0.17742
5.588,0.23228
5.592,0.21033
5.596,0.13091
5.6,0.23356
5.604,0.2696
5.608,0.16726
5.612,0.14247
5.616,0.22774
5.62,0.14384
5.624,0.1217
5.628,0.20026
5.632,0.15717
5.636,0.15458
5.64,0.07387
5.644,0.0341
5.648,0.07129
5.652,0.05565
5.656,0.05488
5.66,0.04622
5.664,0.02249
5.668,-0.01082
5.672,-0.05081
5.676,-0.02162
5.68,0.02676
5.684,0.14246
5.688,0.38958
5.692,0.55752
5.696,0.74752
5.7,0.95417
5.704,1.01014
5.708,0.95028
5.712,0.7662
5.716,0.59859
5.72,0.36365
5.724,0.11797
5.728,-0.01858
5.732,-0.10468
5.736,-0.21003
5.74,-0.19273
5.744,-0.06745
5.748,-0.08866
5.752,-0.06444
5.756,-0.03626
5.76,-0.00769
5.764,0.02895
5.768,-0.10106
5.772,-0.02065
5.776,-0.03246
5.78,-0.10194
5.784,-0.02346
5.788,-0.04211
5.792,-0.09498
5.796,0.00233
5.8,0.00807
5.804,0.01514
5.808,-0.02228
5.812,-0.00974
5.816,-0.02771
5.82,0.01696
5.824,-0.02987
5.828,-0.03177
5.832,-0.07968
5.836,0.00866
5.84,-0.02816
5.844,-0.05829
5.848,-0.01703
5.852,-0.03416
5.856,-0.02433
5.86,-0.02865
5.864,-0.0258
5.868,-0.08485
5.872,-0.02345
5.876,-0.05734
5.88,0.00328
5.884,0.06723
5.888,-0.01122
5.892,-8e-05
5.896,0.05233
5.9,-0.01726
5.904,0.04936
5.908,0.039
5.912,0.06145
5.916,0.04258
5.92,0.05802
5.924,0.06554
5.928,0.0604
5.932,0.15264
5.936,0.06339
5.94,0.07154
5.944,0.08669
5.948,0.15216
5.952,0.18197
5.956,0.13531
5.96,0.10173
5.964,0.21736
5.968,0.22321
5.972,0.20116
5.976,0.17779
5.98,0.19904
5.984,0.25168
5.988,0.18751
5.992,0.18513
5.996,0.19203
6.0,0.25061
6.004,0.18951
6.008,0.17853
6.012,0.1384
6.016,0.11624
6.02,0.19764
6.024,0.1311
6.028,0.11479
6.032,0.07128
6.036,0.10623
6.04,0.1516
6.044,0.10625
6.048,0.1164
6.052,0.10504
6.056,0.08527
6.06,0.01367
6.064,0.01312
6.068,0.09382
6.072,0.00212
6.076,0.00894
6.08,0.04071
6.084,-0.00552
6.088,-0.0042
6.092,0.00658
6.096,-0.02978
6.1,-0.06244
6.104,-0.04519
6.108,0.00297
6.112,-0.0035
6.116,0.01089
6.12,-0.0298
6.124,-0.04351
6.128,-0.01776
6.132,-0.02129
6.136,-0.05563
6.14,-0.03779
6.144,-0.00632
6.148,0.04604
6.152,0.0012
6.156,0.05109
6.16,0.02918
6.164,-0.02135
6.168,0.0025
6.172,0.0147
6.176,0.05705
6.18,0.08043
6.184,0.05558
6.188,0.06941
6.192,0.07142
6.196,0.0955
6.2,0.09813
6.204,0.08735
6.208,0.08299
6.212,0.03478
6.216,0.05475
6.22,0.02053
6.224,-3e-05
6.228,-0.03606
6.232,0.05819
6.236,0.05095
6.24,-0.09898
6.244,-0.05701
6.248,-0.01561
6.252,-0.00217
6.256,-0.00289
6.26,-0.00126
6.264,0.05473
6.268,-0.02708
6.272,-0.02288
6.276,-0.07583
6.28,-0.00729
6.284,-0.06428
6.288,-0.034
6.292,-0.04951
6.296,-0.04507
6.3,-0.02465
6.304,0.02689
6.308,-0.03033
6.312,-0.0538
6.316,-0.10948
6.32,-0.0933
6.324,-0.118
6.328,-0.12371
6.332,0.00583
6.336,0.1969
6.34,0.23249
6.344,0.58371
6.348,0.7608
6.352,0.91043
6.356,0.92595
6.36,0.87535
6.364,0.77976
6.368,0.55842
6.372,0.3527
6.376,0.08905
6.38,0.00816
6.384,-0.22955
6.388,-0.1061
6.392,-0.15845
6.396,-0.0341
6.4,-0.09522
6.404,-0.04261
6.408,-0.04489
6.412,-0.03005
6.416,-0.04505
6.42,-0.02569
6.424,-0.02077
6.428,0.03039
6.432,0.0293
6.436,-0.02937
6.44,-0.02789
6.444,-0.01768
6.448,0.10741
6.452,-0.02196
6.456,0.02224
6.46,-0.02516
6.464,-0.04308
6.468,-0.02688
6.472,-0.03859
6.476,-0.03148
6.48,0.04512
6.484,0.02395
6.488,-0.00495
6.492,-0.03814
6.496,-0.03473
6.5,0.02911
6.504,-0.02796
6.508,-0.01192
6.512,0.01915
6.516,0.0288
6.52,-0.00903
6.524,0.04238
6.528,-0.00308
6.532,-0.02143
6.536,0.01565
6.54,-0.09803
6.544,-0.00903
6.548,0.044
6.552,-0.0018
6.556,0.02508
6.56,0.0363
6.564,0.09663
6.568,0.07996
6.572,0.07172
6.576,0.1315
6.58,0.13822
6.584,0.08021
6.588,0.0381
6.592,0.14607
6.596,0.19673
6.6,0.11168
6.604,0.13662
6.608,0.164
6.612,0.19657
6.616,0.20392
6.62,0.18011
6.624,0.16233
6.628,0.20937
6.632,0.25773
6.636,0.26406
6.64,0.2925
6.644,0.14516
6.648,0.16813
6.652,0.20668
6.656,0.194
6.66,0.17978
6.664,0.18956
6.668,0.19306
6.672,0.22421
6.676,0.19783
6.68,0.10169
6.684,0.12123
6.688,0.0907
6.692,0.09694
6.696,0.08423
6.7,0.11728
6.704,0.09799
6.708,0.09716
6.712,0.01002
6.716,0.07687
6.72,0.06239
6.724,0.06649
6.728,-0.03595
6.732,0.05348
6.736,0.03464
6.74,-0.03452
6.744,0.00398
6.748,0.05992
6.752,0.00515
6.756,-0.00683
6.76,0.01991
6.764,0.00393
6.768,-0.03944
6.772,0.109
6.776,0.05425
6.78,0.03181
6.784,0.07929
6.788,0.07582
6.792,0.16979
6.796,0.009
6.8,0.09936
6.804,0.10718
6.808,0.07768
6.812,0.1
6.816,0.13537
6.82,0.13632
6.824,0.11425
6.828,0.08567
6.832,-0.03303
6.836,0.01485
6.84,0.02526
6.844,-0.00078
6.848,0.02464
6.852,-0.03158
6.856,0.02748
6.86,0.00192
6.864,0.02486
6.868,0.00086
6.872,0.06743
6.876,-0.06381
6.88,-0.04369
6.884,-0.02812
6.888,-0.02346
6.892,0.07263
6.896,0.01043
6.9,0.00183
6.904,0.00821
6.908,0.00638
6.912,0.03533
6.916,-0.01164
6.92,-0.0289
6.924,-0.10645
6.928,-0.0888
6.932,-0.11104
6.936,-0.05012
6.94,0.00783
6.944,0.20218
6.948,0.4501
6.952,0.57624
6.956,0.79477
6.96,0.90998
6.964,0.931
6.968,0.94376
6.972,0.78313
6.976,0.57451
6.98,0.34644
6.984,0.1702
6.988,-0.03319
6.992,-0.1107
6.996,-0.19496
7.0,-0.10981
7.004,-0.10848
7.008,-0.05212
7.012,-0.09586
7.016,-0.0137
7.02,0.01047
7.024,-0.02733
7.028,0.05477
7.032,-0.01427
7.036,0.03232
7.04,0.02108
7.044,-0.02514
7.048,-0.00228
7.052,0.01022
7.056,-0.01078
7.06,0.00992
7.064,-0.02803
7.068,0.00659
7.072,0.05143
7.076,0.01223
7.08,0.00887
7.084,0.00196
7.088,0.02106
7.092,0.00597
7.096,0.0255
7.1,-0.06264
7.104,0.09188
7.108,0.00297
7.112,-0.02134
7.116,-0.01497
7.12,0.03825
7.124,0.03508
7.128,0.04294
7.132,0.13385
7.136,0.05949
7.14,0.02543
7.144,0.09796
7.148,0.11028
7.152,0.18794
7.156,0.20875
7.16,0.16473
7.164,0.17351
7.168,0.15398
7.172,0.21422
7.176,0.09923
7.18,0.18257
7.184,0.07535
7.188,0.10346
7.192,0.1603
7.196,0.15802
7.2,0.15537
7.204,0.10978
7.208,0.22565
7.212,0.11514
7.216,0.13902
7.22,0.17721
7.224,0.29205
7.228,0.21663
7.232,0.23004
7.236,0.25569
7.24,0.24355
7.244,0.20963
7.248,0.23071
7.252,0.24189
7.256,0.16879
7.26,0.20453
7.264,0.22073
7.268,0.19719
7.272,0.2023
7.276,0.17581
7.28,0.1076
7.284,0.0996
7.288,-0.01398
7.292,-0.01122
7.296,0.16867
7.3,0.15786
7.304,0.29716
7.308,0.53086
7.312,0.6984
7.316,0.91247
7.32,0.9831
7.324,1.00213
7.328,0.94861
7.332,0.77654
7.336,0.57245
7.34,0.3962
7.344,0.11221
7.348,-0.05214
7.352,-0.11472
7.356,-0.15091
7.36,-0.14225
7.364,-0.11601
7.368,-0.05076
7.372,0.02047
7.376,0.02191
7.38,-0.00974
7.384,0.04933
7.388,0.00773
7.392,0.04372
7.396,0.03779
7.4,0.03172
7.404,0.03649
7.408,-0.02249
7.412,0.02843
7.416,0.0144
7.42,0.04758
7.424,0.00414
7.428,0.01061
7.432,-0.01339
7.436,-0.00205
7.44,0.03535
7.444,0.0121
7.448,0.01965
7.452,-0.02029
7.456,0.04332
7.46,0.0215
7.464,0.0315
7.468,0.00177
7.472,0.03017
7.476,-0.04022
7.48,0.00761
7.484,-0.00852
7.488,0.00178
7.492,0.04817
7.496,0.01563
7.5,0.08106
7.504,0.03077
7.508,0.01354
7.512,0.04448
7.516,-0.00892
7.52,0.11522
7.524,0.05864
7.528,0.0608
7.532,0.10299
7.536,0.09031
7.54,0.05157
7.544,0.08253
7.548,0.12561
7.552,0.18397
7.556,0.12822
7.56,0.11774
7.564,0.13271
7.568,0.17989
7.572,0.18925
7.576,0.19887
7.58,0.17474
7.584,0.2453
7.588,0.21225
7.592,0.2471
7.596,0.21031
7.6,0.20485
7.604,0.24158
7.608,0.25521
7.612,0.22044
7.616,0.2221
7.62,0.21167
7.624,0.2432
7.628,0.21338
7.632,0.24761
7.636,0.25271
7.64,0.17303
7.644,0.1487
7.648,0.19798
7.652,0.17246
7.656,0.12869
7.66,0.10877
7.664,0.12024
7.668,0.11624
7.672,0.08333
7.676,0.07522
7.68,0.06413
7.684,0.03701
7.688,0.06767
7.692,0.05722
7.696,0.04802
7.7,0.09061
7.704,0.05968
7.708,0.02582
7.712,0.08088
7.716,0.08465
7.72,0.02007
7.724,0.11107
7.728,0.06879
7.732,0.11968
7.736,0.03335
7.74,-0.0059
7.744,-0.00666
7.748,0.03837
7.752,0.02125
7.756,0.01311
7.76,0.03609
7.764,0.04386
7.768,0.00935
7.772,0.02034
7.776,0.06569
7.78,0.01472
7.784,0.01913
7.788,-0.0781
7.792,0.04128
7.796,0.01186
7.8,0.00184
7.804,0.03469
7.808,0.03258
7.812,-0.02968
7.816,0.01536
7.82,0.10519
7.824,0.01037
7.828,0.07985
7.832,0.0658
7.836,0.10412
7.84,0.02695
7.844,0.02086
7.848,-0.01347
7.852,-0.03035
7.856,0.01513
7.86,0.05035
7.864,0.01102
7.868,-0.01982
7.872,0.08453
7.876,0.11225
7.88,0.09205
7.884,0.01296
7.888,0.02201
7.892,0.0111
7.896,0.05731
7.9,0.0504
7.904,0.11233
7.908,-0.03293
7.912,0.03586
7.916,0.04286
7.92,-0.0369
7.924,-0.01597
7.928,0.08168
7.932,0.07872
7.936,0.12426
7.94,0.04199
7.944,0.11948
7.948,0.03203
7.952,0.12463
7.956,0.07996
7.96,0.09186
7.964,0.17991
7.968,0.13802
7.972,0.13331
7.976,0.07417
7.98,0.16081
7.984,0.08092
7.988,0.07441
7.992,0.15622
7.996,0.03437
8.0,0.0158
8.004,0.09162
8.008,-0.02069
8.012,0.03716
8.016,-0.03414
8.02,0.0239
8.024,0.04966
8.028,0.02903
8.032,0.04907
8.036,0.05756
8.04,-0.01063
8.044,0.01802
8.048,0.01395
8.052,0.02151
8.056,0.00108
8.06,-0.04895
8.064,0.06032
8.068,0.05521
8.072,0.00346
8.076,0.0392
8.08,-0.0274
8.084,0.04771
8.088,0.04778
8.092,-0.05238
8.096,-0.0196
8.1,-0.09411
8.104,-0.09178
8.108,0.07145
8.112,0.23202
8.116,0.34064
8.12,0.61552
8.124,0.83923
8.128,1.03021
8.132,1.04431
8.136,0.91999
8.14,0.81194
8.144,0.58309
8.148,0.39236
8.152,0.07162
8.156,0.00514
8.16,-0.13221
8.164,-0.13084
8.168,-0.1399
8.172,-0.1004
8.176,0.02363
8.18,0.03174
8.184,0.00139
8.188,-0.02914
8.192,0.07985
8.196,-0.00192
8.2,0.0028
8.204,0.0612
8.208,0.03576
8.212,0.02024
8.216,0.01537
8.22,0.04025
8.224,0.00082
8.228,0.01229
8.232,0.05661
8.236,0.01505
8.24,0.04784
8.244,0.02635
8.248,0.02661
8.252,0.01025
8.256,0.08931
8.26,-0.00821
8.264,0.08321
8.268,0.01612
8.272,0.05969
8.276,0.05112
8.28,-0.0062
8.284,0.07403
8.288,0.0857
8.292,-0.00726
8.296,0.06077
8.3,0.04348
8.304,0.06026
8.308,0.03141
8.312,0.06231
8.316,0.07817
8.32,0.08685
8.324,0.01996
8.328,0.09331
8.332,0.04651
8.336,0.06226
8.34,0.14862
8.344,0.03977
8.348,0.12667
8.352,0.08736
8.356,0.11994
8.36,0.11237
8.364,0.12818
8.368,0.15789
8.372,0.19505
8.376,0.18204
8.38,0.26663
8.384,0.24163
8.388,0.21441
8.392,0.21162
8.396,0.26375
8.4,0.18544
8.404,0.26588
8.408,0.30491
8.412,0.22037
8.416,0.26202
8.42,0.28655
8.424,0.28382
8.428,0.28775
8.432,0.24612
8.436,0.20331
8.44,0.28463
8.444,0.31846
8.448,0.32346
8.452,0.3363
8.456,0.27327
8.46,0.30885
8.464,0.22253
8.468,0.19107
8.472,0.24345
8.476,0.14771
8.48,0.13724
8.484,0.13073
8.488,0.10121
8.492,0.03787
8.496,0.06251
8.5,0.08576
8.504,0.07177
8.508,0.03221
8.512,-0.01168
8.516,0.04654
8.52,0.07413
8.524,-0.00384
8.528,0.07368
8.532,0.0736
8.536,0.04408
8.54,0.02261
8.544,0.04838
8.548,0.04914
8.552,0.01168
8.556,0.09068
8.56,0.04487
8.564,-0.06871
8.568,0.021
8.572,-0.00472
8.576,-0.05685
8.58,-0.08496
8.584,-0.06166
8.588,-0.00566
8.592,0.06799
8.596,0.25438
8.6,0.42993
8.604,0.67593
8.608,0.85416
8.612,1.03453
8.616,1.00912
8.62,0.87408
8.624,0.74817
8.628,0.52523
8.632,0.33081
8.636,0.13713
8.64,-0.03785
8.644,-0.19338
8.648,-0.06469
8.652,-0.16224
8.656,-0.01439
8.66,-0.05066
8.664,-0.06918
8.668,-0.02315
8.672,0.07946
8.676,0.04259
8.68,0.04316
8.684,0.07183
8.688,0.03574
8.692,-0.03888
8.696,-0.04644
8.7,0.0276
8.704,0.04138
8.708,0.01101
8.712,0.02161
8.716,0.0541
8.72,0.03531
8.724,-0.01727
8.728,0.06916
8.732,0.0251
8.736,-0.00614
8.74,0.00777
8.744,0.02479
8.748,0.06194
8.752,0.02844
8.756,0.0442
8.76,0.06539
8.764,0.02831
8.768,0.03032
8.772,0.01389
8.776,0.06954
8.78,0.02337
8.784,-0.00317
8.788,0.11364
8.792,-0.01308
8.796,-0.03092
8.8,-0.00154
8.804,0.07408
8.808,0.04647
8.812,0.09734
8.816,0.04762
8.82,0.07709
8.824,0.05606
8.828,0.03052
8.832,0.1124
8.836,0.1126
8.84,0.17947
8.844,0.08816
8.848,0.22432
8.852,0.20602
8.856,0.20502
8.86,0.18782
8.864,0.1561
8.868,0.22704
8.872,0.2504
8.876,0.27192
8.88,0.23954
8.884,0.24594
8.888,0.27765
8.892,0.23997
8.896,0.21856
8.9,0.19162
8.904,0.22992
8.908,0.19702
8.912,0.2601
8.916,0.23004
8.92,0.26932
8.924,0.17266
8.928,0.20615
8.932,0.17001
8.936,0.18767
8.94,0.09896
8.944,0.15442
8.948,0.16096
8.952,0.14188
8.956,0.05767
8.96,0.063
8.964,0.09612
8.968,0.05709
8.972,0.06083
8.976,0.07852
8.98,0.08884
8.984,0.10811
8.988,0.05229
8.992,0.14333
8.996,-0.00163
9.0,0.08679
9.004,0.02138
9.008,0.03796
9.012,0.04912
9.016,0.00252
9.02,0.09346
9.024,0.01152
9.028,-0.02028
9.032,-0.01242
9.036,0.04302
9.04,0.05608
9.044,-0.0052
9.048,0.0328
9.052,0.00245
9.056,0.01643
9.06,0.03021
9.064,0.08116
9.068,0.08138
9.072,0.03938
9.076,0.00559
9.08,0.03067
9.084,-0.01557
9.088,0.00703
9.092,-0.05059
9.096,-0.0235
9.1,0.03306
9.104,0.09799
9.108,0.05145
9.112,0.0972
9.116,0.04206
9.12,-0.00536
9.124,0.02303
9.128,-0.00247
9.132,0.05224
9.136,0.00036
9.14,0.03982
9.144,-0.01592
9.148,0.00857
9.152,0.05174
9.156,0.05011
9.16,-0.02918
9.164,0.06109
9.168,0.01012
9.172,-0.01114
9.176,-0.00286
9.18,0.05171
9.184,0.00483
9.188,0.04367
9.192,0.08158
9.196,0.02805
9.2,0.00194
9.204,-0.0265
9.208,0.0127
9.212,0.01815
9.216,0.03052
9.22,-0.01738
9.224,-0.02119
9.228,-0.00264
9.232,-0.00125
9.236,-0.03821
9.24,0.0158
9.244,-0.01495
9.248,0.01399
9.252,0.03138
9.256,0.05376
9.26,0.07056
9.264,0.06856
9.268,0.04437
9.272,0.08769
9.276,0.09746
9.28,0.08129
9.284,0.0721
9.288,0.09797
9.292,0.05395
9.296,0.1016
9.3,0.08254
9.304,0.08013
9.308,0.09807
9.312,0.10778
9.316,0.0786
9.32,0.0839
9.324,0.0966
9.328,0.05099
9.332,0.06275
9.336,0.07344
9.34,0.03317
9.344,0.01201
9.348,0.02611
9.352,0.0229
9.356,0.02053
9.36,0.1045
9.364,-0.01682
9.368,0.04194
9.372,0.07485
9.376,0.01655
9.38,-0.00532
9.384,-0.01401
9.388,0.01145
9.392,-0.04146
9.396,0.05495
9.4,0.01662
9.404,-0.01413
9.408,0.08459
9.412,0.01084
9.416,-0.00077
9.42,0.02851
9.424,0.00393
9.428,-0.04528
9.432,-0.08579
9.436,-0.09567
9.44,-0.11298
9.444,-0.0886
9.448,0.04359
9.452,0.23484
9.456,0.41064
9.46,0.64529
9.464,0.82875
9.468,0.93029
9.472,1.08749
9.476,1.0128
9.48,0.78452
9.484,0.5549
9.488,0.39027
9.492,0.19763
9.496,0.05465
9.5,-0.10982
9.504,-0.07165
9.508,-0.18715
9.512,-0.11019
9.516,-0.06734
9.52,-0.04124
9.524,0.03972
9.528,0.02448
9.532,0.06005
9.536,-0.01464
9.54,0.00699
9.544,0.08123
9.548,0.05158
9.552,0.02745
9.556,0.05539
9.56,-0.01855
9.564,-0.01614
9.568,0.00065
9.572,0.03847
9.576,0.02002
9.58,0.05904
9.584,0.02644
9.588,-0.00164
9.592,-0.05191
9.596,0.00902
9.6,0.00681
9.604,0.0995
9.608,0.02583
9.612,0.02845
9.616,-0.00892
9.62,-0.0058
9.624,0.05585
9.628,0.03185
9.632,-0.0143
9.636,0.06634
9.64,0.00985
9.644,0.03133
9.648,0.07284
9.652,0.01355
9.656,0.01095
9.66,0.00812
9.664,0.03553
9.668,0.06615
9.672,0.05662
9.676,0.05999
9.68,0.09299
9.684,0.09339
9.688,0.09668
9.692,0.08428
9.696,0.09323
9.7,0.13335
9.704,0.08103
9.708,0.12416
9.712,0.15936
9.716,0.13335
9.72,0.2301
9.724,0.28319
9.728,0.28763
9.732,0.20947
9.736,0.24375
9.74,0.18206
9.744,0.2126
9.748,0.24748
9.752,0.22502
9.756,0.25202
9.76,0.21863
9.764,0.21017
9.768,0.20018
9.772,0.22387
9.776,0.22166
9.78,0.21098
9.784,0.17377
9.788,0.16669
9.792,0.17893
9.796,0.11557
9.8,0.13028
9.804,0.08635
9.808,0.15284
9.812,0.10886
9.816,0.06884
9.82,0.09487
9.824,0.02322
9.828,0.05541
9.832,0.02881
9.836,-0.02802
9.84,0.02133
9.844,0.05104
9.848,0.009
9.852,0.05009
9.856,0.00204
9.86,0.09105
9.864,0.02848
9.868,-0.03859
9.872,-0.04452
9.876,0.04564
9.88,0.072
9.884,0.08666
9.888,-0.01454
9.892,-0.01535
9.896,-0.04682
9.9,0.00522
9.904,0.03653
9.908,0.02391
9.912,-0.03748
9.916,0.03751
9.92,0.03971
9.924,0.01113
9.928,-0.0191
9.932,0.01998
9.936,0.06767
9.94,-0.02902
9.944,0.04008
9.948,0.04997
9.952,0.01431
9.956,-0.04504
9.96,-0.00364
9.964,0.02231
9.968,0.01688
9.972,0.02648
9.976,-0.02545
9.98,-0.00261
9.984,-0.01331
9.988,0.01138
9.992,-0.00221
9.996,0.03406
