t_seg,ecg_mV
0.0,-0.01106
0.004,0.02824
0.008,-0.07717
0.012,-0.08792
0.016,-0.02706
0.02,0.03072
0.024,-0.00998
0.028,-0.04618
0.032,-0.06943
0.036,0.02173
0.04,-0.08015
0.044,-0.02317
0.048,-0.03617
0.052,-0.03669
0.056,0.02647
0.06,-0.08375
0.064,-0.00669
0.068,-0.01031
0.072,-0.03283
0.076,-0.03418
0.08,-0.00682
0.084,-0.05028
0.088,-0.05048
0.092,0.02914
0.096,0.02704
0.1,0.00425
0.104,-0.01058
0.108,-0.02193
0.112,-0.05777
0.116,-0.04792
0.12,-0.0401
0.124,0.03592
0.128,-0.04604
0.132,-0.0455
0.136,-0.05151
0.14,-0.02844
0.144,0.01101
0.148,-0.03718
0.152,-0.06727
0.156,-0.04221
0.16,-0.02803
0.164,0.00725
0.168,-0.07438
0.172,-0.06591
0.176,0.00765
0.18,-0.06362
0.184,-0.06384
0.188,0.01165
0.192,-0.01229
0.196,-0.08647
0.2,-0.03954
0.204,-0.00897
0.208,0.05231
0.212,-0.02196
0.216,0.00705
0.22,-0.05861
0.224,0.00337
0.228,-0.00894
0.232,-0.02123
0.236,-0.03403
0.24,-0.07332
0.244,-0.01735
0.248,0.00431
0.252,-0.02833
0.256,0.02926
0.26,-0.03245
0.264,-0.04845
0.268,-0.03687
0.272,-0.10953
0.276,-0.03839
0.28,0.04455
0.284,-0.01802
0.288,-0.00699
0.292,-0.05221
0.296,-0.01885
0.3,-0.01507
0.304,-0.0663
0.308,-0.05339
0.312,0.00686
0.316,-0.02764
0.32,0.02277
0.324,-0.02431
0.328,-0.07408
0.332,-0.01979
0.336,-0.11205
0.34,0.00273
0.344,0.00451
0.348,-0.09161
0.352,0.05098
0.356,0.06572
0.36,-0.00431
0.364,-0.01155
0.368,0.10513
0.372,0.06925
0.376,0.11094
0.38,0.04859
0.384,0.10463
0.388,0.07505
0.392,0.05537
0.396,0.04843
0.4,0.08746
0.404,0.01972
0.408,-0.03551
0.412,-0.02004
0.416,0.01466
0.42,-0.02939
0.424,-0.01007
0.428,-0.01631
0.432,-0.01731
0.436,-0.02603
0.44,-0.05305
0.444,-0.02621
0.448,-0.00724
0.452,-0.05921
0.456,-0.03571
0.46,-0.03749
0.464,-0.00219
0.468,-0.05551
0.472,-0.04613
0.476,-0.06122
0.48,-0.054
0.484,0.01828
0.488,0.00291
0.492,-0.03664
0.496,-0.02623
0.5,-0.04374
0.504,-0.06948
0.508,-0.05363
0.512,-0.06964
0.516,-0.13609
0.52,-0.16286
0.524,-0.06029
0.528,0.0574
0.532,0.13488
0.536,0.3328
0.54,0.49268
0.544,0.73584
0.548,0.87576
0.552,0.98931
0.556,0.92537
0.56,0.79436
0.564,0.55163
0.568,0.39243
0.572,0.13125
0.576,-0.03715
0.58,-0.14112
0.584,-0.17591
0.588,-0.18408
0.592,-0.1238
0.596,-0.13458
0.6,-0.07733
0.604,-0.0879
0.608,-0.03214
0.612,-0.09129
0.616,0.02187
0.62,0.00407
0.624,-0.0045
0.628,-0.06411
0.632,-0.00351
0.636,-0.01327
0.64,-0.05388
0.644,-0.01289
0.648,9e-05
0.652,-0.12223
0.656,-0.05612
0.66,-0.06782
0.664,-0.02782
0.668,-0.07149
0.672,-0.02584
0.676,0.01708
0.68,-0.01305
0.684,0.00632
0.688,0.00496
0.692,-0.00155
0.696,0.00351
0.7,-0.03847
0.704,0.05649
0.708,0.05503
0.712,-0.0407
0.716,-0.04188
0.72,-0.03368
0.724,-0.03954
0.728,0.0135
0.732,-0.11432
0.736,-0.0222
0.74,0.01729
0.744,-0.00699
0.748,0.03666
0.752,0.05734
0.756,-0.00146
0.76,0.08604
0.764,0.03319
0.768,0.05063
0.772,0.00968
0.776,0.02209
0.78,0.09909
0.784,0.10162
0.788,0.11608
0.792,0.06442
0.796,0.0965
0.8,0.11085
0.804,0.20471
0.808,0.20745
0.812,0.20787
0.816,0.19178
0.82,0.13818
0.824,0.22007
0.828,0.22574
0.832,0.26235
0.836,0.27597
0.84,0.16836
0.844,0.19675
0.848,0.17416
0.852,0.14757
0.856,0.18148
0.86,0.08705
0.864,0.14591
0.868,0.12929
0.872,0.14969
0.876,0.11759
0.88,0.12978
0.884,0.12748
0.888,0.0414
0.892,0.02322
0.896,0.00292
0.9,0.01128
0.904,0.00905
0.908,0.09001
0.912,0.03916
0.916,0.03
0.92,0.05347
0.924,0.02467
0.928,-0.01462
0.932,0.01176
0.936,0.02847
0.94,-0.00304
0.944,-0.00391
0.948,-0.07296
0.952,0.0047
0.956,-0.01227
0.96,-0.00205
0.964,-0.05764
0.968,-0.0302
0.972,0.0423
0.976,0.01294
0.98,0.03964
0.984,0.02533
0.988,-0.00091
0.992,0.05416
0.996,0.01739
1.0,0.08092
1.004,0.08486
1.008,0.09882
1.012,0.13888
1.016,0.03003
1.02,0.0133
1.024,0.02086
1.028,0.02468
1.032,-0.07158
1.036,0.03966
1.04,0.00036
1.044,0.03653
1.048,-0.02853
1.052,-0.02479
1.056,-0.03388
1.06,-0.0517
1.064,0.00727
1.068,-0.01926
1.072,-0.02817
1.076,0.03396
1.08,-0.04541
1.084,-0.05903
1.088,-0.03129
1.092,-0.07312
1.096,-0.02647
1.1,-0.00099
1.104,0.03316
1.108,-0.00482
1.112,0.04806
1.116,-0.01136
1.12,-0.02705
1.124,-0.05641
1.128,-0.0988
1.132,-0.08494
1.136,-0.14188
1.14,-0.0387
1.144,0.09199
1.148,0.1985
1.152,0.50661
1.156,0.65736
1.16,0.83023
1.164,0.95892
1.168,0.92099
1.172,0.81491
1.176,0.61936
1.18,0.37407
1.184,0.20863
1.188,0.0758
1.192,-0.12661
1.196,-0.16668
1.2,-0.22158
1.204,-0.13674
1.208,-0.09222
1.212,-0.08545
1.216,-0.04663
1.22,-2e-05
1.224,-0.04863
1.228,-0.07533
1.232,-0.00175
1.236,-0.03686
1.24,-0.03751
1.244,-0.03031
1.248,0.01458
1.252,-0.06866
1.256,-0.00686
1.26,-0.03766
1.264,-0.04212
1.268,-0.0544
1.272,-0.00484
1.276,-0.02855
1.28,-0.07386
1.284,-0.04314
1.288,-0.04462
1.292,-0.01836
1.296,-0.02445
1.3,-0.02319
1.304,-0.06493
1.308,-0.0179
1.312,-0.04737
1.316,0.05545
1.32,0.02291
1.324,0.01774
1.328,-0.01857
1.332,0.02112
1.336,-0.0075
1.34,-0.0447
1.344,0.08218
1.348,-0.05336
1.352,-0.04013
1.356,0.00353
1.36,-0.00193
1.364,0.06458
1.368,-0.01884
1.372,0.01991
1.376,0.02092
1.38,0.07058
1.384,0.08855
1.388,0.08694
1.392,0.07853
1.396,0.04563
1.4,0.09731
1.404,0.10868
1.408,0.0853
1.412,0.17604
1.416,0.17004
1.42,0.19774
1.424,0.15718
1.428,0.12875
1.432,0.17429
1.436,0.12722
1.44,0.16395
1.444,0.17263
1.448,0.23891
1.452,0.2083
1.456,0.17988
1.46,0.09952
1.464,0.13648
1.468,0.19287
1.472,0.12434
1.476,0.12412
1.48,0.14912
1.484,0.13253
1.488,0.13317
1.492,0.08754
1.496,0.07349
1.5,0.13483
1.504,0.10156
1.508,0.10203
1.512,0.00605
1.516,0.09336
1.52,0.13001
1.524,0.08838
1.528,0.05302
1.532,0.09928
1.536,0.0855
1.54,0.11818
1.544,0.10492
1.548,0.07591
1.552,0.0914
1.556,0.05826
1.56,0.07165
1.564,0.05634
1.568,0.08622
1.572,0.02119
1.576,0.0456
1.58,-0.01341
1.584,0.05988
1.588,-0.02304
1.592,-0.05098
1.596,-0.08116
1.6,-0.009
1.604,-0.01052
1.608,0.01751
1.612,0.00953
1.616,0.02136
1.62,-0.11185
1.624,0.0075
1.628,0.01955
1.632,-0.05927
1.636,0.02665
1.64,0.04953
1.644,0.03141
1.648,-0.01636
1.652,-0.02167
1.656,-0.06654
1.66,-0.03546
1.664,-0.00851
1.668,-0.08083
1.672,-0.15132
1.676,-0.18741
1.68,-0.07717
1.684,-0.06271
1.688,0.11756
1.692,0.20025
1.696,0.39303
1.7,0.47946
1.704,0.63856
1.708,0.61317
1.712,0.6042
1.716,0.50889
1.72,0.36852
1.724,0.1684
1.728,0.0276
1.732,-0.06566
1.736,-0.13567
1.74,-0.22989
1.744,-0.21674
1.748,-0.11158
1.752,-0.06977
1.756,0.01022
1.76,-0.07262
1.764,-0.04182
1.768,-0.06292
1.772,-0.01873
1.776,-0.01133
1.78,-0.03163
1.784,0.04045
1.788,-0.05625
1.792,0.02203
1.796,-0.01713
1.8,-0.00402
1.804,-0.06783
1.808,0.0172
1.812,-0.02066
1.816,0.01635
1.82,-0.05685
1.824,-0.04069
1.828,0.03531
1.832,0.02943
1.836,-0.01249
1.84,-0.03419
1.844,0.01451
1.848,-0.05525
1.852,0.04399
1.856,0.04317
1.86,0.06078
1.864,0.00887
1.868,0.02133
1.872,0.00726
1.876,-0.0099
1.88,-0.01808
1.884,-0.02046
1.888,0.03887
1.892,-0.00805
1.896,-0.04687
1.9,0.0181
1.904,0.02377
1.908,0.06267
1.912,0.11705
1.916,0.08775
1.92,0.01706
1.924,-0.01714
1.928,0.08291
1.932,0.06744
1.936,0.10585
1.94,0.05209
1.944,0.16074
1.948,0.13369
1.952,0.1843
1.956,0.2352
1.96,0.16454
1.964,0.19971
1.968,0.20229
1.972,0.2488
1.976,0.17045
1.98,0.16315
1.984,0.22805
1.988,0.21787
1.992,0.18745
1.996,0.21064
2.0,0.19415
2.004,0.22162
2.008,0.21064
2.012,0.19707
2.016,0.12971
2.02,0.15774
2.024,0.1696
2.028,0.18502
2.032,0.14819
2.036,0.17966
2.04,0.11269
2.044,0.12358
2.048,0.14941
2.052,0.11128
2.056,0.11713
2.06,0.18678
2.064,0.06241
2.068,0.1935
2.072,0.19935
2.076,0.10683
2.08,0.12773
2.084,0.08211
2.088,0.02292
2.092,0.05832
2.096,0.03448
2.1,0.07008
2.104,0.0862
2.108,0.05087
2.112,0.01711
2.116,-0.02688
2.12,-0.00503
2.124,-0.01379
2.128,-0.02167
2.132,-0.05987
2.136,0.00837
2.14,-0.00749
2.144,0.01364
2.148,-0.02574
2.152,0.01449
2.156,-0.03983
2.16,-0.05389
2.164,0.03979
2.168,-0.05766
2.172,-0.00652
2.176,0.04779
2.18,-0.09618
2.184,-0.05062
2.188,-0.02586
2.192,-0.07511
2.196,-0.11897
2.2,-0.09993
2.204,-0.09653
2.208,-0.04104
2.212,0.16009
2.216,0.3856
2.22,0.56173
2.224,0.78347
2.228,1.00963
2.232,0.97035
2.236,0.97452
2.24,0.81238
2.244,0.55401
2.248,0.34387
2.252,0.14294
2.256,0.00795
2.26,-0.06962
2.264,-0.1576
2.268,-0.10207
2.272,-0.11503
2.276,-0.04686
2.28,-0.0579
2.284,0.06071
2.288,-0.06382
2.292,0.02233
2.296,-0.02833
2.3,0.02399
2.304,0.02442
2.308,0.04763
2.312,0.00302
2.316,0.06174
2.32,-0.07436
2.324,0.0021
2.328,0.01375
2.332,-0.01729
2.336,0.08523
2.34,0.01275
2.344,0.01623
2.348,-0.1016
2.352,-0.01309
2.356,-0.06924
2.36,-0.01661
2.364,0.02862
2.368,0.07789
2.372,0.00742
2.376,-0.03998
2.38,-0.03286
2.384,-0.01134
2.388,0.04485
2.392,-0.00747
2.396,0.09347
2.4,-0.00769
2.404,0.03951
2.408,-0.00512
2.412,-0.01339
2.416,0.06528
2.42,0.0047
2.424,0.0447
2.428,0.00993
2.432,0.0926
2.436,0.04338
2.44,0.09274
2.444,0.10216
2.448,0.07141
2.452,0.09129
2.456,0.09007
2.46,0.1209
2.464,0.22654
2.468,0.14678
2.472,0.12455
2.476,0.15905
2.48,0.18668
2.484,0.14178
2.488,0.18898
2.492,0.22593
2.496,0.19064
2.5,0.2222
2.504,0.33273
2.508,0.24288
2.512,0.19083
2.516,0.24231
2.52,0.20078
2.524,0.19851
2.528,0.2516
2.532,0.16571
2.536,0.19835
2.54,0.24107
2.544,0.2023
2.548,0.23659
2.552,0.11371
2.556,0.08355
2.56,0.15387
2.564,0.11811
2.568,0.08261
2.572,0.11738
2.576,0.09293
2.58,0.0315
2.584,0.08201
2.588,0.13524
2.592,0.06552
2.596,0.05752
2.6,0.06561
2.604,0.05559
2.608,0.0232
2.612,0.07164
2.616,0.06979
2.62,0.03569
2.624,0.00695
2.628,-0.01575
2.632,0.07679
2.636,0.0162
2.64,0.07605
2.644,0.02932
2.648,0.04248
2.652,0.06623
2.656,0.02035
2.66,-0.0067
2.664,0.00349
2.668,0.01073
2.672,-0.0377
2.676,0.09145
2.68,-5e-05
2.684,0.04824
2.688,-0.04016
2.692,0.03461
2.696,-0.03448
2.7,-0.0073
2.704,0.00235
2.708,0.01113
2.712,-0.03915
2.716,-0.01695
2.72,0.01271
2.724,0.03236
2.728,-0.04007
2.732,0.02625
2.736,-0.01503
2.74,-0.02079
2.744,-0.0158
2.748,0.03081
2.752,0.00954
2.756,0.0165
2.76,0.03824
2.764,-0.02198
2.768,0.03314
2.772,0.00294
2.776,0.02411
2.78,0.01208
2.784,-0.01893
2.788,0.02442
2.792,-0.04643
2.796,0.0092
2.8,0.03351
2.804,0.00365
2.808,0.01499
2.812,-0.00553
2.816,0.08664
2.82,-0.00555
2.824,0.05895
2.828,0.08315
2.832,0.0409
2.836,0.08867
2.84,0.04534
2.844,0.1005
2.848,0.11042
2.852,0.124
2.856,0.11462
2.86,0.11394
2.864,0.10548
2.868,0.09534
2.872,0.09182
2.876,0.01651
2.88,0.05777
2.884,0.0557
2.888,0.00786
2.892,0.02219
2.896,0.06388
2.9,0.04385
2.904,0.03779
2.908,0.02366
2.912,0.01928
2.916,0.05761
2.92,-0.01065
2.924,0.01445
2.928,0.01358
2.932,-0.08853
2.936,0.01356
2.94,0.02799
2.944,-0.00052
2.948,0.00661
2.952,0.03354
2.956,0.00476
2.96,0.03495
2.964,0.03858
2.968,0.02302
2.972,0.02261
2.976,-0.04365
2.98,-0.03142
2.984,-0.00382
2.988,-0.12714
2.992,-0.03285
2.996,0.11475
3.0,0.27409
3.004,0.45479
3.008,0.6207
3.012,0.87248
3.016,0.97484
3.02,1.00322
3.024,0.92808
3.028,0.73462
3.032,0.53237
3.036,0.36667
3.04,0.13403
3.044,-0.03961
3.048,-0.14435
3.052,-0.15717
3.056,-0.16867
3.06,-0.07547
3.064,-0.08686
3.068,-0.02058
3.072,-0.00183
3.076,0.05673
3.08,0.07873
3.084,0.02895
3.088,-0.01719
3.092,0.09351
3.096,0.03139
3.1,0.03788
3.104,-0.02285
3.108,0.03191
3.112,0.02148
3.116,-0.01215
3.12,0.0601
3.124,-0.00681
3.128,0.02601
3.132,0.03035
3.136,-0.03379
3.14,0.04756
3.144,0.0135
3.148,0.03971
3.152,0.02565
3.156,0.07436
3.16,0.01105
3.164,0.04478
3.168,0.04142
3.172,0.02116
3.176,0.01417
3.18,0.03947
3.184,0.00805
3.188,0.03164
3.192,-0.00864
3.196,0.02281
3.2,0.08967
3.204,0.05225
3.208,0.06725
3.212,0.02505
3.216,0.0601
3.22,0.05443
3.224,0.00341
3.228,0.10333
3.232,0.04
3.236,0.08117
3.24,0.15879
3.244,0.13384
3.248,0.15564
3.252,0.15439
3.256,0.1679
3.26,0.14217
3.264,0.2161
3.268,0.19494
3.272,0.24423
3.276,0.26492
3.28,0.28555
3.284,0.23048
3.288,0.2563
3.292,0.26641
3.296,0.21271
3.3,0.19498
3.304,0.24019
3.308,0.21808
3.312,0.26122
3.316,0.21321
3.32,0.18058
3.324,0.19639
3.328,0.20918
3.332,0.2464
3.336,0.18419
3.34,0.18852
3.344,0.09964
3.348,0.1453
3.352,0.15382
3.356,0.11643
3.36,0.08067
3.364,0.08742
3.368,0.11495
3.372,0.1394
3.376,0.01702
3.38,0.05083
3.384,0.05866
3.388,0.04943
3.392,0.04372
3.396,0.01624
3.4,0.01475
3.404,0.05435
3.408,0.01855
3.412,-0.00818
3.416,0.02179
3.42,0.05458
3.424,0.06484
3.428,0.08182
3.432,0.01568
3.436,0.01086
3.44,-0.0331
3.444,0.10894
3.448,-0.01179
3.452,0.04537
3.456,0.07302
3.46,0.02914
3.464,0.07708
3.468,0.11739
3.472,0.14506
3.476,0.06654
3.48,0.15702
3.484,0.13641
3.488,0.05281
3.492,0.05875
3.496,0.16725
3.5,0.09147
3.504,0.05858
3.508,0.17577
3.512,0.13268
3.516,0.07274
3.52,0.03459
3.524,0.01526
3.528,0.0052
3.532,0.04095
3.536,0.08819
3.54,0.00153
3.544,0.02492
3.548,0.03171
3.552,0.05121
3.556,0.08355
3.56,0.08043
3.564,0.02238
3.568,0.02497
3.572,0.05552
3.576,0.06586
3.58,0.02072
3.584,0.02112
3.588,0.01406
3.592,0.06639
3.596,0.01469
3.6,0.02605
3.604,0.05267
3.608,-0.02895
3.612,-0.08017
3.616,-0.07054
3.62,-0.10806
3.624,-0.06407
3.628,0.0433
3.632,0.22986
3.636,0.41005
3.64,0.615
3.644,0.74073
3.648,0.9286
3.652,1.04392
3.656,0.9083
3.66,0.81202
3.664,0.55036
3.668,0.38514
3.672,0.08505
3.676,-0.01682
3.68,-0.07239
3.684,-0.14675
3.688,-0.12443
3.692,-0.04312
3.696,-0.06391
3.7,0.01252
3.704,0.01354
3.708,0.04429
3.712,0.08669
3.716,0.01033
3.72,-0.00566
3.724,0.0349
3.728,0.04701
3.732,0.08557
3.736,-0.00556
3.74,0.02683
3.744,0.03483
3.748,0.05344
3.752,0.03715
3.756,0.02216
3.76,0.02497
3.764,0.01849
3.768,0.03253
3.772,0.05737
3.776,0.03885
3.78,0.019
3.784,0.02164
3.788,0.02888
3.792,0.03506
3.796,0.01341
3.8,0.0827
3.804,0.00469
3.808,-0.03131
3.812,0.04225
3.816,0.02713
3.82,-0.00792
3.824,0.04415
3.828,0.02458
3.832,0.11362
3.836,0.06439
3.84,0.09173
3.844,0.09807
3.848,0.11624
3.852,0.04921
3.856,0.06512
3.86,0.10319
3.864,0.13109
3.868,0.12496
3.872,0.0747
3.876,0.17451
3.88,0.10556
3.884,0.2049
3.888,0.16025
3.892,0.16895
3.896,0.1599
3.9,0.21919
3.904,0.19012
3.908,0.2221
3.912,0.2979
3.916,0.21362
3.92,0.23086
3.924,0.20844
3.928,0.2679
3.932,0.29372
3.936,0.25029
3.94,0.22535
3.944,0.23589
3.948,0.2989
3.952,0.27835
3.956,0.30708
3.96,0.28524
3.964,0.35666
3.968,0.27538
3.972,0.25917
3.976,0.21185
3.98,0.36078
3.984,0.26338
3.988,0.24979
3.992,0.27124
3.996,0.16598
4.0,0.1725
4.004,0.15985
4.008,0.08707
4.012,0.11924
4.016,0.0595
4.02,0.07721
4.024,0.04849
4.028,0.03297
4.032,0.08607
4.036,0.03813
4.04,0.03719
4.044,0.07609
4.048,0.03403
4.052,0.06936
4.056,0.02923
4.06,0.00192
4.064,0.00218
4.068,0.00764
4.072,0.06353
4.076,0.01759
4.08,0.06455
4.084,0.0934
4.088,-0.02027
4.092,0.08536
4.096,-0.01723
4.1,-0.04142
4.104,-0.05155
4.108,0.03951
4.112,0.00365
4.116,0.11652
4.12,0.3116
4.124,0.51656
4.128,0.77157
4.132,0.92372
4.136,1.0416
4.14,0.92551
4.144,0.88706
4.148,0.68755
4.152,0.45282
4.156,0.26453
4.16,0.09221
4.164,0.00269
4.168,-0.11794
4.172,-0.11191
4.176,-0.13438
4.18,-0.06955
4.184,-0.04896
4.188,-0.03459
4.192,-0.03618
4.196,0.01856
4.2,-0.00148
4.204,0.06073
4.208,0.05349
4.212,0.04707
4.216,-0.03115
4.22,0.0392
4.224,0.07807
4.228,0.0584
4.232,0.00593
4.236,-0.00407
4.24,0.06971
4.244,0.02942
4.248,-0.01885
4.252,0.02844
4.256,0.03894
4.26,0.02876
4.264,0.00116
4.268,-0.00045
4.272,0.03517
4.276,0.01838
4.28,0.04563
4.284,0.01048
4.288,0.0219
4.292,0.00863
4.296,0.01426
4.3,0.05762
4.304,0.05902
4.308,-0.00768
4.312,0.03314
4.316,0.08915
4.32,-0.00899
4.324,0.02723
4.328,0.027
4.332,0.075
4.336,0.10406
4.34,0.0948
4.344,0.05896
4.348,0.08014
4.352,0.12445
4.356,0.07729
4.36,0.0901
4.364,0.16353
4.368,0.16232
4.372,0.09811
4.376,0.17061
4.38,0.23557
4.384,0.26145
4.388,0.2656
4.392,0.21602
4.396,0.2531
4.4,0.22407
4.404,0.22296
4.408,0.1988
4.412,0.23502
4.416,0.263
4.42,0.22767
4.424,0.30969
4.428,0.30435
4.432,0.24668
4.436,0.27401
4.44,0.23135
4.444,0.18589
4.448,0.19175
4.452,0.19122
4.456,0.19131
4.46,0.16052
4.464,0.20417
4.468,0.12776
4.472,0.05526
4.476,0.11282
4.48,0.04472
4.484,0.06975
4.488,0.12764
4.492,0.02893
4.496,0.09987
4.5,0.04665
4.504,0.07735
4.508,0.00331
4.512,0.09319
4.516,0.07561
4.52,0.01197
4.524,0.01194
4.528,0.10487
4.532,0.07056
4.536,0.05656
4.54,0.02606
4.544,0.0339
4.548,-0.04863
4.552,0.03789
4.556,0.0008
4.56,0.00738
4.564,0.04312
4.568,0.07199
4.572,0.0545
4.576,0.00847
4.58,-0.00435
4.584,-0.03096
4.588,0.04838
4.592,0.02017
4.596,-0.03042
4.6,-0.01264
4.604,0.00764
4.608,0.05091
4.612,-0.00036
4.616,0.00031
4.62,0.04685
4.624,0.07769
4.628,0.00952
4.632,0.03101
4.636,0.05466
4.64,0.10511
4.644,0.11032
4.648,0.1179
4.652,0.12706
4.656,0.08495
4.66,0.08326
4.664,0.16404
4.668,0.13445
4.672,0.06546
4.676,0.11121
4.68,0.04195
4.684,0.08469
4.688,0.03024
4.692,0.08069
4.696,0.06003
4.7,0.05153
4.704,0.04521
4.708,0.00482
4.712,0.04209
4.716,0.04954
4.72,0.03304
4.724,-0.01117
4.728,0.02198
4.732,0.07393
4.736,0.07757
4.74,0.05948
4.744,-0.05629
4.748,0.02822
4.752,-0.00323
4.756,0.07257
4.76,-0.03925
4.764,0.00597
4.768,0.02482
4.772,0.01992
4.776,0.00321
4.78,-0.05103
4.784,-0.04733
4.788,-0.0663
4.792,-0.09394
4.796,0.09575
4.8,0.23262
4.804,0.3713
4.808,0.59387
4.812,0.83766
4.816,0.94691
4.82,1.00265
4.824,0.94203
4.828,0.83963
4.832,0.64254
4.836,0.41581
4.84,0.13493
4.844,0.01824
4.848,-0.08527
4.852,-0.15477
4.856,-0.17338
4.86,-0.073
4.864,-0.02077
4.868,-0.06298
4.872,0.02054
4.876,-0.03081
4.88,0.00651
4.884,0.08603
4.888,-0.05396
4.892,0.01965
4.896,0.02789
4.9,0.10653
4.904,0.04433
4.908,0.02871
4.912,0.03442
4.916,0.00665
4.92,-0.03389
4.924,0.0195
4.928,0.06076
4.932,0.0368
4.936,-0.01063
4.94,0.01145
4.944,0.01252
4.948,0.00578
4.952,0.07598
4.956,-0.05361
4.96,0.10342
4.964,0.00803
4.968,0.05096
4.972,0.04997
4.976,-0.00394
4.98,-0.00309
4.984,0.07628
4.988,0.04425
4.992,0.03629
4.996,0.07734
5.0,0.05171
5.004,0.02088
5.008,0.02471
5.012,0.04333
5.016,0.07563
5.02,0.05235
5.024,0.05158
5.028,0.0865
5.032,0.05481
5.036,0.11382
5.04,0.06054
5.044,0.16058
5.048,0.08294
5.052,0.13169
5.056,0.15181
5.06,0.21995
5.064,0.12939
5.068,0.17179
5.072,0.21128
5.076,0.12248
5.08,0.22912
5.084,0.26163
5.088,0.26355
5.092,0.24183
5.096,0.25205
5.1,0.24459
5.104,0.21769
5.108,0.25557
5.112,0.27958
5.116,0.17685
5.12,0.24316
5.124,0.23834
5.128,0.21785
5.132,0.18105
5.136,0.09854
5.14,0.10485
5.144,0.13542
5.148,0.20622
5.152,0.06389
5.156,0.17955
5.16,0.13702
5.164,0.06482
5.168,0.05682
5.172,0.01076
5.176,0.05884
5.18,0.06863
5.184,0.09766
5.188,0.07265
5.192,0.09277
5.196,0.01197
5.2,0.0985
5.204,0.01368
5.208,0.02211
5.212,0.00146
5.216,0.09565
5.22,-0.00016
5.224,-0.05293
5.228,0.00253
5.232,0.04976
5.236,0.01879
5.24,0.00156
5.244,0.03451
5.248,0.05345
5.252,0.03227
5.256,0.06478
5.26,0.0793
5.264,0.06614
5.268,0.03962
5.272,0.08182
5.276,0.09643
5.28,0.14254
5.284,0.06832
5.288,0.12635
5.292,0.10129
5.296,0.11335
5.3,0.08351
5.304,0.06183
5.308,-0.01812
5.312,0.02917
5.316,-0.04381
5.32,0.00738
5.324,0.06903
5.328,0.01421
5.332,0.00605
5.336,-0.01449
5.34,0.00532
5.344,0.04575
5.348,-0.01725
5.352,0.00026
5.356,-0.02527
5.36,-0.0066
5.364,0.00784
5.368,-0.08438
5.372,-0.05047
5.376,0.03156
5.38,0.03953
5.384,0.02137
5.388,-0.03186
5.392,0.00174
5.396,0.0408
5.4,0.00891
5.404,-0.05619
5.408,-0.04661
5.412,-0.08859
5.416,-0.06892
5.42,-0.01467
5.424,0.10635
5.428,0.23956
5.432,0.55957
5.436,0.76729
5.44,0.87569
5.444,0.97861
5.448,0.98523
5.452,0.86551
5.456,0.61388
5.46,0.4053
5.464,0.23756
5.468,-0.0079
5.472,-0.08929
5.476,-0.10959
5.48,-0.17546
5.484,-0.1414
5.488,-0.05206
5.492,-0.05102
5.496,-0.01669
5.5,-0.00348
5.504,-0.06083
5.508,0.04034
5.512,-0.09547
5.516,0.02478
5.52,0.02343
5.524,0.0075
5.528,-0.0619
5.532,0.00553
5.536,0.0023
5.54,-0.02457
5.544,-0.04436
5.548,0.01388
5.552,0.02308
5.556,-0.03442
5.56,-0.0441
5.564,0.04282
5.568,0.01145
5.572,0.05689
5.576,0.03493
5.58,0.01663
5.584,0.02868
5.588,-0.08915
5.592,-0.01499
5.596,0.099
5.6,-0.00245
5.604,-0.00696
5.608,0.00573
5.612,0.04586
5.616,-0.05333
5.62,0.0506
5.624,-0.02905
5.628,0.06836
5.632,0.06502
5.636,-0.00291
5.64,0.06287
5.644,-0.05385
5.648,0.03084
5.652,0.07139
5.656,0.04392
5.66,0.03809
5.664,0.08125
5.668,0.10087
5.672,0.04613
5.676,0.13604
5.68,0.07165
5.684,0.1265
5.688,0.08947
5.692,0.14914
5.696,0.16435
5.7,0.16592
5.704,0.19598
5.708,0.21132
5.712,0.19341
5.716,0.24381
5.72,0.26283
5.724,0.20434
5.728,0.19044
5.732,0.21718
5.736,0.17783
5.74,0.16486
5.744,0.21979
5.748,0.15146
5.752,0.1165
5.756,0.12666
5.76,0.18967
5.764,0.10545
5.768,0.18902
5.772,0.08013
5.776,0.07943
5.78,0.13798
5.784,0.07305
5.788,0.04501
5.792,0.08707
5.796,0.02971
5.8,-0.0179
5.804,0.04351
5.808,0.02963
5.812,-0.00109
5.816,-0.01932
5.82,0.02048
5.824,0.05014
5.828,-0.03403
5.832,0.02432
5.836,-0.00602
5.84,-0.07851
5.844,-0.02237
5.848,-0.03826
5.852,0.01472
5.856,0.02575
5.86,0.00451
5.864,-0.02022
5.868,-0.0005
5.872,0.00566
5.876,-0.02051
5.88,-0.01561
5.884,0.03896
5.888,-0.04407
5.892,0.00927
5.896,0.03386
5.9,-0.01773
5.904,-0.00234
5.908,-0.02125
5.912,0.00483
5.916,-0.02595
5.92,0.02163
5.924,-0.00194
5.928,-0.00052
5.932,0.04763
5.936,-0.03721
5.94,-4e-05
5.944,-0.04421
5.948,-0.05623
5.952,-0.05317
5.956,0.01035
5.96,-0.01043
5.964,-0.02954
5.968,-0.00813
5.972,0.01876
5.976,-0.04006
5.98,0.03717
5.984,0.05
5.988,-0.03259
5.992,-0.01686
5.996,-0.00363
6.0,-0.01369
6.004,0.04635
6.008,-0.03491
6.012,-0.06471
6.016,-0.00657
6.02,0.01055
6.024,-0.03875
6.028,0.01872
6.032,0.02512
6.036,0.02053
6.04,0.02715
6.044,0.0075
6.048,-0.02447
6.052,-0.04979
6.056,-0.03429
6.06,0.03344
6.064,-0.0179
6.068,-0.03877
6.072,0.00424
6.076,0.0219
6.08,0.01192
6.084,0.03162
6.088,-0.016
6.092,0.00312
6.096,0.06458
6.1,0.07856
6.104,0.04805
6.108,0.11487
6.112,0.05027
6.116,0.06642
6.12,0.05605
6.124,0.12582
6.128,-0.00765
6.132,0.10825
6.136,0.06895
6.14,-0.00784
6.144,0.01442
6.148,0.05675
6.152,0.02056
6.156,-0.03024
6.16,0.03303
6.164,0.00812
6.168,0.05242
6.172,-0.04379
6.176,-0.04259
6.18,-0.0236
6.184,-0.0699
6.188,-0.00265
6.192,-0.00522
6.196,-0.05343
6.2,-0.00409
6.204,0.04831
6.208,-0.01407
6.212,0.04461
6.216,-0.06098
6.22,0.02017
6.224,-0.01931
6.228,-0.0027
6.232,-0.11654
6.236,-0.09712
6.24,-0.10653
6.244,-0.10845
6.248,-0.14496
6.252,-0.15589
6.256,0.04624
6.26,0.15622
6.264,0.4358
6.268,0.56898
6.272,0.84452
6.276,0.98391
6.28,0.9584
6.284,0.93504
6.288,0.7408
6.292,0.47259
6.296,0.20799
6.3,0.03064
6.304,-0.10514
6.308,-0.15156
6.312,-0.16441
6.316,-0.16655
6.32,-0.17323
6.324,-0.09739
6.328,-0.04275
6.332,0.0671
6.336,-0.01947
6.34,-0.05185
6.344,-0.0139
6.348,0.03543
6.352,-0.05445
6.356,-0.01146
6.36,0.011
6.364,-0.01075
6.368,-0.01354
6.372,0.01653
6.376,-0.00705
6.38,-0.03952
6.384,0.0193
6.388,0.03519
6.392,0.0723
6.396,0.07828
6.4,0.02642
6.404,0.07745
6.408,0.0874
6.412,0.10239
6.416,0.08398
6.42,0.03984
6.424,0.0824
6.428,0.03288
6.432,0.06073
6.436,0.04168
6.44,0.03023
6.444,-0.0241
6.448,0.05854
6.452,0.03678
6.456,0.04464
6.46,-0.01927
6.464,0.01664
6.468,-0.01084
6.472,0.03548
6.476,0.02195
6.48,0.04404
6.484,0.06039
6.488,0.04284
6.492,0.05999
6.496,0.01314
6.5,0.09748
6.504,0.03958
6.508,0.1371
6.512,0.07433
6.516,0.10303
6.52,0.08456
6.524,0.12316
6.528,0.1354
6.532,0.00797
6.536,0.05075
6.54,0.08695
6.544,0.18315
6.548,0.3256
6.552,0.4885
6.556,0.73212
6.56,0.94354
6.564,1.1103
6.568,1.18174
6.572,1.18958
6.576,1.00601
6.58,0.81554
6.584,0.57141
6.588,0.31937
6.592,0.16048
6.596,0.06319
6.6,-0.01041
6.604,-0.06304
6.608,-0.00875
6.612,-0.02686
6.616,0.04746
6.62,0.03502
6.624,0.02523
6.628,0.02258
6.632,-0.00072
6.636,-0.03762
6.64,0.02844
6.644,0.05185
6.648,-0.00873
6.652,0.02289
6.656,-0.01308
6.66,-0.07589
6.664,-0.08945
6.668,0.02268
6.672,-0.02198
6.676,0.00646
6.68,-0.01237
6.684,-0.02141
6.688,-0.04506
6.692,-0.06019
6.696,0.01652
6.7,-0.04946
6.704,0.03188
6.708,-0.03038
6.712,-0.02858
6.716,-0.01161
6.72,-0.02891
6.724,-0.00152
6.728,0.01091
6.732,-0.09668
6.736,-0.05734
6.74,0.01697
6.744,-0.01
6.748,0.06199
6.752,-0.08804
6.756,0.01493
6.76,-0.03326
6.764,-0.05077
6.768,-0.01539
6.772,0.07851
6.776,0.00446
6.78,0.03645
6.784,0.03346
6.788,0.05415
6.792,0.10661
6.796,0.06253
6.8,0.12224
6.804,0.08853
6.808,0.09499
6.812,0.09685
6.816,0.12095
6.82,0.08641
6.824,0.20781
6.828,0.15986
6.832,0.22196
6.836,0.22329
6.84,0.22439
6.844,0.12069
6.848,0.21762
6.852,0.21048
6.856,0.2291
6.86,0.17546
6.864,0.25728
6.868,0.16782
6.872,0.13485
6.876,0.20471
6.88,0.1764
6.884,0.18315
6.888,0.17132
6.892,0.16087
6.896,0.16485
6.9,0.17118
6.904,0.15251
6.908,0.19668
6.912,0.10954
6.916,0.17199
6.92,0.1539
6.924,0.16099
6.928,0.03935
6.932,0.05992
6.936,0.12003
6.94,0.06157
6.944,0.01892
6.948,-0.00689
6.952,0.0099
6.956,-0.00536
6.96,0.02945
6.964,-0.0833
6.968,0.07365
6.972,-0.08284
6.976,0.01828
6.98,-0.05836
6.984,-0.06389
6.988,0.00622
6.992,0.03011
6.996,-0.01623
7.0,-0.01624
7.004,-0.10563
7.008,-0.02201
7.012,0.03824
7.016,0.01066
7.02,-0.04933
7.024,0.00548
7.028,-0.01342
7.032,-0.0363
7.036,-0.06592
7.04,-0.09978
7.044,-0.10308
7.048,-0.19132
7.052,-0.17871
7.056,-0.0659
7.06,0.11196
7.064,0.33329
7.068,0.48772
7.072,0.74739
7.076,0.84186
7.08,0.87739
7.084,0.9535
7.088,0.83847
7.092,0.68743
7.096,0.36743
7.1,0.13572
7.104,0.07204
7.108,-0.17377
7.112,-0.20572
7.116,-0.21154
7.12,-0.0518
7.124,-0.11084
7.128,-0.04167
7.132,-0.03019
7.136,-0.07228
7.14,0.02824
7.144,-0.08088
7.148,0.01741
7.152,-0.08268
7.156,0.00105
7.16,-0.03344
7.164,-0.01442
7.168,0.00337
7.172,-0.03682
7.176,-0.07137
7.18,0.03201
7.184,0.00613
7.188,-0.09514
7.192,-0.0512
7.196,-0.02832
7.2,-0.03182
7.204,-0.07335
7.208,-0.08207
7.212,-0.03732
7.216,-0.03307
7.22,-0.00574
7.224,-0.02162
7.228,0.01571
7.232,-0.08286
7.236,-0.00473
7.24,-0.02389
7.244,-0.0167
7.248,-0.05205
7.252,0.00319
7.256,-0.00915
7.26,-0.03721
7.264,-0.0187
7.268,0.0053
7.272,-0.02568
7.276,-0.02832
7.28,0.01664
7.284,-0.02525
7.288,0.00713
7.292,-0.01898
7.296,0.06158
7.3,0.08022
7.304,0.01888
7.308,0.07755
7.312,0.10164
7.316,0.15215
7.32,0.08598
7.324,0.17372
7.328,0.14699
7.332,0.1115
7.336,0.1921
7.34,0.14565
7.344,0.2164
7.348,0.13127
7.352,0.22318
7.356,0.13351
7.36,0.19652
7.364,0.17172
7.368,0.16614
7.372,0.19292
7.376,0.19024
7.38,0.14069
7.384,0.15329
7.388,0.21586
7.392,0.07235
7.396,0.14395
7.4,0.11522
7.404,0.0451
7.408,0.12224
7.412,0.07767
7.416,0.05195
7.42,0.02889
7.424,0.05508
7.428,0.02707
7.432,0.00699
7.436,0.00919
7.44,0.02309
7.444,0.0217
7.448,0.00542
7.452,0.05015
7.456,-0.03774
7.46,-0.02751
7.464,-0.03309
7.468,-0.02675
7.472,0.05294
7.476,-0.04796
7.48,-0.01868
7.484,-0.0185
7.488,0.00583
7.492,0.01192
7.496,0.05635
7.5,-0.01493
7.504,-0.00039
7.508,-0.02915
7.512,0.03408
7.516,0.06297
7.52,0.00804
7.524,0.05642
7.528,0.05944
7.532,0.05656
7.536,0.07713
7.54,0.08949
7.544,0.05815
7.548,0.02045
7.552,0.10988
7.556,0.03658
7.56,-0.04194
7.564,0.00701
7.568,0.05254
7.572,-0.0304
7.576,-0.02445
7.58,-0.04208
7.584,0.01656
7.588,-0.01607
7.592,-0.0158
7.596,-0.09945
7.6,-0.05186
7.604,0.00232
7.608,-0.04742
7.612,-0.07272
7.616,-0.01812
7.62,-0.0423
7.624,-0.07284
7.628,-0.01205
7.632,-0.02699
7.636,0.01804
7.64,-0.03569
7.644,-0.07278
7.648,-0.05609
7.652,-0.05468
7.656,-0.04813
7.66,-0.10039
7.664,-0.16651
7.668,-0.06866
7.672,-0.08987
7.676,0.06916
7.68,0.20916
7.684,0.34673
7.688,0.5753
7.692,0.77874
7.696,0.89693
7.7,0.98102
7.704,0.9085
7.708,0.74574
7.712,0.49118
7.716,0.27333
7.72,0.07003
7.724,-0.08474
7.728,-0.17963
7.732,-0.14475
7.736,-0.09065
7.74,-0.11943
7.744,-0.04154
7.748,-0.11998
7.752,-0.04653
7.756,-0.09177
7.76,-0.03053
7.764,-0.03568
7.768,-0.04978
7.772,-0.03698
7.776,-0.06155
7.78,-0.00674
7.784,-0.04319
7.788,-0.00504
7.792,-0.05182
7.796,-0.04109
7.8,0.02431
7.804,-0.04335
7.808,-0.00772
7.812,-0.07679
7.816,-0.03765
7.82,-0.07844
7.824,-0.01365
7.828,-0.03933
7.832,0.00715
7.836,-0.08144
7.84,-0.03097
7.844,0.0369
7.848,-0.02006
7.852,0.00723
7.856,0.00246
7.86,-0.05955
7.864,-0.02229
7.868,-0.04181
7.872,0.00134
7.876,-0.04197
7.88,-0.0352
7.884,-0.00491
7.888,-0.02297
7.892,0.00632
7.896,-0.03853
7.9,0.04197
7.904,0.05821
7.908,0.08245
7.912,0.03365
7.916,0.1167
7.92,0.0744
7.924,0.00921
7.928,0.11296
7.932,0.16887
7.936,0.15768
7.94,0.09565
7.944,0.07591
7.948,0.18163
7.952,0.08961
7.956,0.19476
7.96,0.16038
7.964,0.18246
7.968,0.19824
7.972,0.17756
7.976,0.1659
7.98,0.1574
7.984,0.18176
7.988,0.22039
7.992,0.20024
7.996,0.14803
8.0,0.16092
8.004,0.17524
8.008,0.17986
8.012,0.18064
8.016,0.12776
8.02,0.15637
8.024,0.11297
8.028,0.09758
8.032,0.09268
8.036,0.06575
8.04,0.06912
8.044,0.05996
8.048,0.0491
8.052,0.07683
8.056,0.06326
8.06,0.02192
8.064,0.04831
8.068,0.03332
8.072,0.01626
8.076,-0.03769
8.08,0.01744
8.084,0.02078
8.088,-0.08139
8.092,0.01473
8.096,-0.05825
8.1,0.03113
8.104,-0.03149
8.108,0.01812
8.112,-0.03085
8.116,-0.0137
8.12,-0.09546
8.124,0.02459
8.128,0.0277
8.132,-0.03849
8.136,0.00947
8.14,-0.04639
8.144,-0.01705
8.148,-0.06027
8.152,-0.06065
8.156,-0.06632
8.16,-0.02398
8.164,-0.05182
8.168,-0.01326
8.172,-0.10865
8.176,-0.01491
8.18,-0.04572
8.184,0.03317
8.188,-0.10161
8.192,0.02014
8.196,-0.0008
8.2,-0.00635
8.204,-0.01732
8.208,-0.11346
8.212,-0.04227
8.216,-0.06737
8.22,0.05753
8.224,0.00776
8.228,0.01915
8.232,-0.01741
8.236,0.0183
8.24,0.0123
8.244,-0.05485
8.248,-0.02835
8.252,-0.03167
8.256,-0.02839
8.26,-0.04695
8.264,-0.00584
8.268,-0.06192
8.272,-0.01737
8.276,-0.01504
8.28,0.03481
8.284,-0.0236
8.288,-0.02512
8.292,0.01393
8.296,-0.05896
8.3,-0.0145
8.304,-0.04978
8.308,-0.0079
8.312,-0.00069
8.316,-0.00604
8.32,0.00873
8.324,-0.0237
8.328,-0.02759
8.332,0.00512
8.336,-0.00791
8.34,-0.00197
8.344,0.02552
8.348,0.00665
8.352,0.04086
8.356,-0.03707
8.36,-0.00616
8.364,-0.0137
8.368,-0.06928
8.372,-0.02319
8.376,-0.01476
8.38,-0.00232
8.384,0.0097
8.388,-0.06781
8.392,0.0653
8.396,0.05057
8.4,0.00685
8.404,0.03829
8.408,0.07009
8.412,0.00044
8.416,0.06769
8.42,0.09734
8.424,0.02716
8.428,0.07745
8.432,0.04951
8.436,0.08345
8.44,0.0307
8.444,0.13524
8.448,0.05064
8.452,0.01264
8.456,0.00031
8.46,0.06698
8.464,-0.02707
8.468,-0.02766
8.472,-0.02774
8.476,0.07161
8.48,0.06428
8.484,-0.05249
8.488,-0.07036
8.492,0.0081
8.496,-0.04289
8.5,0.02352
8.504,0.0025
8.508,0.00399
8.512,-0.02441
8.516,0.0169
8.52,-0.00104
8.524,-0.02163
8.528,-0.02141
8.532,0.00547
8.536,-0.01346
8.54,-0.04997
8.544,-0.02442
8.548,-0.07706
8.552,-0.10306
8.556,-0.16958
8.56,-0.13467
8.564,-0.05488
8.568,0.03872
8.572,0.079
8.576,0.36573
8.58,0.58124
8.584,0.77412
8.588,0.90736
8.592,0.97736
8.596,0.9681
8.6,0.79235
8.604,0.60383
8.608,0.31561
8.612,0.17046
8.616,-0.03511
8.62,-0.12248
8.624,-0.15904
8.628,-0.18255
8.632,-0.12057
8.636,-0.04894
8.64,-0.10491
8.644,-0.06434
8.648,-0.051
8.652,0.02511
8.656,-0.05397
8.66,-0.05478
8.664,0.01118
8.668,-0.00604
8.672,0.04509
8.676,0.04136
8.68,0.02238
8.684,0.00076
8.688,-0.01009
8.692,-0.02731
8.696,0.03822
8.7,0.06191
8.704,-0.02009
8.708,-0.01683
8.712,-0.03133
8.716,-0.0327
8.72,-0.0104
8.724,0.05448
8.728,0.0023
8.732,0.02978
8.736,0.07044
8.74,-0.00626
8.744,-0.00122
8.748,0.05011
8.752,-0.01577
8.756,0.01967
8.76,0.01377
8.764,-0.01075
8.768,-0.02553
8.772,0.02355
8.776,0.04227
8.78,-0.01189
8.784,-0.00437
8.788,0.06841
8.792,0.04801
8.796,0.03287
8.8,0.02953
8.804,0.07529
8.808,0.11406
8.812,0.13392
8.816,0.11308
8.82,0.12189
8.824,0.10463
8.828,0.10232
8.832,0.12613
8.836,0.18552
8.84,0.22682
8.844,0.2043
8.848,0.21114
8.852,0.20078
8.856,0.22373
8.86,0.21566
8.864,0.18526
8.868,0.16385
8.872,0.18017
8.876,0.15347
8.88,0.24493
8.884,0.24316
8.888,0.19466
8.892,0.19327
8.896,0.18069
8.9,0.18986
8.904,0.17675
8.908,0.19861
8.912,0.12481
8.916,0.1552
8.92,0.05222
8.924,0.14247
8.928,0.14825
8.932,0.07462
8.936,0.08275
8.94,0.02963
8.944,0.01331
8.948,0.01334
8.952,0.01116
8.956,0.05632
8.96,0.05012
8.964,0.08324
8.968,0.00759
8.972,0.08885
8.976,0.03314
8.98,-0.00731
8.984,0.02711
8.988,-0.04569
8.992,-0.01226
8.996,0.02026
9.0,0.05874
9.004,0.07314
9.008,0.00026
9.012,0.01058
9.016,0.03289
9.02,0.01278
9.024,-0.02471
9.028,-0.02085
9.032,0.01874
9.036,0.01985
9.04,-0.00305
9.044,-0.08504
9.048,0.05389
9.052,-0.02804
9.056,0.00094
9.06,-0.01542
9.064,0.01716
9.068,-0.04432
9.072,-0.0272
9.076,-0.0174
9.08,-0.04581
9.084,-0.01051
9.088,0.04687
9.092,0.02595
9.096,0.02456
9.1,0.03442
9.104,0.04258
9.108,0.0304
9.112,0.05681
9.116,0.01138
9.12,0.01894
9.124,0.09987
9.128,0.12074
9.132,0.11774
9.136,0.1072
9.14,0.124
9.144,0.11588
9.148,0.05122
9.152,0.11896
9.156,0.08809
9.16,0.10349
9.164,0.07087
9.168,0.06999
9.172,-0.01225
9.176,-0.00968
9.18,0.03925
9.184,0.01652
9.188,0.02928
9.192,0.00029
9.196,0.01895
9.2,0.01989
9.204,-0.0709
9.208,0.08239
9.212,-0.05758
9.216,-0.01458
9.22,-0.04545
9.224,-0.0131
9.228,0.03527
9.232,0.01444
9.236,0.00389
9.24,0.02819
9.244,0.03004
9.248,-0.05622
9.252,0.08956
9.256,-0.0154
9.26,-0.09048
9.264,-0.13981
9.268,-0.13391
9.272,-0.02976
9.276,0.07544
9.28,0.20806
9.284,0.42773
9.288,0.70073
9.292,0.88752
9.296,1.0248
9.3,1.03779
9.304,0.8862
9.308,0.7544
9.312,0.58003
9.316,0.28574
9.32,0.10555
9.324,-0.04399
9.328,-0.14386
9.332,-0.20793
9.336,-0.11353
9.34,-0.14178
9.344,-0.04087
9.348,0.0257
9.352,0.03472
9.356,0.04158
9.36,0.04878
9.364,0.03725
9.368,0.02844
9.372,0.00301
9.376,0.00205
9.38,0.03031
9.384,0.03728
9.388,0.03005
9.392,0.0319
9.396,0.02956
9.4,0.02464
9.404,0.00276
9.408,0.00746
9.412,0.04126
9.416,-0.0053
9.42,0.04772
9.424,0.01852
9.428,-0.01451
9.432,0.07145
9.436,0.01088
9.44,-0.02355
9.444,-0.05259
9.448,0.03827
9.452,-0.02836
9.456,0.02988
9.46,0.02917
9.464,-0.02201
9.468,0.00591
9.472,-0.01964
9.476,0.04748
9.48,0.04325
9.484,0.022
9.488,0.02863
9.492,0.01302
9.496,0.11915
9.5,-0.02274
9.504,0.06681
9.508,0.12814
9.512,0.07266
9.516,0.03271
9.52,0.14653
9.524,0.06335
9.528,0.16841
9.532,0.09586
9.536,0.13999
9.54,0.11929
9.544,0.2303
9.548,0.22232
9.552,0.2116
9.556,0.23307
9.56,0.25212
9.564,0.20412
9.568,0.17963
9.572,0.23048
9.576,0.21752
9.58,0.34531
9.584,0.23744
9.588,0.2679
9.592,0.1676
9.596,0.22179
9.6,0.17617
9.604,0.1998
9.608,0.21817
9.612,0.16789
9.616,0.12425
9.62,0.14312
9.624,0.11846
9.628,0.18646
9.632,0.09981
9.636,0.13417
9.64,0.05007
9.644,0.10464
9.648,0.04404
9.652,0.04488
9.656,0.06012
9.66,-0.01093
9.664,0.01602
9.668,0.00093
9.672,0.05873
9.676,0.04559
9.68,0.06778
9.684,0.0199
9.688,0.03756
9.692,-0.03099
9.696,-0.00354
9.7,0.05883
9.704,0.01304
9.708,0.02112
9.712,0.01596
9.716,-0.05791
9.72,0.01521
9.724,0.00974
9.728,0.01415
9.732,-0.00924
9.736,-0.00727
9.74,0.02192
9.744,0.12293
9.748,0.02205
9.752,0.10366
9.756,0.04684
9.76,0.05671
9.764,-0.02251
9.768,0.05149
9.772,-0.00881
9.776,0.05374
9.78,0.07466
9.784,0.05342
9.788,0.01512
9.792,0.06421
9.796,0.01582
9.8,0.03291
9.804,0.05839
9.808,0.04032
9.812,0.11847
9.816,0.12591
9.82,0.14816
9.824,0.1989
9.828,0.13336
9.832,0.0715
9.836,0.08384
9.84,0.03487
9.844,0.06423
9.848,0.06391
9.852,0.0685
9.856,0.0545
9.86,0.00894
9.864,0.03342
9.868,0.07371
9.872,0.03012
9.876,0.0065
9.88,-0.02144
9.884,0.02406
9.888,-0.04169
9.892,-0.0361
9.896,0.01629
9.9,0.06901
9.904,-0.0432
9.908,0.07058
9.912,0.02982
9.916,0.06243
9.92,0.02096
9.924,0.0489
9.928,0.01275
9.932,0.04149
9.936,0.02643
9.94,0.01535
9.944,0.02248
9.948,-0.03226
9.952,-0.00974
9.956,-0.08125
9.96,-0.08606
9.964,-0.04713
9.968,0.12333
9.972,0.15237
9.976,0.27764
9.98,0.45408
9.984,0.50578
9.988,0.57359
9.992,0.57763
9.996,0.51675
