t_seg,ecg_mV
0.0,0.0035
0.004,0.02193
0.008,0.02468
0.012,0.03037
0.016,0.01514
0.02,-0.02527
0.024,0.01387
0.028,0.00365
0.032,0.03372
0.036,-0.0178
0.04,-0.01547
0.044,-0.01377
0.048,0.04279
0.052,0.0415
0.056,0.02489
0.06,0.04187
0.064,0.05867
0.068,0.03736
0.072,0.09802
0.076,0.11682
0.08,0.08871
0.084,0.0962
0.088,0.11654
0.092,0.10892
0.096,0.11182
0.1,0.09994
0.104,0.07266
0.108,0.07674
0.112,0.06065
0.116,0.03747
0.12,0.02018
0.124,0.03377
0.128,0.01871
0.132,0.0186
0.136,0.00204
0.14,-0.02331
0.144,0.01755
0.148,0.00582
0.152,0.03149
0.156,-0.01506
0.16,0.00985
0.164,-0.01849
0.168,-0.00865
0.172,-0.02203
0.176,0.02754
0.18,-0.00859
0.184,-0.02281
0.188,0.01376
0.192,-0.00591
0.196,-0.01337
0.2,-0.00201
0.204,0.0047
0.208,-0.04266
0.212,-0.07933
0.216,-0.14427
0.22,-0.09786
0.224,-0.04336
0.228,0.04805
0.232,0.23447
0.236,0.44073
0.24,0.64322
0.244,0.83672
0.248,0.96987
0.252,0.99585
0.256,0.9272
0.26,0.77613
0.264,0.50268
0.268,0.28022
0.272,0.0986
0.276,-0.03372
0.28,-0.14469
0.284,-0.16619
0.288,-0.15698
0.292,-0.11139
0.296,-0.06921
0.3,-0.00426
0.304,-0.02625
0.308,-0.03521
0.312,-0.02324
0.316,-0.00833
0.32,0.00158
0.324,-0.00325
0.328,0.01698
0.332,0.012
0.336,-0.01989
0.34,-0.01756
0.344,-0.01912
0.348,-0.02019
0.352,0.00449
0.356,0.00474
0.36,0.01117
0.364,-0.00176
0.368,0.01264
0.372,0.00802
0.376,-0.00918
0.38,-0.02195
0.384,-0.00491
0.388,-0.00945
0.392,-0.01167
0.396,-0.00474
0.4,0.00559
0.404,0.00874
0.408,-0.02372
0.412,0.03403
0.416,0.00592
0.42,0.00326
0.424,-0.00606
0.428,-0.02435
0.432,-0.00277
0.436,0.02173
0.44,0.0443
0.444,0.02785
0.448,0.04086
0.452,0.04753
0.456,0.05625
0.46,0.03578
0.464,0.06715
0.468,0.08267
0.472,0.13961
0.476,0.09313
0.48,0.1196
0.484,0.13812
0.488,0.15573
0.492,0.1319
0.496,0.13409
0.5,0.16999
0.504,0.18526
0.508,0.18018
0.512,0.19405
0.516,0.1802
0.52,0.16623
0.524,0.23986
0.528,0.23138
0.532,0.23017
0.536,0.21237
0.54,0.20318
0.544,0.20743
0.548,0.19452
0.552,0.17823
0.556,0.19958
0.56,0.15693
0.564,0.16364
0.568,0.16003
0.572,0.16439
0.576,0.11729
0.58,0.10684
0.584,0.10891
0.588,0.08571
0.592,0.04983
0.596,0.07372
0.6,0.06032
0.604,0.04797
0.608,0.02525
0.612,0.03471
0.616,0.01844
0.62,0.01718
0.624,0.03134
0.628,0.00415
0.632,0.00593
0.636,0.00698
0.64,-0.01334
0.644,0.01124
0.648,0.00235
0.652,0.00093
0.656,0.00219
0.66,-0.00611
0.664,0.02615
0.668,-0.01474
0.672,-0.00105
0.676,-0.01204
0.68,0.00574
0.684,-0.01111
0.688,0.01787
0.692,0.00113
0.696,0.00762
0.7,-0.00647
0.704,-0.01251
0.708,-0.02015
0.712,0.016
0.716,-0.0232
0.72,-0.03806
0.724,-0.01097
0.728,-0.00292
0.732,-0.00932
0.736,-0.00932
0.74,-0.01387
0.744,-0.01678
0.748,0.00036
0.752,-0.0152
0.756,-0.02219
0.76,-0.00174
0.764,0.00029
0.768,-0.02153
0.772,-0.02962
0.776,-0.00459
0.78,0.02187
0.784,0.00767
0.788,-0.00656
0.792,0.00084
0.796,-0.01095
0.8,-0.02038
0.804,-0.00232
0.808,-0.02092
0.812,0.00636
0.816,-0.01846
0.82,-0.02454
0.824,-0.03679
0.828,-0.03336
0.832,-0.00741
0.836,-0.01634
0.84,-0.00448
0.844,-0.01694
0.848,-0.00411
0.852,-0.01086
0.856,-0.01842
0.86,-0.01756
0.864,-0.03779
0.868,0.00203
0.872,-0.01909
0.876,0.01986
0.88,-0.00206
0.884,0.00306
0.888,0.01151
0.892,-0.01831
0.896,-0.02748
0.9,-0.01855
0.904,-0.0205
0.908,-0.00949
0.912,-0.0162
0.916,-0.00486
0.92,0.00507
0.924,-0.04744
0.928,-0.00145
0.932,-0.01274
0.936,-0.01674
0.94,-0.01048
0.944,-0.01529
0.948,-0.01979
0.952,-0.02466
0.956,-0.01837
0.96,-0.01189
0.964,-0.00648
0.968,-0.00758
0.972,-0.03369
0.976,0.00662
0.98,-0.01631
0.984,-0.01294
0.988,-0.03561
0.992,-0.00801
0.996,-0.02503
1.0,-0.03509
1.004,-0.0453
1.008,-0.01494
1.012,-0.01319
1.016,-0.01301
1.02,-0.01344
1.024,-0.01018
1.028,0.00108
1.032,-0.02975
1.036,0.00384
1.04,-0.00073
1.044,0.00092
1.048,-0.01753
1.052,-0.03797
1.056,-0.02979
1.06,-0.0269
1.064,-0.02177
1.068,-0.01153
1.072,-0.03408
1.076,-0.04426
1.08,-0.00469
1.084,-0.00901
1.088,-0.04723
1.092,-0.02796
1.096,-0.0059
1.1,-0.00455
1.104,-0.01772
1.108,-0.02519
1.112,-0.02015
1.116,-0.01735
1.12,-0.02242
1.124,0.00826
1.128,0.00474
1.132,-0.02649
1.136,0.02906
1.14,0.05239
1.144,0.05334
1.148,0.0303
1.152,0.04793
1.156,0.06036
1.16,0.09434
1.164,0.09742
1.168,0.06947
1.172,0.06926
1.176,0.06415
1.18,0.07968
1.184,0.0464
1.188,0.02075
1.192,0.03764
1.196,0.01338
1.2,0.01308
1.204,-0.00309
1.208,-0.02465
1.212,-0.04512
1.216,-0.00615
1.22,-0.0186
1.224,-0.0208
1.228,-0.03474
1.232,-0.01228
1.236,-0.02217
1.24,-0.02271
1.244,-0.00473
1.248,-0.02274
1.252,-0.04789
1.256,-0.01861
1.26,-0.0024
1.264,-0.01737
1.268,-0.02689
1.272,-0.02455
1.276,-0.01648
1.28,-0.05821
1.284,-0.08842
1.288,-0.13577
1.292,-0.12819
1.296,-0.1272
1.3,-0.04622
1.304,0.07542
1.308,0.2713
1.312,0.49712
1.316,0.69007
1.32,0.87319
1.324,0.97301
1.328,0.97315
1.332,0.79784
1.336,0.6047
1.34,0.40167
1.344,0.17228
1.348,-0.02072
1.352,-0.13562
1.356,-0.18861
1.36,-0.17805
1.364,-0.13788
1.368,-0.12949
1.372,-0.08717
1.376,-0.0562
1.38,-0.03539
1.384,-0.02395
1.388,-0.05308
1.392,-0.017
1.396,-0.03345
1.4,-0.02408
1.404,-0.037
1.408,-0.02337
1.412,0.00055
1.416,-0.02821
1.42,0.00266
1.424,-0.03176
1.428,-0.02416
1.432,-0.04046
1.436,-0.04674
1.44,-0.03954
1.444,-0.00541
1.448,-0.02444
1.452,-0.04975
1.456,-0.01359
1.46,-0.03486
1.464,-0.02087
1.468,-0.02045
1.472,-0.03599
1.476,-0.00892
1.48,-0.01365
1.484,-0.03636
1.488,0.00702
1.492,-0.01625
1.496,-0.00608
1.5,-0.0007
1.504,-0.00625
1.508,0.01079
1.512,-0.01593
1.516,-0.0083
1.52,-0.01087
1.524,0.02307
1.528,0.03083
1.532,0.02512
1.536,0.05511
1.54,0.04267
1.544,0.04938
1.548,0.06891
1.552,0.10054
1.556,0.08606
1.56,0.11849
1.564,0.12417
1.568,0.12803
1.572,0.11865
1.576,0.12052
1.58,0.14894
1.584,0.178
1.588,0.16846
1.592,0.17265
1.596,0.19114
1.6,0.20451
1.604,0.19579
1.608,0.16672
1.612,0.19356
1.616,0.16723
1.62,0.19158
1.624,0.19351
1.628,0.18833
1.632,0.16653
1.636,0.12801
1.64,0.13308
1.644,0.11211
1.648,0.12042
1.652,0.10366
1.656,0.08643
1.66,0.08525
1.664,0.07433
1.668,0.03869
1.672,0.00418
1.676,0.02695
1.68,0.04463
1.684,0.03049
1.688,0.0215
1.692,0.00575
1.696,-0.01965
1.7,-0.0101
1.704,-0.00531
1.708,-0.02178
1.712,-0.00651
1.716,-0.01161
1.72,-0.0082
1.724,-0.01179
1.728,-0.04342
1.732,0.00052
1.736,-0.01833
1.74,-0.07723
1.744,0.00468
1.748,-0.0244
1.752,-0.03359
1.756,-0.04203
1.76,-0.03278
1.764,-0.03136
1.768,-0.03079
1.772,-0.03499
1.776,-0.02937
1.78,-0.03581
1.784,-0.05022
1.788,-0.02505
1.792,-0.00865
1.796,-0.01891
1.8,-0.02604
1.804,-0.03681
1.808,-0.00785
1.812,-0.04192
1.816,-0.00023
1.82,-0.02467
1.824,-0.02322
1.828,0.00536
1.832,-0.03882
1.836,-0.04322
1.84,-0.01283
1.844,-0.02746
1.848,-0.03677
1.852,-0.03009
1.856,-0.02286
1.86,-0.04266
1.864,-0.0169
1.868,-0.02286
1.872,-0.05645
1.876,-0.01631
1.88,-0.04453
1.884,-0.06392
1.888,-0.03317
1.892,-0.04298
1.896,-0.0418
1.9,-0.02877
1.904,-0.02769
1.908,-0.05764
1.912,-0.04457
1.916,0.00204
1.92,-0.0284
1.924,-0.02107
1.928,-0.01758
1.932,-0.02496
1.936,-0.03877
1.94,-0.01057
1.944,-0.01732
1.948,-0.03191
1.952,-0.04133
1.956,-0.04998
1.96,-0.02263
1.964,-0.0368
1.968,-0.02853
1.972,-0.01666
1.976,-0.00561
1.98,-0.03003
1.984,-0.0537
1.988,-0.02691
1.992,-0.05656
1.996,-0.02268
2.0,-0.03876
2.004,-0.01427
2.008,-0.03492
2.012,-0.03532
2.016,-0.03779
2.02,-0.01736
2.024,-0.05413
2.028,-0.0157
2.032,-0.03967
2.036,-0.00759
2.04,-0.01897
2.044,-0.04812
2.048,-0.03323
2.052,-0.00641
2.056,-0.03231
2.06,-0.04018
2.064,-0.02857
2.068,-0.03233
2.072,-0.04504
2.076,-0.0276
2.08,-0.02956
2.084,-0.03497
2.088,-0.01433
2.092,-0.04144
2.096,-0.0059
2.1,-0.04843
2.104,-0.02958
2.108,-0.03303
2.112,-0.03976
2.116,-0.01186
2.12,-0.04371
2.124,-0.04168
2.128,-0.03401
2.132,-0.03599
2.136,-0.0334
2.14,-0.05102
2.144,-0.00986
2.148,0.00731
2.152,-0.02862
2.156,-0.02443
2.16,-0.02166
2.164,-0.04916
2.168,-0.01369
2.172,-0.03771
2.176,-0.01502
2.18,-0.03709
2.184,-0.05241
2.188,-0.03302
2.192,-0.01255
2.196,-0.03569
2.2,-0.01309
2.204,-0.03593
2.208,-0.02997
2.212,-0.00132
2.216,-0.0256
2.22,-0.04056
2.224,-0.01623
2.228,-0.03852
2.232,-0.00125
2.236,-0.02476
2.24,-0.01957
2.244,-0.01278
2.248,-0.01536
2.252,-0.04158
2.256,-0.02505
2.26,-0.02373
2.264,-0.00829
2.268,-0.03097
2.272,0.01312
2.276,-0.02566
2.28,0.01746
2.284,0.02074
2.288,0.02616
2.292,0.04483
2.296,0.03829
2.3,0.06007
2.304,0.07166
2.308,0.07885
2.312,0.06913
2.316,0.094
2.32,0.04921
2.324,0.06155
2.328,0.04538
2.332,0.02541
2.336,0.01554
2.34,-0.02828
2.344,-0.00899
2.348,-0.0245
2.352,-0.02811
2.356,-0.0273
2.36,-0.00828
2.364,-0.01189
2.368,-0.02724
2.372,-0.00079
2.376,-0.00801
2.38,-0.0403
2.384,-0.0032
2.388,-0.03636
2.392,-0.04761
2.396,-0.02533
2.4,-0.01706
2.404,-0.03682
2.408,-0.02284
2.412,-0.01648
2.416,-0.03487
2.42,-0.02972
2.424,-0.07135
2.428,-0.08161
2.432,-0.127
2.436,-0.14127
2.44,-0.12806
2.444,0.01655
2.448,0.15132
2.452,0.39172
2.456,0.59962
2.46,0.74999
2.464,0.9276
2.468,0.96535
2.472,0.91117
2.476,0.75936
2.48,0.53184
2.484,0.29533
2.488,0.06715
2.492,-0.06462
2.496,-0.18103
2.5,-0.18573
2.504,-0.19569
2.508,-0.12714
2.512,-0.08252
2.516,-0.05864
2.52,-0.04307
2.524,-0.01589
2.528,-0.02658
2.532,-0.03826
2.536,0.00067
2.54,-0.0164
2.544,-0.03151
2.548,-0.03627
2.552,-0.01187
2.556,-0.02119
2.56,-0.02675
2.564,-0.04616
2.568,-0.0328
2.572,-0.05163
2.576,0.01383
2.58,-0.04643
2.584,-0.04134
2.588,-0.03972
2.592,-0.02984
2.596,-0.03581
2.6,-0.02121
2.604,-0.01407
2.608,-0.06576
2.612,-0.04648
2.616,-0.03782
2.62,-0.02645
2.624,-0.01354
2.628,-0.02431
2.632,-0.01133
2.636,-0.00917
2.64,0.00119
2.644,0.01249
2.648,-0.01616
2.652,0.00804
2.656,-0.02134
2.66,0.00707
2.664,0.00553
2.668,0.052
2.672,0.01234
2.676,0.0466
2.68,0.05494
2.684,0.06004
2.688,0.07663
2.692,0.07209
2.696,0.13132
2.7,0.11272
2.704,0.11394
2.708,0.11961
2.712,0.15359
2.716,0.14852
2.72,0.16457
2.724,0.16553
2.728,0.19559
2.732,0.20297
2.736,0.20105
2.74,0.19309
2.744,0.20815
2.748,0.19307
2.752,0.21484
2.756,0.18933
2.76,0.19015
2.764,0.18668
2.768,0.18136
2.772,0.16539
2.776,0.13701
2.78,0.13341
2.784,0.12216
2.788,0.11647
2.792,0.08584
2.796,0.07775
2.8,0.07237
2.804,0.09546
2.808,0.07226
2.812,0.05857
2.816,0.05313
2.82,0.0458
2.824,0.01183
2.828,0.01279
2.832,0.00548
2.836,0.0135
2.84,0.03179
2.844,0.01577
2.848,0.01174
2.852,-0.01462
2.856,-0.02589
2.86,-0.00851
2.864,-0.02621
2.868,-0.00683
2.872,-0.03293
2.876,-0.0295
2.88,0.0154
2.884,-0.02459
2.888,-0.03369
2.892,-0.02302
2.896,0.01339
2.9,-0.0226
2.904,-0.02021
2.908,-0.01494
2.912,-0.00016
2.916,-0.01124
2.92,-0.02541
2.924,-0.04217
2.928,-0.00728
2.932,-0.02251
2.936,-0.0018
2.94,-0.01253
2.944,-0.03589
2.948,-0.03067
2.952,-0.00158
2.956,0.02737
2.96,-0.03519
2.964,-0.02456
2.968,-0.00824
2.972,-0.02336
2.976,-0.00541
2.98,-0.02194
2.984,-0.03262
2.988,-0.00415
2.992,-0.02457
2.996,-0.04881
3.0,-0.01828
3.004,-0.01907
3.008,-0.03857
3.012,0.00547
3.016,-0.00564
3.02,-0.00877
3.024,-0.00932
3.028,-0.02967
3.032,-0.01253
3.036,-0.03809
3.04,-0.01854
3.044,-0.03077
3.048,0.02346
3.052,-0.0087
3.056,-0.0205
3.06,-0.02649
3.064,0.00276
3.068,-0.03638
3.072,-0.02286
3.076,-0.04138
3.08,-0.04183
3.084,-0.00414
3.088,-0.00299
3.092,-0.0177
3.096,-0.01302
3.1,0.02199
3.104,-0.00782
3.108,-0.02711
3.112,-0.00548
3.116,-0.02356
3.12,0.00649
3.124,0.02181
3.128,-0.02163
3.132,-0.04135
3.136,-0.02513
3.14,-0.00891
3.144,-0.00718
3.148,-0.02749
3.152,-0.0146
3.156,-0.01142
3.16,-0.02691
3.164,-0.00057
3.168,-0.00203
3.172,-0.00777
3.176,-0.02397
3.18,-0.02328
3.184,-0.02796
3.188,-0.04128
3.192,-0.00638
3.196,-0.02826
3.2,0.00904
3.204,-0.01093
3.208,-0.00979
3.212,-0.02872
3.216,-0.01549
3.22,-0.03736
3.224,-0.00772
3.228,0.01553
3.232,-0.02508
3.236,-0.00338
3.24,0.00463
3.244,-0.00686
3.248,-0.02115
3.252,-0.03131
3.256,0.00244
3.26,-0.00817
3.264,0.00831
3.268,0.01289
3.272,0.04258
3.276,0.05479
3.28,0.04976
3.284,0.06041
3.288,0.06615
3.292,0.08243
3.296,0.09298
3.3,0.09366
3.304,0.10384
3.308,0.07314
3.312,0.08556
3.316,0.06282
3.32,0.07395
3.324,0.05046
3.328,0.01955
3.332,0.03393
3.336,0.00265
3.34,-0.00258
3.344,0.00575
3.348,-0.0257
3.352,-0.02668
3.356,-0.0036
3.36,0.0005
3.364,-0.01342
3.368,0.00973
3.372,-0.00019
3.376,-0.00011
3.38,0.00181
3.384,0.00545
3.388,0.00267
3.392,-0.02068
3.396,-0.03656
3.4,0.00166
3.404,-0.01229
3.408,-0.00852
3.412,-0.00176
3.416,-0.03441
3.42,-0.05654
3.424,-0.09841
3.428,-0.11855
3.432,-0.13593
3.436,-0.05659
3.44,0.06656
3.444,0.2819
3.448,0.446
3.452,0.69581
3.456,0.86343
3.46,0.96367
3.464,0.97381
3.468,0.8649
3.472,0.69728
3.476,0.47547
3.48,0.24707
3.484,0.04607
3.488,-0.07206
3.492,-0.15782
3.496,-0.16401
3.5,-0.1419
3.504,-0.10232
3.508,-0.06693
3.512,-0.03558
3.516,-0.03216
3.52,0.00091
3.524,0.00584
3.528,-0.00258
3.532,-0.02501
3.536,-0.01467
3.54,0.01078
3.544,-0.00227
3.548,-0.02562
3.552,-0.01454
3.556,0.01786
3.56,-0.00439
3.564,0.02239
3.568,-0.00371
3.572,0.00011
3.576,0.00078
3.58,-0.00463
3.584,-0.00825
3.588,-0.0024
3.592,-0.00247
3.596,0.01077
3.6,0.00191
3.604,-0.01024
3.608,0.00668
3.612,0.01834
3.616,0.00508
3.62,0.02074
3.624,-0.0262
3.628,-0.00414
3.632,0.04431
3.636,0.02948
3.64,0.03496
3.644,0.03102
3.648,0.00713
3.652,0.04268
3.656,0.01383
3.66,0.03172
3.664,0.04158
3.668,0.0927
3.672,0.06233
3.676,0.09645
3.68,0.07181
3.684,0.10763
3.688,0.11195
3.692,0.11157
3.696,0.12535
3.7,0.17025
3.704,0.13894
3.708,0.14117
3.712,0.16727
3.716,0.18325
3.72,0.17563
3.724,0.22061
3.728,0.21223
3.732,0.17426
3.736,0.19359
3.74,0.22214
3.744,0.18964
3.748,0.2187
3.752,0.20131
3.756,0.21665
3.76,0.22925
3.764,0.20108
3.768,0.18756
3.772,0.16062
3.776,0.17314
3.78,0.1462
3.784,0.13077
3.788,0.14397
3.792,0.12704
3.796,0.09862
3.8,0.10198
3.804,0.09413
3.808,0.07519
3.812,0.06492
3.816,0.07433
3.82,0.03809
3.824,0.04409
3.828,0.03317
3.832,0.05556
3.836,0.01064
3.84,0.04895
3.844,0.02607
3.848,0.0067
3.852,0.01613
3.856,-0.01027
3.86,0.01898
3.864,0.02063
3.868,0.0223
3.872,0.00221
3.876,0.03617
3.88,0.01126
3.884,-0.03065
3.888,0.01592
3.892,0.02281
3.896,0.02146
3.9,0.01008
3.904,0.02259
3.908,0.0118
3.912,-0.02142
3.916,-0.00011
3.92,-0.01184
3.924,0.01238
3.928,0.01482
3.932,-0.02159
3.936,0.00034
3.94,0.0035
3.944,0.02439
3.948,-0.00209
3.952,-0.03248
3.956,0.02752
3.96,-0.03061
3.964,0.00869
3.968,0.03882
3.972,0.02439
3.976,0.02222
3.98,0.00756
3.984,0.0145
3.988,0.02244
3.992,0.00877
3.996,0.0081
4.0,0.00896
4.004,0.00144
4.008,-0.0039
4.012,0.02379
4.016,-0.00497
4.02,0.01303
4.024,0.02634
4.028,0.02338
4.032,-0.01522
4.036,0.03461
4.04,0.01899
4.044,0.01645
4.048,-0.00358
4.052,0.00323
4.056,0.00313
4.06,0.01445
4.064,0.01101
4.068,0.01838
4.072,0.00578
4.076,0.01057
4.08,0.02711
4.084,-0.00096
4.088,0.04023
4.092,0.03499
4.096,0.01605
4.1,0.02923
4.104,-0.02653
4.108,-0.01094
4.112,0.00406
4.116,-0.00868
4.12,0.00749
4.124,-0.00585
4.128,0.02568
4.132,0.01784
4.136,0.036
4.14,-0.00109
4.144,0.0068
4.148,0.04182
4.152,0.03721
4.156,0.01489
4.16,0.03232
4.164,0.02597
4.168,0.03649
4.172,0.01321
4.176,0.0078
4.18,0.01947
4.184,0.03945
4.188,-0.01251
4.192,0.00996
4.196,-0.00559
4.2,0.00047
4.204,0.01695
4.208,0.03347
4.212,0.04667
4.216,0.03025
4.22,0.01559
4.224,0.01761
4.228,0.01575
4.232,0.02554
4.236,0.01427
4.24,0.01142
4.244,-0.02487
4.248,0.04776
4.252,0.01829
4.256,0.02095
4.26,0.01658
4.264,0.03876
4.268,0.0383
4.272,0.0451
4.276,0.04828
4.28,0.08365
4.284,0.07059
4.288,0.08607
4.292,0.07217
4.296,0.11774
4.3,0.10994
4.304,0.14916
4.308,0.11611
4.312,0.13247
4.316,0.14915
4.32,0.09708
4.324,0.08658
4.328,0.08479
4.332,0.08404
4.336,0.04459
4.34,0.06265
4.344,0.02887
4.348,0.02491
4.352,0.00441
4.356,0.0159
4.36,0.04046
4.364,0.02221
4.368,0.02266
4.372,0.01168
4.376,0.03211
4.38,-0.00834
4.384,0.04326
4.388,0.03669
4.392,-0.00711
4.396,0.02148
4.4,0.02342
4.404,0.04255
4.408,0.03265
4.412,0.01791
4.416,-0.01801
4.42,0.00689
4.424,0.0007
4.428,-0.05675
4.432,-0.10299
4.436,-0.09135
4.44,-0.05353
4.444,0.09964
4.448,0.25851
4.452,0.48759
4.456,0.68811
4.46,0.89113
4.464,0.98085
4.468,0.99341
4.472,0.9345
4.476,0.77179
4.48,0.51974
4.484,0.29494
4.488,0.12431
4.492,-0.03599
4.496,-0.13045
4.5,-0.16198
4.504,-0.11642
4.508,-0.09828
4.512,-0.01074
4.516,-0.00881
4.52,0.01346
4.524,0.01289
4.528,0.02818
4.532,0.03371
4.536,0.04235
4.54,0.02562
4.544,0.01692
4.548,0.0161
4.552,0.03929
4.556,0.03009
4.56,0.02791
4.564,0.00025
4.568,0.03384
4.572,0.01848
4.576,0.03328
4.58,0.04077
4.584,0.03118
4.588,0.03244
4.592,0.03389
4.596,0.0038
4.6,0.02068
4.604,0.05057
4.608,0.02644
4.612,0.01969
4.616,0.04963
4.62,0.04692
4.624,0.02963
4.628,0.06069
4.632,0.0367
4.636,0.04408
4.64,0.02963
4.644,0.09053
4.648,0.04382
4.652,0.06841
4.656,0.01323
4.66,0.07525
4.664,0.0696
4.668,0.07894
4.672,0.09468
4.676,0.10442
4.68,0.1079
4.684,0.09192
4.688,0.12462
4.692,0.1265
4.696,0.15494
4.7,0.15404
4.704,0.16289
4.708,0.15674
4.712,0.16857
4.716,0.21923
4.72,0.16558
4.724,0.21754
4.728,0.24425
4.732,0.24064
4.736,0.23333
4.74,0.22604
4.744,0.20954
4.748,0.24134
4.752,0.20738
4.756,0.23492
4.76,0.23638
4.764,0.22732
4.768,0.23176
4.772,0.26023
4.776,0.18841
4.78,0.21348
4.784,0.19448
4.788,0.17244
4.792,0.16458
4.796,0.14657
4.8,0.14029
4.804,0.13839
4.808,0.13384
4.812,0.11687
4.816,0.08751
4.82,0.07157
4.824,0.0809
4.828,0.09638
4.832,0.05091
4.836,0.04795
4.84,0.06239
4.844,0.03177
4.848,0.05432
4.852,0.04451
4.856,0.04031
4.86,0.03741
4.864,0.04325
4.868,0.04286
4.872,0.02396
4.876,0.0269
4.88,0.02852
4.884,0.03207
4.888,0.03604
4.892,0.03099
4.896,0.01898
4.9,0.02146
4.904,0.01915
4.908,0.03451
4.912,0.01425
4.916,0.00106
4.92,0.06347
4.924,0.02261
4.928,0.01349
4.932,0.03513
4.936,0.02606
4.94,0.02963
4.944,0.04607
4.948,0.04238
4.952,0.01962
4.956,0.04039
4.96,0.0568
4.964,0.02866
4.968,0.03042
4.972,0.03752
4.976,0.03775
4.98,0.04095
4.984,0.0489
4.988,0.03357
4.992,0.03439
4.996,0.03265
5.0,0.01711
5.004,0.00199
5.008,0.01843
5.012,0.03181
5.016,0.03092
5.02,0.06198
5.024,0.06179
5.028,0.03127
5.032,0.02948
5.036,0.06677
5.04,0.01575
5.044,0.04115
5.048,0.0229
5.052,0.00659
5.056,0.02604
5.06,0.01236
5.064,0.02853
5.068,0.05089
5.072,0.03616
5.076,0.04284
5.08,0.05011
5.084,0.0279
5.088,0.02439
5.092,0.03291
5.096,0.04234
5.1,0.05817
5.104,0.01777
5.108,0.02983
5.112,0.06683
5.116,0.05517
5.12,0.08456
5.124,0.07565
5.128,0.10413
5.132,0.08422
5.136,0.09849
5.14,0.13096
5.144,0.10482
5.148,0.12533
5.152,0.1274
5.156,0.11262
5.16,0.12113
5.164,0.10621
5.168,0.0966
5.172,0.0837
5.176,0.07598
5.18,0.0543
5.184,0.02937
5.188,0.03709
5.192,0.05311
5.196,0.034
5.2,0.04746
5.204,0.03892
5.208,0.02112
5.212,0.02768
5.216,0.05801
5.22,0.01539
5.224,0.01895
5.228,0.03033
5.232,0.02729
5.236,0.0123
5.24,0.02878
5.244,0.03594
5.248,0.00254
5.252,0.04736
5.256,-0.0019
5.26,0.03378
5.264,-0.00069
5.268,-0.05712
5.272,-0.04264
5.276,-0.07653
5.28,-0.03901
5.284,0.06754
5.288,0.21262
5.292,0.44853
5.296,0.65693
5.3,0.87985
5.304,0.98871
5.308,1.01048
5.312,0.92411
5.316,0.75899
5.32,0.56621
5.324,0.34715
5.328,0.12815
5.332,-0.03077
5.336,-0.09955
5.34,-0.13029
5.344,-0.1357
5.348,-0.07541
5.352,-0.02841
5.356,-0.00979
5.36,0.01942
5.364,0.02802
5.368,0.04453
5.372,0.01947
5.376,0.03453
5.38,0.01819
5.384,0.04011
5.388,0.03746
5.392,0.0552
5.396,0.03054
5.4,0.02565
5.404,0.033
5.408,0.02778
5.412,0.04466
5.416,0.0306
5.42,0.03512
5.424,0.03492
5.428,0.01503
5.432,0.03832
5.436,0.0234
5.44,0.02607
5.444,0.02803
5.448,0.0369
5.452,0.02514
5.456,0.02621
5.46,0.03839
5.464,0.01514
5.468,0.05792
5.472,0.02313
5.476,0.04812
5.48,0.03927
5.484,0.05595
5.488,0.03614
5.492,0.02465
5.496,0.06947
5.5,0.07844
5.504,0.08334
5.508,0.06655
5.512,0.07551
5.516,0.11138
5.52,0.09191
5.524,0.09965
5.528,0.1263
5.532,0.12785
5.536,0.15015
5.54,0.15556
5.544,0.17708
5.548,0.18162
5.552,0.22085
5.556,0.19313
5.56,0.22706
5.564,0.20725
5.568,0.19926
5.572,0.22744
5.576,0.24274
5.58,0.24593
5.584,0.24092
5.588,0.26427
5.592,0.24312
5.596,0.23444
5.6,0.22749
5.604,0.22835
5.608,0.22581
5.612,0.23627
5.616,0.22029
5.62,0.17681
5.624,0.21331
5.628,0.17032
5.632,0.17013
5.636,0.14351
5.64,0.14464
5.644,0.11286
5.648,0.10818
5.652,0.12561
5.656,0.09126
5.66,0.09979
5.664,0.12075
5.668,0.0588
5.672,0.07575
5.676,0.05568
5.68,0.04983
5.684,0.05242
5.688,0.05787
5.692,0.05998
5.696,0.02988
5.7,0.06008
5.704,0.03288
5.708,0.03931
5.712,0.04737
5.716,0.03508
5.72,0.04077
5.724,0.03395
5.728,0.02865
5.732,0.05094
5.736,-0.00973
5.74,0.01645
5.744,0.03019
5.748,0.02359
5.752,0.02368
5.756,0.01849
5.76,0.03626
5.764,0.04037
5.768,0.03359
5.772,0.02662
5.776,0.03056
5.78,0.04421
5.784,0.0346
5.788,0.01249
5.792,0.02451
5.796,0.03146
5.8,0.00018
5.804,0.01656
5.808,0.05345
5.812,0.05241
5.816,0.03379
5.82,0.02879
5.824,0.02194
5.828,0.0383
5.832,0.04172
5.836,0.02282
5.84,0.02457
5.844,0.01834
5.848,0.0434
5.852,0.02404
5.856,0.02799
5.86,0.01508
5.864,0.00782
5.868,0.02539
5.872,0.02763
5.876,0.04459
5.88,0.0239
5.884,0.02741
5.888,0.01533
5.892,0.03002
5.896,0.02974
5.9,0.02523
5.904,0.02359
5.908,0.02403
5.912,0.01197
5.916,0.02268
5.92,0.03511
5.924,0.06358
5.928,0.02786
5.932,0.00265
5.936,0.02388
5.94,0.02012
5.944,0.02835
5.948,0.00621
5.952,0.03137
5.956,0.01969
5.96,0.03557
5.964,0.01598
5.968,0.04139
5.972,0.02108
5.976,0.01692
5.98,0.00768
5.984,0.00598
5.988,0.01882
5.992,-0.00221
5.996,0.02037
6.0,0.01483
6.004,0.03765
6.008,0.01392
6.012,0.03504
6.016,0.01566
6.02,0.02315
6.024,0.022
6.028,0.03828
6.032,0.03185
6.036,0.01735
6.04,0.03366
6.044,0.03417
6.048,0.02807
6.052,0.02732
6.056,-0.00151
6.06,0.01468
6.064,0.00127
6.068,0.02485
6.072,0.0349
6.076,0.03545
6.08,0.04396
6.084,0.00494
6.088,0.02799
6.092,0.02642
6.096,0.01184
6.1,0.00917
6.104,0.01538
6.108,0.02366
6.112,0.02199
6.116,0.01659
6.12,0.04122
6.124,0.02696
6.128,0.00649
6.132,0.01864
6.136,0.00652
6.14,0.05284
6.144,-0.00234
6.148,0.02233
6.152,0.03119
6.156,0.0343
6.16,0.00131
6.164,0.07109
6.168,0.02846
6.172,0.02655
6.176,0.00614
6.18,0.01775
6.184,0.03063
6.188,0.02943
6.192,0.02903
6.196,0.03754
6.2,0.00368
6.204,0.03823
6.208,0.02982
6.212,0.02437
6.216,0.05723
6.22,0.02943
6.224,0.04925
6.228,0.06428
6.232,0.04652
6.236,0.03953
6.24,0.08703
6.244,0.10865
6.248,0.10229
6.252,0.11739
6.256,0.0922
6.26,0.10701
6.264,0.10777
6.268,0.14632
6.272,0.10555
6.276,0.09596
6.28,0.0818
6.284,0.08374
6.288,0.08002
6.292,0.03052
6.296,0.03723
6.3,0.03003
6.304,0.03224
6.308,0.02028
6.312,0.00609
6.316,0.03048
6.32,0.0236
6.324,0.03029
6.328,-0.00123
6.332,0.01655
6.336,0.01666
6.34,0.02329
6.344,0.01207
6.348,0.00858
6.352,0.01907
6.356,-0.01098
6.36,0.03014
6.364,0.01898
6.368,0.02813
6.372,-0.00203
6.376,-0.01964
6.38,-0.01985
6.384,-0.08694
6.388,-0.10731
6.392,-0.08942
6.396,0.00639
6.4,0.15816
6.404,0.31363
6.408,0.51578
6.412,0.73162
6.416,0.9515
6.42,1.02326
6.424,0.9831
6.428,0.86963
6.432,0.68809
6.436,0.42438
6.44,0.18843
6.444,0.03757
6.448,-0.09145
6.452,-0.14034
6.456,-0.14786
6.46,-0.13934
6.464,-0.05208
6.468,-0.04248
6.472,-0.01627
6.476,0.00693
6.48,0.03867
6.484,0.01083
6.488,0.04068
6.492,0.00491
6.496,-0.02074
6.5,0.02758
6.504,0.00562
6.508,0.00217
6.512,-0.00097
6.516,0.02306
6.52,0.00716
6.524,0.02183
6.528,0.01058
6.532,0.01194
6.536,0.02375
6.54,0.00783
6.544,0.01032
6.548,-0.00199
6.552,0.03574
6.556,0.0022
6.56,-0.00746
6.564,0.00091
6.568,-0.00033
6.572,0.02206
6.576,0.02508
6.58,0.01607
6.584,0.01938
6.588,0.03399
6.592,0.02245
6.596,0.02064
6.6,-0.00634
6.604,0.04035
6.608,0.04353
6.612,0.07027
6.616,0.05054
6.62,0.04154
6.624,0.07758
6.628,0.05327
6.632,0.05859
6.636,0.08758
6.64,0.09481
6.644,0.13287
6.648,0.10369
6.652,0.13844
6.656,0.15352
6.66,0.14964
6.664,0.17216
6.668,0.17827
6.672,0.16398
6.676,0.19537
6.68,0.216
6.684,0.20696
6.688,0.20843
6.692,0.20178
6.696,0.22516
6.7,0.25948
6.704,0.236
6.708,0.20654
6.712,0.21598
6.716,0.2051
6.72,0.19678
6.724,0.19998
6.728,0.20343
6.732,0.15859
6.736,0.16705
6.74,0.14776
6.744,0.13693
6.748,0.12861
6.752,0.14839
6.756,0.09308
6.76,0.13344
6.764,0.07661
6.768,0.06668
6.772,0.06374
6.776,0.06271
6.78,0.03522
6.784,0.02291
6.788,0.03381
6.792,0.04042
6.796,0.02173
6.8,0.02337
6.804,0.02338
6.808,0.00851
6.812,0.01165
6.816,0.04602
6.82,0.02243
6.824,0.04744
6.828,0.00784
6.832,-0.00525
6.836,-0.01951
6.84,0.02195
6.844,0.00234
6.848,0.02661
6.852,0.01062
6.856,0.00752
6.86,0.00129
6.864,-0.00603
6.868,-0.0122
6.872,0.01069
6.876,0.01171
6.88,0.01586
6.884,0.00994
6.888,0.00206
6.892,-0.00085
6.896,-0.01901
6.9,0.01125
6.904,0.00159
6.908,0.01696
6.912,0.00891
6.916,-0.0134
6.92,0.01567
6.924,0.01297
6.928,0.02145
6.932,0.02046
6.936,-0.01643
6.94,0.01429
6.944,0.00385
6.948,0.00718
6.952,0.00262
6.956,-0.01359
6.96,-0.02206
6.964,0.00102
6.968,-0.02216
6.972,-0.02153
6.976,0.01505
6.98,0.00178
6.984,-0.00174
6.988,-0.0212
6.992,-0.00878
6.996,-0.0062
7.0,0.01111
7.004,-0.0063
7.008,0.01599
7.012,-0.02162
7.016,0.01231
7.02,0.01583
7.024,-0.02259
7.028,0.02024
7.032,0.01283
7.036,-0.02424
7.04,0.00882
7.044,0.00924
7.048,-0.02953
7.052,-0.02331
7.056,-0.00943
7.06,-0.01488
7.064,-1e-05
7.068,-0.01845
7.072,0.01784
7.076,0.01211
7.08,-0.0052
7.084,0.00987
7.088,-0.0196
7.092,0.02045
7.096,0.00731
7.1,-0.02638
7.104,-0.00895
7.108,0.0011
7.112,-0.02158
7.116,-0.02694
7.12,-0.01516
7.124,-0.0209
7.128,0.01702
7.132,-0.00477
7.136,0.00131
7.14,-0.0033
7.144,-4e-05
7.148,-0.04052
7.152,-0.0077
7.156,0.00979
7.16,0.00201
7.164,0.02072
7.168,0.0071
7.172,0.00638
7.176,0.02655
7.18,0.02611
7.184,0.04035
7.188,0.04437
7.192,0.07615
7.196,0.09468
7.2,0.1023
7.204,0.10201
7.208,0.09868
7.212,0.08632
7.216,0.10067
7.22,0.07622
7.224,0.07745
7.228,0.02496
7.232,0.02205
7.236,0.03862
7.24,0.0083
7.244,0.03148
7.248,-0.01808
7.252,0.00053
7.256,0.01789
7.26,0.0039
7.264,-0.00406
7.268,-0.01478
7.272,0.03361
7.276,-0.00435
7.28,-0.00314
7.284,0.00638
7.288,-0.01956
7.292,-0.01896
7.296,-0.01296
7.3,0.00423
7.304,-0.02264
7.308,-0.0075
7.312,0.00266
7.316,0.00408
7.32,-0.02499
7.324,-0.03921
7.328,-0.05948
7.332,-0.1179
7.336,-0.11996
7.34,-0.04612
7.344,0.00707
7.348,0.22474
7.352,0.40338
7.356,0.61337
7.36,0.8286
7.364,0.96087
7.368,0.96852
7.372,0.88975
7.376,0.71368
7.38,0.5061
7.384,0.25452
7.388,0.08368
7.392,-0.07228
7.396,-0.14428
7.4,-0.17852
7.404,-0.13007
7.408,-0.12904
7.412,-0.08241
7.416,-0.04108
7.42,-0.01939
7.424,0.01894
7.428,-0.03773
7.432,-0.00216
7.436,-0.02594
7.44,-0.02829
7.444,-0.01235
7.448,-0.04125
7.452,0.01216
7.456,-0.02443
7.46,-0.02267
7.464,-0.01103
7.468,0.01463
7.472,-0.00938
7.476,-0.01922
7.48,-0.02601
7.484,-0.0288
7.488,-0.00384
7.492,0.01431
7.496,0.00545
7.5,-0.00305
7.504,-0.0225
7.508,-0.01389
7.512,0.00204
7.516,-0.00537
7.52,0.03195
7.524,-0.00113
7.528,-0.00114
7.532,-0.01639
7.536,-0.02756
7.54,-0.00928
7.544,-0.01924
7.548,0.02288
7.552,-0.0094
7.556,0.01684
7.56,0.0193
7.564,0.02735
7.568,0.00287
7.572,0.03039
7.576,0.03165
7.58,0.05719
7.584,0.03911
7.588,0.07987
7.592,0.09986
7.596,0.11218
7.6,0.09363
7.604,0.11214
7.608,0.12076
7.612,0.13957
7.616,0.17512
7.62,0.15861
7.624,0.14211
7.628,0.18654
7.632,0.18747
7.636,0.20183
7.64,0.20524
7.644,0.23898
7.648,0.21253
7.652,0.20121
7.656,0.18943
7.66,0.1938
7.664,0.13811
7.668,0.20091
7.672,0.14524
7.676,0.15746
7.68,0.12459
7.684,0.13338
7.688,0.11875
7.692,0.09708
7.696,0.09706
7.7,0.09696
7.704,0.06204
7.708,0.07402
7.712,0.04929
7.716,0.0676
7.72,0.03862
7.724,0.00929
7.728,0.01097
7.732,0.01824
7.736,0.02943
7.74,0.01617
7.744,0.00706
7.748,-0.01806
7.752,0.03757
7.756,-0.00272
7.76,-0.03077
7.764,0.00116
7.768,-0.01711
7.772,-0.02603
7.776,-0.0125
7.78,-0.00931
7.784,-0.01449
7.788,-0.02304
7.792,-0.02352
7.796,-0.02407
7.8,-0.02709
7.804,-0.02633
7.808,-0.04105
7.812,-0.00762
7.816,-0.02346
7.82,-0.04526
7.824,-0.00375
7.828,-0.01765
7.832,-0.01995
7.836,-0.03982
7.84,-0.00826
7.844,-0.01301
7.848,-0.02448
7.852,-0.03869
7.856,-0.03934
7.86,-0.03821
7.864,-0.01866
7.868,-0.03216
7.872,-0.03534
7.876,-0.04592
7.88,-0.02745
7.884,-0.03029
7.888,-0.03807
7.892,-0.04334
7.896,-0.04542
7.9,-0.0197
7.904,-0.03309
7.908,-0.02646
7.912,0.00039
7.916,-0.0392
7.92,-0.00123
7.924,-0.03338
7.928,-0.02657
7.932,-0.02666
7.936,-0.01528
7.94,-0.01713
7.944,-0.01802
7.948,-0.02587
7.952,-0.04234
7.956,-0.02629
7.96,-0.01561
7.964,-0.02258
7.968,0.00016
7.972,-0.01953
7.976,-0.01203
7.98,-0.02852
7.984,-0.0284
7.988,-0.01675
7.992,-0.05005
7.996,-0.03172
8.0,-0.02871
8.004,-0.01475
8.008,-0.02231
8.012,-0.03432
8.016,-0.01005
8.02,-0.0245
8.024,-0.02729
8.028,-0.02051
8.032,-0.0411
8.036,-0.01621
8.04,-0.05897
8.044,-0.02797
8.048,-0.03671
8.052,-0.02683
8.056,-0.04714
8.06,-0.0471
8.064,-0.06851
8.068,-0.02679
8.072,-0.03323
8.076,-0.04413
8.08,-0.03428
8.084,-0.01089
8.088,-0.03754
8.092,-0.03505
8.096,-0.0117
8.1,-0.03082
8.104,0.00359
8.108,-0.02961
8.112,-0.01288
8.116,0.01668
8.12,-0.02164
8.124,0.01847
8.128,-0.00278
8.132,0.00083
8.136,0.02649
8.14,0.04602
8.144,0.03204
8.148,0.06068
8.152,0.08318
8.156,0.08659
8.16,0.08162
8.164,0.05642
8.168,0.06877
8.172,0.04408
8.176,0.04371
8.18,0.00095
8.184,0.04283
8.188,0.02393
8.192,-0.01041
8.196,0.0139
8.2,-0.0032
8.204,-0.00394
8.208,-0.02369
8.212,-0.0171
8.216,-0.03448
8.22,-0.02232
8.224,-0.04467
8.228,-0.01509
8.232,-0.04487
8.236,0.00351
8.24,-0.0183
8.244,-0.00919
8.248,-0.04766
8.252,-0.02098
8.256,-0.03738
8.26,0.00247
8.264,-0.03943
8.268,-0.03129
8.272,-0.04577
8.276,-0.03796
8.28,-0.09911
8.284,-0.13263
8.288,-0.13118
8.292,-0.09154
8.296,-0.0031
8.3,0.17645
8.304,0.36122
8.308,0.58823
8.312,0.78302
8.316,0.94144
8.32,0.96317
8.324,0.89103
8.328,0.76573
8.332,0.52608
8.336,0.29242
8.34,0.08346
8.344,-0.05931
8.348,-0.15534
8.352,-0.21259
8.356,-0.18604
8.36,-0.14785
8.364,-0.10813
8.368,-0.09938
8.372,-0.06474
8.376,-0.01708
8.38,-0.02097
8.384,0.00593
8.388,0.01024
8.392,-0.03456
8.396,-0.0299
8.4,-0.03488
8.404,-0.01698
8.408,-0.023
8.412,-0.01476
8.416,-0.03497
8.42,-0.02173
8.424,-0.0527
8.428,-0.02264
8.432,-0.04975
8.436,-0.00676
8.44,-0.03124
8.444,-0.01741
8.448,-0.03787
8.452,-0.05143
8.456,-0.03911
8.46,-0.03527
8.464,-0.01926
8.468,-0.02763
8.472,-0.01892
8.476,-0.02956
8.48,-0.00065
8.484,-0.02097
8.488,0.00705
8.492,-0.01926
8.496,0.01249
8.5,0.00446
8.504,-0.00265
8.508,-0.00547
8.512,0.02558
8.516,0.00673
8.52,0.00179
8.524,0.01841
8.528,0.00663
8.532,0.00945
8.536,0.04473
8.54,0.04209
8.544,0.07244
8.548,0.05102
8.552,0.09083
8.556,0.11465
8.56,0.12987
8.564,0.14244
8.568,0.14896
8.572,0.15876
8.576,0.16957
8.58,0.20035
8.584,0.15963
8.588,0.17718
8.592,0.20164
8.596,0.19553
8.6,0.19551
8.604,0.15985
8.608,0.18564
8.612,0.1809
8.616,0.19572
8.62,0.17814
8.624,0.14598
8.628,0.14459
8.632,0.15278
8.636,0.13613
8.64,0.12909
8.644,0.12379
8.648,0.08844
8.652,0.09354
8.656,0.0719
8.66,0.08208
8.664,0.06651
8.668,0.03734
8.672,0.02139
8.676,0.04498
8.68,0.03133
8.684,-0.00103
8.688,0.03049
8.692,-0.01744
8.696,-0.00095
8.7,0.01605
8.704,-0.02454
8.708,-0.01173
8.712,-0.04654
8.716,-0.02951
8.72,0.00179
8.724,-0.06051
8.728,0.00645
8.732,-0.02827
8.736,0.00524
8.74,-0.02488
8.744,-0.0262
8.748,-0.03629
8.752,-0.03536
8.756,-0.03929
8.76,-0.01406
8.764,-0.05164
8.768,-0.03418
8.772,-0.06579
8.776,-0.06004
8.78,-0.01757
8.784,-0.04521
8.788,-0.03874
8.792,-0.02665
8.796,-0.03256
8.8,-0.01814
8.804,-0.02393
8.808,-0.04435
8.812,-0.04484
8.816,-0.03802
8.82,-0.02094
8.824,-0.0081
8.828,-0.03818
8.832,-0.00938
8.836,-0.04339
8.84,-0.01359
8.844,-0.02539
8.848,-0.01986
8.852,-0.02165
8.856,-0.01509
8.86,-0.0256
8.864,-0.03276
8.868,-0.00593
8.872,0.01373
8.876,0.01573
8.88,0.02491
8.884,0.0274
8.888,0.01889
8.892,0.03614
8.896,0.03869
8.9,0.07775
8.904,0.07091
8.908,0.07383
8.912,0.06719
8.916,0.06729
8.92,0.03818
8.924,0.05345
8.928,0.02897
8.932,0.02995
8.936,0.0195
8.94,0.00131
8.944,-0.01976
8.948,-0.03137
8.952,-0.01279
8.956,-0.02912
8.96,-0.00543
8.964,-0.00292
8.968,-0.0174
8.972,-0.0368
8.976,-0.03541
8.98,-0.02718
8.984,-0.0429
8.988,-0.02997
8.992,-0.04582
8.996,-0.00321
9.0,-0.02818
9.004,-0.01963
9.008,-0.01593
9.012,-0.03386
9.016,-0.02525
9.02,-0.04493
9.024,-0.0728
9.028,-0.10228
9.032,-0.15874
9.036,-0.13622
9.04,-0.10137
9.044,0.01076
9.048,0.17766
9.052,0.37347
9.056,0.61492
9.06,0.80474
9.064,0.94259
9.068,0.96643
9.072,0.88434
9.076,0.72025
9.08,0.51487
9.084,0.26712
9.088,0.05238
9.092,-0.0684
9.096,-0.16817
9.1,-0.1772
9.104,-0.20049
9.108,-0.13294
9.112,-0.06943
9.116,-0.0714
9.12,-0.06115
9.124,-0.02403
9.128,-0.04156
9.132,-0.02517
9.136,-0.03653
9.14,-0.03975
9.144,-0.03281
9.148,-0.04867
9.152,-0.04188
9.156,-0.03553
9.16,-0.00471
9.164,-0.0165
9.168,-0.02597
9.172,-0.05227
9.176,-0.03578
9.18,-0.01634
9.184,-0.05526
9.188,-0.05234
9.192,-0.02675
9.196,-0.03943
9.2,-0.00467
9.204,-0.02891
9.208,0.01316
9.212,-0.03853
9.216,-0.01448
9.22,-0.03287
9.224,-0.01146
9.228,-0.00356
9.232,-0.03203
9.236,-0.06032
9.24,-0.01705
9.244,-0.03448
9.248,-0.02176
9.252,0.01411
9.256,0.00621
9.26,0.02791
9.264,0.01138
9.268,0.00626
9.272,0.0327
9.276,0.03669
9.28,0.04195
9.284,0.04982
9.288,0.08087
9.292,0.07197
9.296,0.08269
9.3,0.09993
9.304,0.08262
9.308,0.12703
9.312,0.16318
9.316,0.13569
9.32,0.18045
9.324,0.16832
9.328,0.18082
9.332,0.16551
9.336,0.18377
9.34,0.18892
9.344,0.17851
9.348,0.18795
9.352,0.19762
9.356,0.19656
9.36,0.20206
9.364,0.15444
9.368,0.18109
9.372,0.15852
9.376,0.16386
9.38,0.158
9.384,0.11941
9.388,0.14118
9.392,0.10915
9.396,0.13883
9.4,0.06816
9.404,0.06605
9.408,0.02857
9.412,0.05623
9.416,0.05857
9.42,0.04434
9.424,0.02924
9.428,0.01281
9.432,0.00093
9.436,0.00811
9.44,-0.00151
9.444,-0.00241
9.448,-0.01086
9.452,-0.0333
9.456,-0.01639
9.46,-0.01512
9.464,-0.02736
9.468,-0.02076
9.472,-0.02791
9.476,-0.01216
9.48,-0.01879
9.484,-0.03067
9.488,-0.00886
9.492,-0.01987
9.496,-0.01986
9.5,-0.03266
9.504,-0.03057
9.508,-0.01174
9.512,-0.00856
9.516,-5e-05
9.52,-0.01574
9.524,-0.04475
9.528,-0.03795
9.532,-0.01983
9.536,-0.03926
9.54,-0.0052
9.544,-0.00831
9.548,-0.02064
9.552,-0.04625
9.556,0.00748
9.56,-0.04285
9.564,-0.00176
9.568,-0.02908
9.572,-0.0006
9.576,-0.01111
9.58,-0.00108
9.584,-0.03465
9.588,-0.03614
9.592,-0.02708
9.596,-0.00392
9.6,0.00281
9.604,0.00867
9.608,0.00414
9.612,-0.01441
9.616,-0.01454
9.62,-0.00245
9.624,0.00252
9.628,0.02015
9.632,-0.03479
9.636,-0.02135
9.64,-0.03243
9.644,-0.02764
9.648,-0.00659
9.652,-0.05016
9.656,-0.03938
9.66,-0.02407
9.664,-0.01619
9.668,-0.00437
9.672,-0.01082
9.676,-0.01617
9.68,-0.03626
9.684,0.00681
9.688,-0.01341
9.692,-0.01225
9.696,-0.0391
9.7,-0.02175
9.704,-0.00357
9.708,-0.01668
9.712,-0.03241
9.716,-0.01079
9.72,-0.02139
9.724,-0.02558
9.728,-0.01834
9.732,-0.04943
9.736,-0.01959
9.74,-0.0375
9.744,-0.01934
9.748,-0.02794
9.752,-0.00507
9.756,-0.02237
9.76,-0.0232
9.764,-0.00868
9.768,-0.0239
9.772,-0.00524
9.776,-0.0007
9.78,-0.03178
9.784,-0.01388
9.788,-0.00548
9.792,-0.01762
9.796,-0.00788
9.8,-0.036
9.804,0.00163
9.808,0.01097
9.812,-0.01564
9.816,-0.00287
9.82,0.01067
9.824,-0.02928
9.828,-0.03169
9.832,-0.00494
9.836,-0.03772
9.84,-0.02731
9.844,-0.00233
9.848,-0.02152
9.852,-0.00953
9.856,-0.04397
9.86,-0.00974
9.864,-0.0182
9.868,-0.0323
9.872,-0.00016
9.876,-0.00464
9.88,-0.00915
9.884,-0.01433
9.888,-0.03349
9.892,-0.01443
9.896,-0.00531
9.9,-0.03659
9.904,-0.01637
9.908,0.00351
9.912,0.00127
9.916,-0.01344
9.92,-0.00501
9.924,-0.02293
9.928,0.01061
9.932,-0.0279
9.936,-0.0096
9.94,-0.00205
9.944,-0.00131
9.948,-0.00208
9.952,0.01385
9.956,-0.03184
9.96,-0.01665
9.964,0.01612
9.968,0.02445
9.972,-0.02696
9.976,0.02364
9.98,-0.03835
9.984,-0.00767
9.988,-0.00845
9.992,-0.00977
9.996,0.01034
