t_seg,ecg_mV
0.0,-0.00846
0.004,-0.05822
0.008,-0.03858
0.012,-0.01143
0.016,-0.0379
0.02,-0.02802
0.024,-0.02121
0.028,-0.03975
0.032,-0.03194
0.036,-0.05508
0.04,-0.01855
0.044,-0.02142
0.048,-0.02128
0.052,-0.03912
0.056,-0.01645
0.06,-0.04307
0.064,-0.02266
0.068,-0.02181
0.072,-0.00198
0.076,-0.02733
0.08,-0.03673
0.084,-0.04162
0.088,-0.04283
0.092,-0.04759
0.096,-0.02412
0.1,-0.03778
0.104,-0.03473
0.108,-0.01707
0.112,-0.02372
0.116,-0.03753
0.12,-0.03226
0.124,-0.01473
0.128,-0.02264
0.132,-0.03879
0.136,-0.01664
0.14,-0.01927
0.144,-0.00068
0.148,0.00155
0.152,0.00096
0.156,0.02205
0.16,0.0126
0.164,0.0195
0.168,0.0374
0.172,0.03563
0.176,0.03472
0.18,0.06229
0.184,0.05593
0.188,0.09802
0.192,0.07949
0.196,0.07866
0.2,0.04831
0.204,0.02962
0.208,0.02874
0.212,0.03874
0.216,0.01009
0.22,0.02428
0.224,-0.00347
0.228,-0.0278
0.232,-0.02641
0.236,-0.01312
0.24,-0.05096
0.244,-0.01916
0.248,-0.01224
0.252,-0.01676
0.256,-0.03031
0.26,-0.04622
0.264,-0.032
0.268,-0.0199
0.272,-0.02626
0.276,-0.02952
0.28,-0.0357
0.284,-0.01516
0.288,-0.02494
0.292,-0.03882
0.296,-0.03567
0.3,-0.05408
0.304,-0.05894
0.308,-0.08834
0.312,-0.13922
0.316,-0.12477
0.32,-0.10242
0.324,-0.01493
0.328,0.14027
0.332,0.32931
0.336,0.56079
0.34,0.74564
0.344,0.89522
0.348,0.99385
0.352,0.91701
0.356,0.78048
0.36,0.55395
0.364,0.32374
0.368,0.1102
0.372,-0.05531
0.376,-0.13396
0.38,-0.185
0.384,-0.19274
0.388,-0.12515
0.392,-0.08667
0.396,-0.08269
0.4,-0.0582
0.404,-0.02351
0.408,-0.0413
0.412,-0.05287
0.416,-0.03907
0.42,-0.01286
0.424,-0.00409
0.428,-0.0512
0.432,-0.02572
0.436,-0.00253
0.44,-0.01976
0.444,-0.01548
0.448,-0.04053
0.452,-0.04194
0.456,0.00199
0.46,-0.02271
0.464,-0.02107
0.468,-0.04463
0.472,-0.01625
0.476,-0.01807
0.48,0.01357
0.484,-0.01726
0.488,-0.02744
0.492,-0.01709
0.496,-0.01445
0.5,-0.01105
0.504,-0.02316
0.508,-0.01132
0.512,0.00164
0.516,-0.03536
0.52,0.00626
0.524,-0.03639
0.528,-0.01636
0.532,0.00666
0.536,-0.00455
0.54,0.0169
0.544,0.00117
0.548,0.0091
0.552,0.04128
0.556,0.03056
0.56,0.05349
0.564,0.06954
0.568,0.07187
0.572,0.08126
0.576,0.09441
0.58,0.07633
0.584,0.11157
0.588,0.12575
0.592,0.14304
0.596,0.1327
0.6,0.15641
0.604,0.1783
0.608,0.16638
0.612,0.16828
0.616,0.19856
0.62,0.21984
0.624,0.20511
0.628,0.19812
0.632,0.20194
0.636,0.19105
0.64,0.17156
0.644,0.21839
0.648,0.17587
0.652,0.17189
0.656,0.16209
0.66,0.16513
0.664,0.15209
0.668,0.14114
0.672,0.11993
0.676,0.11272
0.68,0.08184
0.684,0.0936
0.688,0.06892
0.692,0.07558
0.696,0.10438
0.7,0.0175
0.704,0.04808
0.708,0.04396
0.712,0.02165
0.716,0.00215
0.72,-0.00613
0.724,0.00756
0.728,-0.00463
0.732,0.00629
0.736,-0.00116
0.74,0.01049
0.744,-0.02699
0.748,-0.01159
0.752,-0.00305
0.756,-0.00536
0.76,-0.0117
0.764,-0.01281
0.768,0.02664
0.772,-0.02371
0.776,-0.02375
0.78,0.02536
0.784,-0.0143
0.788,0.01327
0.792,-0.01736
0.796,-0.02607
0.8,0.00578
0.804,0.0096
0.808,-0.04612
0.812,-0.00349
0.816,-0.01856
0.82,0.00226
0.824,0.00933
0.828,-0.01387
0.832,0.00232
0.836,-0.00383
0.84,-0.00836
0.844,0.00469
0.848,-0.01818
0.852,0.00439
0.856,-0.01828
0.86,-0.02398
0.864,-0.03458
0.868,0.03103
0.872,0.01417
0.876,-0.0107
0.88,-0.02868
0.884,0.03776
0.888,0.00742
0.892,0.00571
0.896,0.02318
0.9,0.04452
0.904,0.05027
0.908,0.05784
0.912,0.06637
0.916,0.0385
0.92,0.04668
0.924,0.06772
0.928,0.06638
0.932,0.09393
0.936,0.07685
0.94,0.07184
0.944,0.052
0.948,0.03239
0.952,-0.00045
0.956,0.01719
0.96,0.03625
0.964,0.00817
0.968,0.0326
0.972,0.00029
0.976,-0.00394
0.98,0.01687
0.984,-0.02329
0.988,-0.02623
0.992,0.00351
0.996,-0.00415
1.0,-0.00343
1.004,-0.00907
1.008,-0.01822
1.012,-0.00944
1.016,-0.02957
1.02,0.02435
1.024,-0.04688
1.028,-0.03666
1.032,-0.01864
1.036,-0.01465
1.04,-0.04189
1.044,-0.05482
1.048,-0.07905
1.052,-0.11338
1.056,-0.13195
1.06,-0.0473
1.064,0.0893
1.068,0.24238
1.072,0.44784
1.076,0.63903
1.08,0.85675
1.084,0.97366
1.088,0.96102
1.092,0.88611
1.096,0.70249
1.1,0.43189
1.104,0.25273
1.108,0.05884
1.112,-0.09412
1.116,-0.18129
1.12,-0.18253
1.124,-0.14101
1.128,-0.10868
1.132,-0.0454
1.136,-0.02918
1.14,-0.01788
1.144,0.00566
1.148,-0.01396
1.152,-0.00514
1.156,-0.01321
1.16,-0.0008
1.164,0.00628
1.168,-0.01021
1.172,-0.01024
1.176,0.04773
1.18,-0.01093
1.184,-0.00146
1.188,-0.02253
1.192,-0.00225
1.196,-0.04294
1.2,0.00332
1.204,-0.01687
1.208,-0.01404
1.212,-0.01051
1.216,-0.00467
1.22,0.01363
1.224,0.00719
1.228,-0.01288
1.232,-0.02187
1.236,-0.00029
1.24,-0.02606
1.244,0.00136
1.248,-0.00071
1.252,-0.005
1.256,-0.01325
1.26,0.01916
1.264,-0.01152
1.268,0.04092
1.272,0.03733
1.276,0.01823
1.28,0.05822
1.284,0.02507
1.288,0.03359
1.292,0.07773
1.296,0.09273
1.3,0.08192
1.304,0.07947
1.308,0.11072
1.312,0.09883
1.316,0.1068
1.32,0.13271
1.324,0.11491
1.328,0.15957
1.332,0.17466
1.336,0.19322
1.34,0.18543
1.344,0.1997
1.348,0.17429
1.352,0.23125
1.356,0.21226
1.36,0.21592
1.364,0.23288
1.368,0.21585
1.372,0.21502
1.376,0.24404
1.38,0.22339
1.384,0.23254
1.388,0.1786
1.392,0.20633
1.396,0.15739
1.4,0.13894
1.404,0.14874
1.408,0.12341
1.412,0.13124
1.416,0.11549
1.42,0.11031
1.424,0.11058
1.428,0.10356
1.432,0.07874
1.436,0.05574
1.44,0.05938
1.444,0.04521
1.448,0.0329
1.452,0.02646
1.456,0.05972
1.46,0.03684
1.464,0.04386
1.468,0.01908
1.472,0.0468
1.476,0.01275
1.48,-0.00559
1.484,0.00973
1.488,0.01964
1.492,0.01676
1.496,0.0156
1.5,-0.00415
1.504,0.0272
1.508,0.01069
1.512,0.01059
1.516,-0.00303
1.52,-0.0035
1.524,0.00676
1.528,-0.02028
1.532,0.00363
1.536,0.01759
1.54,0.00459
1.544,-0.00549
1.548,0.03154
1.552,0.00141
1.556,-0.00634
1.56,-0.01372
1.564,0.01797
1.568,0.00067
1.572,-0.00121
1.576,0.00975
1.58,0.00656
1.584,0.02051
1.588,0.01058
1.592,-0.00651
1.596,0.00411
1.6,0.01237
1.604,0.01105
1.608,0.02195
1.612,-0.00698
1.616,-0.01389
1.62,-0.02237
1.624,0.02204
1.628,0.03687
1.632,0.02893
1.636,-0.00691
1.64,0.04946
1.644,0.00569
1.648,0.01465
1.652,0.02256
1.656,0.00774
1.66,0.01757
1.664,0.0381
1.668,0.02688
1.672,0.05191
1.676,0.03619
1.68,0.0744
1.684,0.08909
1.688,0.09626
1.692,0.12379
1.696,0.14513
1.7,0.08235
1.704,0.11891
1.708,0.0933
1.712,0.09313
1.716,0.07705
1.72,0.05067
1.724,0.03207
1.728,0.06047
1.732,0.04059
1.736,0.00733
1.74,-0.00367
1.744,0.01473
1.748,0.03499
1.752,0.01384
1.756,0.00521
1.76,0.03337
1.764,0.01759
1.768,0.00668
1.772,0.02363
1.776,0.01226
1.78,-0.0107
1.784,-0.0036
1.788,0.03239
1.792,-0.0048
1.796,0.00597
1.8,0.01692
1.804,0.00433
1.808,0.01609
1.812,-0.01598
1.816,-0.03214
1.82,-0.06834
1.824,-0.11276
1.828,-0.09261
1.832,-0.03926
1.836,0.08929
1.84,0.24229
1.844,0.48128
1.848,0.68693
1.852,0.85305
1.856,0.98233
1.86,0.99906
1.864,0.90422
1.868,0.72657
1.872,0.51246
1.876,0.27912
1.88,0.05014
1.884,-0.04169
1.888,-0.17816
1.892,-0.14014
1.896,-0.1301
1.9,-0.08435
1.904,-0.07252
1.908,-0.01585
1.912,0.01842
1.916,0.00079
1.92,-0.0013
1.924,-0.01498
1.928,0.01883
1.932,0.0231
1.936,0.01692
1.94,0.00482
1.944,0.03625
1.948,0.01672
1.952,0.04122
1.956,0.01932
1.96,0.02186
1.964,0.01022
1.968,0.0196
1.972,0.00084
1.976,-0.01646
1.98,0.03162
1.984,0.00582
1.988,0.00242
1.992,0.02392
1.996,0.03753
2.0,0.03493
2.004,0.03903
2.008,0.01402
2.012,-0.00117
2.016,0.02466
2.02,0.00937
2.024,0.00704
2.028,0.03148
2.032,0.06499
2.036,0.04917
2.04,0.03701
2.044,0.05825
2.048,0.05902
2.052,0.06653
2.056,0.05104
2.06,0.07142
2.064,0.06036
2.068,0.06549
2.072,0.08717
2.076,0.1261
2.08,0.113
2.084,0.11512
2.088,0.14482
2.092,0.1242
2.096,0.13947
2.1,0.15593
2.104,0.1983
2.108,0.233
2.112,0.20425
2.116,0.20484
2.12,0.2261
2.124,0.21964
2.128,0.2226
2.132,0.21413
2.136,0.23191
2.14,0.24666
2.144,0.25044
2.148,0.24555
2.152,0.21548
2.156,0.23383
2.16,0.23022
2.164,0.20138
2.168,0.19438
2.172,0.18653
2.176,0.19215
2.18,0.16208
2.184,0.15592
2.188,0.12511
2.192,0.13855
2.196,0.09499
2.2,0.13582
2.204,0.12356
2.208,0.09073
2.212,0.09815
2.216,0.07522
2.22,0.0577
2.224,0.05813
2.228,0.07363
2.232,0.03096
2.236,0.02784
2.24,0.04449
2.244,0.03261
2.248,0.02892
2.252,0.04597
2.256,0.04751
2.26,0.01231
2.264,0.05097
2.268,0.0421
2.272,0.02251
2.276,0.05009
2.28,0.00106
2.284,0.01619
2.288,0.03304
2.292,0.05116
2.296,0.03313
2.3,0.01701
2.304,0.0285
2.308,0.03407
2.312,0.04103
2.316,0.01106
2.32,0.04572
2.324,0.00899
2.328,0.03003
2.332,0.03177
2.336,0.00021
2.34,0.04604
2.344,0.04722
2.348,0.03625
2.352,0.00541
2.356,0.02235
2.36,0.02434
2.364,0.0334
2.368,0.01578
2.372,0.01773
2.376,0.02138
2.38,0.01618
2.384,0.02538
2.388,0.03046
2.392,0.00105
2.396,0.02537
2.4,0.02862
2.404,0.01896
2.408,0.03049
2.412,0.04569
2.416,0.04684
2.42,0.06272
2.424,0.03524
2.428,0.07069
2.432,0.07127
2.436,0.06409
2.44,0.08835
2.444,0.08513
2.448,0.09695
2.452,0.1064
2.456,0.12343
2.46,0.12906
2.464,0.11754
2.468,0.13495
2.472,0.13674
2.476,0.09285
2.48,0.08705
2.484,0.09303
2.488,0.09695
2.492,0.04378
2.496,0.0279
2.5,0.04264
2.504,0.03831
2.508,0.02263
2.512,0.03155
2.516,0.01861
2.52,0.02618
2.524,0.02795
2.528,0.03285
2.532,0.03186
2.536,0.03293
2.54,0.02669
2.544,-0.00242
2.548,0.0077
2.552,0.0368
2.556,0.03
2.56,0.02345
2.564,0.03256
2.568,0.05554
2.572,0.03707
2.576,0.00769
2.58,-0.02914
2.584,-0.06099
2.588,-0.10737
2.592,-0.05709
2.596,0.04477
2.6,0.21332
2.604,0.37149
2.608,0.62498
2.612,0.83389
2.616,0.96337
2.62,1.03633
2.624,0.99214
2.628,0.80543
2.632,0.60036
2.636,0.36895
2.64,0.18529
2.644,0.00606
2.648,-0.08735
2.652,-0.13793
2.656,-0.12425
2.66,-0.08097
2.664,-0.04876
2.668,0.00587
2.672,0.00199
2.676,0.04148
2.68,0.02515
2.684,0.0582
2.688,0.0179
2.692,0.01217
2.696,0.04817
2.7,0.01756
2.704,0.00658
2.708,0.02182
2.712,0.05355
2.716,0.01955
2.72,0.0343
2.724,0.04813
2.728,0.05101
2.732,0.022
2.736,0.00761
2.74,0.03114
2.744,0.0192
2.748,0.02038
2.752,0.03233
2.756,0.04331
2.76,0.02744
2.764,0.03911
2.768,0.02557
2.772,0.03238
2.776,0.01808
2.78,0.04065
2.784,0.0385
2.788,0.03632
2.792,0.02684
2.796,0.0229
2.8,0.04146
2.804,0.05398
2.808,0.06444
2.812,0.04943
2.816,0.0802
2.82,0.08499
2.824,0.08459
2.828,0.07
2.832,0.07667
2.836,0.12008
2.84,0.0799
2.844,0.12212
2.848,0.15027
2.852,0.17006
2.856,0.18331
2.86,0.18505
2.864,0.20457
2.868,0.21126
2.872,0.19831
2.876,0.22185
2.88,0.2099
2.884,0.22869
2.888,0.23479
2.892,0.25585
2.896,0.23176
2.9,0.26079
2.904,0.23334
2.908,0.25757
2.912,0.25752
2.916,0.26267
2.92,0.21592
2.924,0.21723
2.928,0.21007
2.932,0.21603
2.936,0.19533
2.94,0.15945
2.944,0.16654
2.948,0.15897
2.952,0.12811
2.956,0.12057
2.96,0.13532
2.964,0.11867
2.968,0.10731
2.972,0.09159
2.976,0.08461
2.98,0.09947
2.984,0.08701
2.988,0.04657
2.992,0.0348
2.996,0.07318
3.0,0.08078
3.004,0.05843
3.008,0.02738
3.012,0.03547
3.016,0.0336
3.02,0.03925
3.024,0.05266
3.028,0.04411
3.032,0.06192
3.036,0.03433
3.04,0.03106
3.044,0.05319
3.048,0.02679
3.052,0.00737
3.056,0.0391
3.06,0.04497
3.064,0.03167
3.068,0.02867
3.072,0.02184
3.076,0.04673
3.08,0.03142
3.084,0.0176
3.088,0.0275
3.092,0.02715
3.096,-0.00671
3.1,0.03055
3.104,0.03824
3.108,0.02836
3.112,0.03008
3.116,0.04301
3.12,0.03367
3.124,0.03015
3.128,0.05357
3.132,0.01014
3.136,0.03029
3.14,0.01722
3.144,0.01907
3.148,0.03062
3.152,0.01485
3.156,0.02463
3.16,0.03181
3.164,0.04863
3.168,0.01867
3.172,0.02712
3.176,0.04354
3.18,0.03561
3.184,0.0209
3.188,0.02769
3.192,0.03499
3.196,0.01579
3.2,0.03023
3.204,0.0337
3.208,0.04321
3.212,0.04626
3.216,0.04673
3.22,0.06748
3.224,0.04082
3.228,0.10007
3.232,0.103
3.236,0.11711
3.24,0.10316
3.244,0.1118
3.248,0.14609
3.252,0.15283
3.256,0.11093
3.26,0.11128
3.264,0.1035
3.268,0.121
3.272,0.06084
3.276,0.09503
3.28,0.064
3.284,0.07213
3.288,0.02494
3.292,0.03116
3.296,0.0355
3.3,0.01125
3.304,0.02714
3.308,0.04319
3.312,0.02505
3.316,0.02492
3.32,0.0271
3.324,0.0293
3.328,0.02275
3.332,0.01579
3.336,0.02995
3.34,0.03246
3.344,0.03261
3.348,0.03882
3.352,-0.00024
3.356,0.03293
3.36,0.03631
3.364,0.0203
3.368,0.0041
3.372,-0.08656
3.376,-0.07432
3.38,-0.11427
3.384,-0.02037
3.388,0.08401
3.392,0.28946
3.396,0.47576
3.4,0.70861
3.404,0.85517
3.408,0.97991
3.412,1.00595
3.416,0.9527
3.42,0.75682
3.424,0.53269
3.428,0.29547
3.432,0.10812
3.436,-0.02187
3.44,-0.12943
3.444,-0.14245
3.448,-0.12109
3.452,-0.06061
3.456,-0.03069
3.46,0.00779
3.464,0.02434
3.468,0.0157
3.472,0.00698
3.476,0.06381
3.48,0.01544
3.484,0.04087
3.488,0.01507
3.492,-0.01649
3.496,0.01314
3.5,0.00223
3.504,0.02997
3.508,0.01303
3.512,0.03782
3.516,0.00608
3.52,0.01077
3.524,0.05323
3.528,0.0366
3.532,0.02124
3.536,0.043
3.54,0.03663
3.544,0.02567
3.548,0.03772
3.552,0.02877
3.556,0.01623
3.56,0.01934
3.564,0.04172
3.568,0.00488
3.572,0.04859
3.576,0.03468
3.58,0.04685
3.584,0.05271
3.588,0.03357
3.592,0.01559
3.596,0.05444
3.6,0.04179
3.604,0.05674
3.608,0.06417
3.612,0.11033
3.616,0.08494
3.62,0.08183
3.624,0.11251
3.628,0.08991
3.632,0.11896
3.636,0.14297
3.64,0.15522
3.644,0.13686
3.648,0.18884
3.652,0.18254
3.656,0.15976
3.66,0.18448
3.664,0.19777
3.668,0.2097
3.672,0.22484
3.676,0.24443
3.68,0.24653
3.684,0.23939
3.688,0.23834
3.692,0.23143
3.696,0.23746
3.7,0.22701
3.704,0.23057
3.708,0.18904
3.712,0.24132
3.716,0.23152
3.72,0.19349
3.724,0.18246
3.728,0.16983
3.732,0.16518
3.736,0.17295
3.74,0.14753
3.744,0.11383
3.748,0.10597
3.752,0.12073
3.756,0.08323
3.76,0.09685
3.764,0.05166
3.768,0.08261
3.772,0.07085
3.776,0.06752
3.78,0.05711
3.784,0.0739
3.788,0.04653
3.792,0.02507
3.796,0.05312
3.8,0.05749
3.804,0.06478
3.808,0.04837
3.812,0.1106
3.816,0.08946
3.82,0.07956
3.824,0.08439
3.828,0.12636
3.832,0.13851
3.836,0.13863
3.84,0.12028
3.844,0.13254
3.848,0.10956
3.852,0.09933
3.856,0.08028
3.86,0.07769
3.864,0.05444
3.868,0.05038
3.872,0.04498
3.876,0.04212
3.88,0.03018
3.884,0.03894
3.888,0.04347
3.892,0.03925
3.896,0.02835
3.9,0.00824
3.904,0.02426
3.908,0.03788
3.912,0.04215
3.916,0.02105
3.92,0.01157
3.924,0.00497
3.928,0.0319
3.932,-0.00815
3.936,0.02712
3.94,0.03196
3.944,0.01281
3.948,0.02984
3.952,0.00567
3.956,-0.00486
3.96,-0.04491
3.964,-0.08393
3.968,-0.08588
3.972,-0.01914
3.976,0.12441
3.98,0.31153
3.984,0.54831
3.988,0.73288
3.992,0.9269
3.996,1.00806
4.0,1.00627
4.004,0.85279
4.008,0.69976
4.012,0.42835
4.016,0.23901
4.02,0.02872
4.024,-0.08701
4.028,-0.16608
4.032,-0.16015
4.036,-0.11688
4.04,-0.0801
4.044,-0.03665
4.048,-0.00496
4.052,0.03239
4.056,0.02932
4.06,0.02145
4.064,0.0053
4.068,0.03651
4.072,0.00414
4.076,0.02044
4.08,-0.0067
4.084,0.02665
4.088,0.01235
4.092,0.02142
4.096,0.02806
4.1,0.03844
4.104,0.01403
4.108,0.00819
4.112,0.00983
4.116,0.00871
4.12,0.0035
4.124,0.04963
4.128,0.04073
4.132,0.02647
4.136,-0.00467
4.14,0.00066
4.144,0.0224
4.148,0.00043
4.152,0.02864
4.156,0.03979
4.16,0.0275
4.164,0.02383
4.168,0.03793
4.172,0.04385
4.176,0.00738
4.18,0.00847
4.184,0.04117
4.188,0.04824
4.192,0.05722
4.196,0.06372
4.2,0.04558
4.204,0.06453
4.208,0.07594
4.212,0.10222
4.216,0.08916
4.22,0.11864
4.224,0.14584
4.228,0.12384
4.232,0.1255
4.236,0.14958
4.24,0.18973
4.244,0.16171
4.248,0.19723
4.252,0.19041
4.256,0.20205
4.26,0.21811
4.264,0.22154
4.268,0.23379
4.272,0.22202
4.276,0.22169
4.28,0.21887
4.284,0.2424
4.288,0.23651
4.292,0.22585
4.296,0.19997
4.3,0.21388
4.304,0.19348
4.308,0.1828
4.312,0.16411
4.316,0.13449
4.32,0.15398
4.324,0.14264
4.328,0.1208
4.332,0.12908
4.336,0.10812
4.34,0.10706
4.344,0.08033
4.348,0.05229
4.352,0.04467
4.356,0.03216
4.36,0.05192
4.364,0.04378
4.368,0.04547
4.372,0.05235
4.376,0.02465
4.38,0.03934
4.384,0.03852
4.388,0.04621
4.392,0.01273
4.396,0.01562
4.4,0.02212
4.404,0.02637
4.408,0.03239
4.412,0.02294
4.416,-0.00359
4.42,-0.01722
4.424,0.02106
4.428,-0.00968
4.432,-0.00242
4.436,0.00768
4.44,0.02176
4.444,0.02694
4.448,0.02209
4.452,-0.00201
4.456,0.02399
4.46,0.01329
4.464,0.00623
4.468,-0.00257
4.472,-0.01248
4.476,0.01759
4.48,0.01173
4.484,0.0193
4.488,0.03174
4.492,-0.00726
4.496,0.02141
4.5,-0.00302
4.504,0.00613
4.508,0.0066
4.512,-0.02192
4.516,0.00924
4.52,0.01784
4.524,-0.00425
4.528,0.01715
4.532,-0.01817
4.536,0.03391
4.54,0.01515
4.544,-0.00703
4.548,0.02185
4.552,0.01286
4.556,0.00143
4.56,-0.00191
4.564,-0.01185
4.568,-0.01254
4.572,-0.00044
4.576,0.00579
4.58,-0.0107
4.584,-0.02255
4.588,0.00487
4.592,0.01025
4.596,0.01248
4.6,-0.0068
4.604,0.00962
4.608,-0.00693
4.612,0.00589
4.616,0.01179
4.62,-0.00099
4.624,-0.01805
4.628,0.01444
4.632,-0.00905
4.636,0.02278
4.64,-0.00615
4.644,0.01048
4.648,-0.00862
4.652,0.00488
4.656,0.03722
4.66,0.01557
4.664,-0.01042
4.668,-0.00196
4.672,-0.00596
4.676,-0.00789
4.68,0.00893
4.684,0.00336
4.688,-0.00698
4.692,0.01079
4.696,0.01527
4.7,-0.01042
4.704,-0.00888
4.708,0.00823
4.712,-0.00692
4.716,0.0029
4.72,-0.00579
4.724,0.01574
4.728,-0.01043
4.732,0.01401
4.736,-0.00769
4.74,-0.00856
4.744,0.00654
4.748,-0.01854
4.752,-0.01275
4.756,0.01516
4.76,0.03304
4.764,0.02159
4.768,0.00182
4.772,0.00511
4.776,0.00979
4.78,0.01968
4.784,-0.00131
4.788,0.00796
4.792,-0.00413
4.796,0.00342
4.8,0.02079
4.804,0.05159
4.808,0.08047
4.812,0.06854
4.816,0.0799
4.82,0.09399
4.824,0.11533
4.828,0.07879
4.832,0.11547
4.836,0.08333
4.84,0.08709
4.844,0.07131
4.848,0.05784
4.852,0.07516
4.856,0.01117
4.86,0.04645
4.864,0.02729
4.868,0.02935
4.872,-0.0262
4.876,0.00261
4.88,-0.02635
4.884,-0.03257
4.888,0.02742
4.892,0.00473
4.896,0.01075
4.9,-0.0057
4.904,0.02818
4.908,-0.00419
4.912,0.00582
4.916,0.00264
4.92,-0.00624
4.924,0.02013
4.928,-0.0133
4.932,-0.01387
4.936,-0.02586
4.94,-0.00742
4.944,-0.02366
4.948,-0.04347
4.952,-0.10641
4.956,-0.10601
4.96,-0.11771
4.964,-0.0506
4.968,0.08013
4.972,0.24725
4.976,0.46906
4.98,0.68079
4.984,0.87402
4.988,0.97029
4.992,0.9839
4.996,0.86462
5.0,0.67075
5.004,0.44618
5.008,0.21037
5.012,0.01978
5.016,-0.10671
5.02,-0.15412
5.024,-0.15068
5.028,-0.13978
5.032,-0.0891
5.036,-0.10217
5.04,-0.05339
5.044,-0.01727
5.048,0.0039
5.052,-0.0212
5.056,-0.01933
5.06,0.00486
5.064,0.00309
5.068,-0.02868
5.072,-0.03511
5.076,-0.02846
5.08,-0.00527
5.084,-0.01746
5.088,0.00823
5.092,0.00323
5.096,-0.0006
5.1,-0.00887
5.104,-0.01309
5.108,-0.03093
5.112,-0.01391
5.116,0.00852
5.12,0.00104
5.124,-0.01275
5.128,-0.02127
5.132,-0.01149
5.136,-0.00448
5.14,-0.00409
5.144,0.01103
5.148,-0.01934
5.152,-0.00833
5.156,-0.01608
5.16,-0.01552
5.164,0.01425
5.168,0.00127
5.172,-0.00926
5.176,0.03056
5.18,0.01692
5.184,0.02849
5.188,0.02797
5.192,0.00186
5.196,0.06028
5.2,0.0738
5.204,0.03469
5.208,0.047
5.212,0.07976
5.216,0.08652
5.22,0.10886
5.224,0.11385
5.228,0.12103
5.232,0.13346
5.236,0.13265
5.24,0.1582
5.244,0.16704
5.248,0.19328
5.252,0.15829
5.256,0.18448
5.26,0.19364
5.264,0.21278
5.268,0.19573
5.272,0.21058
5.276,0.20164
5.28,0.2416
5.284,0.19126
5.288,0.20053
5.292,0.17089
5.296,0.13853
5.3,0.16993
5.304,0.15759
5.308,0.13511
5.312,0.10958
5.316,0.10502
5.32,0.12675
5.324,0.07232
5.328,0.06679
5.332,0.07195
5.336,0.05042
5.34,0.08516
5.344,0.03732
5.348,0.0395
5.352,0.03705
5.356,0.00543
5.36,-0.00932
5.364,0.02352
5.368,-0.02461
5.372,-0.01311
5.376,-0.01858
5.38,-0.00899
5.384,0.00291
5.388,-0.01746
5.392,-0.01549
5.396,0.00291
5.4,0.00371
5.404,-0.00714
5.408,-0.03049
5.412,-0.03981
5.416,-0.0414
5.42,-0.02317
5.424,-0.02677
5.428,-0.02505
5.432,-0.01536
5.436,-0.01804
5.44,-0.02523
5.444,-0.02491
5.448,-0.02601
5.452,-0.02482
5.456,-0.0141
5.46,-0.03238
5.464,-0.0078
5.468,-0.00838
5.472,-0.0258
5.476,0.00364
5.48,-0.02479
5.484,-0.03174
5.488,-0.04163
5.492,-0.00984
5.496,-0.03098
5.5,-0.04617
5.504,-0.03832
5.508,-0.024
5.512,-0.03265
5.516,-0.01954
5.52,-0.04554
5.524,-0.02528
5.528,-0.02018
5.532,-0.03116
5.536,-0.00851
5.54,-0.01527
5.544,-0.03549
5.548,-0.00165
5.552,0.02133
5.556,-0.0025
5.56,0.02185
5.564,0.04723
5.568,0.07948
5.572,0.03977
5.576,0.04027
5.58,0.06121
5.584,0.06094
5.588,0.06443
5.592,0.08078
5.596,0.07174
5.6,0.04957
5.604,0.02139
5.608,0.0542
5.612,0.02499
5.616,0.01875
5.62,-0.00506
5.624,0.00384
5.628,0.00427
5.632,-0.04183
5.636,-0.01302
5.64,-0.02389
5.644,-0.03802
5.648,-0.00577
5.652,-0.03303
5.656,-0.02249
5.66,-0.03527
5.664,-0.05235
5.668,-0.02318
5.672,-0.02237
5.676,-0.03314
5.68,-0.0259
5.684,-0.02628
5.688,0.00073
5.692,-0.06489
5.696,-0.03189
5.7,-0.06791
5.704,-0.06365
5.708,-0.10762
5.712,-0.15599
5.716,-0.1083
5.72,-0.03008
5.724,0.13944
5.728,0.2877
5.732,0.5297
5.736,0.73061
5.74,0.89531
5.744,0.97305
5.748,0.94675
5.752,0.79012
5.756,0.58279
5.76,0.35088
5.764,0.12855
5.768,-0.06577
5.772,-0.1458
5.776,-0.20165
5.78,-0.19552
5.784,-0.13758
5.788,-0.14111
5.792,-0.07678
5.796,-0.04224
5.8,-0.04283
5.804,-0.04227
5.808,-0.02616
5.812,-0.02219
5.816,-0.02215
5.82,-0.05495
5.824,-0.04292
5.828,-0.03363
5.832,-0.03788
5.836,-0.02268
5.84,-0.01894
5.844,-0.01632
5.848,-0.04333
5.852,-0.00805
5.856,-0.02951
5.86,-0.02103
5.864,-0.01134
5.868,-0.01284
5.872,-0.01356
5.876,-0.0396
5.88,-0.0311
5.884,-0.05442
5.888,0.00697
5.892,-0.04219
5.896,-0.00305
5.9,-0.01229
5.904,-0.03875
5.908,-0.01845
5.912,-0.01281
5.916,0.00105
5.92,-0.03306
5.924,-0.01727
5.928,0.00512
5.932,-0.01802
5.936,-0.00474
5.94,0.02331
5.944,0.04448
5.948,0.0406
5.952,0.02403
5.956,0.05159
5.96,0.04178
5.964,0.08253
5.968,0.03331
5.972,0.07475
5.976,0.12065
5.98,0.0946
5.984,0.13266
5.988,0.1439
5.992,0.13323
5.996,0.14103
6.0,0.15808
6.004,0.17846
6.008,0.17755
6.012,0.18333
6.016,0.18755
6.02,0.18561
6.024,0.19554
6.028,0.20659
6.032,0.19854
6.036,0.19483
6.04,0.17431
6.044,0.19748
6.048,0.14638
6.052,0.16641
6.056,0.13992
6.06,0.14732
6.064,0.11632
6.068,0.11779
6.072,0.09452
6.076,0.05817
6.08,0.07235
6.084,0.04205
6.088,0.08663
6.092,0.05789
6.096,0.03712
6.1,0.03143
6.104,-0.01437
6.108,0.02214
6.112,0.00865
6.116,0.00075
6.12,0.01936
6.124,0.03975
6.128,0.03058
6.132,0.03885
6.136,0.03472
6.14,0.06188
6.144,0.0699
6.148,0.06205
6.152,0.09748
6.156,0.05782
6.16,0.07047
6.164,0.04653
6.168,0.04798
6.172,0.05485
6.176,0.03416
6.18,0.00817
6.184,0.01256
6.188,-0.00034
6.192,-0.03969
6.196,-0.03873
6.2,-0.03369
6.204,-0.00904
6.208,-0.02362
6.212,-0.00938
6.216,-0.02891
6.22,-0.01915
6.224,-0.04009
6.228,-0.03211
6.232,-0.03071
6.236,-0.02794
6.24,-0.0418
6.244,-0.05342
6.248,-0.05315
6.252,-0.03988
6.256,-0.05101
6.26,-0.04612
6.264,-0.0582
6.268,-0.06026
6.272,-0.08025
6.276,-0.1147
6.28,-0.14444
6.284,-0.12761
6.288,-0.06343
6.292,0.1218
6.296,0.27603
6.3,0.50015
6.304,0.70393
6.308,0.88204
6.312,0.94972
6.316,0.96291
6.32,0.82031
6.324,0.60781
6.328,0.37187
6.332,0.17529
6.336,-0.02171
6.34,-0.14872
6.344,-0.21228
6.348,-0.18374
6.352,-0.15314
6.356,-0.11033
6.36,-0.06451
6.364,-0.02026
6.368,-0.05439
6.372,-0.03687
6.376,-0.03258
6.38,-0.037
6.384,-0.05031
6.388,-0.01757
6.392,-0.01662
6.396,-0.03362
6.4,-0.03552
6.404,-0.00999
6.408,-0.04978
6.412,-0.01032
6.416,-0.03029
6.42,-0.02886
6.424,-0.04329
6.428,-0.03176
6.432,-0.01543
6.436,-0.03012
6.44,-0.03558
6.444,-0.03325
6.448,-0.04263
6.452,-0.03372
6.456,-0.01938
6.46,-0.02751
6.464,-0.01223
6.468,-0.02235
6.472,-0.01533
6.476,0.01095
6.48,-0.02212
6.484,-0.01372
6.488,-0.01402
6.492,-0.02191
6.496,-0.01755
6.5,0.02016
6.504,-0.01771
6.508,0.01588
6.512,0.00413
6.516,0.02999
6.52,0.03185
6.524,0.01488
6.528,0.03397
6.532,0.06934
6.536,0.0895
6.54,0.07369
6.544,0.09691
6.548,0.11979
6.552,0.12228
6.556,0.15537
6.56,0.11706
6.564,0.14495
6.568,0.14531
6.572,0.19176
6.576,0.185
6.58,0.20158
6.584,0.18187
6.588,0.20777
6.592,0.2048
6.596,0.20563
6.6,0.19595
6.604,0.19334
6.608,0.14751
6.612,0.18483
6.616,0.14493
6.62,0.17596
6.624,0.14927
6.628,0.13041
6.632,0.12957
6.636,0.14674
6.64,0.09071
6.644,0.0929
6.648,0.07547
6.652,0.05837
6.656,0.06987
6.66,0.05338
6.664,0.02206
6.668,-0.00018
6.672,0.03342
6.676,0.02524
6.68,0.00127
6.684,-0.00034
6.688,0.01159
6.692,0.01212
6.696,-0.00286
6.7,-0.04839
6.704,-0.02889
6.708,-0.02448
6.712,-0.03412
6.716,-0.0155
6.72,-0.0491
6.724,-0.01811
6.728,-0.02925
6.732,0.00303
6.736,-0.03497
6.74,0.00727
6.744,-0.02803
6.748,-0.03849
6.752,-0.03778
6.756,-0.02367
6.76,-0.02036
6.764,-0.0466
6.768,-0.03282
6.772,-0.03697
6.776,-0.00361
6.78,0.0003
6.784,-0.00349
6.788,-0.05421
6.792,-0.04148
6.796,-0.02817
6.8,-0.05082
6.804,-0.0433
6.808,-0.00935
6.812,-0.03749
6.816,-0.04347
6.82,-0.00286
6.824,-0.03554
6.828,-0.0224
6.832,-0.02697
6.836,-0.02903
6.84,-0.03087
6.844,-0.00374
6.848,0.01903
6.852,-0.0222
6.856,0.0348
6.86,0.04569
6.864,0.01268
6.868,0.0509
6.872,0.05926
6.876,0.06833
6.88,0.05896
6.884,0.05077
6.888,0.07302
6.892,0.04939
6.896,0.04505
6.9,0.03608
6.904,0.03044
6.908,-0.00071
6.912,0.03296
6.916,-0.00588
6.92,-0.01209
6.924,-0.01686
6.928,0.00023
6.932,-0.01882
6.936,-0.0092
6.94,-0.02801
6.944,-0.0199
6.948,-0.01427
6.952,-0.03038
6.956,-0.03881
6.96,-0.01399
6.964,-0.02656
6.968,-0.01563
6.972,-0.01975
6.976,-0.03938
6.98,-0.01692
6.984,-0.02279
6.988,-0.02198
6.992,-0.03499
6.996,-0.05592
7.0,-0.08478
7.004,-0.11986
7.008,-0.16454
7.012,-0.0943
7.016,-0.00144
7.02,0.14142
7.024,0.30615
7.028,0.54861
7.032,0.78462
7.036,0.91595
7.04,0.98478
7.044,0.92772
7.048,0.74995
7.052,0.56074
7.056,0.31598
7.06,0.10772
7.064,-0.0454
7.068,-0.17236
7.072,-0.16877
7.076,-0.15392
7.08,-0.14534
7.084,-0.11678
7.088,-0.0771
7.092,-0.04052
7.096,-0.0047
7.1,-0.03359
7.104,-0.02235
7.108,-0.01585
7.112,-0.02545
7.116,-0.03421
7.12,-0.00631
7.124,-0.04098
7.128,-0.03154
7.132,-0.01883
7.136,-0.0183
7.14,-0.0128
7.144,-0.01889
7.148,-0.01427
7.152,-0.04318
7.156,-0.01781
7.16,-0.01947
7.164,-0.02169
7.168,-0.0056
7.172,-0.00728
7.176,-0.04121
7.18,-0.0314
7.184,-0.01234
7.188,-0.00955
7.192,-0.00749
7.196,-0.01213
7.2,-0.02032
7.204,0.01335
7.208,-0.02107
7.212,-0.01483
7.216,-0.00541
7.22,-0.03493
7.224,-0.00554
7.228,-0.00998
7.232,0.00787
7.236,0.00653
7.24,0.00262
7.244,0.01965
7.248,0.02065
7.252,0.04648
7.256,0.04677
7.26,0.12443
7.264,0.09331
7.268,0.10888
7.272,0.10172
7.276,0.13086
7.28,0.14676
7.284,0.15272
7.288,0.1307
7.292,0.1669
7.296,0.16291
7.3,0.19069
7.304,0.19213
7.308,0.19448
7.312,0.20538
7.316,0.18101
7.32,0.1711
7.324,0.22041
7.328,0.23359
7.332,0.19629
7.336,0.19793
7.34,0.16944
7.344,0.17355
7.348,0.17794
7.352,0.17109
7.356,0.12793
7.36,0.12679
7.364,0.12439
7.368,0.09683
7.372,0.09731
7.376,0.07831
7.38,0.06638
7.384,0.06896
7.388,0.02663
7.392,0.03587
7.396,0.05376
7.4,0.04348
7.404,0.01039
7.408,0.02935
7.412,0.00974
7.416,0.0297
7.42,0.00446
7.424,-0.03006
7.428,-0.01881
7.432,0.00588
7.436,-0.00393
7.44,-0.02249
7.444,-0.01517
7.448,-0.00324
7.452,-0.0125
7.456,0.0013
7.46,-0.01133
7.464,-0.03345
7.468,-0.0212
7.472,0.00437
7.476,-0.02425
7.48,-0.01511
7.484,-0.02846
7.488,-0.02645
7.492,0.00064
7.496,-0.00553
7.5,-0.00587
7.504,-0.03994
7.508,-0.0031
7.512,-0.0062
7.516,-0.03074
7.52,-0.01402
7.524,-0.00081
7.528,0.00918
7.532,-0.0215
7.536,0.00024
7.54,-0.02233
7.544,-0.00802
7.548,-0.00098
7.552,0.00572
7.556,-0.0271
7.56,-0.0326
7.564,-0.00346
7.568,-0.01505
7.572,0.00196
7.576,-0.00446
7.58,-0.00489
7.584,0.0005
7.588,0.01371
7.592,0.00145
7.596,0.01411
7.6,0.02015
7.604,0.04684
7.608,0.03821
7.612,0.07669
7.616,0.09179
7.62,0.09934
7.624,0.0914
7.628,0.07472
7.632,0.10471
7.636,0.05856
7.64,0.07207
7.644,0.0744
7.648,0.0146
7.652,0.01126
7.656,0.01215
7.66,0.01542
7.664,-0.00124
7.668,-0.01545
7.672,-0.00287
7.676,0.001
7.68,-0.01391
7.684,0.01988
7.688,-0.01684
7.692,-0.01804
7.696,-0.01582
7.7,-0.00817
7.704,-0.01528
7.708,-0.00088
7.712,-0.01264
7.716,-0.02725
7.72,0.00873
7.724,-0.00341
7.728,-0.01316
7.732,-0.01428
7.736,-0.01894
7.74,-0.03012
7.744,-0.06448
7.748,-0.11504
7.752,-0.12158
7.756,-0.11988
7.76,-0.01695
7.764,0.10835
7.768,0.28584
7.772,0.52121
7.776,0.72409
7.78,0.90379
7.784,1.01878
7.788,0.99129
7.792,0.83091
7.796,0.64257
7.8,0.37878
7.804,0.20952
7.808,-0.00381
7.812,-0.11457
7.816,-0.16602
7.82,-0.20612
7.824,-0.14116
7.828,-0.06673
7.832,-0.04663
7.836,-0.03577
7.84,-0.01978
7.844,0.03746
7.848,-0.0044
7.852,-0.00328
7.856,-0.01692
7.86,-0.00162
7.864,-0.01822
7.868,-0.00316
7.872,-0.02506
7.876,-0.00365
7.88,0.0478
7.884,-0.004
7.888,-0.00036
7.892,-0.00995
7.896,-0.00077
7.9,0.01061
7.904,-0.01205
7.908,0.00753
7.912,0.00334
7.916,0.02151
7.92,0.00582
7.924,-0.00122
7.928,-0.00704
7.932,-0.00453
7.936,-0.00073
7.94,0.01264
7.944,-0.0042
7.948,-0.01514
7.952,0.00156
7.956,0.02164
7.96,-0.00481
7.964,-0.00022
7.968,0.02543
7.972,0.0246
7.976,0.02414
7.98,0.04881
7.984,0.0497
7.988,0.07462
7.992,0.0749
7.996,0.06202
8.0,0.06925
8.004,0.09125
8.008,0.09961
8.012,0.10136
8.016,0.12767
8.02,0.10966
8.024,0.13826
8.028,0.18073
8.032,0.18558
8.036,0.16055
8.04,0.1854
8.044,0.21704
8.048,0.1792
8.052,0.19759
8.056,0.22733
8.06,0.20734
8.064,0.24216
8.068,0.24851
8.072,0.22643
8.076,0.21657
8.08,0.20315
8.084,0.20037
8.088,0.20286
8.092,0.20681
8.096,0.183
8.1,0.15
8.104,0.15392
8.108,0.13869
8.112,0.12127
8.116,0.12314
8.12,0.102
8.124,0.11029
8.128,0.09043
8.132,0.08518
8.136,0.07757
8.14,0.08652
8.144,0.03633
8.148,0.03284
8.152,0.0251
8.156,0.00261
8.16,0.00254
8.164,0.02644
8.168,0.0165
8.172,0.03626
8.176,-0.02538
8.18,-0.00317
8.184,0.02022
8.188,-0.01667
8.192,0.03415
8.196,0.00894
8.2,0.02747
8.204,0.03997
8.208,-0.01192
8.212,-0.00331
8.216,0.02605
8.22,0.01984
8.224,0.01715
8.228,0.01944
8.232,0.04105
8.236,0.02804
8.24,0.04592
8.244,0.05683
8.248,0.06981
8.252,0.06719
8.256,0.10923
8.26,0.11104
8.264,0.08657
8.268,0.12844
8.272,0.07318
8.276,0.10546
8.28,0.09678
8.284,0.07557
8.288,0.08791
8.292,0.03803
8.296,0.02434
8.3,0.03585
8.304,0.02223
8.308,0.04008
8.312,-0.00014
8.316,-0.0067
8.32,0.01079
8.324,0.015
8.328,-0.00871
8.332,-0.00927
8.336,0.00068
8.34,0.01725
8.344,0.01454
8.348,0.00125
8.352,-0.00018
8.356,0.00661
8.36,-0.01799
8.364,0.01952
8.368,0.02893
8.372,-0.01095
8.376,-0.00185
8.38,-0.04312
8.384,-0.033
8.388,-0.05518
8.392,-0.09417
8.396,-0.10162
8.4,-0.01722
8.404,0.11502
8.408,0.32353
8.412,0.53617
8.416,0.75229
8.42,0.89866
8.424,0.99772
8.428,0.98332
8.432,0.87609
8.436,0.63679
8.44,0.44394
8.444,0.21519
8.448,0.05183
8.452,-0.10535
8.456,-0.15142
8.46,-0.16669
8.464,-0.14652
8.468,-0.08348
8.472,-0.05921
8.476,-0.02265
8.48,0.00537
8.484,0.00866
8.488,-0.00628
8.492,0.00983
8.496,0.02579
8.5,-0.00526
8.504,0.02618
8.508,0.01236
8.512,0.00298
8.516,-0.00019
8.52,-0.00786
8.524,0.00815
8.528,-0.00921
8.532,0.01663
8.536,0.01623
8.54,0.0141
8.544,0.01443
8.548,0.01373
8.552,-0.0015
8.556,0.02805
8.56,-0.00828
8.564,0.02167
8.568,0.01549
8.572,0.00808
8.576,0.00769
8.58,0.00222
8.584,0.02981
8.588,0.02353
8.592,0.02854
8.596,0.02961
8.6,0.03706
8.604,0.01936
8.608,0.02863
8.612,0.04595
8.616,0.02427
8.62,0.06932
8.624,0.0921
8.628,0.08051
8.632,0.04844
8.636,0.06201
8.64,0.08913
8.644,0.10656
8.648,0.11554
8.652,0.138
8.656,0.14167
8.66,0.15565
8.664,0.17325
8.668,0.18146
8.672,0.18463
8.676,0.18652
8.68,0.21433
8.684,0.21356
8.688,0.21023
8.692,0.23518
8.696,0.23894
8.7,0.2582
8.704,0.22817
8.708,0.2526
8.712,0.22054
8.716,0.25343
8.72,0.24928
8.724,0.24189
8.728,0.22847
8.732,0.20612
8.736,0.20692
8.74,0.16702
8.744,0.1669
8.748,0.10866
8.752,0.14299
8.756,0.13376
8.76,0.14606
8.764,0.10549
8.768,0.11158
8.772,0.1002
8.776,0.09147
8.78,0.08426
8.784,0.04714
8.788,0.05042
8.792,0.05346
8.796,0.05114
8.8,0.05458
8.804,0.06469
8.808,0.02892
8.812,0.03304
8.816,0.03702
8.82,0.00351
8.824,0.04776
8.828,0.0202
8.832,0.01458
8.836,0.01804
8.84,0.05054
8.844,0.01829
8.848,0.02037
8.852,0.01086
8.856,0.04708
8.86,0.02054
8.864,0.02483
8.868,-0.0004
8.872,0.01055
8.876,-0.01161
8.88,0.03149
8.884,0.0378
8.888,0.00607
8.892,-0.0013
8.896,0.03532
8.9,0.05282
8.904,0.07984
8.908,0.06812
8.912,0.06684
8.916,0.07159
8.92,0.10939
8.924,0.11348
8.928,0.11592
8.932,0.11276
8.936,0.1173
8.94,0.10762
8.944,0.09298
8.948,0.09427
8.952,0.0747
8.956,0.05995
8.96,0.07217
8.964,0.0736
8.968,0.05181
8.972,0.03833
8.976,0.0398
8.98,0.02881
8.984,0.04393
8.988,0.04105
8.992,0.03363
8.996,0.0198
9.0,0.0109
9.004,0.03756
9.008,0.02125
9.012,0.03913
9.016,0.0518
9.02,0.00697
9.024,0.04431
9.028,0.0358
9.032,0.04438
9.036,0.02152
9.04,0.01364
9.044,0.0084
9.048,-0.00357
9.052,-0.03209
9.056,-0.06544
9.06,-0.10522
9.064,-0.07339
9.068,0.00275
9.072,0.14206
9.076,0.34211
9.08,0.57763
9.084,0.73485
9.088,0.90977
9.092,1.01226
9.096,0.97976
9.1,0.8596
9.104,0.64775
9.108,0.43443
9.112,0.20469
9.116,0.03543
9.12,-0.09468
9.124,-0.15097
9.128,-0.12868
9.132,-0.07319
9.136,-0.07989
9.14,-0.01399
9.144,-0.0004
9.148,0.01879
9.152,0.04255
9.156,0.02712
9.16,0.02617
9.164,0.02406
9.168,0.00743
9.172,0.02285
9.176,0.03614
9.18,0.03439
9.184,0.00822
9.188,0.01744
9.192,0.02651
9.196,0.04756
9.2,0.04584
9.204,0.02543
9.208,0.01943
9.212,0.03711
9.216,0.04259
9.22,0.02841
9.224,0.03163
9.228,0.01729
9.232,0.04265
9.236,0.03759
9.24,0.02609
9.244,0.01069
9.248,0.02048
9.252,0.0359
9.256,0.03767
9.26,0.02943
9.264,0.04175
9.268,0.04365
9.272,0.05576
9.276,0.04274
9.28,0.05836
9.284,0.09044
9.288,0.06041
9.292,0.08444
9.296,0.09553
9.3,0.10059
9.304,0.09285
9.308,0.10698
9.312,0.10883
9.316,0.11754
9.32,0.15038
9.324,0.15897
9.328,0.19475
9.332,0.17676
9.336,0.20536
9.34,0.19318
9.344,0.22166
9.348,0.23002
9.352,0.22046
9.356,0.24096
9.36,0.26185
9.364,0.22905
9.368,0.23968
9.372,0.24021
9.376,0.25025
9.38,0.26816
9.384,0.24402
9.388,0.24475
9.392,0.2226
9.396,0.23255
9.4,0.18292
9.404,0.2211
9.408,0.17224
9.412,0.19624
9.416,0.16008
9.42,0.14095
9.424,0.13791
9.428,0.14865
9.432,0.14861
9.436,0.16021
9.44,0.13431
9.444,0.16506
9.448,0.15487
9.452,0.15865
9.456,0.13202
9.46,0.15614
9.464,0.14154
9.468,0.16643
9.472,0.12292
9.476,0.12412
9.48,0.14429
9.484,0.08403
9.488,0.10406
9.492,0.059
9.496,0.0941
9.5,0.05788
9.504,0.04074
9.508,0.04342
9.512,0.07593
9.516,0.04698
9.52,0.03428
9.524,0.01162
9.528,0.03504
9.532,0.02678
9.536,0.03076
9.54,0.0198
9.544,0.01317
9.548,0.04299
9.552,0.02922
9.556,0.02375
9.56,0.01687
9.564,0.03552
9.568,0.04271
9.572,0.03802
9.576,-0.01072
9.58,0.04878
9.584,-0.01375
9.588,-0.05247
9.592,-0.09342
9.596,-0.06547
9.6,-0.0435
9.604,0.07289
9.608,0.23944
9.612,0.45647
9.616,0.6741
9.62,0.86894
9.624,0.98712
9.628,1.04947
9.632,0.97472
9.636,0.78035
9.64,0.55818
9.644,0.31298
9.648,0.13179
9.652,-0.01907
9.656,-0.07181
9.66,-0.14205
9.664,-0.11422
9.668,-0.06122
9.672,-0.06349
9.676,-0.00267
9.68,0.00481
9.684,0.027
9.688,0.02797
9.692,0.02682
9.696,0.04732
9.7,0.01377
9.704,0.0418
9.708,0.03089
9.712,0.01388
9.716,0.03436
9.72,0.04745
9.724,0.02054
9.728,0.02095
9.732,0.02483
9.736,0.02281
9.74,0.02549
9.744,0.04548
9.748,0.0358
9.752,0.03288
9.756,0.05161
9.76,-0.00202
9.764,0.0215
9.768,0.03488
9.772,0.00854
9.776,0.03867
9.78,0.01613
9.784,0.02401
9.788,0.04771
9.792,0.04993
9.796,0.04316
9.8,0.01805
9.804,0.07811
9.808,0.05
9.812,0.03543
9.816,0.05469
9.82,0.07641
9.824,0.08507
9.828,0.08738
9.832,0.09082
9.836,0.10729
9.84,0.09263
9.844,0.10647
9.848,0.13173
9.852,0.15695
9.856,0.15635
9.86,0.14768
9.864,0.15811
9.868,0.19348
9.872,0.18231
9.876,0.19363
9.88,0.22948
9.884,0.21958
9.888,0.21447
9.892,0.23536
9.896,0.21402
9.9,0.24775
9.904,0.23075
9.908,0.26217
9.912,0.23245
9.916,0.25271
9.92,0.22016
9.924,0.2438
9.928,0.20978
9.932,0.23753
9.936,0.18647
9.94,0.20848
9.944,0.18131
9.948,0.1735
9.952,0.14386
9.956,0.16012
9.96,0.17193
9.964,0.10726
9.968,0.12009
9.972,0.10797
9.976,0.07435
9.98,0.08783
9.984,0.12125
9.988,0.05838
9.992,0.06542
9.996,0.09769
