t_seg,ecg_mV
0.0,0.0071
0.004,0.02248
0.008,0.01107
0.012,0.00583
0.016,-0.03657
0.02,-1e-05
0.024,0.00788
0.028,0.01941
0.032,0.00325
0.036,0.01685
0.04,0.02913
0.044,0.01417
0.048,0.00072
0.052,0.01041
0.056,0.03949
0.06,0.01054
0.064,-0.03112
0.068,-0.00895
0.072,-0.00684
0.076,-0.02578
0.08,0.01097
0.084,0.00227
0.088,0.00704
0.092,0.00653
0.096,-0.00208
0.1,0.03392
0.104,0.00161
0.108,-0.01258
0.112,-0.0131
0.116,0.02885
0.12,0.01885
0.124,-0.01362
0.128,0.00562
0.132,0.00517
0.136,-0.00103
0.14,-0.01214
0.144,0.03863
0.148,-0.00634
0.152,0.02888
0.156,0.01639
0.16,0.00543
0.164,-0.01227
0.168,0.02533
0.172,-0.01483
0.176,-0.01269
0.18,0.00625
0.184,0.01205
0.188,-0.01246
0.192,0.00076
0.196,0.00819
0.2,-0.00093
0.204,-0.01714
0.208,-0.00879
0.212,0.01829
0.216,0.0198
0.22,-0.00916
0.224,0.01956
0.228,-0.00013
0.232,0.00063
0.236,0.01267
0.24,0.00557
0.244,-0.0214
0.248,0.01401
0.252,-0.00098
0.256,0.04783
0.26,0.0224
0.264,0.00916
0.268,-0.00226
0.272,-0.04277
0.276,-0.01464
0.28,-0.00015
0.284,-0.00514
0.288,-0.01436
0.292,0.00147
0.296,-0.00683
0.3,-0.01561
0.304,-0.02563
0.308,0.00179
0.312,-0.01147
0.316,-0.01722
0.32,-0.00331
0.324,0.0038
0.328,-0.01417
0.332,-0.01481
0.336,0.00427
0.34,0.01714
0.344,0.04887
0.348,0.02252
0.352,0.04036
0.356,0.05125
0.36,0.06221
0.364,0.08071
0.368,0.06886
0.372,0.07025
0.376,0.0823
0.38,0.12352
0.384,0.12319
0.388,0.10405
0.392,0.09689
0.396,0.08888
0.4,0.07859
0.404,0.05275
0.408,0.04503
0.412,0.03393
0.416,-0.01294
0.42,-0.00939
0.424,0.01842
0.428,0.0076
0.432,-0.01471
0.436,-0.0019
0.44,-0.00243
0.444,-0.00024
0.448,0.02411
0.452,-0.00424
0.456,-0.00028
0.46,-0.03489
0.464,-0.02075
0.468,0.01042
0.472,-0.0049
0.476,0.00753
0.48,-0.0022
0.484,-0.01067
0.488,0.00534
0.492,-0.01525
0.496,-0.04718
0.5,-0.0364
0.504,-0.06691
0.508,-0.10593
0.512,-0.11697
0.516,-0.09397
0.52,0.06098
0.524,0.2435
0.528,0.44264
0.532,0.64599
0.536,0.80454
0.54,0.95318
0.544,1.00208
0.548,0.91838
0.552,0.73415
0.556,0.50671
0.56,0.29359
0.564,0.09155
0.568,-0.06932
0.572,-0.14611
0.576,-0.16601
0.58,-0.17548
0.584,-0.14985
0.588,-0.06176
0.592,-0.03387
0.596,-0.01146
0.6,-0.01306
0.604,0.00384
0.608,-0.01674
0.612,-0.02362
0.616,-0.00776
0.62,-0.01281
0.624,-0.03733
0.628,0.00401
0.632,0.00626
0.636,-0.01096
0.64,0.00432
0.644,-0.01917
0.648,-0.02768
0.652,-0.00463
0.656,-0.009
0.66,-0.00121
0.664,-0.02133
0.668,-0.02448
0.672,0.0051
0.676,0.01927
0.68,-0.01701
0.684,-0.00591
0.688,-0.0069
0.692,-0.01474
0.696,-0.02384
0.7,-0.00016
0.704,0.00421
0.708,-0.00486
0.712,0.03138
0.716,0.00083
0.72,0.02932
0.724,0.02161
0.728,0.00487
0.732,0.01786
0.736,0.02333
0.74,0.03232
0.744,0.02243
0.748,0.04399
0.752,0.0577
0.756,0.05301
0.76,0.10148
0.764,0.09112
0.768,0.10218
0.772,0.06252
0.776,0.09217
0.78,0.13597
0.784,0.14629
0.788,0.17878
0.792,0.17725
0.796,0.1756
0.8,0.17507
0.804,0.18466
0.808,0.17169
0.812,0.21006
0.816,0.19236
0.82,0.21243
0.824,0.21487
0.828,0.22293
0.832,0.21271
0.836,0.19019
0.84,0.18011
0.844,0.20207
0.848,0.19609
0.852,0.16015
0.856,0.15386
0.86,0.15062
0.864,0.15137
0.868,0.10316
0.872,0.09856
0.876,0.08892
0.88,0.11973
0.884,0.08597
0.888,0.06846
0.892,0.06055
0.896,0.03839
0.9,0.03036
0.904,0.02358
0.908,-0.00879
0.912,0.02018
0.916,-0.00756
0.92,0.01427
0.924,-0.0264
0.928,0.01545
0.932,-0.01754
0.936,-0.03236
0.94,-0.03219
0.944,-0.04163
0.948,-0.00643
0.952,-0.00857
0.956,-0.02661
0.96,-0.01092
0.964,0.01047
0.968,-0.01852
0.972,-0.01059
0.976,-0.0026
0.98,-0.00966
0.984,-0.00239
0.988,-0.00283
0.992,-0.01012
0.996,0.00543
1.0,-0.01348
1.004,-0.05621
1.008,-0.00405
1.012,-0.0235
1.016,-0.00723
1.02,0.00463
1.024,-0.0064
1.028,-0.06042
1.032,0.01082
1.036,-0.00863
1.04,-0.02966
1.044,-0.02401
1.048,-0.01478
1.052,-0.00966
1.056,-0.00012
1.06,-0.03059
1.064,-0.02664
1.068,-0.01851
1.072,-0.00053
1.076,-0.027
1.08,-0.03138
1.084,-0.03766
1.088,-0.02405
1.092,-0.02529
1.096,-0.00476
1.1,-0.01905
1.104,-0.01619
1.108,-0.00687
1.112,0.00349
1.116,-0.00591
1.12,-0.00562
1.124,-0.01103
1.128,-0.01478
1.132,-0.03037
1.136,-0.03377
1.14,-0.00055
1.144,-0.00228
1.148,0.04016
1.152,0.02414
1.156,0.01798
1.16,0.04376
1.164,0.0554
1.168,0.05947
1.172,0.08174
1.176,0.06703
1.18,0.06649
1.184,0.06021
1.188,0.06621
1.192,0.08809
1.196,0.0516
1.2,0.02995
1.204,0.0291
1.208,0.03351
1.212,0.00871
1.216,0.01366
1.22,-0.00773
1.224,-0.01344
1.228,-0.0238
1.232,-0.04277
1.236,-0.0271
1.24,-0.03742
1.244,-0.04129
1.248,-0.00139
1.252,-0.02813
1.256,-0.02727
1.26,-0.00569
1.264,-0.03005
1.268,-0.02926
1.272,-0.00152
1.276,-0.00737
1.28,-0.02715
1.284,-0.00787
1.288,-0.01591
1.292,-0.05105
1.296,-0.05533
1.3,-0.08784
1.304,-0.13295
1.308,-0.12372
1.312,-0.07794
1.316,0.03114
1.32,0.17168
1.324,0.38779
1.328,0.60789
1.332,0.81435
1.336,0.96676
1.34,0.97917
1.344,0.88228
1.348,0.70546
1.352,0.49862
1.356,0.24182
1.36,0.06927
1.364,-0.07638
1.368,-0.16406
1.372,-0.17912
1.376,-0.16882
1.38,-0.14049
1.384,-0.10165
1.388,-0.03541
1.392,-0.05118
1.396,-0.026
1.4,-0.00856
1.404,-0.02718
1.408,-0.01016
1.412,-0.02283
1.416,-0.00219
1.42,-0.00296
1.424,-0.04587
1.428,-0.03509
1.432,-0.02173
1.436,-0.04489
1.44,-0.04109
1.444,-0.02736
1.448,-0.04663
1.452,-0.0228
1.456,0.00072
1.46,-0.01591
1.464,-0.03771
1.468,-0.0382
1.472,-0.02815
1.476,-0.01732
1.48,-0.02412
1.484,-0.04069
1.488,-0.03544
1.492,-0.02735
1.496,-0.00399
1.5,-0.0196
1.504,-0.02555
1.508,-0.0293
1.512,-0.03962
1.516,-0.02466
1.52,-0.02886
1.524,-0.00866
1.528,0.0295
1.532,0.00064
1.536,0.04944
1.54,0.00366
1.544,0.0254
1.548,0.06186
1.552,0.05376
1.556,0.06314
1.56,0.05007
1.564,0.07427
1.568,0.10177
1.572,0.11591
1.576,0.14294
1.58,0.11118
1.584,0.12948
1.588,0.12594
1.592,0.13072
1.596,0.19407
1.6,0.16122
1.604,0.1757
1.608,0.20106
1.612,0.18774
1.616,0.17862
1.62,0.19856
1.624,0.2003
1.628,0.19787
1.632,0.18745
1.636,0.18355
1.64,0.1805
1.644,0.13835
1.648,0.15907
1.652,0.15972
1.656,0.12804
1.66,0.12153
1.664,0.10903
1.668,0.10127
1.672,0.08158
1.676,0.07512
1.68,0.0544
1.684,0.03641
1.688,0.03066
1.692,0.0049
1.696,0.04132
1.7,0.01906
1.704,0.01546
1.708,0.00773
1.712,-0.02225
1.716,-0.01011
1.72,0.00266
1.724,0.01453
1.728,-0.02004
1.732,0.00296
1.736,0.00349
1.74,-0.03825
1.744,-0.03027
1.748,-0.01777
1.752,-0.02015
1.756,-0.00597
1.76,-0.02133
1.764,-0.02358
1.768,-0.02022
1.772,-0.05541
1.776,-0.00722
1.78,-0.02363
1.784,-0.03083
1.788,-0.04374
1.792,-0.02672
1.796,-0.03775
1.8,-0.02112
1.804,-0.04685
1.808,-0.04098
1.812,-0.03343
1.816,-0.04208
1.82,-0.03006
1.824,-0.02951
1.828,-0.03556
1.832,-0.02903
1.836,-0.02616
1.84,-0.05159
1.844,-0.02457
1.848,-0.02804
1.852,-0.03012
1.856,-0.05088
1.86,-0.05573
1.864,-0.03032
1.868,-0.04512
1.872,-0.0316
1.876,-0.01976
1.88,-0.04118
1.884,-0.00796
1.888,-0.01991
1.892,-0.0499
1.896,-0.01129
1.9,0.00366
1.904,0.00279
1.908,-0.00538
1.912,0.02054
1.916,0.01967
1.92,0.035
1.924,0.04673
1.928,0.0418
1.932,0.07854
1.936,0.06887
1.94,0.0331
1.944,0.07168
1.948,0.04138
1.952,0.07928
1.956,0.03473
1.96,0.02533
1.964,0.01976
1.968,-0.01943
1.972,0.00613
1.976,-0.01957
1.98,-0.01714
1.984,-0.01596
1.988,-0.05153
1.992,-0.01448
1.996,-0.02947
2.0,-0.00454
2.004,-0.02643
2.008,-0.02966
2.012,-0.04006
2.016,-0.02817
2.02,-0.02453
2.024,-0.0398
2.028,-0.0255
2.032,0.00231
2.036,-0.00455
2.04,-0.02492
2.044,-0.02356
2.048,-0.06598
2.052,-0.04832
2.056,-0.08765
2.06,-0.08697
2.064,-0.11576
2.068,-0.14702
2.072,-0.07953
2.076,0.01713
2.08,0.2167
2.084,0.41168
2.088,0.64162
2.092,0.8311
2.096,0.9409
2.1,0.96906
2.104,0.86721
2.108,0.68981
2.112,0.44829
2.116,0.24238
2.12,0.02982
2.124,-0.08216
2.128,-0.18771
2.132,-0.16884
2.136,-0.14612
2.14,-0.14249
2.144,-0.06788
2.148,-0.07395
2.152,-0.04888
2.156,-0.05853
2.16,-0.02528
2.164,-0.00467
2.168,-0.01854
2.172,-0.03598
2.176,-0.03311
2.18,-0.00499
2.184,-0.02407
2.188,-0.04926
2.192,-0.01977
2.196,-0.00837
2.2,-0.05478
2.204,-0.02877
2.208,-0.01231
2.212,-0.04701
2.216,-0.02296
2.22,-0.00465
2.224,-0.0286
2.228,-0.02608
2.232,-0.01632
2.236,-0.04063
2.24,-0.04849
2.244,-0.02315
2.248,-0.01038
2.252,-0.03366
2.256,-0.01367
2.26,-0.00286
2.264,-0.01467
2.268,-0.03807
2.272,0.00563
2.276,-0.01904
2.28,0.00271
2.284,0.00173
2.288,-0.00561
2.292,0.00379
2.296,0.01074
2.3,0.02496
2.304,0.04471
2.308,0.07745
2.312,0.03186
2.316,0.02767
2.32,0.05433
2.324,0.06359
2.328,0.05114
2.332,0.09651
2.336,0.07597
2.34,0.09547
2.344,0.15504
2.348,0.14921
2.352,0.17709
2.356,0.17392
2.36,0.19127
2.364,0.16302
2.368,0.18507
2.372,0.17861
2.376,0.19496
2.38,0.19292
2.384,0.19441
2.388,0.17903
2.392,0.18814
2.396,0.20675
2.4,0.14058
2.404,0.17996
2.408,0.14555
2.412,0.12317
2.416,0.12878
2.42,0.12023
2.424,0.12728
2.428,0.09358
2.432,0.08828
2.436,0.07421
2.44,0.0683
2.444,0.04311
2.448,0.02402
2.452,0.01394
2.456,0.01865
2.46,-0.01709
2.464,-0.00971
2.468,0.00516
2.472,-0.01928
2.476,-0.00727
2.48,-0.01987
2.484,-0.02458
2.488,-0.00335
2.492,-0.00797
2.496,-0.02428
2.5,-0.01474
2.504,-0.04498
2.508,-0.05908
2.512,-0.02354
2.516,-0.0341
2.52,0.0009
2.524,-0.04851
2.528,-0.0194
2.532,-0.03306
2.536,-0.02609
2.54,-0.00565
2.544,-0.02375
2.548,0.00172
2.552,-0.01954
2.556,-0.02771
2.56,-0.01359
2.564,-0.0351
2.568,-0.04315
2.572,-0.03161
2.576,0.00676
2.58,-0.01419
2.584,0.00847
2.588,-0.0021
2.592,-0.03051
2.596,-0.01492
2.6,-0.04042
2.604,-0.0204
2.608,-0.01495
2.612,-0.05313
2.616,-0.02032
2.62,-0.04389
2.624,0.01705
2.628,-0.01683
2.632,-0.00989
2.636,-0.0117
2.64,-0.00292
2.644,-0.01457
2.648,-0.03514
2.652,-0.01092
2.656,-0.04538
2.66,-0.03002
2.664,-0.03512
2.668,-0.0103
2.672,-0.04163
2.676,-0.00543
2.68,-0.02747
2.684,-0.02133
2.688,-0.03828
2.692,-0.00154
2.696,-0.0279
2.7,-0.01999
2.704,-0.03712
2.708,-0.03408
2.712,-0.00088
2.716,-0.04062
2.72,-0.02527
2.724,-0.01861
2.728,-0.01467
2.732,0.01043
2.736,0.00215
2.74,0.01432
2.744,0.00592
2.748,0.01515
2.752,0.00747
2.756,0.03751
2.76,0.04909
2.764,0.06216
2.768,0.07029
2.772,0.07363
2.776,0.09016
2.78,0.07532
2.784,0.09665
2.788,0.068
2.792,0.05808
2.796,0.05215
2.8,0.0175
2.804,0.03015
2.808,0.00829
2.812,0.01554
2.816,-0.0157
2.82,-0.03149
2.824,-0.0026
2.828,-0.00405
2.832,-0.01723
2.836,-0.01328
2.84,-0.01963
2.844,-0.03257
2.848,-0.03831
2.852,0.01111
2.856,-0.02283
2.86,-0.0044
2.864,-0.01502
2.868,-0.04912
2.872,0.0054
2.876,-0.03339
2.88,-0.02811
2.884,-0.03801
2.888,-0.02598
2.892,-0.03311
2.896,-0.06339
2.9,-0.08432
2.904,-0.13477
2.908,-0.12891
2.912,-0.04142
2.916,0.10079
2.92,0.23734
2.924,0.43464
2.928,0.65577
2.932,0.84628
2.936,0.95261
2.94,0.97619
2.944,0.86034
2.948,0.68419
2.952,0.47444
2.956,0.19527
2.96,0.03629
2.964,-0.07759
2.968,-0.18184
2.972,-0.18269
2.976,-0.14757
2.98,-0.13083
2.984,-0.07342
2.988,-0.03899
2.992,-0.03716
2.996,-0.02684
3.0,-0.02554
3.004,-0.03141
3.008,-0.02222
3.012,-0.03496
3.016,-0.02969
3.02,0.00088
3.024,-0.01233
3.028,-0.02338
3.032,-0.0102
3.036,-0.03348
3.04,-0.03682
3.044,0.01024
3.048,-0.03546
3.052,-0.00306
3.056,0.00609
3.06,-0.01768
3.064,-0.00715
3.068,0.00556
3.072,-0.0327
3.076,-0.02606
3.08,-0.01716
3.084,-0.03127
3.088,0.01069
3.092,-0.0247
3.096,0.00327
3.1,-0.01665
3.104,0.00717
3.108,-0.0053
3.112,-0.01221
3.116,-0.00583
3.12,0.0296
3.124,0.00279
3.128,0.02592
3.132,0.03522
3.136,0.04449
3.14,0.02511
3.144,0.05327
3.148,0.03017
3.152,0.04316
3.156,0.07962
3.16,0.05231
3.164,0.08694
3.168,0.11751
3.172,0.13646
3.176,0.11856
3.18,0.14137
3.184,0.14469
3.188,0.15769
3.192,0.18524
3.196,0.16102
3.2,0.21412
3.204,0.21099
3.208,0.20901
3.212,0.22753
3.216,0.1924
3.22,0.21875
3.224,0.21684
3.228,0.19163
3.232,0.23117
3.236,0.18337
3.24,0.16223
3.244,0.17784
3.248,0.15077
3.252,0.14923
3.256,0.12473
3.26,0.13387
3.264,0.15884
3.268,0.138
3.272,0.08586
3.276,0.05894
3.28,0.09852
3.284,0.06776
3.288,0.04701
3.292,0.05075
3.296,0.01993
3.3,0.03053
3.304,0.01988
3.308,0.00638
3.312,0.03627
3.316,0.00949
3.32,-0.0055
3.324,-0.01262
3.328,0.02489
3.332,0.01366
3.336,-0.02937
3.34,-0.00356
3.344,-0.00906
3.348,-0.01753
3.352,-0.0369
3.356,0.00837
3.36,-0.01287
3.364,-0.02875
3.368,-0.01731
3.372,-0.00074
3.376,-0.01767
3.38,-0.00077
3.384,-0.02972
3.388,0.0006
3.392,0.00506
3.396,0.00726
3.4,-0.00622
3.404,-0.01172
3.408,-0.00747
3.412,-0.02279
3.416,-0.00309
3.42,0.00345
3.424,-0.00618
3.428,0.00265
3.432,0.00619
3.436,0.00956
3.44,-0.01141
3.444,0.01162
3.448,0.01792
3.452,-0.00319
3.456,0.00661
3.46,-0.00619
3.464,-0.02661
3.468,0.00308
3.472,-0.03231
3.476,-0.02251
3.48,-0.00484
3.484,-0.02801
3.488,0.00872
3.492,0.00221
3.496,-0.01357
3.5,-0.00441
3.504,-0.03568
3.508,-0.02803
3.512,-0.00524
3.516,0.02443
3.52,-0.00855
3.524,-0.0162
3.528,-0.02265
3.532,-0.0162
3.536,0.03352
3.54,-0.02999
3.544,0.02189
3.548,0.0116
3.552,0.00016
3.556,-0.00417
3.56,-0.01904
3.564,0.00914
3.568,0.01069
3.572,-0.00956
3.576,-0.01578
3.58,-0.01669
3.584,-0.00605
3.588,0.00569
3.592,-0.00099
3.596,0.00706
3.6,0.01393
3.604,0.00545
3.608,0.01151
3.612,-0.01314
3.616,0.0118
3.62,0.03042
3.624,0.02043
3.628,0.04942
3.632,0.02444
3.636,0.05216
3.64,0.02502
3.644,0.06028
3.648,0.06674
3.652,0.09743
3.656,0.09055
3.66,0.08761
3.664,0.12144
3.668,0.0951
3.672,0.0767
3.676,0.08623
3.68,0.07933
3.684,0.02903
3.688,0.03218
3.692,0.04537
3.696,0.03403
3.7,-0.00823
3.704,0.01815
3.708,0.02591
3.712,0.01459
3.716,0.01259
3.72,0.01898
3.724,0.00747
3.728,0.01122
3.732,0.01081
3.736,-0.00066
3.74,-0.02085
3.744,0.01035
3.748,0.00633
3.752,0.00013
3.756,-0.00147
3.76,-0.02602
3.764,0.00522
3.768,0.01058
3.772,0.01239
3.776,-0.02187
3.78,-0.02884
3.784,-0.0581
3.788,-0.12074
3.792,-0.12184
3.796,-0.04146
3.8,0.06197
3.804,0.25043
3.808,0.44449
3.812,0.65426
3.816,0.84735
3.82,1.01516
3.824,0.99089
3.828,0.91304
3.832,0.73408
3.836,0.51952
3.84,0.28303
3.844,0.08678
3.848,-0.06748
3.852,-0.14567
3.856,-0.16692
3.86,-0.14224
3.864,-0.06579
3.868,-0.07747
3.872,-0.0512
3.876,-0.00163
3.88,0.00924
3.884,-0.00226
3.888,-0.00894
3.892,0.00343
3.896,0.01605
3.9,-0.00884
3.904,-0.00706
3.908,-0.01472
3.912,0.03032
3.916,-0.00688
3.92,0.02212
3.924,-0.04444
3.928,-0.00484
3.932,0.00794
3.936,-0.01606
3.94,-0.00969
3.944,0.02733
3.948,0.01052
3.952,-0.00305
3.956,0.02162
3.96,0.02892
3.964,0.03544
3.968,-0.00478
3.972,-0.00681
3.976,0.00806
3.98,-0.00337
3.984,0.02856
3.988,0.02932
3.992,0.01928
3.996,0.03423
4.0,0.04114
4.004,0.0327
4.008,0.01733
4.012,0.04318
4.016,0.0456
4.02,0.02923
4.024,0.06602
4.028,0.05327
4.032,0.06062
4.036,0.10109
4.04,0.09959
4.044,0.08604
4.048,0.13707
4.052,0.13515
4.056,0.16785
4.06,0.16723
4.064,0.13064
4.068,0.1738
4.072,0.20522
4.076,0.1842
4.08,0.19379
4.084,0.22554
4.088,0.22311
4.092,0.21528
4.096,0.21662
4.1,0.22442
4.104,0.22345
4.108,0.23671
4.112,0.21936
4.116,0.23444
4.12,0.23097
4.124,0.23681
4.128,0.19264
4.132,0.19429
4.136,0.15564
4.14,0.16795
4.144,0.18445
4.148,0.14235
4.152,0.12663
4.156,0.15042
4.16,0.10598
4.164,0.10033
4.168,0.07785
4.172,0.06186
4.176,0.07165
4.18,0.04312
4.184,0.07125
4.188,0.07752
4.192,0.05502
4.196,0.04747
4.2,0.03752
4.204,0.03619
4.208,0.04302
4.212,0.02885
4.216,-0.00924
4.22,0.01187
4.224,0.02458
4.228,0.03579
4.232,0.01089
4.236,0.00723
4.24,0.00202
4.244,0.0065
4.248,-0.00589
4.252,0.0142
4.256,0.03893
4.26,-0.00366
4.264,0.00865
4.268,0.02318
4.272,0.02011
4.276,-0.01588
4.28,0.02158
4.284,0.02896
4.288,0.00322
4.292,0.03771
4.296,0.02147
4.3,0.01208
4.304,0.01924
4.308,0.02376
4.312,0.02425
4.316,0.0566
4.32,0.02012
4.324,0.02471
4.328,-0.00301
4.332,-0.00065
4.336,0.02526
4.34,-0.00685
4.344,0.01608
4.348,0.01434
4.352,0.02786
4.356,0.00737
4.36,0.00466
4.364,-0.0103
4.368,0.03225
4.372,0.01487
4.376,0.03363
4.38,0.02849
4.384,0.02224
4.388,0.07833
4.392,0.07313
4.396,0.07611
4.4,0.08771
4.404,0.10781
4.408,0.0936
4.412,0.10039
4.416,0.09945
4.42,0.11244
4.424,0.09853
4.428,0.09029
4.432,0.11324
4.436,0.10916
4.44,0.04232
4.444,0.11533
4.448,0.04036
4.452,0.0396
4.456,0.05228
4.46,0.00877
4.464,0.04706
4.468,0.03617
4.472,0.03153
4.476,0.04932
4.48,0.01545
4.484,0.00954
4.488,0.03178
4.492,0.01584
4.496,0.04923
4.5,-0.00696
4.504,0.04118
4.508,0.04528
4.512,0.01721
4.516,0.0162
4.52,0.02532
4.524,0.05042
4.528,0.01041
4.532,0.0216
4.536,0.00489
4.54,-0.03665
4.544,-0.06921
4.548,-0.09094
4.552,-0.05758
4.556,0.02704
4.56,0.13999
4.564,0.34681
4.568,0.55129
4.572,0.77397
4.576,0.94281
4.58,1.02494
4.584,0.97552
4.588,0.8429
4.592,0.65472
4.596,0.41467
4.6,0.2468
4.604,0.04461
4.608,-0.07262
4.612,-0.11751
4.616,-0.12924
4.62,-0.11094
4.624,-0.08834
4.628,-0.03934
4.632,0.00894
4.636,0.01892
4.64,0.03885
4.644,0.02179
4.648,0.01523
4.652,0.03024
4.656,0.01872
4.66,0.01404
4.664,0.02505
4.668,0.02166
4.672,0.01774
4.676,0.01876
4.68,0.02972
4.684,0.04912
4.688,0.03715
4.692,0.05319
4.696,0.01507
4.7,0.0147
4.704,0.02467
4.708,0.01532
4.712,0.01377
4.716,0.02203
4.72,0.01095
4.724,0.03796
4.728,0.05236
4.732,0.03266
4.736,0.01551
4.74,0.03384
4.744,0.04939
4.748,0.01612
4.752,0.01422
4.756,0.03837
4.76,0.04134
4.764,0.02123
4.768,0.06049
4.772,0.06808
4.776,0.09754
4.78,0.06126
4.784,0.06469
4.788,0.11536
4.792,0.08759
4.796,0.09395
4.8,0.10378
4.804,0.1357
4.808,0.14017
4.812,0.1241
4.816,0.15495
4.82,0.17521
4.824,0.16876
4.828,0.16504
4.832,0.18649
4.836,0.20035
4.84,0.23607
4.844,0.24842
4.848,0.24368
4.852,0.23907
4.856,0.24619
4.86,0.25225
4.864,0.23665
4.868,0.24857
4.872,0.24365
4.876,0.24978
4.88,0.22244
4.884,0.24482
4.888,0.18969
4.892,0.20594
4.896,0.18457
4.9,0.15835
4.904,0.18007
4.908,0.17424
4.912,0.1519
4.916,0.12711
4.92,0.1183
4.924,0.11072
4.928,0.10457
4.932,0.09041
4.936,0.07366
4.94,0.07355
4.944,0.08479
4.948,0.06217
4.952,0.07114
4.956,0.05061
4.96,0.02206
4.964,0.05748
4.968,0.0474
4.972,0.03743
4.976,0.06531
4.98,0.04878
4.984,0.02675
4.988,0.0392
4.992,0.01696
4.996,0.02581
5.0,0.03816
5.004,0.00536
5.008,0.03599
5.012,0.03592
5.016,0.01942
5.02,0.04935
5.024,0.0638
5.028,0.03651
5.032,0.0364
5.036,0.04202
5.04,0.02867
5.044,0.01591
5.048,0.04117
5.052,0.04587
5.056,0.0163
5.06,0.0143
5.064,0.03168
5.068,0.02931
5.072,0.04274
5.076,0.03551
5.08,0.02434
5.084,0.01454
5.088,0.04209
5.092,0.02247
5.096,0.01821
5.1,0.0245
5.104,0.03892
5.108,0.02359
5.112,0.0041
5.116,0.01325
5.12,0.01187
5.124,0.02453
5.128,0.0429
5.132,0.02166
5.136,0.06038
5.14,0.03554
5.144,0.02238
5.148,0.05588
5.152,0.04106
5.156,0.01949
5.16,0.03254
5.164,0.03512
5.168,0.01854
5.172,0.04768
5.176,0.00738
5.18,0.00803
5.184,0.01103
5.188,0.00571
5.192,0.05031
5.196,0.0442
5.2,0.03253
5.204,0.03374
5.208,0.03626
5.212,0.00088
5.216,0.02201
5.22,0.01878
5.224,0.02766
5.228,0.03556
5.232,0.03369
5.236,0.0355
5.24,0.02934
5.244,0.0385
5.248,0.02128
5.252,0.05213
5.256,0.03508
5.26,0.01717
5.264,0.01733
5.268,0.0569
5.272,0.04001
5.276,0.01708
5.28,0.03991
5.284,0.0312
5.288,0.03691
5.292,0.01465
5.296,0.01899
5.3,0.02761
5.304,0.05434
5.308,0.04655
5.312,0.02299
5.316,0.03049
5.32,0.00534
5.324,0.0453
5.328,0.02708
5.332,0.04486
5.336,0.02232
5.34,0.04918
5.344,0.05678
5.348,0.02576
5.352,0.02649
5.356,0.01191
5.36,0.03339
5.364,0.03005
5.368,0.05027
5.372,0.02048
5.376,0.02575
5.38,0.03379
5.384,0.01541
5.388,0.04819
5.392,0.05163
5.396,0.04149
5.4,0.05945
5.404,0.06349
5.408,0.08308
5.412,0.07255
5.416,0.08494
5.42,0.11112
5.424,0.13764
5.428,0.14328
5.432,0.15088
5.436,0.13776
5.44,0.12452
5.444,0.14723
5.448,0.11037
5.452,0.08372
5.456,0.07632
5.46,0.05665
5.464,0.04961
5.468,0.0468
5.472,0.0379
5.476,0.0465
5.48,0.01611
5.484,0.03096
5.488,0.00943
5.492,0.03246
5.496,0.04357
5.5,0.06376
5.504,0.00343
5.508,0.02547
5.512,0.03688
5.516,0.02691
5.52,0.01281
5.524,0.00811
5.528,0.04408
5.532,0.00816
5.536,0.03902
5.54,0.03515
5.544,0.01637
5.548,0.00069
5.552,-0.02536
5.556,-0.07069
5.56,-0.0965
5.564,-0.03931
5.568,0.07561
5.572,0.26372
5.576,0.46968
5.58,0.68845
5.584,0.91239
5.588,0.99431
5.592,1.04927
5.596,0.92892
5.6,0.72151
5.604,0.51885
5.608,0.2881
5.612,0.10319
5.616,-0.03678
5.62,-0.13871
5.624,-0.13793
5.628,-0.09882
5.632,-0.09715
5.636,-0.04953
5.64,0.00887
5.644,0.04209
5.648,0.01689
5.652,0.01871
5.656,0.0121
5.66,0.02481
5.664,0.05788
5.668,0.02115
5.672,0.02458
5.676,0.03499
5.68,0.05452
5.684,0.02026
5.688,0.00164
5.692,0.03438
5.696,0.032
5.7,0.04206
5.704,0.03372
5.708,0.0133
5.712,0.01969
5.716,0.02362
5.72,0.01543
5.724,0.01505
5.728,0.03492
5.732,0.02088
5.736,0.02937
5.74,0.02114
5.744,0.01331
5.748,0.05135
5.752,0.03322
5.756,0.03881
5.76,0.05292
5.764,0.0635
5.768,0.04058
5.772,0.03684
5.776,0.05503
5.78,0.0481
5.784,0.0485
5.788,0.06748
5.792,0.08163
5.796,0.09419
5.8,0.07728
5.804,0.09332
5.808,0.06695
5.812,0.10774
5.816,0.16692
5.82,0.13514
5.824,0.1418
5.828,0.18499
5.832,0.16814
5.836,0.16936
5.84,0.19593
5.844,0.21671
5.848,0.21656
5.852,0.23972
5.856,0.24812
5.86,0.23803
5.864,0.23112
5.868,0.23273
5.872,0.25055
5.876,0.27253
5.88,0.25532
5.884,0.23052
5.888,0.22234
5.892,0.20369
5.896,0.20299
5.9,0.20383
5.904,0.18215
5.908,0.18845
5.912,0.19445
5.916,0.18971
5.92,0.15555
5.924,0.116
5.928,0.1056
5.932,0.12672
5.936,0.10209
5.94,0.09803
5.944,0.06526
5.948,0.10234
5.952,0.07223
5.956,0.03227
5.96,0.06175
5.964,0.06433
5.968,0.04308
5.972,0.02444
5.976,0.03628
5.98,0.05094
5.984,0.0108
5.988,0.03087
5.992,5e-05
5.996,0.02734
6.0,0.02687
6.004,0.04137
6.008,0.0516
6.012,0.03399
6.016,0.04068
6.02,0.03475
6.024,0.01449
6.028,0.00518
6.032,0.03352
6.036,0.02975
6.04,0.00468
6.044,0.02423
6.048,0.02094
6.052,0.02572
6.056,0.01587
6.06,0.00468
6.064,0.01325
6.068,0.03093
6.072,0.05334
6.076,0.03895
6.08,-0.01273
6.084,0.00026
6.088,0.01284
6.092,0.02846
6.096,0.03379
6.1,0.03755
6.104,0.03561
6.108,0.03107
6.112,0.02225
6.116,0.01329
6.12,0.02051
6.124,0.01114
6.128,0.03533
6.132,0.00703
6.136,0.0249
6.14,-0.00572
6.144,0.02068
6.148,-0.0144
6.152,0.02189
6.156,0.03043
6.16,0.00872
6.164,-0.0082
6.168,0.04762
6.172,0.03909
6.176,0.03459
6.18,0.01274
6.184,0.01531
6.188,0.01089
6.192,0.01732
6.196,0.03591
6.2,0.0272
6.204,0.00916
6.208,0.02402
6.212,0.03855
6.216,0.01671
6.22,0.00585
6.224,0.00412
6.228,0.00565
6.232,0.03571
6.236,0.01919
6.24,0.01858
6.244,0.02731
6.248,0.01082
6.252,-0.01428
6.256,-0.0036
6.26,0.04241
6.264,0.0396
6.268,0.02628
6.272,0.03199
6.276,0.03251
6.28,-0.00135
6.284,0.03386
6.288,0.06398
6.292,0.02522
6.296,0.03261
6.3,0.0298
6.304,0.02185
6.308,0.03114
6.312,0.01863
6.316,0.051
6.32,0.04033
6.324,0.07914
6.328,0.06999
6.332,0.05365
6.336,0.08377
6.34,0.11075
6.344,0.1003
6.348,0.11897
6.352,0.11695
6.356,0.11391
6.36,0.10323
6.364,0.07306
6.368,0.079
6.372,0.07111
6.376,0.06348
6.38,0.02805
6.384,0.02682
6.388,0.01736
6.392,0.03489
6.396,0.01335
6.4,0.00032
6.404,0.01901
6.408,0.01609
6.412,-0.00194
6.416,0.04873
6.42,0.0234
6.424,-0.01451
6.428,0.02108
6.432,0.04178
6.436,0.00861
6.44,0.01684
6.444,-0.0059
6.448,-0.00309
6.452,0.00897
6.456,-0.01984
6.46,-0.03576
6.464,-0.0317
6.468,-0.07819
6.472,-0.09272
6.476,-0.10595
6.48,-0.05989
6.484,0.01378
6.488,0.16632
6.492,0.37666
6.496,0.57221
6.5,0.80676
6.504,0.95249
6.508,1.0109
6.512,0.98733
6.516,0.80019
6.52,0.59654
6.524,0.39066
6.528,0.13652
6.532,0.00761
6.536,-0.1117
6.54,-0.17551
6.544,-0.16719
6.548,-0.10249
6.552,-0.03278
6.556,-0.03045
6.56,-0.00406
6.564,0.03005
6.568,0.02903
6.572,0.00644
6.576,0.0078
6.58,0.01064
6.584,0.00344
6.588,0.01326
6.592,0.0307
6.596,0.00353
6.6,0.01806
6.604,0.00474
6.608,0.02003
6.612,0.00796
6.616,0.00537
6.62,0.00791
6.624,-0.01706
6.628,0.02684
6.632,0.01517
6.636,-0.00141
6.64,-0.00432
6.644,-0.00844
6.648,0.01482
6.652,-0.01102
6.656,0.00843
6.66,0.0001
6.664,0.03592
6.668,0.04396
6.672,-0.00172
6.676,0.04173
6.68,0.02884
6.684,0.00904
6.688,0.05769
6.692,0.02303
6.696,0.03543
6.7,0.02832
6.704,0.06259
6.708,0.0673
6.712,0.03214
6.716,0.05766
6.72,0.0973
6.724,0.08245
6.728,0.08981
6.732,0.10504
6.736,0.09933
6.74,0.12684
6.744,0.14734
6.748,0.1471
6.752,0.17381
6.756,0.17131
6.76,0.1905
6.764,0.22648
6.768,0.19232
6.772,0.18803
6.776,0.23537
6.78,0.22497
6.784,0.23169
6.788,0.24269
6.792,0.20384
6.796,0.21335
6.8,0.20534
6.804,0.21063
6.808,0.18635
6.812,0.17581
6.816,0.15852
6.82,0.18639
6.824,0.15036
6.828,0.16217
6.832,0.12278
6.836,0.13124
6.84,0.12419
6.844,0.07897
6.848,0.08431
6.852,0.07826
6.856,0.11
6.86,0.07174
6.864,0.05725
6.868,0.03674
6.872,0.05247
6.876,0.04144
6.88,0.04132
6.884,0.04056
6.888,0.00607
6.892,0.01406
6.896,0.00637
6.9,0.02878
6.904,0.01705
6.908,0.01639
6.912,-0.00938
6.916,-0.011
6.92,0.04261
6.924,-0.0051
6.928,-0.0162
6.932,0.0181
6.936,0.01896
6.94,0.00502
6.944,-0.00557
6.948,0.04348
6.952,0.00656
6.956,-0.016
6.96,0.00214
6.964,-0.01834
6.968,-0.0263
6.972,-0.01099
6.976,0.02533
6.98,-0.00691
6.984,0.00508
6.988,-0.00745
6.992,-0.00938
6.996,0.00153
7.0,-0.01731
7.004,0.01958
7.008,0.03869
7.012,-0.00075
7.016,0.00486
7.02,0.01361
7.024,-0.02055
7.028,-0.02466
7.032,0.03591
7.036,0.03345
7.04,0.00831
7.044,0.01788
7.048,0.00413
7.052,-0.00252
7.056,0.00839
7.06,-0.0124
7.064,-0.00537
7.068,-0.00646
7.072,0.00504
7.076,0.00426
7.08,-0.00842
7.084,-0.01373
7.088,-0.01339
7.092,0.00285
7.096,-0.02064
7.1,0.01092
7.104,0.00373
7.108,-0.01726
7.112,-0.01634
7.116,0.02203
7.12,-0.01263
7.124,-0.0139
7.128,0.00275
7.132,0.00877
7.136,0.01529
7.14,0.00102
7.144,-0.0189
7.148,-0.0119
7.152,-0.02116
7.156,-0.0381
7.16,-0.00045
7.164,0.00858
7.168,0.01275
7.172,0.01789
7.176,0.04164
7.18,0.02363
7.184,0.07342
7.188,0.03286
7.192,0.09349
7.196,0.07837
7.2,0.07549
7.204,0.10377
7.208,0.0887
7.212,0.0743
7.216,0.05764
7.22,0.05606
7.224,0.04998
7.228,0.06204
7.232,0.02252
7.236,0.02371
7.24,0.00605
7.244,0.01039
7.248,0.01395
7.252,-0.00132
7.256,0.00309
7.26,0.00071
7.264,-0.01549
7.268,-0.04073
7.272,-0.01219
7.276,0.00998
7.28,-0.01855
7.284,0.01061
7.288,0.01507
7.292,-0.00407
7.296,-0.01303
7.3,-0.01034
7.304,-0.02648
7.308,0.00597
7.312,-0.02087
7.316,-0.01425
7.32,-0.05852
7.324,-0.0713
7.328,-0.12762
7.332,-0.10427
7.336,-0.10513
7.34,0.04169
7.344,0.18752
7.348,0.39945
7.352,0.59751
7.356,0.80652
7.36,0.91032
7.364,0.98425
7.368,0.88776
7.372,0.78028
7.376,0.51354
7.38,0.30627
7.384,0.10246
7.388,-0.05998
7.392,-0.14442
7.396,-0.19376
7.4,-0.14214
7.404,-0.10854
7.408,-0.09587
7.412,-0.04751
7.416,-0.02984
7.42,-0.00254
7.424,-0.01174
7.428,-0.03672
7.432,0.00919
7.436,-0.02236
7.44,-0.00732
7.444,0.01839
7.448,-0.00815
7.452,-0.01202
7.456,-0.0244
7.46,0.00989
7.464,-0.00111
7.468,-0.02635
7.472,-0.00932
7.476,-0.02363
7.48,-0.00159
7.484,-0.0048
7.488,-0.02221
7.492,-0.00877
7.496,-0.01298
7.5,-0.00933
7.504,0.01075
7.508,-0.02302
7.512,-0.01627
7.516,-0.0214
7.52,0.01097
7.524,-0.02944
7.528,0.00088
7.532,0.0193
7.536,-0.00039
7.54,0.00409
7.544,0.00716
7.548,0.00508
7.552,-0.01736
7.556,0.01776
7.56,0.02135
7.564,0.04082
7.568,0.02741
7.572,0.06821
7.576,0.0515
7.58,0.07487
7.584,0.08993
7.588,0.04319
7.592,0.08703
7.596,0.09973
7.6,0.13116
7.604,0.1413
7.608,0.16468
7.612,0.12364
7.616,0.16912
7.62,0.18419
7.624,0.1987
7.628,0.19498
7.632,0.20761
7.636,0.17541
7.64,0.20837
7.644,0.20799
7.648,0.17132
7.652,0.22795
7.656,0.19021
7.66,0.1889
7.664,0.18952
7.668,0.17143
7.672,0.15236
7.676,0.14045
7.68,0.15757
7.684,0.13534
7.688,0.12223
7.692,0.09894
7.696,0.09845
7.7,0.07735
7.704,0.08096
7.708,0.06751
7.712,0.05069
7.716,0.03615
7.72,0.02853
7.724,0.01561
7.728,0.01189
7.732,0.02736
7.736,-0.01048
7.74,0.00312
7.744,-0.01337
7.748,0.00944
7.752,-0.00035
7.756,0.0209
7.76,-0.00418
7.764,0.00623
7.768,-0.01055
7.772,-0.02768
7.776,-0.0156
7.78,-0.00484
7.784,-0.0293
7.788,0.00021
7.792,-0.03445
7.796,-0.01795
7.8,-0.00793
7.804,-0.02541
7.808,-0.04063
7.812,-0.03994
7.816,-0.02351
7.82,-0.03842
7.824,0.00289
7.828,-0.0099
7.832,-0.04413
7.836,-0.00115
7.84,-0.01724
7.844,-0.00977
7.848,-0.02467
7.852,-0.01329
7.856,-0.01779
7.86,-0.04093
7.864,-0.04152
7.868,0.0095
7.872,-0.01413
7.876,-0.03695
7.88,-0.03971
7.884,-0.01996
7.888,-0.04695
7.892,-0.00337
7.896,-0.0066
7.9,-0.02921
7.904,-0.01115
7.908,-0.02031
7.912,-0.00811
7.916,-0.02778
7.92,0.00677
7.924,0.00325
7.928,-0.02262
7.932,-0.03989
7.936,0.00314
7.94,-0.01997
7.944,-0.04071
7.948,-0.03712
7.952,-0.0271
7.956,-0.02305
7.96,-0.03493
7.964,-0.02769
7.968,-0.00063
7.972,-0.02548
7.976,-0.01877
7.98,-0.03845
7.984,-0.01762
7.988,-0.03315
7.992,-0.03756
7.996,-0.03698
8.0,0.012
8.004,-0.00425
8.008,-0.01631
8.012,-0.02097
8.016,-0.03628
8.02,-0.01851
8.024,-0.01651
8.028,-0.00852
8.032,-0.00507
8.036,-0.02355
8.04,-0.02202
8.044,-0.01774
8.048,-0.04903
8.052,-0.0265
8.056,-0.00253
8.06,-0.02448
8.064,0.00489
8.068,-0.05296
8.072,-0.05627
8.076,-0.03249
8.08,-0.02597
8.084,-0.03172
8.088,-0.00063
8.092,-0.02805
8.096,-0.01015
8.1,-0.02138
8.104,-0.02743
8.108,-0.04439
8.112,-0.0144
8.116,-0.04532
8.12,-0.01849
8.124,-0.01342
8.128,0.02217
8.132,0.02917
8.136,0.01704
8.14,0.05985
8.144,0.04857
8.148,0.04624
8.152,0.08431
8.156,0.08943
8.16,0.09691
8.164,0.0831
8.168,0.05491
8.172,0.04396
8.176,0.03651
8.18,0.00701
8.184,0.03315
8.188,-0.01089
8.192,0.00843
8.196,-0.02971
8.2,-0.00499
8.204,-0.00424
8.208,-0.02822
8.212,-0.03165
8.216,-0.03377
8.22,-0.02245
8.224,-0.03995
8.228,-0.02335
8.232,-0.02652
8.236,-0.05035
8.24,-0.03055
8.244,-0.05509
8.248,-0.02433
8.252,-0.03493
8.256,-0.02492
8.26,-0.02338
8.264,-0.0042
8.268,-0.05292
8.272,-0.03066
8.276,-0.06062
8.28,-0.09852
8.284,-0.14108
8.288,-0.1274
8.292,-0.09658
8.296,0.02132
8.3,0.1892
8.304,0.40434
8.308,0.62398
8.312,0.79839
8.316,0.92181
8.32,0.97419
8.324,0.86793
8.328,0.72649
8.332,0.47308
8.336,0.27341
8.34,0.04285
8.344,-0.08732
8.348,-0.17944
8.352,-0.23455
8.356,-0.19022
8.36,-0.11832
8.364,-0.06879
8.368,-0.03133
8.372,-0.02108
8.376,-0.01922
8.38,-0.03952
8.384,-0.03009
8.388,-0.02965
8.392,-0.04042
8.396,-0.02784
8.4,-0.03727
8.404,-0.0316
8.408,-0.04086
8.412,-0.02356
8.416,-0.0366
8.42,-0.01171
8.424,-0.03013
8.428,-0.03718
8.432,-0.04896
8.436,-0.04162
8.44,-0.01775
8.444,-0.02042
8.448,-0.05506
8.452,-0.03607
8.456,-0.02693
8.46,-0.04945
8.464,-0.03926
8.468,0.00164
8.472,-0.03408
8.476,-0.0239
8.48,-0.01045
8.484,-0.02211
8.488,-0.00104
8.492,-0.01352
8.496,-0.01414
8.5,-0.01198
8.504,-0.0043
8.508,-0.00916
8.512,0.00089
8.516,-0.02409
8.52,0.00485
8.524,0.01656
8.528,0.00652
8.532,0.01177
8.536,0.03688
8.54,0.05373
8.544,0.04098
8.548,0.08041
8.552,0.07752
8.556,0.11907
8.56,0.09566
8.564,0.12174
8.568,0.14345
8.572,0.18049
8.576,0.15689
8.58,0.16193
8.584,0.1763
8.588,0.18142
8.592,0.18774
8.596,0.18882
8.6,0.19759
8.604,0.1932
8.608,0.15882
8.612,0.17997
8.616,0.16894
8.62,0.20919
8.624,0.15323
8.628,0.16597
8.632,0.14714
8.636,0.13995
8.64,0.15766
8.644,0.09992
8.648,0.07828
8.652,0.07702
8.656,0.06062
8.66,0.05341
8.664,0.02902
8.668,0.02257
8.672,0.0239
8.676,0.01841
8.68,0.01037
8.684,-0.00039
8.688,0.0017
8.692,-0.01269
8.696,-0.01179
8.7,-0.00355
8.704,-0.02781
8.708,-0.02054
8.712,-0.00737
8.716,-0.00157
8.72,-0.04118
8.724,-0.0272
8.728,-0.02217
8.732,-0.02842
8.736,-0.04661
8.74,-0.05357
8.744,-0.01766
8.748,-0.00905
8.752,-0.02603
8.756,-0.00012
8.76,-0.05171
8.764,-0.02576
8.768,-0.02267
8.772,-0.04196
8.776,-0.02666
8.78,-0.02263
8.784,-0.05178
8.788,-0.04015
8.792,-0.02371
8.796,0.00278
8.8,-0.03065
8.804,0.01174
8.808,0.00676
8.812,-0.04279
8.816,-0.04451
8.82,-0.04289
8.824,-0.0358
8.828,-0.03112
8.832,-0.03031
8.836,-0.00909
8.84,-0.002
8.844,-0.05164
8.848,-0.03057
8.852,-0.08379
8.856,-0.02801
8.86,-0.04857
8.864,-0.03361
8.868,-0.03563
8.872,-0.0403
8.876,-0.03283
8.88,-0.02673
8.884,-0.03092
8.888,-0.00322
8.892,-0.03306
8.896,-0.02864
8.9,-0.02566
8.904,-0.0114
8.908,-0.01876
8.912,-0.0478
8.916,-0.04848
8.92,-0.02952
8.924,-0.05126
8.928,-0.03748
8.932,-0.05098
8.936,-0.03536
8.94,-0.01978
8.944,-0.01397
8.948,-0.03123
8.952,-0.01076
8.956,-0.03513
8.96,-0.03499
8.964,-0.04834
8.968,-0.05626
8.972,-0.04455
8.976,0.00402
8.98,-0.03277
8.984,-0.0504
8.988,-0.00861
8.992,-0.031
8.996,-0.01355
9.0,-0.02014
9.004,0.00184
9.008,-0.01413
9.012,-0.03527
9.016,-0.02475
9.02,-0.03945
9.024,-0.04803
9.028,-0.03046
9.032,-0.03076
9.036,-0.00815
9.04,-0.04603
9.044,-0.01522
9.048,-0.03068
9.052,-0.03387
9.056,-0.0416
9.06,-0.05373
9.064,-0.03504
9.068,-0.01173
9.072,-0.01735
9.076,-0.0437
9.08,-0.01253
9.084,-0.01338
9.088,-0.05055
9.092,-0.03347
9.096,-0.03583
9.1,-0.01033
9.104,-0.03143
9.108,-0.03952
9.112,-0.04978
9.116,-0.03861
9.12,-0.04627
9.124,-0.02727
9.128,-0.03453
9.132,-0.02943
9.136,-0.03419
9.14,-0.03437
9.144,-0.03121
9.148,-0.02084
9.152,-0.01736
9.156,-0.02132
9.16,-0.0238
9.164,-0.01254
9.168,-0.0215
9.172,-0.02067
9.176,-0.03959
9.18,0.00224
9.184,-0.00137
9.188,-0.00022
9.192,-0.01158
9.196,0.01681
9.2,0.00994
9.204,0.0455
9.208,0.05591
9.212,0.05129
9.216,0.04935
9.22,0.07521
9.224,0.07595
9.228,0.06857
9.232,0.04898
9.236,0.05659
9.24,0.03709
9.244,0.02216
9.248,0.00313
9.252,8e-05
9.256,0.00563
9.26,0.01308
9.264,-0.04436
9.268,-0.02606
9.272,-0.03941
9.276,-0.02834
9.28,-0.00681
9.284,-0.0327
9.288,-0.04366
9.292,-0.00535
9.296,-0.02313
9.3,-0.03236
9.304,-0.06131
9.308,-0.02965
9.312,-0.0097
9.316,-0.024
9.32,-0.02691
9.324,-0.02098
9.328,-0.01705
9.332,-0.01818
9.336,-0.03381
9.34,-0.0548
9.344,-0.07469
9.348,-0.10253
9.352,-0.13971
9.356,-0.04422
9.36,0.07903
9.364,0.23984
9.368,0.42554
9.372,0.68106
9.376,0.85917
9.38,0.96274
9.384,0.95926
9.388,0.87506
9.392,0.68552
9.396,0.4116
9.4,0.24818
9.404,0.04738
9.408,-0.09163
9.412,-0.17202
9.416,-0.18252
9.42,-0.1752
9.424,-0.13146
9.428,-0.06556
9.432,-0.08243
9.436,-0.0513
9.44,-0.03187
9.444,-0.03965
9.448,-0.01245
9.452,-0.01419
9.456,-0.01187
9.46,-3e-05
9.464,0.00257
9.468,-0.0092
9.472,-0.00697
9.476,-0.02292
9.48,-0.03951
9.484,-0.02765
9.488,0.00248
9.492,-0.00495
9.496,-0.0291
9.5,-0.02562
9.504,-0.02608
9.508,0.00295
9.512,-0.02526
9.516,-0.00355
9.52,-0.02723
9.524,-0.04873
9.528,0.01214
9.532,-0.03022
9.536,-0.01557
9.54,-0.00643
9.544,-0.00054
9.548,-0.01201
9.552,0.00975
9.556,-0.02233
9.56,0.01221
9.564,-0.00851
9.568,0.00969
9.572,-0.0247
9.576,0.00448
9.58,0.01419
9.584,0.05434
9.588,0.02224
9.592,0.04057
9.596,0.0389
9.6,0.07435
9.604,0.06717
9.608,0.09072
9.612,0.09132
9.616,0.10091
9.62,0.1338
9.624,0.14567
9.628,0.16333
9.632,0.14468
9.636,0.16168
9.64,0.18389
9.644,0.18482
9.648,0.18237
9.652,0.19992
9.656,0.18806
9.66,0.20827
9.664,0.1953
9.668,0.18327
9.672,0.22094
9.676,0.18836
9.68,0.20414
9.684,0.1745
9.688,0.16951
9.692,0.1656
9.696,0.14893
9.7,0.12066
9.704,0.13537
9.708,0.13303
9.712,0.11501
9.716,0.08977
9.72,0.06295
9.724,0.07545
9.728,0.0806
9.732,0.049
9.736,0.04977
9.74,0.03074
9.744,0.01628
9.748,0.01868
9.752,0.03099
9.756,0.00969
9.76,0.01925
9.764,-0.00247
9.768,0.01655
9.772,-0.02075
9.776,-0.01888
9.78,-0.0277
9.784,-0.00434
9.788,-0.04776
9.792,-0.03266
9.796,-0.01535
9.8,-0.00456
9.804,-0.0242
9.808,-0.03156
9.812,-0.00464
9.816,-0.03144
9.82,-0.00097
9.824,-0.00786
9.828,-0.02341
9.832,-0.02429
9.836,-0.01661
9.84,0.00201
9.844,0.00119
9.848,0.01646
9.852,-0.03183
9.856,-0.01704
9.86,-0.00273
9.864,-2e-05
9.868,0.00028
9.872,-0.02227
9.876,0.01149
9.88,0.00155
9.884,0.02071
9.888,-0.00933
9.892,-0.0139
9.896,-0.01272
9.9,0.00334
9.904,0.00307
9.908,-0.02186
9.912,-0.01727
9.916,-0.00082
9.92,-0.00426
9.924,0.00714
9.928,-0.01384
9.932,-0.03978
9.936,-0.00643
9.94,-0.02519
9.944,-0.01965
9.948,-0.01521
9.952,0.00139
9.956,-0.04369
9.96,-0.02902
9.964,-0.01957
9.968,-0.01609
9.972,-0.00906
9.976,-0.00272
9.98,-0.00895
9.984,-0.02283
9.988,-0.02766
9.992,3e-05
9.996,-0.00093
