t_seg,ecg_mV
0.0,-0.00604
0.004,0.16983
0.008,0.33301
0.012,0.55676
0.016,0.76764
0.02,0.93667
0.024,0.97989
0.028,0.96162
0.032,0.78218
0.036,0.58759
0.04,0.36063
0.044,0.14832
0.048,-0.00676
0.052,-0.12185
0.056,-0.17697
0.06,-0.17176
0.064,-0.12313
0.068,-0.08958
0.072,-0.06404
0.076,-0.03105
0.08,-0.02969
0.084,-0.00626
0.088,-0.00525
0.092,0.01454
0.096,0.02012
0.1,-0.00702
0.104,-0.00709
0.108,0.01655
0.112,-0.01848
0.116,0.00278
0.12,-0.00958
0.124,-0.02105
0.128,0.00523
0.132,-0.0083
0.136,-0.0144
0.14,-0.01384
0.144,-0.00252
0.148,-0.01006
0.152,-0.01775
0.156,0.00745
0.16,0.00073
0.164,-0.0259
0.168,-0.00485
0.172,-0.02509
0.176,0.02224
0.18,0.00534
0.184,0.00258
0.188,-0.00011
0.192,-0.01941
0.196,-0.00041
0.2,0.02501
0.204,0.03332
0.208,0.02126
0.212,0.04646
0.216,0.0134
0.22,0.03688
0.224,0.02721
0.228,0.04275
0.232,0.08358
0.236,0.07096
0.24,0.05447
0.244,0.09866
0.248,0.08415
0.252,0.12094
0.256,0.13273
0.26,0.13798
0.264,0.14235
0.268,0.17968
0.272,0.16454
0.276,0.1674
0.28,0.18007
0.284,0.20653
0.288,0.23193
0.292,0.20884
0.296,0.22586
0.3,0.21997
0.304,0.2307
0.308,0.21941
0.312,0.21465
0.316,0.21246
0.32,0.2036
0.324,0.19664
0.328,0.20114
0.332,0.19263
0.336,0.17311
0.34,0.15736
0.344,0.16482
0.348,0.15308
0.352,0.13125
0.356,0.12269
0.36,0.11879
0.364,0.08395
0.368,0.07885
0.372,0.06567
0.376,0.07659
0.38,0.03368
0.384,0.03636
0.388,0.04317
0.392,0.01932
0.396,0.01845
0.4,0.02428
0.404,0.01542
0.408,0.03079
0.412,0.02402
0.416,0.01701
0.42,-0.00935
0.424,0.01596
0.428,0.00941
0.432,0.00476
0.436,0.01248
0.44,0.00632
0.444,0.00457
0.448,-0.02745
0.452,-0.00119
0.456,-0.01231
0.46,0.01913
0.464,0.01404
0.468,-0.0109
0.472,-0.00844
0.476,0.00554
0.48,-0.00555
0.484,-0.00231
0.488,0.01373
0.492,-0.01687
0.496,-0.00669
0.5,-0.01288
0.504,0.01371
0.508,0.03076
0.512,0.02473
0.516,0.00572
0.52,-0.00868
0.524,0.01382
0.528,0.02252
0.532,-0.00057
0.536,0.01346
0.54,-0.00256
0.544,0.02543
0.548,0.02955
0.552,-0.00755
0.556,0.02134
0.56,-0.00614
0.564,-0.02824
0.568,9e-05
0.572,-0.00437
0.576,-0.00186
0.58,0.01266
0.584,0.01996
0.588,0.01433
0.592,0.00086
0.596,0.00696
0.6,0.02201
0.604,0.0269
0.608,0.02032
0.612,0.03834
0.616,0.03169
0.62,0.03737
0.624,0.07665
0.628,0.07131
0.632,0.08392
0.636,0.07054
0.64,0.09901
0.644,0.07848
0.648,0.09679
0.652,0.13692
0.656,0.09056
0.66,0.09576
0.664,0.09254
0.668,0.07161
0.672,0.05852
0.676,0.07147
0.68,0.01559
0.684,0.02679
0.688,0.02632
0.692,0.04823
0.696,0.00773
0.7,0.00813
0.704,0.01855
0.708,0.02416
0.712,0.01637
0.716,0.02455
0.72,0.02902
0.724,0.00512
0.728,0.02968
0.732,-0.00405
0.736,0.04282
0.74,0.0041
0.744,0.01125
0.748,0.02971
0.752,0.00455
0.756,-0.00521
0.76,0.02301
0.764,-0.00389
0.768,-0.05084
0.772,-0.0789
0.776,-0.07117
0.78,-0.08467
0.784,-0.01537
0.788,0.11714
0.792,0.30432
0.796,0.51689
0.8,0.73756
0.804,0.8876
0.808,1.00357
0.812,1.00107
0.816,0.86948
0.82,0.66348
0.824,0.44056
0.828,0.2106
0.832,0.02547
0.836,-0.08464
0.84,-0.15249
0.844,-0.17082
0.848,-0.11345
0.852,-0.07889
0.856,-0.02339
0.86,-0.01574
0.864,0.01414
0.868,0.02636
0.872,0.03691
0.876,0.00292
0.88,0.02627
0.884,0.00516
0.888,0.00586
0.892,0.03849
0.896,-0.003
0.9,0.01735
0.904,0.00769
0.908,0.0536
0.912,0.02314
0.916,0.01495
0.92,0.0362
0.924,0.01151
0.928,0.02152
0.932,0.02026
0.936,-0.00081
0.94,-0.03414
0.944,0.00965
0.948,0.01992
0.952,0.02749
0.956,0.00998
0.96,0.03949
0.964,0.0531
0.968,0.01645
0.972,0.01199
0.976,0.01204
0.98,0.02244
0.984,0.03404
0.988,0.03259
0.992,0.01435
0.996,0.04127
1.0,0.03372
1.004,0.0682
1.008,0.06427
1.012,0.04869
1.016,0.07907
1.02,0.10267
1.024,0.09718
1.028,0.1201
1.032,0.11666
1.036,0.09714
1.04,0.14759
1.044,0.17011
1.048,0.14504
1.052,0.17605
1.056,0.19095
1.06,0.1689
1.064,0.2047
1.068,0.21941
1.072,0.21974
1.076,0.22291
1.08,0.21968
1.084,0.22515
1.088,0.22405
1.092,0.23249
1.096,0.2162
1.1,0.254
1.104,0.2398
1.108,0.2439
1.112,0.20653
1.116,0.21124
1.12,0.19916
1.124,0.20179
1.128,0.17224
1.132,0.14755
1.136,0.12527
1.14,0.14396
1.144,0.1339
1.148,0.10808
1.152,0.08612
1.156,0.10932
1.16,0.06974
1.164,0.07238
1.168,0.0642
1.172,0.06982
1.176,0.06526
1.18,0.0337
1.184,0.05642
1.188,0.05196
1.192,0.02873
1.196,0.02282
1.2,0.06867
1.204,0.02617
1.208,0.01717
1.212,0.03024
1.216,0.02795
1.22,0.01442
1.224,0.01079
1.228,0.02028
1.232,0.03515
1.236,0.03765
1.24,0.03603
1.244,-0.00517
1.248,0.04175
1.252,0.0247
1.256,0.03698
1.26,0.0031
1.264,0.02592
1.268,0.00866
1.272,0.00058
1.276,0.03579
1.28,0.0501
1.284,0.02923
1.288,0.01621
1.292,0.02436
1.296,0.03974
1.3,0.0422
1.304,0.01956
1.308,0.02738
1.312,0.01248
1.316,0.03325
1.32,0.0287
1.324,0.04883
1.328,0.02165
1.332,0.03462
1.336,0.02048
1.34,0.01888
1.344,0.01094
1.348,0.0311
1.352,0.01199
1.356,0.03506
1.36,0.01082
1.364,0.02641
1.368,0.01912
1.372,0.04475
1.376,0.00664
1.38,0.04265
1.384,0.02322
1.388,0.0519
1.392,0.04155
1.396,0.03969
1.4,0.02186
1.404,0.02419
1.408,0.05232
1.412,0.00724
1.416,0.02089
1.42,0.04621
1.424,0.01499
1.428,0.0128
1.432,0.05217
1.436,0.03221
1.44,0.03802
1.444,0.07202
1.448,0.08947
1.452,0.0773
1.456,0.08989
1.46,0.10043
1.464,0.12863
1.468,0.10422
1.472,0.13852
1.476,0.09984
1.48,0.12672
1.484,0.15315
1.488,0.10712
1.492,0.07979
1.496,0.06775
1.5,0.06426
1.504,0.0727
1.508,0.05655
1.512,0.03829
1.516,0.03756
1.52,0.07283
1.524,0.0304
1.528,0.01694
1.532,0.02255
1.536,0.03575
1.54,0.05394
1.544,0.04001
1.548,0.02785
1.552,-0.00909
1.556,0.03488
1.56,0.01585
1.564,0.03886
1.568,0.05395
1.572,-0.00113
1.576,0.04824
1.58,0.0303
1.584,0.02859
1.588,0.01841
1.592,-0.04609
1.596,-0.04702
1.6,-0.06925
1.604,-0.08005
1.608,-0.00684
1.612,0.14449
1.616,0.33849
1.62,0.57677
1.624,0.72985
1.628,0.91341
1.632,1.00307
1.636,1.00468
1.64,0.89961
1.644,0.69173
1.648,0.47147
1.652,0.24268
1.656,0.06611
1.66,-0.07959
1.664,-0.11695
1.668,-0.1617
1.672,-0.14825
1.676,-0.09137
1.68,-0.00912
1.684,0.01465
1.688,0.00751
1.692,0.03301
1.696,0.02882
1.7,0.02931
1.704,0.04372
1.708,0.05108
1.712,0.04775
1.716,0.03211
1.72,0.03723
1.724,0.04351
1.728,0.0297
1.732,0.00651
1.736,0.01932
1.74,0.05846
1.744,0.04203
1.748,0.02257
1.752,0.03429
1.756,0.04085
1.76,0.04156
1.764,0.07218
1.768,0.03692
1.772,0.0393
1.776,0.03616
1.78,0.0511
1.784,0.00188
1.788,0.04197
1.792,0.04621
1.796,0.02785
1.8,0.02085
1.804,0.03748
1.808,0.02732
1.812,0.06317
1.816,0.03063
1.82,0.06177
1.824,0.0692
1.828,0.06376
1.832,0.05578
1.836,0.09058
1.84,0.09511
1.844,0.11585
1.848,0.0853
1.852,0.09008
1.856,0.13433
1.86,0.13714
1.864,0.14823
1.868,0.16048
1.872,0.1392
1.876,0.18987
1.88,0.19093
1.884,0.23764
1.888,0.19226
1.892,0.22203
1.896,0.24859
1.9,0.25223
1.904,0.20538
1.908,0.24967
1.912,0.22762
1.916,0.249
1.92,0.25447
1.924,0.25952
1.928,0.24522
1.932,0.2304
1.936,0.23067
1.94,0.22268
1.944,0.21982
1.948,0.20787
1.952,0.18948
1.956,0.18035
1.96,0.17751
1.964,0.14662
1.968,0.14156
1.972,0.13564
1.976,0.12257
1.98,0.11333
1.984,0.08806
1.988,0.0887
1.992,0.07139
1.996,0.07985
2.0,0.04801
2.004,0.08204
2.008,0.0595
2.012,0.05751
2.016,0.05915
2.02,0.03035
2.024,0.01963
2.028,0.03193
2.032,0.04102
2.036,0.01019
2.04,0.04563
2.044,0.05816
2.048,0.03688
2.052,0.04454
2.056,0.00348
2.06,0.03787
2.064,0.04244
2.068,0.02518
2.072,0.04165
2.076,0.02984
2.08,0.02055
2.084,0.02366
2.088,0.06361
2.092,0.0104
2.096,0.04121
2.1,0.02966
2.104,0.02824
2.108,0.0453
2.112,0.02664
2.116,0.03387
2.12,0.02429
2.124,0.03357
2.128,0.00503
2.132,0.04429
2.136,0.03614
2.14,0.04196
2.144,0.03633
2.148,0.01118
2.152,0.01696
2.156,0.03637
2.16,0.04153
2.164,0.01246
2.168,0.00265
2.172,0.01897
2.176,0.02045
2.18,0.03768
2.184,0.02394
2.188,0.00975
2.192,0.03486
2.196,0.04085
2.2,0.04061
2.204,0.03838
2.208,0.02419
2.212,0.02448
2.216,0.04926
2.22,0.031
2.224,0.03361
2.228,0.04259
2.232,0.04245
2.236,0.02969
2.24,0.01006
2.244,0.03585
2.248,0.04023
2.252,0.04442
2.256,0.05744
2.26,0.05162
2.264,0.03409
2.268,0.08653
2.272,0.08662
2.276,0.115
2.28,0.09823
2.284,0.121
2.288,0.11139
2.292,0.12397
2.296,0.12143
2.3,0.16525
2.304,0.12166
2.308,0.10206
2.312,0.09237
2.316,0.09341
2.32,0.06443
2.324,0.07508
2.328,0.02485
2.332,0.03495
2.336,0.0219
2.34,0.01905
2.344,0.02691
2.348,0.03811
2.352,0.01855
2.356,0.03927
2.36,0.01645
2.364,0.03367
2.368,0.03806
2.372,0.02506
2.376,0.01817
2.38,0.05478
2.384,0.02808
2.388,0.01443
2.392,0.0426
2.396,0.0371
2.4,0.01734
2.404,0.00147
2.408,-0.03374
2.412,-0.01238
2.416,-0.06233
2.42,-0.09608
2.424,-0.08164
2.428,-0.00117
2.432,0.14007
2.436,0.33407
2.44,0.51733
2.444,0.74275
2.448,0.91679
2.452,1.02849
2.456,1.00931
2.46,0.90279
2.464,0.68396
2.468,0.4769
2.472,0.25474
2.476,0.06737
2.48,-0.07448
2.484,-0.14728
2.488,-0.13332
2.492,-0.11021
2.496,-0.07202
2.5,-0.01443
2.504,-0.00802
2.508,0.02648
2.512,0.01619
2.516,0.02295
2.52,0.04185
2.524,0.02559
2.528,0.03663
2.532,0.03107
2.536,0.01118
2.54,0.00552
2.544,0.0128
2.548,0.00834
2.552,0.04076
2.556,0.00273
2.56,0.01626
2.564,0.01691
2.568,0.03282
2.572,0.0303
2.576,0.02327
2.58,-0.00278
2.584,0.03371
2.588,0.01633
2.592,0.04207
2.596,0.02095
2.6,0.04491
2.604,0.04187
2.608,0.01254
2.612,0.00706
2.616,0.0091
2.62,0.04853
2.624,0.0238
2.628,0.01841
2.632,0.01584
2.636,0.0452
2.64,0.04382
2.644,0.03042
2.648,0.0777
2.652,0.0687
2.656,0.06999
2.66,0.08798
2.664,0.10385
2.668,0.09729
2.672,0.10133
2.676,0.14768
2.68,0.13271
2.684,0.16075
2.688,0.15626
2.692,0.15152
2.696,0.17981
2.7,0.17145
2.704,0.20564
2.708,0.23307
2.712,0.21758
2.716,0.21863
2.72,0.24402
2.724,0.22911
2.728,0.22766
2.732,0.24912
2.736,0.2276
2.74,0.23334
2.744,0.21598
2.748,0.20546
2.752,0.23921
2.756,0.23123
2.76,0.21216
2.764,0.18095
2.768,0.1879
2.772,0.17985
2.776,0.16666
2.78,0.10693
2.784,0.12686
2.788,0.12973
2.792,0.1095
2.796,0.12419
2.8,0.08569
2.804,0.07201
2.808,0.05693
2.812,0.05853
2.816,0.07226
2.82,0.04218
2.824,0.05828
2.828,0.03603
2.832,0.06787
2.836,0.02143
2.84,0.03996
2.844,0.01901
2.848,0.04192
2.852,-0.00632
2.856,0.03509
2.86,0.01565
2.864,0.02846
2.868,0.02689
2.872,0.02509
2.876,0.01364
2.88,0.03066
2.884,0.02972
2.888,0.03688
2.892,0.03657
2.896,0.0223
2.9,0.03519
2.904,0.01115
2.908,0.03842
2.912,0.04192
2.916,0.01009
2.92,0.01647
2.924,0.03756
2.928,0.00816
2.932,0.02244
2.936,0.03258
2.94,0.00839
2.944,0.02332
2.948,0.019
2.952,0.02509
2.956,0.02461
2.96,0.03307
2.964,0.01934
2.968,0.01732
2.972,0.00997
2.976,0.00629
2.98,0.03141
2.984,0.01784
2.988,-0.00609
2.992,0.01223
2.996,0.01084
3.0,0.03468
3.004,0.01599
3.008,0.02787
3.012,0.01178
3.016,0.02626
3.02,0.00526
3.024,0.00791
3.028,0.00775
3.032,0.02529
3.036,0.01277
3.04,0.01368
3.044,0.03044
3.048,0.00081
3.052,0.01055
3.056,0.02158
3.06,0.01233
3.064,0.01561
3.068,0.03353
3.072,0.00904
3.076,0.02283
3.08,0.01168
3.084,0.04331
3.088,0.03294
3.092,-0.00904
3.096,0.01285
3.1,0.00689
3.104,0.00383
3.108,0.00806
3.112,-0.02952
3.116,-0.00455
3.12,0.01827
3.124,-0.00467
3.128,0.02487
3.132,0.02509
3.136,0.01176
3.14,0.02623
3.144,0.01937
3.148,0.03587
3.152,0.02795
3.156,0.01597
3.16,-0.0048
3.164,0.02059
3.168,0.01892
3.172,0.00154
3.176,0.00931
3.18,0.02458
3.184,-0.0113
3.188,0.00718
3.192,0.01749
3.196,-0.01199
3.2,0.02454
3.204,0.01685
3.208,-0.00584
3.212,-0.01945
3.216,0.01966
3.22,0.0317
3.224,-0.00425
3.228,-0.01211
3.232,0.02923
3.236,-0.01653
3.24,-5e-05
3.244,-0.00988
3.248,-0.00823
3.252,-0.01201
3.256,0.00761
3.26,-0.00332
3.264,-0.00049
3.268,0.00985
3.272,0.00978
3.276,0.04923
3.28,0.01167
3.284,0.00447
3.288,0.0335
3.292,0.00274
3.296,0.00102
3.3,0.03073
3.304,0.00869
3.308,0.032
3.312,0.02093
3.316,0.00798
3.32,0.01083
3.324,0.02307
3.328,0.03373
3.332,0.03301
3.336,0.01383
3.34,-0.01194
3.344,0.02174
3.348,0.01327
3.352,0.02244
3.356,0.04673
3.36,0.02858
3.364,0.06235
3.368,0.07071
3.372,0.09654
3.376,0.10307
3.38,0.10545
3.384,0.10273
3.388,0.13282
3.392,0.09725
3.396,0.11661
3.4,0.11119
3.404,0.08829
3.408,0.06859
3.412,0.04846
3.416,0.05134
3.42,0.02924
3.424,0.00989
3.428,0.04827
3.432,0.02118
3.436,0.02371
3.44,0.0166
3.444,0.02039
3.448,0.00649
3.452,-0.00759
3.456,-0.01647
3.46,-0.02245
3.464,0.00384
3.468,-0.00093
3.472,0.00703
3.476,0.03558
3.48,-0.00032
3.484,0.01798
3.488,0.01131
3.492,0.01105
3.496,-0.02662
3.5,-0.0095
3.504,0.00667
3.508,-0.07575
3.512,-0.07369
3.516,-0.08326
3.52,-0.07745
3.524,0.03331
3.528,0.19712
3.532,0.37835
3.536,0.59383
3.54,0.79975
3.544,0.95725
3.548,1.00645
3.552,0.94186
3.556,0.76426
3.56,0.56043
3.564,0.34844
3.568,0.11994
3.572,-0.04146
3.576,-0.14051
3.58,-0.16582
3.584,-0.18725
3.588,-0.12697
3.592,-0.05379
3.596,-0.06307
3.6,0.00219
3.604,-0.00925
3.608,-0.02099
3.612,-0.00285
3.616,-0.00531
3.62,0.00122
3.624,-0.01547
3.628,-0.00992
3.632,0.01029
3.636,0.0059
3.64,-0.00613
3.644,0.00975
3.648,-0.00157
3.652,0.00605
3.656,-0.01258
3.66,-0.00279
3.664,-0.00022
3.668,0.00143
3.672,-0.00514
3.676,0.00472
3.68,0.01883
3.684,-0.00614
3.688,-0.00589
3.692,-0.01082
3.696,-0.00279
3.7,0.01079
3.704,0.01373
3.708,-0.00779
3.712,-0.02168
3.716,-0.01069
3.72,0.0309
3.724,0.00166
3.728,0.02143
3.732,0.02236
3.736,0.01283
3.74,0.02564
3.744,0.03971
3.748,0.03981
3.752,0.05466
3.756,0.05527
3.76,0.06858
3.764,0.08146
3.768,0.06762
3.772,0.09812
3.776,0.09781
3.78,0.10624
3.784,0.1453
3.788,0.13826
3.792,0.17201
3.796,0.16496
3.8,0.16867
3.804,0.16396
3.808,0.18455
3.812,0.16657
3.816,0.20148
3.82,0.21161
3.824,0.20165
3.828,0.22969
3.832,0.22431
3.836,0.23644
3.84,0.18571
3.844,0.18255
3.848,0.17732
3.852,0.18198
3.856,0.1551
3.86,0.17475
3.864,0.12996
3.868,0.13398
3.872,0.14455
3.876,0.11497
3.88,0.1028
3.884,0.08925
3.888,0.08847
3.892,0.08932
3.896,0.06123
3.9,0.02941
3.904,0.06834
3.908,0.05647
3.912,0.03265
3.916,0.01562
3.92,0.01184
3.924,0.03324
3.928,-0.00497
3.932,-0.01668
3.936,0.00368
3.94,0.0139
3.944,0.02233
3.948,0.00648
3.952,0.01137
3.956,-0.00481
3.96,-0.01171
3.964,0.00267
3.968,0.00969
3.972,-0.0054
3.976,-0.01449
3.98,-0.03114
3.984,-0.02964
3.988,0.0023
3.992,-0.00922
3.996,-0.02433
4.0,-0.03571
4.004,-0.00738
4.008,-0.0206
4.012,-0.00216
4.016,-0.00803
4.02,-0.02099
4.024,0.01056
4.028,0.00567
4.032,-0.00195
4.036,0.00894
4.04,-0.01623
4.044,-0.04376
4.048,-0.00885
4.052,-0.02533
4.056,0.00363
4.06,-0.01559
4.064,-0.00806
4.068,0.00709
4.072,-0.01202
4.076,-0.02638
4.08,0.00516
4.084,0.00965
4.088,-0.0167
4.092,0.00116
4.096,0.00034
4.1,-0.0157
4.104,-0.01718
4.108,-0.03559
4.112,-0.01242
4.116,0.01065
4.12,-0.02406
4.124,-0.02062
4.128,-0.02746
4.132,-0.00931
4.136,-0.02709
4.14,-0.00569
4.144,-0.01138
4.148,-0.01567
4.152,-0.01443
4.156,-0.02374
4.16,-0.00523
4.164,-0.01813
4.168,-0.01178
4.172,-0.00254
4.176,-0.03913
4.18,-0.02377
4.184,-0.03316
4.188,-0.0276
4.192,-0.02164
4.196,-0.03992
4.2,-0.00612
4.204,-0.04519
4.208,-0.02728
4.212,-0.0275
4.216,0.00789
4.22,-0.00221
4.224,-0.03283
4.228,-0.00735
4.232,-0.04744
4.236,-0.00794
4.24,0.00403
4.244,-0.01762
4.248,0.02099
4.252,0.0114
4.256,0.03895
4.26,0.04479
4.264,0.07321
4.268,0.0611
4.272,0.04739
4.276,0.08816
4.28,0.11715
4.284,0.08195
4.288,0.06781
4.292,0.05175
4.296,0.04854
4.3,0.05143
4.304,0.03366
4.308,0.01865
4.312,0.0054
4.316,-0.01064
4.32,-0.03892
4.324,0.00165
4.328,0.00602
4.332,-0.01017
4.336,-0.00204
4.34,-0.00122
4.344,-0.00167
4.348,0.00598
4.352,-0.0018
4.356,-0.0065
4.36,0.00973
4.364,-0.03651
4.368,-0.01152
4.372,-0.03228
4.376,0.01307
4.38,-0.01797
4.384,-0.04739
4.388,-0.01787
4.392,-0.04818
4.396,-0.05447
4.4,-0.08499
4.404,-0.13538
4.408,-0.14603
4.412,-0.06783
4.416,0.04778
4.42,0.18973
4.424,0.43106
4.428,0.61574
4.432,0.83226
4.436,0.94995
4.44,0.98942
4.444,0.88884
4.448,0.70903
4.452,0.48142
4.456,0.27327
4.46,0.07113
4.464,-0.12128
4.468,-0.17931
4.472,-0.17767
4.476,-0.152
4.48,-0.09825
4.484,-0.07339
4.488,-0.03607
4.492,-0.04485
4.496,-0.0262
4.5,-0.00158
4.504,0.00487
4.508,-0.02398
4.512,-0.02521
4.516,-0.01563
4.52,-0.02484
4.524,0.0055
4.528,-0.01828
4.532,-0.00523
4.536,-0.01924
4.54,-0.01626
4.544,-0.01043
4.548,-6e-05
4.552,-0.0113
4.556,-0.02353
4.56,-0.0068
4.564,0.00456
4.568,-0.03709
4.572,-0.03773
4.576,-0.02957
4.58,-0.02341
4.584,-0.01588
4.588,-0.03736
4.592,-0.02878
4.596,-0.02516
4.6,-0.03632
4.604,-0.0062
4.608,-0.00659
4.612,-0.02163
4.616,-0.03154
4.62,-0.00733
4.624,0.01211
4.628,0.02993
4.632,0.0076
4.636,-0.0013
4.64,0.0033
4.644,0.00559
4.648,0.05331
4.652,0.0383
4.656,0.04335
4.66,0.07343
4.664,0.09892
4.668,0.07632
4.672,0.1073
4.676,0.14799
4.68,0.11901
4.684,0.13959
4.688,0.1543
4.692,0.17519
4.696,0.16491
4.7,0.17646
4.704,0.18637
4.708,0.17749
4.712,0.19309
4.716,0.20112
4.72,0.18564
4.724,0.19264
4.728,0.18569
4.732,0.16927
4.736,0.18846
4.74,0.16793
4.744,0.13742
4.748,0.15714
4.752,0.118
4.756,0.14428
4.76,0.12749
4.764,0.10394
4.768,0.1188
4.772,0.07851
4.776,0.07458
4.78,0.08695
4.784,0.0408
4.788,0.0571
4.792,0.04421
4.796,0.01705
4.8,0.01947
4.804,-0.01516
4.808,0.01882
4.812,-0.02228
4.816,-0.03719
4.82,0.00648
4.824,-0.01394
4.828,-0.01662
4.832,-0.01253
4.836,-0.00173
4.84,-0.02853
4.844,-0.01609
4.848,-0.03384
4.852,-0.02311
4.856,-0.00075
4.86,-0.0239
4.864,-0.02921
4.868,-0.01006
4.872,-0.01336
4.876,0.00134
4.88,-0.03759
4.884,-0.01863
4.888,-0.02391
4.892,-0.04188
4.896,0.01017
4.9,-0.0158
4.904,-0.03577
4.908,-0.0448
4.912,-0.05095
4.916,-0.03128
4.92,-0.03685
4.924,-0.0122
4.928,-0.01036
4.932,-0.03536
4.936,-0.00695
4.94,-0.04756
4.944,-0.04001
4.948,-0.02737
4.952,-0.0422
4.956,-0.02236
4.96,-0.04725
4.964,-0.02388
4.968,-0.03829
4.972,-0.0145
4.976,-0.0376
4.98,-0.00544
4.984,-0.02477
4.988,-0.03186
4.992,-0.02635
4.996,-0.03359
5.0,-0.03811
5.004,-0.04942
5.008,-0.01645
5.012,-0.01192
5.016,-0.03803
5.02,-0.011
5.024,-0.05602
5.028,0.0035
5.032,-0.04791
5.036,-0.01245
5.04,-0.02554
5.044,-0.03813
5.048,-0.01565
5.052,-0.06183
5.056,-0.0717
5.06,-0.03578
5.064,-0.04921
5.068,-0.00435
5.072,-0.03122
5.076,-0.0389
5.08,-0.01484
5.084,-0.00847
5.088,-0.02144
5.092,0.02969
5.096,0.02931
5.1,0.02205
5.104,0.03188
5.108,0.0435
5.112,0.04812
5.116,0.08076
5.12,0.05978
5.124,0.07039
5.128,0.04982
5.132,0.05139
5.136,0.04549
5.14,0.02859
5.144,0.02528
5.148,0.01127
5.152,0.01713
5.156,0.01085
5.16,-0.01483
5.164,-0.01815
5.168,-0.02505
5.172,-0.00768
5.176,-0.0084
5.18,-0.02783
5.184,0.00093
5.188,-0.01343
5.192,0.01135
5.196,-0.03922
5.2,-0.05059
5.204,-0.037
5.208,-0.01193
5.212,-0.00768
5.216,-0.02082
5.22,-0.0041
5.224,-0.03727
5.228,-0.02374
5.232,-0.04292
5.236,-0.09252
5.24,-0.08014
5.244,-0.152
5.248,-0.16059
5.252,-0.09329
5.256,-0.00158
5.26,0.18175
5.264,0.37476
5.268,0.61972
5.272,0.81132
5.276,0.89518
5.28,0.95402
5.284,0.89743
5.288,0.71569
5.292,0.48782
5.296,0.23708
5.3,0.06061
5.304,-0.11298
5.308,-0.1787
5.312,-0.19724
5.316,-0.19628
5.32,-0.13112
5.324,-0.13496
5.328,-0.04438
5.332,-0.04458
5.336,-0.01715
5.34,-0.05945
5.344,-0.02164
5.348,-0.04254
5.352,-0.03789
5.356,-0.00571
5.36,-0.0554
5.364,-0.02135
5.368,-0.0098
5.372,-0.02095
5.376,-0.04162
5.38,-0.02395
5.384,-0.04748
5.388,-0.00353
5.392,-0.03084
5.396,-0.03512
5.4,-0.02961
5.404,-0.05228
5.408,-0.01942
5.412,-0.01906
5.416,-0.02668
5.42,-0.00292
5.424,-0.04291
5.428,-0.03565
5.432,-0.03067
5.436,-0.01965
5.44,0.01101
5.444,-0.01621
5.448,-0.02443
5.452,0.0112
5.456,-0.00886
5.46,-0.02389
5.464,-0.02404
5.468,-0.0019
5.472,0.02238
5.476,0.00766
5.48,0.01236
5.484,0.02907
5.488,0.02629
5.492,0.03291
5.496,0.04909
5.5,0.06065
5.504,0.06665
5.508,0.07652
5.512,0.08796
5.516,0.1048
5.52,0.16546
5.524,0.1348
5.528,0.15175
5.532,0.14944
5.536,0.14679
5.54,0.18638
5.544,0.16808
5.548,0.18626
5.552,0.17977
5.556,0.19038
5.56,0.19016
5.564,0.19773
5.568,0.19825
5.572,0.18303
5.576,0.17904
5.58,0.16326
5.584,0.1612
5.588,0.14653
5.592,0.14328
5.596,0.11942
5.6,0.12566
5.604,0.14012
5.608,0.11589
5.612,0.06429
5.616,0.05474
5.62,0.07316
5.624,0.04146
5.628,0.04007
5.632,0.02512
5.636,0.00239
5.64,0.00848
5.644,0.0106
5.648,-0.00648
5.652,0.02727
5.656,-0.01062
5.66,0.00038
5.664,-0.00651
5.668,-0.0189
5.672,-0.00779
5.676,-0.02196
5.68,-0.04527
5.684,-0.02671
5.688,-0.01828
5.692,-0.03175
5.696,-0.02781
5.7,-0.02011
5.704,-0.0078
5.708,-0.02984
5.712,-0.01572
5.716,-0.03277
5.72,-0.01593
5.724,-0.00246
5.728,-0.0106
5.732,-0.01848
5.736,-0.00218
5.74,-0.02407
5.744,-0.03834
5.748,-0.00614
5.752,-0.03434
5.756,-0.04498
5.76,-0.03477
5.764,-0.03017
5.768,-0.03434
5.772,-0.01367
5.776,-0.02992
5.78,-0.04801
5.784,-0.00938
5.788,-0.04087
5.792,-0.01974
5.796,-0.03002
5.8,-0.05023
5.804,-0.04456
5.808,-0.00243
5.812,-0.02544
5.816,-0.01441
5.82,-0.01183
5.824,-0.00949
5.828,-0.03976
5.832,-0.01344
5.836,-0.02639
5.84,-0.02348
5.844,-0.03761
5.848,-0.01474
5.852,-0.01929
5.856,-0.01882
5.86,-0.01165
5.864,-0.0326
5.868,-0.04665
5.872,-0.02726
5.876,-0.01815
5.88,-0.00932
5.884,-0.0397
5.888,-0.00654
5.892,0.01455
5.896,-0.03886
5.9,-0.01396
5.904,-0.02681
5.908,-0.02168
5.912,-0.01723
5.916,0.02199
5.92,0.02181
5.924,0.07022
5.928,0.06797
5.932,0.05096
5.936,0.06098
5.94,0.06806
5.944,0.07809
5.948,0.05899
5.952,0.06941
5.956,0.07815
5.96,0.04601
5.964,0.02561
5.968,0.01311
5.972,0.00384
5.976,0.01383
5.98,-0.01894
5.984,-0.00469
5.988,-0.01567
5.992,-0.04719
5.996,0.01664
6.0,-0.01221
6.004,-0.02206
6.008,-0.02312
6.012,-0.01267
6.016,-0.01391
6.02,-0.01333
6.024,-0.02426
6.028,-0.04103
6.032,-0.05767
6.036,-0.02214
6.04,-0.01581
6.044,-0.01575
6.048,-0.0121
6.052,-0.04304
6.056,-0.03119
6.06,-0.06981
6.064,-0.09794
6.068,-0.11001
6.072,-0.13491
6.076,-0.08993
6.08,0.02168
6.084,0.19114
6.088,0.39126
6.092,0.63275
6.096,0.8033
6.1,0.94162
6.104,0.98783
6.108,0.91173
6.112,0.75589
6.116,0.50951
6.12,0.2608
6.124,0.0862
6.128,-0.09316
6.132,-0.15926
6.136,-0.18825
6.14,-0.16046
6.144,-0.16176
6.148,-0.06552
6.152,-0.04447
6.156,-0.04729
6.16,-0.03287
6.164,-0.01689
6.168,-0.04
6.172,-0.01968
6.176,-0.0534
6.18,-0.01045
6.184,-0.02022
6.188,-0.01544
6.192,0.00116
6.196,0.00154
6.2,6e-05
6.204,-0.03597
6.208,0.00869
6.212,-0.01257
6.216,-0.01889
6.22,-0.05277
6.224,-0.04335
6.228,-0.05629
6.232,-0.03055
6.236,0.00247
6.24,-0.01973
6.244,-0.02424
6.248,-0.03055
6.252,-0.02801
6.256,-0.00396
6.26,-0.01021
6.264,-0.01499
6.268,-0.01474
6.272,0.00883
6.276,-0.02243
6.28,-0.02242
6.284,-0.00764
6.288,-0.00759
6.292,0.029
6.296,0.0384
6.3,0.0196
6.304,0.0158
6.308,0.03965
6.312,0.03461
6.316,0.04543
6.32,0.06924
6.324,0.11049
6.328,0.07792
6.332,0.09192
6.336,0.09839
6.34,0.10208
6.344,0.14815
6.348,0.1154
6.352,0.16423
6.356,0.19266
6.36,0.18219
6.364,0.18942
6.368,0.19709
6.372,0.20007
6.376,0.19922
6.38,0.227
6.384,0.1834
6.388,0.18442
6.392,0.20098
6.396,0.20458
6.4,0.18867
6.404,0.19443
6.408,0.181
6.412,0.14113
6.416,0.16823
6.42,0.13543
6.424,0.16875
6.428,0.09438
6.432,0.11611
6.436,0.09884
6.44,0.08933
6.444,0.07241
6.448,0.07997
6.452,0.04776
6.456,0.0585
6.46,0.03906
6.464,0.01502
6.468,0.01462
6.472,0.01896
6.476,0.00579
6.48,0.04881
6.484,0.00816
6.488,-0.01217
6.492,-0.00379
6.496,-0.00896
6.5,0.00645
6.504,0.00824
6.508,0.0281
6.512,-0.02352
6.516,0.00264
6.52,-0.00191
6.524,-0.03671
6.528,-0.04231
6.532,-0.03414
6.536,0.00432
6.54,-0.04049
6.544,-0.00719
6.548,-0.00978
6.552,0.0043
6.556,-0.02579
6.56,0.00403
6.564,0.02686
6.568,-0.01698
6.572,-0.01567
6.576,-0.02772
6.58,-0.04342
6.584,0.00441
6.588,-0.02266
6.592,-0.01334
6.596,0.02155
6.6,-0.00517
6.604,-0.01437
6.608,-0.0098
6.612,-0.02787
6.616,0.00491
6.62,-0.02159
6.624,-0.0105
6.628,-0.00249
6.632,-0.01153
6.636,-0.02114
6.64,0.00893
6.644,-0.00806
6.648,0.0372
6.652,-0.00676
6.656,-0.00402
6.66,0.00599
6.664,-0.01554
6.668,-0.01505
6.672,-0.00402
6.676,-0.00315
6.68,-0.00903
6.684,0.02042
6.688,-0.00483
6.692,0.02281
6.696,-0.00084
6.7,-0.0174
6.704,0.01711
6.708,0.00344
6.712,-0.00384
6.716,-0.02202
6.72,-0.00409
6.724,-0.04593
6.728,-0.00229
6.732,-0.01305
6.736,0.02311
6.74,-0.01276
6.744,-0.02159
6.748,0.00206
6.752,-0.00663
6.756,0.01966
6.76,0.00721
6.764,-0.00083
6.768,-0.01015
6.772,-0.00265
6.776,0.00814
6.78,0.02202
6.784,0.02405
6.788,0.03469
6.792,0.00775
6.796,0.04954
6.8,0.0427
6.804,0.04656
6.808,0.07579
6.812,0.08983
6.816,0.0969
6.82,0.0763
6.824,0.10452
6.828,0.08645
6.832,0.05885
6.836,0.07582
6.84,0.05931
6.844,0.03652
6.848,0.05675
6.852,0.01027
6.856,0.01456
6.86,0.00613
6.864,0.01819
6.868,-0.00058
6.872,0.02789
6.876,-0.01433
6.88,0.01117
6.884,0.00459
6.888,-0.02532
6.892,-0.00108
6.896,-0.00246
6.9,0.00257
6.904,0.00889
6.908,0.00349
6.912,0.01217
6.916,-0.01087
6.92,-0.01076
6.924,-0.01028
6.928,0.01975
6.932,-0.00862
6.936,-0.00557
6.94,-0.05243
6.944,-0.07566
6.948,-0.10699
6.952,-0.13028
6.956,-0.08263
6.96,0.01841
6.964,0.17084
6.968,0.36374
6.972,0.61673
6.976,0.80994
6.98,0.94275
6.984,1.00407
6.988,0.96008
6.992,0.80141
6.996,0.56877
7.0,0.33361
7.004,0.14026
7.008,-0.02907
7.012,-0.12987
7.016,-0.18812
7.02,-0.16305
7.024,-0.11074
7.028,-0.1028
7.032,-0.06338
7.036,-0.03604
7.04,0.00291
7.044,-0.00339
7.048,-0.01492
7.052,-0.01271
7.056,-0.0089
7.06,0.00308
7.064,-0.00035
7.068,0.01417
7.072,-0.00994
7.076,0.0101
7.08,0.02499
7.084,-0.00461
7.088,0.01136
7.092,0.01189
7.096,0.01575
7.1,-0.00402
7.104,-0.01422
7.108,0.00547
7.112,0.02358
7.116,0.01225
7.12,-0.00636
7.124,0.01275
7.128,0.03662
7.132,0.00994
7.136,0.03141
7.14,-0.00189
7.144,0.01176
7.148,-0.00548
7.152,0.03505
7.156,0.05933
7.16,0.02157
7.164,0.00323
7.168,0.06389
7.172,0.03238
7.176,0.03837
7.18,0.03409
7.184,0.07746
7.188,0.0538
7.192,0.06646
7.196,0.07077
7.2,0.08391
7.204,0.08541
7.208,0.11873
7.212,0.121
7.216,0.11342
7.22,0.14882
7.224,0.13756
7.228,0.17135
7.232,0.16518
7.236,0.18385
7.24,0.20818
7.244,0.237
7.248,0.2283
7.252,0.21746
7.256,0.23028
7.26,0.24242
7.264,0.23193
7.268,0.23937
7.272,0.19473
7.276,0.20046
7.28,0.21063
7.284,0.20281
7.288,0.18086
7.292,0.17461
7.296,0.17853
7.3,0.15895
7.304,0.14513
7.308,0.15944
7.312,0.13512
7.316,0.11308
7.32,0.12255
7.324,0.10877
7.328,0.08378
7.332,0.0787
7.336,0.09519
7.34,0.06869
7.344,0.03635
7.348,0.04611
7.352,0.04969
7.356,0.03149
7.36,0.05105
7.364,0.02664
7.368,0.03757
7.372,0.02895
7.376,0.05378
7.38,0.01364
7.384,-0.00595
7.388,0.00911
7.392,0.02005
7.396,0.01956
7.4,-0.01814
7.404,-0.0176
7.408,0.02376
7.412,0.00048
7.416,0.04694
7.42,-0.00637
7.424,0.00842
7.428,0.03798
7.432,0.02887
7.436,-0.00067
7.44,-0.00846
7.444,0.00855
7.448,0.02828
7.452,0.02591
7.456,0.00929
7.46,0.00551
7.464,0.00254
7.468,0.0568
7.472,0.01991
7.476,-0.00775
7.48,-0.00592
7.484,0.00837
7.488,0.0261
7.492,-0.00274
7.496,0.00835
7.5,0.02868
7.504,0.0279
7.508,0.03371
7.512,0.01916
7.516,0.02928
7.52,0.02574
7.524,0.02576
7.528,0.00067
7.532,0.03267
7.536,0.02263
7.54,0.00599
7.544,0.02875
7.548,0.03046
7.552,0.00277
7.556,0.00445
7.56,0.03413
7.564,0.00208
7.568,0.0269
7.572,0.01501
7.576,0.01136
7.58,0.012
7.584,0.05069
7.588,0.03836
7.592,0.03531
7.596,0.04968
7.6,0.02769
7.604,0.07932
7.608,0.0827
7.612,0.07676
7.616,0.08214
7.62,0.07699
7.624,0.13462
7.628,0.10434
7.632,0.11118
7.636,0.10858
7.64,0.13486
7.644,0.09353
7.648,0.0674
7.652,0.08908
7.656,0.04895
7.66,0.071
7.664,0.07953
7.668,0.07396
7.672,0.03474
7.676,0.03255
7.68,0.04016
7.684,0.03101
7.688,0.01055
7.692,0.04437
7.696,0.01544
7.7,0.00758
7.704,0.02255
7.708,0.03645
7.712,0.04043
7.716,0.01758
7.72,0.02413
7.724,0.04859
7.728,0.01292
7.732,0.01448
7.736,0.01838
7.74,0.00643
7.744,0.03268
7.748,0.01768
7.752,-0.00791
7.756,-0.03006
7.76,-0.10127
7.764,-0.08721
7.768,-0.03398
7.772,0.05125
7.776,0.23079
7.78,0.44102
7.784,0.62932
7.788,0.87332
7.792,0.97074
7.796,1.01029
7.8,0.94727
7.804,0.75557
7.808,0.54764
7.812,0.33377
7.816,0.09676
7.82,-0.02811
7.824,-0.13944
7.828,-0.14535
7.832,-0.12147
7.836,-0.10219
7.84,-0.05231
7.844,-0.0162
7.848,0.00492
7.852,0.00364
7.856,-0.01366
7.86,0.01091
7.864,0.02805
7.868,0.03243
7.872,0.04693
7.876,-0.00526
7.88,0.0254
7.884,0.01301
7.888,-0.01294
7.892,0.01575
7.896,0.0168
7.9,0.04783
7.904,0.0532
7.908,0.00706
7.912,0.0258
7.916,0.00515
7.92,0.00218
7.924,0.0342
7.928,0.02354
7.932,0.00685
7.936,0.02856
7.94,0.04271
7.944,0.01851
7.948,0.02384
7.952,0.00988
7.956,0.01002
7.96,0.045
7.964,0.05058
7.968,0.02861
7.972,0.03314
7.976,0.05409
7.98,0.04956
7.984,0.04927
7.988,0.07879
7.992,0.04104
7.996,0.08337
8.0,0.08911
8.004,0.06699
8.008,0.10403
8.012,0.11417
8.016,0.10457
8.02,0.1219
8.024,0.14254
8.028,0.13101
8.032,0.16219
8.036,0.1693
8.04,0.19157
8.044,0.21083
8.048,0.18935
8.052,0.22236
8.056,0.25301
8.06,0.23934
8.064,0.21714
8.068,0.21239
8.072,0.26165
8.076,0.25208
8.08,0.23677
8.084,0.24753
8.088,0.22292
8.092,0.2234
8.096,0.20369
8.1,0.20993
8.104,0.1954
8.108,0.18592
8.112,0.17271
8.116,0.18027
8.12,0.14936
8.124,0.11748
8.128,0.10737
8.132,0.12032
8.136,0.13165
8.14,0.1174
8.144,0.11407
8.148,0.09239
8.152,0.0914
8.156,0.07242
8.16,0.08027
8.164,0.09852
8.168,0.06253
8.172,0.04771
8.176,0.05376
8.18,0.0569
8.184,0.04677
8.188,0.02235
8.192,0.04706
8.196,0.01707
8.2,0.01975
8.204,0.05169
8.208,0.03476
8.212,0.06324
8.216,0.0286
8.22,0.05856
8.224,0.041
8.228,0.0637
8.232,0.02435
8.236,0.02996
8.24,0.0283
8.244,0.02271
8.248,0.00971
8.252,0.03482
8.256,0.04123
8.26,0.00572
8.264,0.01765
8.268,0.02306
8.272,0.04845
8.276,0.02259
8.28,0.01218
8.284,0.00742
8.288,0.04052
8.292,0.03011
8.296,0.03112
8.3,0.03522
8.304,0.01334
8.308,0.01034
8.312,0.02218
8.316,0.02919
8.32,0.03796
8.324,0.03074
8.328,0.02526
8.332,0.03039
8.336,0.03188
8.34,0.04395
8.344,0.01715
8.348,0.01309
8.352,0.04116
8.356,0.03556
8.36,0.01471
8.364,0.02944
8.368,0.05543
8.372,0.03421
8.376,0.04299
8.38,0.04724
8.384,0.02654
8.388,0.01794
8.392,0.02124
8.396,0.01483
8.4,0.06035
8.404,0.04019
8.408,0.06285
8.412,0.03073
8.416,0.05111
8.42,0.02237
8.424,0.06681
8.428,0.0602
8.432,0.07917
8.436,0.07381
8.44,0.10463
8.444,0.1013
8.448,0.14028
8.452,0.10156
8.456,0.14575
8.46,0.13131
8.464,0.11155
8.468,0.11161
8.472,0.09739
8.476,0.09656
8.48,0.05676
8.484,0.0759
8.488,0.07216
8.492,0.05061
8.496,0.05301
8.5,0.05588
8.504,0.0448
8.508,0.02546
8.512,0.04577
8.516,0.01416
8.52,0.03806
8.524,0.05789
8.528,0.03108
8.532,0.03231
8.536,0.04276
8.54,0.00333
8.544,0.00775
8.548,0.0218
8.552,0.03623
8.556,0.03224
8.56,0.01847
8.564,0.05119
8.568,0.00268
8.572,-0.00892
8.576,-0.0413
8.58,-0.06985
8.584,-0.07135
8.588,-0.06529
8.592,0.05053
8.596,0.18263
8.6,0.377
8.604,0.58855
8.608,0.81413
8.612,0.97742
8.616,1.04183
8.62,0.97979
8.624,0.84453
8.628,0.64571
8.632,0.38616
8.636,0.1895
8.64,-0.00805
8.644,-0.09519
8.648,-0.1158
8.652,-0.12927
8.656,-0.07854
8.66,-0.04243
8.664,-0.03419
8.668,0.00935
8.672,0.04661
8.676,0.00131
8.68,0.04494
8.684,0.03133
8.688,0.01136
8.692,0.03304
8.696,0.03196
8.7,0.03359
8.704,0.00274
8.708,0.00464
8.712,0.00725
8.716,0.03895
8.72,0.01085
8.724,0.04053
8.728,0.00098
8.732,0.05511
8.736,0.02612
8.74,0.02826
8.744,0.05391
8.748,0.02024
8.752,0.03518
8.756,0.03455
8.76,0.02254
8.764,0.03213
8.768,0.04408
8.772,0.05111
8.776,0.01857
8.78,0.03672
8.784,0.02339
8.788,0.05541
8.792,0.06523
8.796,0.07905
8.8,0.05325
8.804,0.05451
8.808,0.05845
8.812,0.06415
8.816,0.09524
8.82,0.066
8.824,0.06207
8.828,0.08907
8.832,0.10581
8.836,0.10638
8.84,0.13422
8.844,0.12397
8.848,0.15805
8.852,0.15996
8.856,0.15736
8.86,0.186
8.864,0.21433
8.868,0.21391
8.872,0.20718
8.876,0.20938
8.88,0.25109
8.884,0.26558
8.888,0.25579
8.892,0.25713
8.896,0.24048
8.9,0.21904
8.904,0.24414
8.908,0.2253
8.912,0.28054
8.916,0.23688
8.92,0.19057
8.924,0.19936
8.928,0.21113
8.932,0.18718
8.936,0.18502
8.94,0.18458
8.944,0.17013
8.948,0.12729
8.952,0.13835
8.956,0.09727
8.96,0.12447
8.964,0.06097
8.968,0.10002
8.972,0.08459
8.976,0.10437
8.98,0.07829
8.984,0.05
8.988,0.05636
8.992,0.05142
8.996,0.06146
9.0,0.04472
9.004,0.06699
9.008,0.02727
9.012,0.01852
9.016,0.01943
9.02,0.03952
9.024,0.02561
9.028,0.02418
9.032,0.00255
9.036,0.02403
9.04,0.03727
9.044,0.01146
9.048,0.04035
9.052,-0.00269
9.056,0.03653
9.06,0.02664
9.064,0.04471
9.068,0.03944
9.072,0.02524
9.076,0.02409
9.08,0.03683
9.084,0.0461
9.088,0.04793
9.092,0.049
9.096,0.0335
9.1,0.01754
9.104,0.02806
9.108,0.02426
9.112,0.02873
9.116,0.05799
9.12,0.06787
9.124,0.02075
9.128,0.04784
9.132,0.03018
9.136,0.01677
9.14,0.01504
9.144,0.0157
9.148,0.01567
9.152,0.02464
9.156,0.02789
9.16,0.01249
9.164,0.01916
9.168,0.03206
9.172,0.05234
9.176,0.03264
9.18,0.0172
9.184,0.03748
9.188,0.0352
9.192,0.05661
9.196,0.01055
9.2,0.01538
9.204,0.01774
9.208,0.02228
9.212,0.00878
9.216,0.02169
9.22,0.04699
9.224,0.01783
9.228,0.03203
9.232,0.01966
9.236,0.03849
9.24,0.00582
9.244,0.0194
9.248,0.03069
9.252,0.02664
9.256,0.01413
9.26,0.02928
9.264,0.05078
9.268,0.04016
9.272,0.07305
9.276,0.01523
9.28,0.0284
9.284,0.02427
9.288,0.02925
9.292,0.02865
9.296,0.04151
9.3,0.03036
9.304,0.04739
9.308,0.06676
9.312,0.07633
9.316,0.06886
9.32,0.07282
9.324,0.07953
9.328,0.08511
9.332,0.11247
9.336,0.13134
9.34,0.11617
9.344,0.1419
9.348,0.10594
9.352,0.13857
9.356,0.09526
9.36,0.06569
9.364,0.11556
9.368,0.06429
9.372,0.06995
9.376,0.02624
9.38,0.02021
9.384,0.05074
9.388,0.05043
9.392,0.03633
9.396,0.03697
9.4,0.05733
9.404,0.01904
9.408,0.02657
9.412,0.01288
9.416,0.04793
9.42,0.03162
9.424,0.03983
9.428,0.04481
9.432,0.05524
9.436,0.01017
9.44,0.04288
9.444,0.02617
9.448,0.01645
9.452,0.00659
9.456,0.00627
9.46,-0.0302
9.464,-0.07223
9.468,-0.10556
9.472,-0.0934
9.476,-0.05341
9.48,0.09584
9.484,0.28189
9.488,0.45698
9.492,0.67615
9.496,0.87114
9.5,1.01692
9.504,0.99927
9.508,0.89272
9.512,0.72365
9.516,0.48375
9.52,0.23906
9.524,0.05622
9.528,-0.08324
9.532,-0.1162
9.536,-0.15027
9.54,-0.08853
9.544,-0.10611
9.548,-0.02143
9.552,-0.01738
9.556,0.00029
9.56,0.01932
9.564,0.00745
9.568,0.0252
9.572,0.03426
9.576,0.02081
9.58,0.0203
9.584,0.02102
9.588,0.01503
9.592,0.00818
9.596,0.01316
9.6,0.03058
9.604,0.02191
9.608,0.0393
9.612,0.01663
9.616,0.02318
9.62,0.01952
9.624,0.03648
9.628,0.02161
9.632,0.01974
9.636,-0.00385
9.64,0.01799
9.644,0.01814
9.648,0.05417
9.652,0.02565
9.656,0.01416
9.66,0.00096
9.664,0.01194
9.668,0.05033
9.672,0.03433
9.676,0.04074
9.68,0.01705
9.684,0.00048
9.688,0.08168
9.692,0.0228
9.696,0.04688
9.7,0.04641
9.704,0.06034
9.708,0.06814
9.712,0.05891
9.716,0.08753
9.72,0.10769
9.724,0.10945
9.728,0.10424
9.732,0.13351
9.736,0.14276
9.74,0.17878
9.744,0.14494
9.748,0.19315
9.752,0.18057
9.756,0.20142
9.76,0.20141
9.764,0.1932
9.768,0.20609
9.772,0.21706
9.776,0.21937
9.78,0.24124
9.784,0.23293
9.788,0.24548
9.792,0.23035
9.796,0.22518
9.8,0.2146
9.804,0.19623
9.808,0.18348
9.812,0.21628
9.816,0.17257
9.82,0.14964
9.824,0.13853
9.828,0.171
9.832,0.1252
9.836,0.06321
9.84,0.08882
9.844,0.10963
9.848,0.10466
9.852,0.0734
9.856,0.07765
9.86,0.02861
9.864,0.06763
9.868,0.04276
9.872,0.05436
9.876,0.03081
9.88,0.02262
9.884,0.03043
9.888,0.01911
9.892,0.0078
9.896,0.02496
9.9,0.01771
9.904,0.0484
9.908,-0.00119
9.912,0.00637
9.916,0.00338
9.92,0.02529
9.924,0.0331
9.928,0.0133
9.932,0.01849
9.936,0.00928
9.94,0.0076
9.944,0.04537
9.948,0.00063
9.952,-0.00163
9.956,0.00761
9.96,0.03028
9.964,0.00565
9.968,0.01111
9.972,0.01626
9.976,-0.0114
9.98,0.00807
9.984,0.00163
9.988,0.01447
9.992,0.01138
9.996,0.0295
