t_seg,ecg_mV
0.0,-0.01807
0.004,-0.0065
0.008,-0.02988
0.012,-0.01947
0.016,-0.03464
0.02,-0.03252
0.024,-0.00807
0.028,-0.008
0.032,-0.01648
0.036,-0.02646
0.04,-0.02884
0.044,-0.00708
0.048,-0.04789
0.052,-0.03552
0.056,-0.03382
0.06,-0.02821
0.064,0.00099
0.068,-0.0459
0.072,-0.04599
0.076,-0.0152
0.08,-0.03855
0.084,-0.05856
0.088,-0.04061
0.092,-0.01097
0.096,0.00247
0.1,-0.01522
0.104,-0.05171
0.108,0.00264
0.112,-0.01063
0.116,-0.01895
0.12,-0.05645
0.124,-0.0201
0.128,-0.06006
0.132,-0.02543
0.136,-0.01734
0.14,-0.02156
0.144,-0.04719
0.148,-0.02157
0.152,-0.01443
0.156,-0.0485
0.16,-0.03224
0.164,-0.0436
0.168,-0.03172
0.172,0.00652
0.176,-0.03017
0.18,-0.03351
0.184,-0.00377
0.188,-0.02594
0.192,-0.03512
0.196,-0.02451
0.2,-0.01287
0.204,-0.0252
0.208,-0.02426
0.212,-0.04942
0.216,-0.05604
0.22,-0.01149
0.224,-0.01049
0.228,-0.01639
0.232,-0.01707
0.236,-0.037
0.24,-0.00976
0.244,-0.00559
0.248,-0.04886
0.252,-0.02365
0.256,-0.03183
0.26,-0.03006
0.264,-0.01568
0.268,-0.03785
0.272,-0.03708
0.276,-0.02737
0.28,-0.06345
0.284,-0.01831
0.288,-0.04311
0.292,-0.01291
0.296,-0.02198
0.3,-0.03162
0.304,-0.0187
0.308,-0.031
0.312,-0.03382
0.316,-0.03496
0.32,-0.04402
0.324,-0.0262
0.328,-0.01508
0.332,0.00427
0.336,-0.04359
0.34,-0.02736
0.344,-0.03141
0.348,-0.01306
0.352,-0.02324
0.356,-0.0329
0.36,-0.03995
0.364,-0.01847
0.368,-0.04472
0.372,-0.01382
0.376,-0.03483
0.38,-0.03692
0.384,-0.04227
0.388,-0.03772
0.392,-0.04991
0.396,-0.03359
0.4,-0.04606
0.404,-0.01918
0.408,-0.02827
0.412,-0.01859
0.416,-0.02501
0.42,-0.04525
0.424,-0.01375
0.428,-0.01355
0.432,-0.01121
0.436,0.01335
0.44,0.02589
0.444,0.05288
0.448,0.02297
0.452,0.08851
0.456,0.05322
0.46,0.07157
0.464,0.06151
0.468,0.08041
0.472,0.06632
0.476,0.06509
0.48,0.04588
0.484,0.04741
0.488,0.00705
0.492,0.03036
0.496,0.02587
0.5,0.00204
0.504,-0.01673
0.508,-0.03234
0.512,-0.00583
0.516,-0.02314
0.52,-0.02566
0.524,-0.02365
0.528,-0.03017
0.532,-0.01517
0.536,-0.02964
0.54,-0.03805
0.544,-0.07277
0.548,-0.02845
0.552,-0.05108
0.556,-0.03253
0.56,-0.02171
0.564,-0.03885
0.568,-0.05184
0.572,-0.01815
0.576,-0.01391
0.58,-0.0313
0.584,-0.08001
0.588,-0.1132
0.592,-0.11437
0.596,-0.14914
0.6,-0.07854
0.604,0.02203
0.608,0.16842
0.612,0.37493
0.616,0.59669
0.62,0.80805
0.624,0.91546
0.628,0.97581
0.632,0.91278
0.636,0.73436
0.64,0.49091
0.644,0.26146
0.648,0.05439
0.652,-0.09819
0.656,-0.13826
0.66,-0.21021
0.664,-0.20814
0.668,-0.15357
0.672,-0.11703
0.676,-0.08094
0.68,-0.03874
0.684,-0.02946
0.688,-0.02772
0.692,-0.05377
0.696,-0.02113
0.7,-0.00672
0.704,-0.02423
0.708,-0.03883
0.712,-0.04229
0.716,-0.01933
0.72,-0.04058
0.724,-0.04609
0.728,-0.00741
0.732,-0.03055
0.736,-0.03381
0.74,-0.04426
0.744,-0.03795
0.748,-0.02039
0.752,-0.03614
0.756,-0.03585
0.76,-0.02255
0.764,-0.04951
0.768,-0.03012
0.772,-0.0211
0.776,-0.03217
0.78,-0.00279
0.784,-0.01876
0.788,-0.02717
0.792,0.00022
0.796,-0.03924
0.8,0.00172
0.804,-0.00907
0.808,-0.02889
0.812,0.00616
0.816,-0.00101
0.82,-0.01682
0.824,-0.00476
0.828,0.00417
0.832,0.02691
0.836,0.04406
0.84,0.04086
0.844,0.04633
0.848,0.08781
0.852,0.07542
0.856,0.10753
0.86,0.09356
0.864,0.11708
0.868,0.13288
0.872,0.15345
0.876,0.14584
0.88,0.17163
0.884,0.17423
0.888,0.17937
0.892,0.15656
0.896,0.17331
0.9,0.18032
0.904,0.18447
0.908,0.21098
0.912,0.1935
0.916,0.17386
0.92,0.20014
0.924,0.19524
0.928,0.1628
0.932,0.17762
0.936,0.15487
0.94,0.13462
0.944,0.1307
0.948,0.11271
0.952,0.10234
0.956,0.12424
0.96,0.1139
0.964,0.0711
0.968,0.04697
0.972,0.06512
0.976,0.05773
0.98,0.03707
0.984,0.02739
0.988,0.03825
0.992,0.03198
0.996,0.01627
1.0,-0.01948
1.004,0.00892
1.008,0.00193
1.012,-0.00841
1.016,-0.02157
1.02,-0.01862
1.024,-0.0073
1.028,-0.00807
1.032,-0.02297
1.036,-0.0106
1.04,-0.00291
1.044,0.00681
1.048,-0.00636
1.052,-0.02206
1.056,-0.01747
1.06,-0.0179
1.064,-0.01369
1.068,-0.01299
1.072,-0.01559
1.076,-0.02557
1.08,-0.00156
1.084,-0.05285
1.088,-0.03227
1.092,-0.03048
1.096,-0.02369
1.1,-0.0269
1.104,-0.00525
1.108,-0.01314
1.112,-0.03653
1.116,-0.00905
1.12,-0.01101
1.124,-0.00365
1.128,-0.02035
1.132,-0.0096
1.136,-0.03064
1.14,-0.0051
1.144,-0.02439
1.148,-0.02724
1.152,0.02004
1.156,-0.02496
1.16,-0.03525
1.164,-0.01844
1.168,-0.03896
1.172,-0.02671
1.176,0.00855
1.18,-0.01084
1.184,-0.02574
1.188,-0.03017
1.192,-0.02421
1.196,-0.01025
1.2,-0.04036
1.204,-0.01293
1.208,-0.0157
1.212,-0.03732
1.216,-0.02739
1.22,-0.02588
1.224,-0.01422
1.228,-0.03837
1.232,-0.02076
1.236,-0.02044
1.24,-0.00254
1.244,-0.00423
1.248,-0.00376
1.252,-0.01522
1.256,-0.01134
1.26,0.00403
1.264,-0.01985
1.268,0.00867
1.272,-0.00871
1.276,0.01572
1.28,0.00234
1.284,-0.00342
1.288,0.00847
1.292,-0.01967
1.296,0.02196
1.3,0.02524
1.304,0.02807
1.308,0.03201
1.312,0.05909
1.316,0.05513
1.32,0.07584
1.324,0.07603
1.328,0.09135
1.332,0.08453
1.336,0.09704
1.34,0.08047
1.344,0.03361
1.348,0.04056
1.352,0.01483
1.356,0.02969
1.36,0.00367
1.364,0.0119
1.368,0.01642
1.372,0.02125
1.376,0.00195
1.38,0.00676
1.384,-0.01498
1.388,-0.05271
1.392,0.00767
1.396,-0.02927
1.4,0.01392
1.404,-0.00506
1.408,0.02072
1.412,0.00712
1.416,-0.00096
1.42,-0.01158
1.424,-0.01012
1.428,0.00499
1.432,-0.02917
1.436,-0.01067
1.44,-0.04368
1.444,-0.05398
1.448,-0.06854
1.452,-0.15827
1.456,-0.14005
1.46,-0.09388
1.464,0.05665
1.468,0.20087
1.472,0.4013
1.476,0.64197
1.48,0.82466
1.484,0.95346
1.488,0.98407
1.492,0.87594
1.496,0.76869
1.5,0.4963
1.504,0.30528
1.508,0.08563
1.512,-0.04663
1.516,-0.15971
1.52,-0.16153
1.524,-0.15421
1.528,-0.09666
1.532,-0.10072
1.536,-0.05833
1.54,-0.01493
1.544,-0.00997
1.548,-0.02608
1.552,-0.0326
1.556,-0.0224
1.56,0.0081
1.564,0.03038
1.568,-0.00071
1.572,0.01519
1.576,0.0164
1.58,-0.01634
1.584,-0.00538
1.588,-0.00979
1.592,-0.01662
1.596,0.02444
1.6,0.00534
1.604,0.01754
1.608,0.01352
1.612,0.01144
1.616,0.02165
1.62,-0.01059
1.624,-0.01918
1.628,-0.01716
1.632,0.01809
1.636,-0.00743
1.64,-0.00817
1.644,0.01022
1.648,-0.01938
1.652,0.00112
1.656,0.0077
1.66,-0.0145
1.664,0.01756
1.668,0.01552
1.672,-0.0021
1.676,0.0104
1.68,0.03199
1.684,0.04285
1.688,0.04296
1.692,0.04021
1.696,0.04412
1.7,0.08
1.704,0.07429
1.708,0.09088
1.712,0.09436
1.716,0.13145
1.72,0.10102
1.724,0.14373
1.728,0.15451
1.732,0.14698
1.736,0.16221
1.74,0.20317
1.744,0.19242
1.748,0.19897
1.752,0.2094
1.756,0.21871
1.76,0.21779
1.764,0.20101
1.768,0.2073
1.772,0.19398
1.776,0.21953
1.78,0.2184
1.784,0.18649
1.788,0.21284
1.792,0.18417
1.796,0.16087
1.8,0.15553
1.804,0.1422
1.808,0.15645
1.812,0.11818
1.816,0.11605
1.82,0.14239
1.824,0.10559
1.828,0.06585
1.832,0.06724
1.836,0.04408
1.84,0.05207
1.844,0.03981
1.848,0.04346
1.852,0.0216
1.856,0.02259
1.86,0.01835
1.864,0.01618
1.868,0.02753
1.872,0.03073
1.876,0.01664
1.88,0.00928
1.884,0.03893
1.888,-0.00028
1.892,0.04863
1.896,0.01246
1.9,-0.01882
1.904,0.00018
1.908,0.04216
1.912,0.00919
1.916,0.00095
1.92,0.02821
1.924,0.05511
1.928,0.06058
1.932,0.05152
1.936,0.06166
1.94,0.08803
1.944,0.08293
1.948,0.11377
1.952,0.10157
1.956,0.06859
1.96,0.11467
1.964,0.09148
1.968,0.06132
1.972,0.08134
1.976,0.04894
1.98,0.02864
1.984,0.04695
1.988,0.03331
1.992,0.02244
1.996,0.02298
2.0,-0.00298
2.004,0.01725
2.008,0.01668
2.012,0.00035
2.016,0.00939
2.02,-0.00165
2.024,0.02482
2.028,-0.01019
2.032,0.02764
2.036,-0.00308
2.04,0.01321
2.044,-0.00465
2.048,-0.00166
2.052,0.00633
2.056,0.00655
2.06,-0.00935
2.064,0.00205
2.068,-0.0401
2.072,-0.06105
2.076,-0.14548
2.08,-0.11613
2.084,-0.0929
2.088,0.02885
2.092,0.25266
2.096,0.43461
2.1,0.63003
2.104,0.81138
2.108,0.96833
2.112,1.01282
2.116,0.88605
2.12,0.74478
2.124,0.53229
2.128,0.32054
2.132,0.0926
2.136,-0.04641
2.14,-0.1112
2.144,-0.16263
2.148,-0.16239
2.152,-0.11206
2.156,-0.05111
2.16,-0.00735
2.164,-0.00547
2.168,-0.02203
2.172,0.00154
2.176,0.03298
2.18,-0.0179
2.184,0.0038
2.188,0.01212
2.192,0.04022
2.196,0.02169
2.2,-0.01862
2.204,0.0002
2.208,0.02401
2.212,0.00077
2.216,0.00348
2.22,0.00763
2.224,-0.02304
2.228,0.00457
2.232,0.04505
2.236,0.03966
2.24,0.01615
2.244,-0.00836
2.248,-0.00211
2.252,0.04674
2.256,0.01907
2.26,0.00186
2.264,0.04092
2.268,0.01885
2.272,0.03486
2.276,0.01741
2.28,0.05124
2.284,0.01141
2.288,0.00382
2.292,0.02462
2.296,0.04255
2.3,0.0192
2.304,0.06721
2.308,0.0516
2.312,0.0535
2.316,0.0622
2.32,0.05505
2.324,0.0782
2.328,0.09447
2.332,0.09298
2.336,0.10538
2.34,0.13435
2.344,0.15653
2.348,0.14379
2.352,0.16702
2.356,0.19445
2.36,0.2
2.364,0.21938
2.368,0.2157
2.372,0.24069
2.376,0.22534
2.38,0.21928
2.384,0.22972
2.388,0.22931
2.392,0.23291
2.396,0.21751
2.4,0.23565
2.404,0.20201
2.408,0.2441
2.412,0.25731
2.416,0.18228
2.42,0.1751
2.424,0.19281
2.428,0.16933
2.432,0.1566
2.436,0.15544
2.44,0.12682
2.444,0.11794
2.448,0.08259
2.452,0.11292
2.456,0.08648
2.46,0.11378
2.464,0.07493
2.468,0.09562
2.472,0.06828
2.476,0.06297
2.48,0.03876
2.484,0.05431
2.488,0.02405
2.492,0.01815
2.496,0.04277
2.5,0.03254
2.504,0.02871
2.508,0.02269
2.512,0.04932
2.516,0.03788
2.52,-0.0003
2.524,-0.009
2.528,0.02937
2.532,0.03345
2.536,0.03899
2.54,0.00633
2.544,-0.00997
2.548,-0.00535
2.552,0.01749
2.556,0.02054
2.56,0.01231
2.564,0.02757
2.568,0.03295
2.572,0.00571
2.576,0.03874
2.58,0.01242
2.584,0.02371
2.588,0.03184
2.592,0.01004
2.596,0.00255
2.6,0.0143
2.604,0.00895
2.608,0.03087
2.612,0.00289
2.616,0.03665
2.62,0.02794
2.624,0.0183
2.628,0.01071
2.632,0.02245
2.636,0.01663
2.64,-0.01458
2.644,0.03361
2.648,0.01178
2.652,0.00983
2.656,0.02852
2.66,0.01082
2.664,0.01963
2.668,0.02572
2.672,0.04303
2.676,0.05142
2.68,0.02787
2.684,0.03637
2.688,0.0462
2.692,0.04797
2.696,0.04643
2.7,0.08832
2.704,0.06193
2.708,0.09941
2.712,0.10508
2.716,0.11515
2.72,0.11565
2.724,0.12651
2.728,0.12639
2.732,0.08546
2.736,0.08562
2.74,0.08722
2.744,0.06339
2.748,0.07502
2.752,0.06948
2.756,0.03785
2.76,0.03483
2.764,0.01697
2.768,0.02396
2.772,0.03524
2.776,0.03139
2.78,0.0206
2.784,0.00958
2.788,0.03406
2.792,0.00897
2.796,0.03214
2.8,0.02892
2.804,-0.00707
2.808,0.04736
2.812,0.01523
2.816,0.01638
2.82,0.02002
2.824,0.01184
2.828,-0.00757
2.832,0.02894
2.836,-0.00389
2.84,-0.02202
2.844,-0.04763
2.848,-0.09024
2.852,-0.05832
2.856,-0.01679
2.86,0.12955
2.864,0.30631
2.868,0.49906
2.872,0.702
2.876,0.8878
2.88,0.99664
2.884,1.00714
2.888,0.92591
2.892,0.6982
2.896,0.49502
2.9,0.26395
2.904,0.10501
2.908,-0.08152
2.912,-0.13397
2.916,-0.15555
2.92,-0.08549
2.924,-0.10005
2.928,-0.03229
2.932,0.00798
2.936,0.01334
2.94,0.03531
2.944,0.02679
2.948,0.02148
2.952,0.02015
2.956,0.0341
2.96,0.03309
2.964,0.03829
2.968,0.03948
2.972,0.02783
2.976,0.03179
2.98,0.02316
2.984,0.07441
2.988,0.03964
2.992,0.03786
2.996,-0.00092
3.0,0.01507
3.004,0.04243
3.008,0.02291
3.012,0.02574
3.016,0.04123
3.02,0.0117
3.024,0.05088
3.028,0.05516
3.032,0.04154
3.036,0.00991
3.04,0.02174
3.044,0.0283
3.048,0.03266
3.052,0.05613
3.056,0.00536
3.06,0.0261
3.064,0.0467
3.068,0.04486
3.072,0.04509
3.076,0.08425
3.08,0.08251
3.084,0.08911
3.088,0.07349
3.092,0.08847
3.096,0.12097
3.1,0.10263
3.104,0.08273
3.108,0.1533
3.112,0.13164
3.116,0.14508
3.12,0.18879
3.124,0.16069
3.128,0.19623
3.132,0.20467
3.136,0.20102
3.14,0.24171
3.144,0.22428
3.148,0.25656
3.152,0.25865
3.156,0.24267
3.16,0.2263
3.164,0.25085
3.168,0.27767
3.172,0.25538
3.176,0.22411
3.18,0.24945
3.184,0.24295
3.188,0.19613
3.192,0.20299
3.196,0.20431
3.2,0.20279
3.204,0.16778
3.208,0.14156
3.212,0.14503
3.216,0.11905
3.22,0.12505
3.224,0.12059
3.228,0.09218
3.232,0.10915
3.236,0.07699
3.24,0.08224
3.244,0.0601
3.248,0.06011
3.252,0.07625
3.256,0.07022
3.26,0.03684
3.264,0.02765
3.268,0.05735
3.272,0.05533
3.276,0.04174
3.28,0.02276
3.284,0.00376
3.288,0.03011
3.292,0.03358
3.296,0.00218
3.3,0.03676
3.304,0.04788
3.308,0.04169
3.312,0.06299
3.316,0.00569
3.32,0.01579
3.324,0.02704
3.328,0.01823
3.332,0.04085
3.336,0.03345
3.34,0.02822
3.344,0.028
3.348,0.01839
3.352,0.04069
3.356,0.00687
3.36,0.04077
3.364,0.04101
3.368,0.02878
3.372,-0.00065
3.376,0.03457
3.38,0.00451
3.384,0.03372
3.388,0.0468
3.392,0.02135
3.396,0.03069
3.4,0.02607
3.404,0.02736
3.408,0.04303
3.412,0.05503
3.416,0.05245
3.42,0.04275
3.424,0.08251
3.428,0.08243
3.432,0.12086
3.436,0.14183
3.44,0.14735
3.444,0.15958
3.448,0.1722
3.452,0.13553
3.456,0.11156
3.46,0.11163
3.464,0.10794
3.468,0.07824
3.472,0.07059
3.476,0.06897
3.48,0.06203
3.484,0.06174
3.488,0.03688
3.492,0.03199
3.496,0.03211
3.5,0.02331
3.504,0.03099
3.508,0.04966
3.512,0.03022
3.516,0.01807
3.52,0.03799
3.524,0.02069
3.528,0.02702
3.532,0.04051
3.536,0.00832
3.54,0.04076
3.544,0.02257
3.548,0.03062
3.552,0.02906
3.556,0.04123
3.56,-0.00101
3.564,-0.02891
3.568,-0.05404
3.572,-0.072
3.576,-0.11714
3.58,-0.0406
3.584,0.1138
3.588,0.2379
3.592,0.49525
3.596,0.691
3.6,0.87269
3.604,1.03712
3.608,0.99196
3.612,0.93887
3.616,0.76741
3.62,0.54617
3.624,0.31974
3.628,0.13487
3.632,-0.02636
3.636,-0.1068
3.64,-0.1153
3.644,-0.09156
3.648,-0.04846
3.652,-0.03871
3.656,-0.01846
3.66,0.04012
3.664,0.05857
3.668,0.04041
3.672,0.0363
3.676,0.0442
3.68,0.01975
3.684,0.00294
3.688,0.01748
3.692,0.02931
3.696,0.00807
3.7,0.0351
3.704,0.00629
3.708,0.03955
3.712,0.02943
3.716,0.04638
3.72,0.03375
3.724,0.03748
3.728,0.01792
3.732,0.00661
3.736,0.03651
3.74,0.05481
3.744,0.02416
3.748,0.00506
3.752,0.00246
3.756,0.0242
3.76,0.05633
3.764,0.01303
3.768,0.04661
3.772,0.04108
3.776,0.02653
3.78,0.04715
3.784,0.04494
3.788,0.03999
3.792,0.03279
3.796,0.0326
3.8,0.0591
3.804,0.03691
3.808,0.05878
3.812,0.08579
3.816,0.06827
3.82,0.09014
3.824,0.11499
3.828,0.1363
3.832,0.13689
3.836,0.12631
3.84,0.1519
3.844,0.16296
3.848,0.20719
3.852,0.17553
3.856,0.2218
3.86,0.19349
3.864,0.21786
3.868,0.24046
3.872,0.22915
3.876,0.23231
3.88,0.25489
3.884,0.2405
3.888,0.24517
3.892,0.23826
3.896,0.23361
3.9,0.26609
3.904,0.21809
3.908,0.22801
3.912,0.21893
3.916,0.22402
3.92,0.22412
3.924,0.18176
3.928,0.16387
3.932,0.15137
3.936,0.16035
3.94,0.15243
3.944,0.10824
3.948,0.11728
3.952,0.1353
3.956,0.11524
3.96,0.08985
3.964,0.08387
3.968,0.05007
3.972,0.07124
3.976,0.0515
3.98,0.04555
3.984,0.07082
3.988,0.04845
3.992,0.04712
3.996,0.05921
4.0,0.03205
4.004,0.03306
4.008,0.05664
4.012,0.00659
4.016,0.04597
4.02,0.03281
4.024,0.04395
4.028,0.01136
4.032,0.03028
4.036,0.02047
4.04,0.02658
4.044,0.03168
4.048,0.02911
4.052,0.01014
4.056,0.02969
4.06,0.04534
4.064,0.02223
4.068,0.03867
4.072,0.00392
4.076,0.01803
4.08,0.04036
4.084,0.03191
4.088,0.01894
4.092,0.04335
4.096,0.01665
4.1,0.01279
4.104,0.03598
4.108,0.04551
4.112,0.0541
4.116,0.07064
4.12,0.05099
4.124,0.04564
4.128,0.10024
4.132,0.09235
4.136,0.12906
4.14,0.0916
4.144,0.10916
4.148,0.13577
4.152,0.12511
4.156,0.12908
4.16,0.08674
4.164,0.07374
4.168,0.109
4.172,0.08456
4.176,0.05203
4.18,0.04365
4.184,0.03604
4.188,0.02661
4.192,0.04902
4.196,0.036
4.2,0.01402
4.204,0.04529
4.208,0.00868
4.212,0.01056
4.216,0.02134
4.22,0.02417
4.224,0.01517
4.228,-0.0032
4.232,0.02865
4.236,0.00866
4.24,0.01038
4.244,0.0367
4.248,0.03636
4.252,0.01894
4.256,0.02855
4.26,0.00839
4.264,-0.00105
4.268,-0.047
4.272,-0.08279
4.276,-0.097
4.28,-0.0927
4.284,-0.00047
4.288,0.17285
4.292,0.3249
4.296,0.53626
4.3,0.76401
4.304,0.90568
4.308,1.02521
4.312,0.9941
4.316,0.85675
4.32,0.67533
4.324,0.40985
4.328,0.20865
4.332,0.03917
4.336,-0.07405
4.34,-0.1384
4.344,-0.13176
4.348,-0.1288
4.352,-0.06738
4.356,-0.01393
4.36,-0.00414
4.364,0.01528
4.368,0.03226
4.372,0.04129
4.376,0.02505
4.38,-0.00024
4.384,0.03431
4.388,0.02941
4.392,0.02294
4.396,0.05312
4.4,0.01713
4.404,0.00593
4.408,0.02618
4.412,0.02139
4.416,0.02253
4.42,0.00377
4.424,0.01467
4.428,0.00515
4.432,0.01915
4.436,0.02283
4.44,0.04094
4.444,-0.00244
4.448,0.01759
4.452,0.00813
4.456,0.02894
4.46,0.0399
4.464,0.0094
4.468,0.0215
4.472,0.00655
4.476,0.04603
4.48,0.01917
4.484,0.00614
4.488,0.04267
4.492,0.0531
4.496,0.03859
4.5,0.03656
4.504,0.05354
4.508,0.07003
4.512,0.05234
4.516,0.08022
4.52,0.09071
4.524,0.08623
4.528,0.11834
4.532,0.10606
4.536,0.11255
4.54,0.1585
4.544,0.1326
4.548,0.17732
4.552,0.17762
4.556,0.15609
4.56,0.22238
4.564,0.20469
4.568,0.20184
4.572,0.20778
4.576,0.232
4.58,0.24086
4.584,0.23378
4.588,0.22278
4.592,0.25584
4.596,0.24015
4.6,0.22351
4.604,0.2308
4.608,0.23219
4.612,0.18972
4.616,0.22519
4.62,0.18771
4.624,0.19942
4.628,0.16555
4.632,0.17304
4.636,0.14888
4.64,0.12844
4.644,0.10199
4.648,0.10635
4.652,0.1488
4.656,0.10493
4.66,0.0848
4.664,0.06468
4.668,0.07117
4.672,0.06956
4.676,0.0366
4.68,0.05193
4.684,0.01382
4.688,0.01944
4.692,0.03227
4.696,0.02039
4.7,0.04508
4.704,-0.00855
4.708,0.03096
4.712,0.01532
4.716,0.0062
4.72,0.01104
4.724,0.03161
4.728,0.0279
4.732,0.01792
4.736,0.02824
4.74,0.033
4.744,0.03633
4.748,0.02498
4.752,0.05194
4.756,0.03959
4.76,0.04909
4.764,0.04604
4.768,0.07172
4.772,0.07726
4.776,0.10209
4.78,0.11389
4.784,0.11153
4.788,0.1374
4.792,0.1033
4.796,0.11377
4.8,0.07759
4.804,0.09898
4.808,0.05487
4.812,0.02804
4.816,0.01787
4.82,0.02815
4.824,0.01178
4.828,0.02621
4.832,0.01922
4.836,0.01805
4.84,0.01184
4.844,0.01853
4.848,0.04413
4.852,-0.00586
4.856,0.0152
4.86,0.00647
4.864,0.01829
4.868,0.00466
4.872,-0.01927
4.876,0.03077
4.88,-0.0036
4.884,0.01824
4.888,0.00673
4.892,-0.01235
4.896,0.01397
4.9,-0.02081
4.904,-0.0632
4.908,-0.06909
4.912,-0.12095
4.916,-0.07193
4.92,-0.00573
4.924,0.14619
4.928,0.3475
4.932,0.56711
4.936,0.78656
4.94,0.92139
4.944,1.02318
4.948,0.96049
4.952,0.81109
4.956,0.61981
4.96,0.37378
4.964,0.16979
4.968,-0.01806
4.972,-0.09122
4.976,-0.15304
4.98,-0.18263
4.984,-0.13049
4.988,-0.06033
4.992,-0.01985
4.996,-0.02093
5.0,-0.00149
5.004,0.00848
5.008,-0.00579
5.012,-0.00058
5.016,0.01965
5.02,0.00732
5.024,-0.01057
5.028,0.01499
5.032,0.01363
5.036,-0.00427
5.04,-0.00606
5.044,0.01023
5.048,0.0076
5.052,0.00384
5.056,0.01415
5.06,-0.01231
5.064,0.00782
5.068,0.01562
5.072,-0.01552
5.076,0.02508
5.08,0.02037
5.084,-0.01593
5.088,0.02054
5.092,0.01076
5.096,-0.01367
5.1,-0.02191
5.104,-0.00201
5.108,0.01766
5.112,-0.00736
5.116,0.02188
5.12,0.012
5.124,0.00915
5.128,0.03751
5.132,0.05248
5.136,0.03538
5.14,0.05321
5.144,0.05839
5.148,0.04752
5.152,0.06688
5.156,0.08637
5.16,0.07527
5.164,0.1057
5.168,0.08349
5.172,0.11735
5.176,0.12488
5.18,0.13584
5.184,0.1383
5.188,0.17615
5.192,0.15324
5.196,0.186
5.2,0.18834
5.204,0.20512
5.208,0.19155
5.212,0.22823
5.216,0.21197
5.22,0.20988
5.224,0.21684
5.228,0.20491
5.232,0.21404
5.236,0.22515
5.24,0.23414
5.244,0.21552
5.248,0.18283
5.252,0.16941
5.256,0.16332
5.26,0.15523
5.264,0.12984
5.268,0.1324
5.272,0.11294
5.276,0.12333
5.28,0.07276
5.284,0.07671
5.288,0.07541
5.292,0.08397
5.296,0.04603
5.3,0.046
5.304,0.06473
5.308,0.04798
5.312,0.02251
5.316,0.00062
5.32,0.03678
5.324,-0.00218
5.328,0.00709
5.332,0.01429
5.336,-0.01123
5.34,0.02694
5.344,0.02296
5.348,-0.02052
5.352,-0.00107
5.356,-0.01088
5.36,-0.03551
5.364,-0.01054
5.368,-0.00502
5.372,0.00971
5.376,-0.0257
5.38,0.0158
5.384,-0.03085
5.388,8e-05
5.392,-0.0128
5.396,0.00841
5.4,0.00783
5.404,-0.01333
5.408,-0.00396
5.412,-0.02444
5.416,-0.0192
5.42,-0.01102
5.424,0.01084
5.428,-0.01892
5.432,-0.00135
5.436,0.00317
5.44,-0.00474
5.444,-0.01408
5.448,-0.02962
5.452,0.00392
5.456,-0.0183
5.46,-0.02653
5.464,0.00315
5.468,-0.0039
5.472,-0.02299
5.476,-0.02001
5.48,-0.01159
5.484,-0.00561
5.488,-0.02064
5.492,-0.00241
5.496,-0.01532
5.5,0.01028
5.504,-0.0266
5.508,-0.00243
5.512,-0.01929
5.516,0.00448
5.52,0.00419
5.524,0.03845
5.528,0.03739
5.532,0.03737
5.536,0.04417
5.54,0.06332
5.544,0.09213
5.548,0.07639
5.552,0.08585
5.556,0.09854
5.56,0.09886
5.564,0.07175
5.568,0.06911
5.572,0.04689
5.576,0.04352
5.58,0.00558
5.584,0.02892
5.588,0.01829
5.592,0.01903
5.596,0.00447
5.6,-0.01112
5.604,-0.03628
5.608,0.00259
5.612,-0.02651
5.616,0.00503
5.62,-0.01311
5.624,0.00492
5.628,-0.00469
5.632,-0.01539
5.636,-0.02927
5.64,-0.0244
5.644,-0.00818
5.648,-0.01246
5.652,-0.01116
5.656,-0.04062
5.66,-0.01795
5.664,-0.0098
5.668,-0.04145
5.672,-0.06543
5.676,-0.10661
5.68,-0.13043
5.684,-0.12829
5.688,-0.07007
5.692,0.06613
5.696,0.24199
5.7,0.42952
5.704,0.67461
5.708,0.82426
5.712,0.99544
5.716,0.97796
5.72,0.89504
5.724,0.7019
5.728,0.46086
5.732,0.24778
5.736,0.0356
5.74,-0.09419
5.744,-0.14689
5.748,-0.16965
5.752,-0.19291
5.756,-0.12599
5.76,-0.08947
5.764,-0.0425
5.768,-0.00838
5.772,-0.04952
5.776,-0.01369
5.78,-0.01515
5.784,-0.01626
5.788,0.01997
5.792,0.00497
5.796,-0.01914
5.8,-0.01499
5.804,-0.01796
5.808,-0.02207
5.812,-0.02292
5.816,-0.02804
5.82,-0.01288
5.824,-0.01129
5.828,-0.0013
5.832,-0.00664
5.836,-0.03097
5.84,-0.01651
5.844,-0.03894
5.848,-0.00817
5.852,-0.00779
5.856,-0.00806
5.86,0.01577
5.864,-0.01155
5.868,-0.00394
5.872,-0.01411
5.876,-0.0187
5.88,-0.00864
5.884,0.00506
5.888,0.01698
5.892,0.01032
5.896,0.01376
5.9,0.00934
5.904,0.01477
5.908,0.03202
5.912,0.02214
5.916,0.01633
5.92,0.04237
5.924,0.01688
5.928,0.06268
5.932,0.07228
5.936,0.06147
5.94,0.06813
5.944,0.09831
5.948,0.10703
5.952,0.13387
5.956,0.14937
5.96,0.13381
5.964,0.15809
5.968,0.17054
5.972,0.171
5.976,0.16358
5.98,0.18429
5.984,0.18027
5.988,0.19579
5.992,0.17776
5.996,0.2345
6.0,0.17639
6.004,0.16559
6.008,0.19027
6.012,0.20854
6.016,0.19749
6.02,0.16595
6.024,0.15389
6.028,0.15533
6.032,0.11314
6.036,0.13013
6.04,0.07434
6.044,0.0951
6.048,0.08611
6.052,0.08567
6.056,0.05884
6.06,0.0338
6.064,0.04078
6.068,0.03956
6.072,0.029
6.076,0.03724
6.08,0.01271
6.084,-0.00177
6.088,0.01616
6.092,0.01103
6.096,0.01472
6.1,0.01325
6.104,0.01105
6.108,-0.0081
6.112,0.01641
6.116,0.01286
6.12,0.03184
6.124,0.03769
6.128,0.04633
6.132,0.06035
6.136,0.07904
6.14,0.07407
6.144,0.05913
6.148,0.06916
6.152,0.06499
6.156,0.04478
6.16,0.01862
6.164,-0.00298
6.168,0.00222
6.172,0.0039
6.176,-0.03433
6.18,-0.01958
6.184,-0.00942
6.188,-0.03486
6.192,-0.01119
6.196,-0.00539
6.2,-0.02386
6.204,-0.03826
6.208,-0.04239
6.212,-0.03607
6.216,-0.04943
6.22,-0.06952
6.224,-0.02977
6.228,-0.03455
6.232,-0.02944
6.236,-0.00626
6.24,-0.02381
6.244,-0.00388
6.248,-0.00491
6.252,-0.03368
6.256,-0.03976
6.26,-0.07582
6.264,-0.12145
6.268,-0.16597
6.272,-0.13734
6.276,-0.04907
6.28,0.09817
6.284,0.26534
6.288,0.50753
6.292,0.71115
6.296,0.85555
6.3,0.98206
6.304,0.91587
6.308,0.82192
6.312,0.6109
6.316,0.39975
6.32,0.15236
6.324,-0.04164
6.328,-0.13319
6.332,-0.18766
6.336,-0.16698
6.34,-0.14796
6.344,-0.12605
6.348,-0.07583
6.352,-0.05538
6.356,-0.04921
6.36,-0.02061
6.364,-0.01057
6.368,-0.03342
6.372,-0.0361
6.376,-0.03214
6.38,-0.03123
6.384,-0.0343
6.388,-0.03793
6.392,-0.01037
6.396,-0.02631
6.4,-0.02631
6.404,-0.02429
6.408,-0.01053
6.412,-0.05396
6.416,-0.04868
6.42,-0.01803
6.424,-0.01667
6.428,-0.01991
6.432,-0.02298
6.436,-0.03947
6.44,0.01306
6.444,-0.00986
6.448,-0.03114
6.452,-0.02925
6.456,-0.01585
6.46,-0.0229
6.464,-0.02509
6.468,-0.03983
6.472,-0.00753
6.476,-0.02279
6.48,-0.0266
6.484,-0.00623
6.488,-0.0093
6.492,0.00091
6.496,0.02981
6.5,0.01369
6.504,0.01909
6.508,0.03107
6.512,0.05707
6.516,0.0606
6.52,0.07116
6.524,0.07566
6.528,0.089
6.532,0.08824
6.536,0.12163
6.54,0.11692
6.544,0.10614
6.548,0.14604
6.552,0.16321
6.556,0.17317
6.56,0.15785
6.564,0.17837
6.568,0.20234
6.572,0.1746
6.576,0.18122
6.58,0.17897
6.584,0.18343
6.588,0.19416
6.592,0.17043
6.596,0.2274
6.6,0.1433
6.604,0.16561
6.608,0.15132
6.612,0.16438
6.616,0.12884
6.62,0.14865
6.624,0.14391
6.628,0.1241
6.632,0.13574
6.636,0.11484
6.64,0.11416
6.644,0.13428
6.648,0.13402
6.652,0.11015
6.656,0.13074
6.66,0.1201
6.664,0.11443
6.668,0.069
6.672,0.05647
6.676,0.04084
6.68,0.04579
6.684,0.03578
6.688,0.01531
6.692,-0.00903
6.696,-0.00729
6.7,-0.01668
6.704,-0.0164
6.708,-0.02289
6.712,-0.05434
6.716,-0.01578
6.72,-0.0328
6.724,-0.01794
6.728,-0.01152
6.732,-0.0139
6.736,-0.03732
6.74,-0.02314
6.744,-0.02376
6.748,-0.0341
6.752,-0.02992
6.756,-0.04527
6.76,-0.02092
6.764,-0.04276
6.768,-0.02167
6.772,-0.05142
6.776,-0.0702
6.78,-0.10871
6.784,-0.16769
6.788,-0.15273
6.792,-0.09701
6.796,0.01498
6.8,0.17922
6.804,0.38778
6.808,0.59658
6.812,0.81326
6.816,0.91337
6.82,0.96016
6.824,0.90516
6.828,0.74062
6.832,0.50224
6.836,0.28925
6.84,0.06062
6.844,-0.06514
6.848,-0.16275
6.852,-0.1999
6.856,-0.18572
6.86,-0.13767
6.864,-0.09047
6.868,-0.05557
6.872,-0.03393
6.876,-0.01893
6.88,-0.05356
6.884,-0.04405
6.888,-0.02356
6.892,-0.01448
6.896,-0.03552
6.9,-0.00324
6.904,-0.02578
6.908,-0.03415
6.912,-0.01749
6.916,-0.0367
6.92,-0.03154
6.924,-0.06295
6.928,-0.04168
6.932,-0.02193
6.936,-0.02272
6.94,-0.03555
6.944,-0.05137
6.948,-0.03654
6.952,-0.02351
6.956,-0.03253
6.96,0.0006
6.964,-0.0292
6.968,-0.0289
6.972,0.02209
6.976,-0.04247
6.98,-0.00582
6.984,-0.02335
6.988,-0.03374
6.992,-0.04325
6.996,-0.00206
7.0,-0.00222
7.004,0.01906
7.008,-0.0137
7.012,0.01782
7.016,0.01716
7.02,-0.00349
7.024,0.01537
7.028,0.04816
7.032,0.02599
7.036,0.02375
7.04,0.06984
7.044,0.0889
7.048,0.08958
7.052,0.11471
7.056,0.10905
7.06,0.1379
7.064,0.10845
7.068,0.12331
7.072,0.16628
7.076,0.17592
7.08,0.20011
7.084,0.19352
7.088,0.18238
7.092,0.18954
7.096,0.18751
7.1,0.19966
7.104,0.20927
7.108,0.21216
7.112,0.1799
7.116,0.17015
7.12,0.14976
7.124,0.15328
7.128,0.17726
7.132,0.15769
7.136,0.14823
7.14,0.08222
7.144,0.14094
7.148,0.12107
7.152,0.11557
7.156,0.07965
7.16,0.06261
7.164,0.04103
7.168,0.05994
7.172,0.05361
7.176,0.00647
7.18,0.00795
7.184,0.02414
7.188,0.01922
7.192,0.01439
7.196,0.01328
7.2,-0.00546
7.204,0.02361
7.208,-0.00111
7.212,-0.01089
7.216,0.05761
7.22,0.02657
7.224,0.01536
7.228,0.06703
7.232,0.06322
7.236,0.06325
7.24,0.06098
7.244,0.07011
7.248,0.06976
7.252,0.08553
7.256,0.05399
7.26,0.0315
7.264,0.06257
7.268,0.02078
7.272,0.01674
7.276,-0.00433
7.28,-0.04146
7.284,-0.01602
7.288,-0.01501
7.292,-0.0279
7.296,-0.03575
7.3,-0.02142
7.304,-0.01945
7.308,-0.02055
7.312,-0.0247
7.316,-0.03959
7.32,-0.03636
7.324,-0.02615
7.328,-0.01717
7.332,-0.02853
7.336,-0.03201
7.34,-0.00999
7.344,-0.00792
7.348,0.00374
7.352,-0.0469
7.356,-0.02152
7.36,-0.05832
7.364,-0.11511
7.368,-0.12596
7.372,-0.15245
7.376,-0.106
7.38,-0.00407
7.384,0.1627
7.388,0.35566
7.392,0.59699
7.396,0.77556
7.4,0.91753
7.404,0.95549
7.408,0.91349
7.412,0.74518
7.416,0.51785
7.42,0.30561
7.424,0.10229
7.428,-0.0523
7.432,-0.1269
7.436,-0.21666
7.44,-0.20449
7.444,-0.14053
7.448,-0.08512
7.452,-0.06576
7.456,-0.03911
7.46,-0.02275
7.464,-0.0235
7.468,-0.0417
7.472,-0.03278
7.476,-0.02774
7.48,-0.01224
7.484,-0.03279
7.488,-0.00528
7.492,-0.04187
7.496,-0.01286
7.5,-0.02586
7.504,-0.03468
7.508,-0.03732
7.512,-0.0295
7.516,-0.01454
7.52,-0.02175
7.524,-0.00896
7.528,-0.03566
7.532,-0.03326
7.536,-0.0121
7.54,-0.02874
7.544,0.00886
7.548,-0.00352
7.552,-0.02212
7.556,-0.00603
7.56,-0.01723
7.564,-0.02832
7.568,-0.02904
7.572,-0.01156
7.576,-0.00668
7.58,0.00571
7.584,-0.02975
7.588,-0.02091
7.592,-0.00892
7.596,0.00134
7.6,0.02359
7.604,0.0277
7.608,0.05884
7.612,0.03767
7.616,0.0476
7.62,0.04856
7.624,0.06512
7.628,0.08797
7.632,0.09028
7.636,0.11165
7.64,0.09584
7.644,0.13919
7.648,0.1544
7.652,0.13193
7.656,0.17008
7.66,0.15995
7.664,0.20379
7.668,0.17336
7.672,0.16998
7.676,0.23313
7.68,0.20076
7.684,0.22
7.688,0.19719
7.692,0.22635
7.696,0.20504
7.7,0.18796
7.704,0.17855
7.708,0.18808
7.712,0.17263
7.716,0.18407
7.72,0.14592
7.724,0.11887
7.728,0.10833
7.732,0.07489
7.736,0.08151
7.74,0.07931
7.744,0.06647
7.748,0.08315
7.752,0.05046
7.756,0.0406
7.76,0.03294
7.764,0.00367
7.768,0.02077
7.772,0.02157
7.776,-0.00289
7.78,-0.01598
7.784,0.01843
7.788,-0.00393
7.792,-0.02588
7.796,-0.01245
7.8,-0.01168
7.804,-0.03551
7.808,-0.03056
7.812,0.0221
7.816,0.01372
7.82,-0.0073
7.824,-0.02489
7.828,0.00502
7.832,-0.06451
7.836,-0.01174
7.84,-0.03586
7.844,0.00058
7.848,-0.02913
7.852,-0.02367
7.856,-0.03706
7.86,-0.0099
7.864,0.00642
7.868,-0.02532
7.872,-0.01042
7.876,-0.0055
7.88,-0.02126
7.884,-0.03706
7.888,-0.00019
7.892,-0.02731
7.896,-0.00252
7.9,-0.01334
7.904,-0.01452
7.908,-0.0072
7.912,-0.01256
7.916,-0.00675
7.92,-0.0078
7.924,0.00911
7.928,-0.01666
7.932,-0.03517
7.936,-0.00556
7.94,-0.02342
7.944,-0.00167
7.948,-0.00073
7.952,0.04249
7.956,0.00961
7.96,0.03159
7.964,0.03926
7.968,0.0644
7.972,0.08368
7.976,0.05099
7.98,0.0962
7.984,0.06698
7.988,0.06702
7.992,0.08739
7.996,0.03555
8.0,0.06301
8.004,0.05165
8.008,0.02142
8.012,0.01968
8.016,0.00859
8.02,0.01619
8.024,-0.03289
8.028,-0.01808
8.032,-0.00153
8.036,-0.01872
8.04,0.01721
8.044,0.03251
8.048,-0.02769
8.052,0.00751
8.056,-0.01611
8.06,-0.00274
8.064,-6e-05
8.068,-0.00449
8.072,0.01497
8.076,-0.01306
8.08,-0.01568
8.084,-0.00795
8.088,-0.02368
8.092,-0.03777
8.096,-0.01603
8.1,-0.0527
8.104,-0.06685
8.108,-0.11202
8.112,-0.14182
8.116,-0.09816
8.12,-0.01081
8.124,0.14488
8.128,0.3254
8.132,0.53412
8.136,0.73797
8.14,0.92821
8.144,0.97875
8.148,0.95375
8.152,0.8329
8.156,0.62159
8.16,0.35166
8.164,0.16743
8.168,-0.03562
8.172,-0.15624
8.176,-0.18855
8.18,-0.17632
8.184,-0.13223
8.188,-0.12169
8.192,-0.03694
8.196,0.0086
8.2,-0.01559
8.204,0.00069
8.208,0.01109
8.212,0.00559
8.216,0.00561
8.22,0.00304
8.224,-0.00038
8.228,-0.00888
8.232,0.00055
8.236,-0.04057
8.24,-0.0281
8.244,0.00938
8.248,0.02362
8.252,0.00866
8.256,0.00445
8.26,0.00313
8.264,0.02322
8.268,-0.01536
8.272,-0.03643
8.276,0.00277
8.28,-0.00156
8.284,0.008
8.288,-0.02082
8.292,0.03139
8.296,-0.00893
8.3,-0.02103
8.304,0.01395
8.308,0.02273
8.312,-0.00075
8.316,-0.01269
8.32,0.01551
8.324,0.01388
8.328,0.00713
8.332,0.0188
8.336,0.01103
8.34,0.04062
8.344,0.03849
8.348,0.05931
8.352,0.05764
8.356,0.05363
8.36,0.09238
8.364,0.09282
8.368,0.06366
8.372,0.0952
8.376,0.08364
8.38,0.10546
8.384,0.15702
8.388,0.15167
8.392,0.1693
8.396,0.19041
8.4,0.16104
8.404,0.19731
8.408,0.18635
8.412,0.18954
8.416,0.20842
8.42,0.22452
8.424,0.21837
8.428,0.21914
8.432,0.21484
8.436,0.21885
8.44,0.23536
8.444,0.20933
8.448,0.19584
8.452,0.20643
8.456,0.16192
8.46,0.16563
8.464,0.15484
8.468,0.13134
8.472,0.11955
8.476,0.09732
8.48,0.11121
8.484,0.07117
8.488,0.06295
8.492,0.08385
8.496,0.05854
8.5,0.0642
8.504,0.0385
8.508,0.05285
8.512,0.02293
8.516,0.02988
8.52,0.03438
8.524,-0.00753
8.528,-0.00536
8.532,0.02202
8.536,-0.00242
8.54,-0.01889
8.544,-0.00434
8.548,0.0163
8.552,0.00307
8.556,0.01023
8.56,0.02625
8.564,0.01875
8.568,0.01496
8.572,0.01522
8.576,0.05578
8.58,0.08613
8.584,0.05472
8.588,0.07514
8.592,0.11536
8.596,0.08969
8.6,0.10681
8.604,0.13314
8.608,0.09085
8.612,0.10493
8.616,0.07208
8.62,0.10365
8.624,0.08525
8.628,0.04969
8.632,0.05815
8.636,0.03499
8.64,0.05368
8.644,0.00961
8.648,0.00034
8.652,0.00061
8.656,-0.01498
8.66,-0.02431
8.664,-0.01411
8.668,0.02451
8.672,0.02431
8.676,0.01361
8.68,0.02327
8.684,0.002
8.688,0.01437
8.692,0.01076
8.696,0.0043
8.7,0.00555
8.704,0.04449
8.708,0.01855
8.712,0.00644
8.716,-0.02172
8.72,-0.0188
8.724,-0.05847
8.728,-0.11069
8.732,-0.09441
8.736,-0.06275
8.74,-0.00142
8.744,0.15351
8.748,0.33481
8.752,0.57093
8.756,0.80146
8.76,0.93368
8.764,1.0126
8.768,0.97291
8.772,0.81268
8.776,0.63696
8.78,0.36995
8.784,0.15601
8.788,-0.02015
8.792,-0.08507
8.796,-0.16
8.8,-0.13342
8.804,-0.10414
8.808,-0.06627
8.812,-0.03175
8.816,-0.02608
8.82,0.00255
8.824,-0.00757
8.828,0.01324
8.832,0.04643
8.836,0.02091
8.84,-0.01433
8.844,0.00435
8.848,0.00352
8.852,-0.00236
8.856,0.02174
8.86,0.01466
8.864,0.00962
8.868,0.01379
8.872,0.01535
8.876,-0.00472
8.88,0.01759
8.884,0.01778
8.888,-0.01015
8.892,0.0102
8.896,0.01086
8.9,-0.00857
8.904,0.00923
8.908,-0.0041
8.912,0.02409
8.916,0.03112
8.92,0.03167
8.924,0.0162
8.928,0.01569
8.932,0.01995
8.936,0.0177
8.94,0.03356
8.944,0.01829
8.948,0.0437
8.952,0.01545
8.956,0.05198
8.96,0.04532
8.964,0.05137
8.968,0.08588
8.972,0.04835
8.976,0.08071
8.98,0.09572
8.984,0.09183
8.988,0.11932
8.992,0.12551
8.996,0.13671
9.0,0.1424
9.004,0.1776
9.008,0.20245
9.012,0.16221
9.016,0.21183
9.02,0.22243
9.024,0.22877
9.028,0.19495
9.032,0.23092
9.036,0.23715
9.04,0.2373
9.044,0.25538
9.048,0.22082
9.052,0.1948
9.056,0.24385
9.06,0.23895
9.064,0.19536
9.068,0.18621
9.072,0.19519
9.076,0.19922
9.08,0.17332
9.084,0.1682
9.088,0.14081
9.092,0.16004
9.096,0.14185
9.1,0.14734
9.104,0.13286
9.108,0.11135
9.112,0.09586
9.116,0.08409
9.12,0.07271
9.124,0.07573
9.128,0.02874
9.132,0.0387
9.136,0.04405
9.14,0.04143
9.144,0.02498
9.148,0.02779
9.152,0.00845
9.156,0.01373
9.16,-0.00371
9.164,0.02389
9.168,0.00933
9.172,0.01736
9.176,0.0324
9.18,0.01714
9.184,-0.01034
9.188,0.02028
9.192,0.02736
9.196,0.00456
9.2,0.01586
9.204,0.0233
9.208,0.01249
9.212,0.03879
9.216,0.01761
9.22,0.03481
9.224,-0.00789
9.228,0.00802
9.232,0.03535
9.236,0.04173
9.24,-0.00073
9.244,0.01488
9.248,0.02351
9.252,0.02275
9.256,0.01549
9.26,0.05169
9.264,0.01449
9.268,0.03158
9.272,0.00792
9.276,0.00295
9.28,0.00886
9.284,0.03132
9.288,0.03067
9.292,0.01818
9.296,0.02096
9.3,0.01338
9.304,0.01331
9.308,0.02751
9.312,0.04548
9.316,0.01161
9.32,0.01396
9.324,0.02175
9.328,0.03159
9.332,0.03262
9.336,0.02016
9.34,-0.00339
9.344,0.03784
9.348,0.00997
9.352,0.03755
9.356,0.05496
9.36,0.04109
9.364,0.04826
9.368,0.0679
9.372,0.10257
9.376,0.09824
9.38,0.09011
9.384,0.11497
9.388,0.11446
9.392,0.11389
9.396,0.10742
9.4,0.11453
9.404,0.10066
9.408,0.09028
9.412,0.0583
9.416,0.08267
9.42,0.07694
9.424,0.03871
9.428,0.04453
9.432,0.0207
9.436,0.03387
9.44,0.02556
9.444,0.00521
9.448,0.01528
9.452,0.02937
9.456,0.03881
9.46,0.04132
9.464,0.01796
9.468,0.02399
9.472,0.03425
9.476,0.00968
9.48,0.02995
9.484,0.0216
9.488,0.03338
9.492,0.04177
9.496,0.02311
9.5,0.03504
9.504,0.0235
9.508,0.00524
9.512,-0.0425
9.516,-0.0965
9.52,-0.10763
9.524,-0.02335
9.528,0.08698
9.532,0.28045
9.536,0.46992
9.54,0.69723
9.544,0.86688
9.548,0.98832
9.552,1.02569
9.556,0.93636
9.56,0.74675
9.564,0.55202
9.568,0.28295
9.572,0.10332
9.576,-0.05206
9.58,-0.13071
9.584,-0.16324
9.588,-0.11141
9.592,-0.09164
9.596,-0.0263
9.6,-0.01732
9.604,0.02015
9.608,-0.0005
9.612,0.04078
9.616,0.0236
9.62,0.02903
9.624,0.02098
9.628,0.02855
9.632,0.02479
9.636,0.02102
9.64,0.01693
9.644,0.02861
9.648,0.05199
9.652,0.03544
9.656,0.03598
9.66,0.01812
9.664,0.02093
9.668,0.04104
9.672,0.03093
9.676,0.04567
9.68,0.01445
9.684,0.035
9.688,-0.00363
9.692,0.04082
9.696,0.01937
9.7,0.03505
9.704,0.02174
9.708,0.02355
9.712,0.04777
9.716,0.05398
9.72,0.04106
9.724,0.02902
9.728,0.01677
9.732,0.04897
9.736,0.08258
9.74,0.07448
9.744,0.05969
9.748,0.08003
9.752,0.08395
9.756,0.09425
9.76,0.09405
9.764,0.11895
9.768,0.12032
9.772,0.1221
9.776,0.14279
9.78,0.11947
9.784,0.14353
9.788,0.19014
9.792,0.18152
9.796,0.18307
9.8,0.19994
9.804,0.24449
9.808,0.21736
9.812,0.23599
9.816,0.21575
9.82,0.2445
9.824,0.25293
9.828,0.25988
9.832,0.24943
9.836,0.26368
9.84,0.24273
9.844,0.24755
9.848,0.24648
9.852,0.20998
9.856,0.20506
9.86,0.20534
9.864,0.20984
9.868,0.17659
9.872,0.19134
9.876,0.16742
9.88,0.13356
9.884,0.11489
9.888,0.14738
9.892,0.11922
9.896,0.11362
9.9,0.09362
9.904,0.08362
9.908,0.07329
9.912,0.0685
9.916,0.10062
9.92,0.04408
9.924,0.0573
9.928,0.08201
9.932,0.03663
9.936,0.04282
9.94,0.04002
9.944,0.02593
9.948,0.04747
9.952,0.02428
9.956,0.01031
9.96,0.05244
9.964,0.01153
9.968,0.04019
9.972,0.0361
9.976,0.0445
9.98,0.04606
9.984,0.04157
9.988,0.03202
9.992,0.03085
9.996,0.05487
