t_seg,ecg_mV
0.0,-0.03402
0.004,-0.04101
0.008,0.01894
0.012,0.0254
0.016,-0.0098
0.02,-0.02007
0.024,0.05182
0.028,-0.03771
0.032,0.019
0.036,0.0027
0.04,0.01097
0.044,0.02999
0.048,-0.05849
0.052,-0.10769
0.056,-0.04493
0.06,-0.11571
0.064,-0.09378
0.068,0.05298
0.072,0.23526
0.076,0.49167
0.08,0.67674
0.084,0.85717
0.088,1.00165
0.092,0.9484
0.096,0.85161
0.1,0.72671
0.104,0.46735
0.108,0.3338
0.112,0.12993
0.116,-0.07754
0.12,-0.15853
0.124,-0.12551
0.128,-0.12832
0.132,-0.08534
0.136,-0.03775
0.14,-0.00726
0.144,0.01305
0.148,-0.01032
0.152,0.00597
0.156,0.01723
0.16,0.01433
0.164,-0.03328
0.168,-0.0373
0.172,0.00136
0.176,-0.05167
0.18,-0.04271
0.184,0.00767
0.188,0.00555
0.192,0.07813
0.196,0.03222
0.2,-0.00238
0.204,-0.0313
0.208,0.02669
0.212,-0.05136
0.216,0.03635
0.22,0.03808
0.224,-0.01134
0.228,-0.0207
0.232,0.03513
0.236,-0.06001
0.24,0.02659
0.244,-0.01845
0.248,-0.00172
0.252,0.05883
0.256,0.08435
0.26,0.02628
0.264,-0.02615
0.268,0.04272
0.272,-0.00937
0.276,0.04197
0.28,0.07165
0.284,0.06701
0.288,0.06495
0.292,0.05386
0.296,0.05323
0.3,0.0668
0.304,0.06668
0.308,0.04356
0.312,0.12081
0.316,0.10111
0.32,0.12916
0.324,0.14026
0.328,0.12206
0.332,0.14475
0.336,0.17959
0.34,0.19303
0.344,0.16317
0.348,0.22007
0.352,0.21162
0.356,0.19876
0.36,0.20034
0.364,0.20392
0.368,0.21427
0.372,0.21974
0.376,0.24059
0.38,0.25251
0.384,0.26339
0.388,0.14894
0.392,0.29165
0.396,0.20251
0.4,0.22053
0.404,0.18735
0.408,0.17995
0.412,0.20985
0.416,0.09951
0.42,0.159
0.424,0.07767
0.428,0.11706
0.432,0.00562
0.436,0.1227
0.44,0.07443
0.444,0.05612
0.448,0.0388
0.452,0.12309
0.456,0.0741
0.46,0.05483
0.464,0.06338
0.468,0.01595
0.472,0.01183
0.476,-0.0113
0.48,-0.02031
0.484,0.01004
0.488,-0.06942
0.492,0.01452
0.496,0.05386
0.5,-0.02666
0.504,0.02278
0.508,-0.0326
0.512,0.00955
0.516,0.06063
0.52,0.06822
0.524,0.03089
0.528,-0.03979
0.532,0.03692
0.536,0.04057
0.54,-0.01398
0.544,0.03531
0.548,0.07003
0.552,0.05438
0.556,-0.00562
0.56,0.02152
0.564,0.00422
0.568,0.01729
0.572,0.0102
0.576,0.00342
0.58,0.00634
0.584,-0.02258
0.588,-0.04212
0.592,0.00113
0.596,0.00555
0.6,0.06402
0.604,0.03487
0.608,0.0016
0.612,0.03748
0.616,0.04785
0.62,0.05358
0.624,0.01961
0.628,0.03541
0.632,0.011
0.636,0.04133
0.64,0.05712
0.644,0.10745
0.648,0.03064
0.652,0.15352
0.656,0.16683
0.66,0.09008
0.664,0.10569
0.668,0.1332
0.672,0.13181
0.676,0.09949
0.68,0.0776
0.684,0.04126
0.688,0.08212
0.692,0.11658
0.696,0.07015
0.7,0.12191
0.704,0.10372
0.708,0.16439
0.712,0.07874
0.716,0.02142
0.72,-0.01271
0.724,0.03692
0.728,0.06605
0.732,0.01184
0.736,0.07984
0.74,0.029
0.744,-0.05803
0.748,0.06901
0.752,-0.00535
0.756,0.03367
0.76,0.00915
0.764,0.04128
0.768,0.00154
0.772,0.08851
0.776,0.06368
0.78,-0.06705
0.784,0.02717
0.788,-0.04364
0.792,-0.02508
0.796,-0.13148
0.8,-0.07749
0.804,-0.00357
0.808,0.14839
0.812,0.34462
0.816,0.54701
0.82,0.74856
0.824,0.88651
0.828,1.04063
0.832,0.98131
0.836,0.86314
0.84,0.705
0.844,0.43637
0.848,0.18398
0.852,0.05042
0.856,-0.07406
0.86,-0.15414
0.864,-0.08887
0.868,-0.12322
0.872,-0.04573
0.876,-0.08557
0.88,-0.03451
0.884,0.01749
0.888,-0.03704
0.892,-0.03368
0.896,0.00539
0.9,-0.03468
0.904,0.07374
0.908,0.10817
0.912,0.03802
0.916,-0.0067
0.92,-0.02307
0.924,0.0313
0.928,-0.00153
0.932,0.0366
0.936,-0.01201
0.94,0.04145
0.944,0.05795
0.948,0.01278
0.952,0.03208
0.956,0.00763
0.96,0.03419
0.964,0.029
0.968,-0.0369
0.972,0.08371
0.976,-0.0109
0.98,0.01763
0.984,0.01659
0.988,0.01066
0.992,0.04423
0.996,0.06277
1.0,0.0649
1.004,0.00544
1.008,0.02688
1.012,0.05922
1.016,0.04719
1.02,0.02861
1.024,0.09577
1.028,0.09277
1.032,0.02132
1.036,0.09013
1.04,0.06653
1.044,0.14769
1.048,0.12955
1.052,0.10639
1.056,0.16833
1.06,0.17469
1.064,0.12352
1.068,0.22622
1.072,0.16579
1.076,0.17273
1.08,0.23161
1.084,0.24161
1.088,0.1652
1.092,0.22806
1.096,0.23737
1.1,0.17693
1.104,0.27505
1.108,0.21826
1.112,0.28969
1.116,0.20327
1.12,0.25487
1.124,0.20854
1.128,0.18889
1.132,0.22338
1.136,0.2542
1.14,0.24528
1.144,0.16499
1.148,0.19273
1.152,0.15349
1.156,0.22777
1.16,0.08963
1.164,0.11378
1.168,0.10333
1.172,0.15334
1.176,0.14005
1.18,0.04077
1.184,0.04967
1.188,0.03089
1.192,0.08329
1.196,0.02926
1.2,0.0921
1.204,0.08341
1.208,-0.02172
1.212,0.05463
1.216,0.08279
1.22,0.05873
1.224,0.02559
1.228,0.00713
1.232,0.08422
1.236,0.05652
1.24,-0.0594
1.244,0.09821
1.248,0.03344
1.252,0.07781
1.256,0.07954
1.26,0.1554
1.264,0.07608
1.268,0.08811
1.272,0.0956
1.276,0.13659
1.28,0.1341
1.284,0.10554
1.288,0.10918
1.292,0.16785
1.296,0.1412
1.3,0.10025
1.304,0.1302
1.308,0.05009
1.312,0.00326
1.316,0.04721
1.32,0.02383
1.324,0.04434
1.328,-0.00153
1.332,-0.00061
1.336,-0.05532
1.34,-0.02366
1.344,0.01156
1.348,0.04742
1.352,-0.00349
1.356,0.0064
1.36,0.02653
1.364,0.03011
1.368,0.03937
1.372,0.05334
1.376,0.04146
1.38,0.00353
1.384,0.00287
1.388,0.04885
1.392,0.0174
1.396,0.01642
1.4,-0.03711
1.404,-0.05568
1.408,-0.11513
1.412,-0.04508
1.416,-0.09451
1.42,-0.06744
1.424,0.15155
1.428,0.34736
1.432,0.48469
1.436,0.68054
1.44,0.88555
1.444,1.04116
1.448,0.99009
1.452,0.86326
1.456,0.73707
1.46,0.48978
1.464,0.21927
1.468,0.09513
1.472,-0.03257
1.476,-0.11538
1.48,-0.15505
1.484,-0.13174
1.488,-0.0342
1.492,-0.05264
1.496,0.02279
1.5,-0.01723
1.504,0.0425
1.508,0.00986
1.512,0.00166
1.516,0.03233
1.52,0.05483
1.524,0.05004
1.528,-0.00813
1.532,0.01613
1.536,0.01944
1.54,0.05453
1.544,-0.00527
1.548,-0.04876
1.552,-0.00875
1.556,0.08588
1.56,-0.00891
1.564,-0.00077
1.568,-0.03618
1.572,0.04602
1.576,0.05106
1.58,0.05058
1.584,0.07181
1.588,0.00261
1.592,0.01279
1.596,-0.01043
1.6,-0.00566
1.604,0.02335
1.608,0.09517
1.612,0.03062
1.616,0.0608
1.62,0.05517
1.624,0.03779
1.628,0.05368
1.632,0.03014
1.636,0.03944
1.64,0.01689
1.644,0.03915
1.648,0.05209
1.652,0.05637
1.656,0.09232
1.66,0.1415
1.664,0.1284
1.668,0.12177
1.672,0.15815
1.676,0.18623
1.68,0.16241
1.684,0.20498
1.688,0.19871
1.692,0.19362
1.696,0.21294
1.7,0.24686
1.704,0.25891
1.708,0.31877
1.712,0.20509
1.716,0.26743
1.72,0.24916
1.724,0.22829
1.728,0.21264
1.732,0.29717
1.736,0.22811
1.74,0.27435
1.744,0.22338
1.748,0.26873
1.752,0.15431
1.756,0.17809
1.76,0.20895
1.764,0.16258
1.768,0.16885
1.772,0.19048
1.776,0.17827
1.78,0.14981
1.784,0.13369
1.788,0.1694
1.792,0.13581
1.796,0.07244
1.8,0.08836
1.804,0.06663
1.808,0.00742
1.812,0.01022
1.816,0.03246
1.82,0.02999
1.824,0.07645
1.828,0.06963
1.832,0.04046
1.836,0.08293
1.84,0.01599
1.844,0.08221
1.848,-0.01695
1.852,0.07335
1.856,0.00714
1.86,0.06602
1.864,0.0367
1.868,0.06294
1.872,0.02046
1.876,0.06105
1.88,0.06335
1.884,-0.04771
1.888,0.00149
1.892,0.10067
1.896,-0.0028
1.9,-0.02273
1.904,0.04297
1.908,0.03395
1.912,0.09594
1.916,-0.05527
1.92,0.03758
1.924,0.0606
1.928,0.04762
1.932,0.0428
1.936,0.0401
1.94,-0.01917
1.944,0.04514
1.948,-0.00988
1.952,0.03292
1.956,-0.00847
1.96,-0.01198
1.964,0.01453
1.968,0.04084
1.972,0.00135
1.976,-0.0395
1.98,0.0345
1.984,0.07848
1.988,0.01263
1.992,0.02354
1.996,0.01613
2.0,-0.01352
2.004,0.0428
2.008,0.01959
2.012,-0.01499
2.016,-0.03692
2.02,0.03575
2.024,0.04318
2.028,0.04981
2.032,0.01299
2.036,0.02624
2.04,0.04132
2.044,-0.00633
2.048,-0.05516
2.052,0.08385
2.056,0.01056
2.06,0.03313
2.064,0.00043
2.068,0.06502
2.072,0.08954
2.076,-0.00956
2.08,0.1042
2.084,0.10083
2.088,0.13331
2.092,0.06065
2.096,0.14999
2.1,0.14544
2.104,0.16169
2.108,0.14676
2.112,0.14272
2.116,0.1192
2.12,0.12238
2.124,0.11271
2.128,0.10665
2.132,0.10565
2.136,0.11063
2.14,0.03946
2.144,0.05172
2.148,0.00965
2.152,0.05118
2.156,-0.02131
2.16,0.0159
2.164,0.08142
2.168,0.01996
2.172,-0.00532
2.176,0.01749
2.18,0.01323
2.184,-0.02492
2.188,0.04003
2.192,-0.01282
2.196,0.06412
2.2,-0.00432
2.204,0.07334
2.208,0.07818
2.212,0.04467
2.216,0.01645
2.22,0.00022
2.224,0.02395
2.228,-0.06895
2.232,-0.07521
2.236,0.0137
2.24,-0.09129
2.244,-0.05643
2.248,0.03189
2.252,0.1953
2.256,0.41007
2.26,0.55782
2.264,0.77158
2.268,0.96326
2.272,1.06615
2.276,1.02094
2.28,0.90355
2.284,0.69355
2.288,0.35648
2.292,0.18458
2.296,-0.02847
2.3,-0.0822
2.304,-0.15897
2.308,-0.133
2.312,-0.12556
2.316,-0.0856
2.32,-0.06715
2.324,-0.03883
2.328,0.01696
2.332,0.01803
2.336,0.07226
2.34,0.00496
2.344,0.03197
2.348,0.02988
2.352,0.00465
2.356,0.00846
2.36,-0.00847
2.364,-0.01138
2.368,0.00086
2.372,0.02503
2.376,0.04053
2.38,0.03149
2.384,0.04842
2.388,0.03395
2.392,-0.03539
2.396,0.02782
2.4,-0.01154
2.404,-0.0183
2.408,-0.01815
2.412,0.0544
2.416,-0.01273
2.42,0.01974
2.424,-0.02716
2.428,0.04428
2.432,-0.00341
2.436,0.03906
2.44,0.02797
2.444,0.0423
2.448,0.03441
2.452,0.02395
2.456,0.07541
2.46,0.09498
2.464,0.06304
2.468,0.01965
2.472,0.03489
2.476,0.03311
2.48,0.09324
2.484,0.12688
2.488,0.05346
2.492,0.15086
2.496,0.1174
2.5,0.1447
2.504,0.18577
2.508,0.15945
2.512,0.14246
2.516,0.20263
2.52,0.17589
2.524,0.16677
2.528,0.19429
2.532,0.21287
2.536,0.25643
2.54,0.20882
2.544,0.27017
2.548,0.23541
2.552,0.25387
2.556,0.22296
2.56,0.28714
2.564,0.28374
2.568,0.21954
2.572,0.21397
2.576,0.15161
2.58,0.16319
2.584,0.1621
2.588,0.19084
2.592,0.14867
2.596,0.11982
2.6,0.14537
2.604,0.13746
2.608,0.09856
2.612,0.08601
2.616,0.10741
2.62,0.10287
2.624,-0.00959
2.628,0.06682
2.632,0.05673
2.636,0.08785
2.64,0.07272
2.644,0.02279
2.648,0.09513
2.652,0.07127
2.656,0.04318
2.66,0.0278
2.664,0.06215
2.668,-0.00828
2.672,-0.00525
2.676,-0.03021
2.68,-0.00927
2.684,0.02134
2.688,0.02666
2.692,-0.03895
2.696,-0.02644
2.7,0.00135
2.704,0.12107
2.708,0.05426
2.712,0.09582
2.716,0.12144
2.72,0.14463
2.724,0.08367
2.728,0.11236
2.732,0.06871
2.736,0.10941
2.74,0.13963
2.744,0.10055
2.748,0.06671
2.752,0.08861
2.756,0.03266
2.76,0.06748
2.764,0.02012
2.768,0.04987
2.772,0.07237
2.776,0.07761
2.78,-0.00162
2.784,0.03465
2.788,0.05143
2.792,0.00181
2.796,0.07205
2.8,-0.01572
2.804,0.00325
2.808,-0.01048
2.812,-0.01227
2.816,-0.00518
2.82,0.02671
2.824,0.01937
2.828,-0.01901
2.832,0.04573
2.836,0.04234
2.84,0.03669
2.844,-0.00042
2.848,-0.01829
2.852,-0.08683
2.856,-0.13333
2.86,-0.12738
2.864,-0.01711
2.868,0.09768
2.872,0.24889
2.876,0.5088
2.88,0.63295
2.884,0.89061
2.888,0.99967
2.892,1.02534
2.896,0.84943
2.9,0.69124
2.904,0.46642
2.908,0.28442
2.912,0.02872
2.916,-0.088
2.92,-0.10937
2.924,-0.09342
2.928,-0.15059
2.932,-0.0862
2.936,-0.08732
2.94,0.00063
2.944,0.00134
2.948,-0.02264
2.952,-0.00328
2.956,0.00414
2.96,-0.03106
2.964,-0.0036
2.968,-0.06144
2.972,0.04414
2.976,0.0002
2.98,0.02396
2.984,-0.05173
2.988,0.00845
2.992,-0.02384
2.996,0.01443
3.0,0.03636
3.004,0.00926
3.008,0.08814
3.012,0.04602
3.016,0.05797
3.02,0.01032
3.024,0.01282
3.028,0.04794
3.032,0.03139
3.036,-0.00158
3.04,0.02026
3.044,0.05049
3.048,0.0338
3.052,0.06696
3.056,0.00684
3.06,0.08197
3.064,0.05293
3.068,0.08601
3.072,0.004
3.076,0.01612
3.08,0.13025
3.084,0.10956
3.088,0.07959
3.092,0.0918
3.096,0.05796
3.1,0.00799
3.104,0.09644
3.108,0.05016
3.112,0.09611
3.116,0.13197
3.12,0.12693
3.124,0.16417
3.128,0.17707
3.132,0.20736
3.136,0.16223
3.14,0.24434
3.144,0.20052
3.148,0.18507
3.152,0.20182
3.156,0.22302
3.16,0.23244
3.164,0.22964
3.168,0.20198
3.172,0.19443
3.176,0.16626
3.18,0.18064
3.184,0.18402
3.188,0.17861
3.192,0.22427
3.196,0.19159
3.2,0.22561
3.204,0.17842
3.208,0.12356
3.212,0.17987
3.216,0.17182
3.22,0.13958
3.224,0.15502
3.228,0.15091
3.232,0.12607
3.236,0.10149
3.24,0.12559
3.244,0.12999
3.248,0.09621
3.252,0.12395
3.256,0.12116
3.26,0.1462
3.264,0.06705
3.268,0.10066
3.272,0.10016
3.276,0.18563
3.28,0.03851
3.284,0.12084
3.288,0.0678
3.292,0.05697
3.296,0.06808
3.3,0.05695
3.304,0.00498
3.308,0.04098
3.312,0.02689
3.316,-0.04946
3.32,0.00162
3.324,0.00532
3.328,-0.0979
3.332,0.04077
3.336,0.06396
3.34,0.00167
3.344,-0.06828
3.348,-0.01994
3.352,0.03391
3.356,0.00481
3.36,0.008
3.364,-0.01523
3.368,-0.01257
3.372,0.03105
3.376,-0.04624
3.38,0.00897
3.384,-0.0133
3.388,-0.04663
3.392,-0.08887
3.396,-0.05501
3.4,-0.11404
3.404,-0.06041
3.408,0.04129
3.412,0.13138
3.416,0.29801
3.42,0.42321
3.424,0.57135
3.428,0.63496
3.432,0.5885
3.436,0.50704
3.44,0.36433
3.444,0.23917
3.448,0.05462
3.452,-0.06698
3.456,-0.12929
3.46,-0.16092
3.464,-0.17287
3.468,-0.14232
3.472,-0.03956
3.476,-0.07615
3.48,-0.02226
3.484,-0.01738
3.488,0.04933
3.492,0.03538
3.496,0.05097
3.5,-0.03326
3.504,0.03027
3.508,-0.01879
3.512,0.03288
3.516,0.04368
3.52,0.02137
3.524,0.13709
3.528,0.07255
3.532,0.13564
3.536,0.13378
3.54,0.12893
3.544,0.05214
3.548,0.07679
3.552,0.01606
3.556,0.07355
3.56,0.0618
3.564,0.09038
3.568,0.03068
3.572,0.03611
3.576,0.04755
3.58,-0.01677
3.584,-0.02671
3.588,-0.01892
3.592,0.01018
3.596,0.03714
3.6,-0.0358
3.604,-0.01436
3.608,0.03394
3.612,-0.02429
3.616,0.05343
3.62,0.04741
3.624,-0.02957
3.628,0.03735
3.632,0.03109
3.636,0.07629
3.64,0.02253
3.644,0.06722
3.648,0.02016
3.652,0.08265
3.656,0.00211
3.66,0.02664
3.664,0.00705
3.668,0.08933
3.672,0.28847
3.676,0.49237
3.68,0.71493
3.684,0.9284
3.688,1.12382
3.692,1.20791
3.696,1.18027
3.7,1.08802
3.704,0.8896
3.708,0.61115
3.712,0.36887
3.716,0.1535
3.72,0.15226
3.724,0.00895
3.728,0.00021
3.732,0.0057
3.736,0.14576
3.74,0.10255
3.744,0.08325
3.748,0.16668
3.752,0.11997
3.756,0.13773
3.76,0.0867
3.764,0.07194
3.768,0.07597
3.772,0.07091
3.776,0.05754
3.78,-0.0185
3.784,0.02539
3.788,0.11269
3.792,0.0472
3.796,0.02511
3.8,-0.01125
3.804,0.00591
3.808,0.03975
3.812,-0.02481
3.816,0.08331
3.82,0.03666
3.824,0.05796
3.828,0.00581
3.832,-0.03256
3.836,-0.06891
3.84,-0.02221
3.844,-0.02373
3.848,0.02059
3.852,0.0252
3.856,0.00902
3.86,-0.03102
3.864,-0.02048
3.868,0.02595
3.872,-0.01877
3.876,0.0566
3.88,0.02209
3.884,0.00383
3.888,-0.04239
3.892,0.0496
3.896,0.16242
3.9,0.06164
3.904,0.05927
3.908,0.11253
3.912,0.08058
3.916,0.11981
3.92,0.09165
3.924,0.21123
3.928,0.20424
3.932,0.24561
3.936,0.27732
3.94,0.22508
3.944,0.28142
3.948,0.2807
3.952,0.29113
3.956,0.30969
3.96,0.26291
3.964,0.25852
3.968,0.22676
3.972,0.31784
3.976,0.22482
3.98,0.22621
3.984,0.20156
3.988,0.17342
3.992,0.09053
3.996,0.20182
4.0,0.1531
4.004,0.1199
4.008,0.12999
4.012,0.14362
4.016,0.17614
4.02,0.12199
4.024,0.10333
4.028,0.00173
4.032,0.06371
4.036,0.06713
4.04,0.07612
4.044,0.12536
4.048,0.09443
4.052,0.02534
4.056,0.04129
4.06,-0.05296
4.064,-0.08084
4.068,-0.12568
4.072,-0.04442
4.076,-0.09429
4.08,0.01565
4.084,0.15333
4.088,0.34542
4.092,0.60873
4.096,0.76962
4.1,0.98532
4.104,0.9261
4.108,0.92138
4.112,0.76168
4.116,0.59327
4.12,0.26815
4.124,0.10743
4.128,-0.06161
4.132,-0.18369
4.136,-0.14316
4.14,-0.19048
4.144,-0.12343
4.148,-0.08135
4.152,-0.02601
4.156,-0.01423
4.16,-0.05222
4.164,0.0101
4.168,0.00713
4.172,0.00604
4.176,-0.01617
4.18,-0.04281
4.184,-0.04392
4.188,-0.06611
4.192,-0.08873
4.196,0.02004
4.2,-0.03844
4.204,-0.08248
4.208,-0.01548
4.212,-0.02502
4.216,-0.06752
4.22,0.05683
4.224,-0.01495
4.228,0.02944
4.232,-0.01187
4.236,0.01051
4.24,-0.03006
4.244,-0.02001
4.248,-0.04757
4.252,-0.03126
4.256,0.00635
4.26,-0.0538
4.264,-0.02243
4.268,-0.01094
4.272,-0.06024
4.276,-0.00627
4.28,0.01644
4.284,0.02905
4.288,-0.03608
4.292,0.0125
4.296,0.0159
4.3,0.01414
4.304,0.06086
4.308,-0.01471
4.312,0.06488
4.316,0.03398
4.32,0.02807
4.324,0.00786
4.328,0.05451
4.332,0.08605
4.336,0.09912
4.34,0.12365
4.344,0.09069
4.348,0.14276
4.352,0.1703
4.356,0.21119
4.36,0.10778
4.364,0.1598
4.368,0.2162
4.372,0.14027
4.376,0.21396
4.38,0.19506
4.384,0.21823
4.388,0.18678
4.392,0.18685
4.396,0.21912
4.4,0.20016
4.404,0.19294
4.408,0.22926
4.412,0.12343
4.416,0.13913
4.42,0.16123
4.424,0.09146
4.428,0.12702
4.432,0.16802
4.436,0.06147
4.44,0.07746
4.444,0.0954
4.448,0.12365
4.452,0.01701
4.456,0.10366
4.46,0.01557
4.464,0.06232
4.468,-0.00831
4.472,-0.04327
4.476,-0.01601
4.48,-0.04056
4.484,0.02599
4.488,-0.04248
4.492,-0.01927
4.496,-0.01
4.5,-0.02679
4.504,-0.01241
4.508,-0.00693
4.512,-0.02408
4.516,-0.00165
4.52,-0.11185
4.524,-0.01294
4.528,0.05153
4.532,-0.04303
4.536,-0.01609
4.54,-0.00583
4.544,-0.044
4.548,-0.03516
4.552,0.03751
4.556,-0.09749
4.56,-0.00909
4.564,-0.05526
4.568,0.0552
4.572,-0.01892
4.576,-0.05492
4.58,-0.02582
4.584,-0.10953
4.588,-0.05646
4.592,-0.05623
4.596,0.00722
4.6,-0.0619
4.604,-0.03627
4.608,0.00549
4.612,-0.00918
4.616,0.02179
4.62,-0.01156
4.624,-0.03929
4.628,-0.0038
4.632,-0.0033
4.636,-0.02742
4.64,-0.05623
4.644,0.00958
4.648,0.01652
4.652,-0.07051
4.656,-0.03173
4.66,0.03189
4.664,0.03524
4.668,0.00227
4.672,0.03616
4.676,-0.05367
4.68,-0.01625
4.684,-0.03135
4.688,-0.03882
4.692,-0.04312
4.696,-0.03367
4.7,-0.03021
4.704,-0.02212
4.708,-0.00028
4.712,-0.0701
4.716,-0.02927
4.72,-0.06605
4.724,0.0364
4.728,-0.06185
4.732,-0.02418
4.736,-0.02706
4.74,-0.03597
4.744,-0.084
4.748,0.00914
4.752,-0.03309
4.756,-0.02664
4.76,-0.09379
4.764,0.05137
4.768,-0.01021
4.772,-0.03924
4.776,-0.01241
4.78,0.01598
4.784,0.03614
4.788,-0.07389
4.792,0.01418
4.796,0.05271
4.8,-0.05007
4.804,-0.04648
4.808,-0.01798
4.812,0.01251
4.816,-0.0065
4.82,-0.06479
4.824,-0.06833
4.828,-0.0628
4.832,0.01955
4.836,-0.02836
4.84,-0.01954
4.844,-0.05105
4.848,-0.00185
4.852,0.01437
4.856,-0.07245
4.86,-0.04145
4.864,-0.01354
4.868,-0.04374
4.872,-0.01561
4.876,-0.06417
4.88,-0.06977
4.884,0.0065
4.888,-0.07862
4.892,-0.01982
4.896,-0.08456
4.9,-0.06611
4.904,-0.06023
4.908,0.03147
4.912,0.01348
4.916,-0.05561
4.92,-0.02811
4.924,-0.06503
4.928,-0.0025
4.932,-0.02494
4.936,-0.02539
4.94,-0.03688
4.944,-0.03051
4.948,-0.04038
4.952,-0.04995
4.956,-0.08205
4.96,-0.04396
4.964,-0.05263
4.968,0.01
4.972,0.00152
4.976,-0.02733
4.98,0.02588
4.984,-0.01592
4.988,-0.00197
4.992,0.03823
4.996,-0.00448
5.0,0.05004
5.004,-0.02242
5.008,-0.05578
5.012,-0.01323
5.016,0.01609
5.02,-0.03951
5.024,-0.01485
5.028,0.00925
5.032,-0.05278
5.036,-0.01052
5.04,0.02458
5.044,0.02123
5.048,-0.04394
5.052,-0.02788
5.056,0.00322
5.06,0.00936
5.064,-0.04726
5.068,0.0113
5.072,-0.02064
5.076,0.02215
5.08,-0.04575
5.084,0.04
5.088,0.071
5.092,0.00329
5.096,0.0532
5.1,0.08887
5.104,0.04483
5.108,0.07636
5.112,0.10388
5.116,0.05334
5.12,-0.03148
5.124,0.04765
5.128,0.01924
5.132,0.017
5.136,-0.00685
5.14,0.01101
5.144,0.02573
5.148,-0.01661
5.152,-0.0289
5.156,-0.06231
5.16,0.00398
5.164,-0.00612
5.168,-0.01542
5.172,-0.04551
5.176,-0.05836
5.18,-0.02404
5.184,-0.02403
5.188,-0.0513
5.192,0.02337
5.196,0.00408
5.2,0.00654
5.204,-0.09644
5.208,-0.01144
5.212,-0.00999
5.216,-0.07242
5.22,-0.04592
5.224,-0.17569
5.228,-0.17209
5.232,-0.11278
5.236,-0.00642
5.24,0.16205
5.244,0.3208
5.248,0.52277
5.252,0.7907
5.256,0.96388
5.26,0.96185
5.264,0.90939
5.268,0.77366
5.272,0.51296
5.276,0.34579
5.28,0.11447
5.284,-0.0143
5.288,-0.14635
5.292,-0.19278
5.296,-0.21565
5.3,-0.08727
5.304,-0.12844
5.308,-0.07683
5.312,-0.04187
5.316,-0.03866
5.32,-0.0297
5.324,0.04652
5.328,-0.06911
5.332,-0.01438
5.336,-0.09233
5.34,-0.00904
5.344,-0.01803
5.348,-0.032
5.352,-0.00677
5.356,-0.0379
5.36,-0.05785
5.364,-0.03784
5.368,0.02732
5.372,-0.09498
5.376,-0.02866
5.38,-0.04771
5.384,-0.0746
5.388,0.00174
5.392,0.00492
5.396,-0.01017
5.4,-0.01263
5.404,-0.02399
5.408,-0.01607
5.412,-0.01484
5.416,-0.0493
5.42,0.03904
5.424,-0.02469
5.428,-0.03714
5.432,-0.0909
5.436,-0.03455
5.44,-0.0126
5.444,0.00525
5.448,-0.07601
5.452,0.02935
5.456,0.0168
5.46,0.08804
5.464,0.00286
5.468,0.06268
5.472,0.071
5.476,0.04804
5.48,0.11614
5.484,0.05986
5.488,0.01265
5.492,0.11397
5.496,0.14047
5.5,0.1014
5.504,0.12959
5.508,0.10732
5.512,0.14363
5.516,0.12166
5.52,0.18492
5.524,0.09478
5.528,0.1734
5.532,0.22585
5.536,0.17719
5.54,0.22456
5.544,0.20006
5.548,0.2485
5.552,0.2323
5.556,0.12755
5.56,0.07854
5.564,0.19301
5.568,0.18826
5.572,0.11368
5.576,0.0695
5.58,0.15902
5.584,0.10813
5.588,0.10434
5.592,0.07103
5.596,0.14505
5.6,0.16115
5.604,0.04137
5.608,0.01539
5.612,0.08674
5.616,0.06285
5.62,0.04246
5.624,0.02915
5.628,-0.01399
5.632,0.00209
5.636,0.05851
5.64,-0.03364
5.644,-0.0442
5.648,-0.0072
5.652,-0.02387
5.656,-0.0036
5.66,-0.00332
5.664,-0.00133
5.668,-0.02945
5.672,-0.00518
5.676,-0.05245
5.68,-0.06595
5.684,-0.10817
5.688,-0.03179
5.692,0.00762
5.696,-0.05744
5.7,-0.02763
5.704,-0.03505
5.708,-0.07683
5.712,-0.11427
5.716,0.00263
5.72,0.00836
5.724,-0.05754
5.728,-0.06347
5.732,-0.06009
5.736,-0.00344
5.74,-0.0323
5.744,-0.05896
5.748,-0.02983
5.752,-0.01218
5.756,-0.01917
5.76,0.01451
5.764,-0.11398
5.768,-0.01148
5.772,0.02168
5.776,0.01907
5.78,-0.05467
5.784,-0.02045
5.788,0.01772
5.792,-0.02653
5.796,-0.06564
5.8,-0.03913
5.804,0.00818
5.808,-0.03124
5.812,-0.0179
5.816,-0.00219
5.82,0.01355
5.824,0.0174
5.828,0.03632
5.832,-0.01339
5.836,-0.04943
5.84,-0.05135
5.844,-0.04824
5.848,-0.02701
5.852,-0.06719
5.856,-0.04938
5.86,-0.01071
5.864,0.05776
5.868,-0.04922
5.872,0.00503
5.876,-0.03462
5.88,0.01216
5.884,-0.00447
5.888,-0.00521
5.892,-0.01114
5.896,-0.05116
5.9,-0.07421
5.904,-0.03241
5.908,-0.02031
5.912,-0.03862
5.916,-0.04381
5.92,-0.0491
5.924,-0.04829
5.928,0.00419
5.932,-0.02064
5.936,-0.01268
5.94,0.01741
5.944,-0.05661
5.948,-0.03173
5.952,-0.00313
5.956,-0.01393
5.96,-0.03509
5.964,-0.01363
5.968,-0.03315
5.972,-0.02278
5.976,-0.09256
5.98,-0.04608
5.984,-0.0521
5.988,-0.06796
5.992,0.03279
5.996,-0.06021
6.0,-0.00678
6.004,-0.03073
6.008,-0.01499
6.012,0.01792
6.016,-0.03024
6.02,0.05241
6.024,0.0011
6.028,-0.00898
6.032,0.01256
6.036,0.05896
6.04,0.01465
6.044,0.04591
6.048,0.05343
6.052,0.06916
6.056,0.07052
6.06,0.04973
6.064,0.06642
6.068,0.08959
6.072,0.05896
6.076,0.06089
6.08,0.02734
6.084,0.019
6.088,0.04659
6.092,-0.00432
6.096,-0.04584
6.1,0.0184
6.104,-0.03398
6.108,-0.04263
6.112,-0.0355
6.116,-0.01253
6.12,-0.00049
6.124,-0.04008
6.128,-0.05626
6.132,0.0254
6.136,0.00054
6.14,0.01409
6.144,-0.03275
6.148,-0.03799
6.152,-0.0238
6.156,-0.07772
6.16,-0.05187
6.164,0.05336
6.168,0.02693
6.172,-0.0569
6.176,-0.02179
6.18,-0.12004
6.184,-0.07828
6.188,-0.19955
6.192,-0.08537
6.196,-0.01237
6.2,0.21557
6.204,0.39444
6.208,0.72408
6.212,0.81661
6.216,0.97539
6.22,1.03644
6.224,0.92392
6.228,0.77974
6.232,0.49507
6.236,0.16241
6.24,0.03141
6.244,-0.10842
6.248,-0.14441
6.252,-0.182
6.256,-0.19874
6.26,-0.10943
6.264,-0.09218
6.268,-0.02843
6.272,-0.03058
6.276,-0.01318
6.28,-0.06009
6.284,-0.04026
6.288,-0.01756
6.292,-0.02958
6.296,-0.03938
6.3,-0.0202
6.304,0.00201
6.308,0.00135
6.312,-0.02476
6.316,0.00882
6.32,0.00183
6.324,-0.01082
6.328,-0.0041
6.332,-0.06037
6.336,-0.01732
6.34,-0.05254
6.344,-0.00116
6.348,0.01175
6.352,-0.00355
6.356,-0.05698
6.36,-0.0458
6.364,0.01386
6.368,-0.05493
6.372,0.01002
6.376,-0.01514
6.38,0.05815
6.384,0.03783
6.388,-0.03859
6.392,-0.00966
6.396,0.02729
6.4,-0.03507
6.404,0.0346
6.408,0.03806
6.412,0.02312
6.416,0.0119
6.42,0.09361
6.424,0.01628
6.428,0.06056
6.432,0.07213
6.436,0.07129
6.44,0.03881
6.444,0.09392
6.448,0.09934
6.452,0.12065
6.456,0.1564
6.46,0.1078
6.464,0.13601
6.468,0.18405
6.472,0.1175
6.476,0.19088
6.48,0.18394
6.484,0.18141
6.488,0.27322
6.492,0.1822
6.496,0.19133
6.5,0.24679
6.504,0.22672
6.508,0.18582
6.512,0.28895
6.516,0.16957
6.52,0.14714
6.524,0.2134
6.528,0.18085
6.532,0.09806
6.536,0.13574
6.54,0.12955
6.544,0.14921
6.548,0.17002
6.552,0.13714
6.556,0.15554
6.56,0.1177
6.564,0.08976
6.568,0.09596
6.572,0.04377
6.576,0.01807
6.58,0.06605
6.584,0.02861
6.588,0.06052
6.592,-0.02878
6.596,0.05955
6.6,0.01978
6.604,0.01039
6.608,-0.01904
6.612,-0.00146
6.616,-0.05458
6.62,-0.00975
6.624,0.02702
6.628,0.00312
6.632,-0.05123
6.636,-0.0085
6.64,0.01355
6.644,-0.02237
6.648,0.0182
6.652,-0.02986
6.656,-0.08532
6.66,0.0132
6.664,0.06306
6.668,-0.01614
6.672,-0.01588
6.676,-0.02905
6.68,-0.04719
6.684,0.00511
6.688,0.0515
6.692,0.00032
6.696,-0.00235
6.7,-0.0191
6.704,-0.02123
6.708,-0.01411
6.712,0.11171
6.716,-0.07078
6.72,0.03359
6.724,-0.07518
6.728,0.00266
6.732,-0.04893
6.736,0.02002
6.74,0.02432
6.744,-0.03476
6.748,-0.03782
6.752,0.0454
6.756,0.0426
6.76,-0.00668
6.764,-0.00863
6.768,-0.01548
6.772,-0.00575
6.776,0.05605
6.78,0.04697
6.784,-0.01122
6.788,0.11419
6.792,-0.00902
6.796,0.00126
6.8,0.00711
6.804,0.05452
6.808,-0.0098
6.812,-0.02376
6.816,0.00529
6.82,0.02401
6.824,-0.03892
6.828,-0.00136
6.832,-0.04651
6.836,0.04179
6.84,0.03464
6.844,-0.00745
6.848,0.02994
6.852,0.0225
6.856,-0.02606
6.86,-0.0013
6.864,3e-05
6.868,-0.0003
6.872,-0.02264
6.876,0.02891
6.88,-0.05139
6.884,0.0148
6.888,-0.01037
6.892,0.00369
6.896,0.01239
6.9,-0.00591
6.904,0.02111
6.908,0.011
6.912,0.07489
6.916,0.04203
6.92,0.08441
6.924,0.10238
6.928,0.04791
6.932,0.07049
6.936,0.08308
6.94,0.12187
6.944,0.07643
6.948,0.10037
6.952,0.04784
6.956,0.06647
6.96,0.07593
6.964,-0.02725
6.968,0.01962
6.972,0.10384
6.976,0.0
6.98,-0.05833
6.984,0.01248
6.988,0.01574
6.992,0.06223
6.996,0.03849
7.0,0.02928
7.004,0.00241
7.008,0.03815
7.012,0.04066
7.016,-0.05021
7.02,0.00017
7.024,-0.00459
7.028,0.00772
7.032,-0.03023
7.036,0.04599
7.04,-0.07071
7.044,0.04039
7.048,-0.00892
7.052,-0.03016
7.056,0.02725
7.06,-0.07081
7.064,-0.13006
7.068,-0.11243
7.072,0.00373
7.076,0.12698
7.08,0.30031
7.084,0.52619
7.088,0.72175
7.092,0.90908
7.096,1.00906
7.1,1.03808
7.104,0.80054
7.108,0.71493
7.112,0.41851
7.116,0.28007
7.12,0.07774
7.124,-0.09827
7.128,-0.15782
7.132,-0.17837
7.136,-0.13796
7.14,-0.0932
7.144,-0.02754
7.148,-0.02043
7.152,0.00505
7.156,-0.00434
7.16,0.01102
7.164,0.03628
7.168,0.01042
7.172,0.02813
7.176,0.06069
7.18,0.07092
7.184,-0.01377
7.188,0.04746
7.192,0.00188
7.196,-0.02029
7.2,0.08861
7.204,-0.01481
7.208,0.07326
7.212,-0.00469
7.216,0.08246
7.22,0.09698
7.224,0.07521
7.228,-0.0135
7.232,0.01248
7.236,-0.00803
7.24,-0.0582
7.244,0.00724
7.248,0.0234
7.252,0.01279
7.256,-0.00781
7.26,0.00599
7.264,0.06951
7.268,0.04666
7.272,0.00725
7.276,0.04689
7.28,-0.0113
7.284,0.06887
7.288,-0.0238
7.292,0.05636
7.296,0.09943
7.3,0.07984
7.304,0.03483
7.308,0.10143
7.312,0.11527
7.316,0.10503
7.32,0.0969
7.324,0.10704
7.328,0.15964
7.332,0.13065
7.336,0.09242
7.34,0.15807
7.344,0.19117
7.348,0.16206
7.352,0.20672
7.356,0.1489
7.36,0.25547
7.364,0.23329
7.368,0.16936
7.372,0.29754
7.376,0.24462
7.38,0.23754
7.384,0.16919
7.388,0.27018
7.392,0.26639
7.396,0.22674
7.4,0.15988
7.404,0.24848
7.408,0.27134
7.412,0.21357
7.416,0.22875
7.42,0.15925
7.424,0.26558
7.428,0.14197
7.432,0.1424
7.436,0.16899
7.44,0.09275
7.444,0.07072
7.448,0.03828
7.452,0.10141
7.456,0.05837
7.46,0.08097
7.464,0.0587
7.468,0.07025
7.472,0.01381
7.476,0.05372
7.48,0.09539
7.484,0.06402
7.488,-0.0233
7.492,-0.02317
7.496,0.00308
7.5,0.02602
7.504,-0.01123
7.508,0.02109
7.512,-0.00211
7.516,0.00013
7.52,0.04092
7.524,-0.01742
7.528,0.01986
7.532,0.0482
7.536,0.03409
7.54,0.02508
7.544,0.01826
7.548,-0.04964
7.552,0.0078
7.556,-0.01062
7.56,-0.02676
7.564,0.04267
7.568,0.04889
7.572,-0.00613
7.576,0.0538
7.58,0.031
7.584,0.07553
7.588,0.05636
7.592,0.0248
7.596,0.12682
7.6,0.04235
7.604,0.09353
7.608,0.1131
7.612,0.07908
7.616,0.12268
7.62,0.12925
7.624,0.1203
7.628,0.10394
7.632,0.09635
7.636,0.08457
7.64,0.07018
7.644,0.07318
7.648,0.09453
7.652,0.07744
7.656,0.04755
7.66,0.03027
7.664,-0.04429
7.668,0.02316
7.672,0.02851
7.676,0.00809
7.68,0.16436
7.684,0.01913
7.688,0.06144
7.692,0.03296
7.696,0.06145
7.7,-0.0097
7.704,0.0401
7.708,0.0477
7.712,0.05394
7.716,-0.03521
7.72,-0.03333
7.724,0.03725
7.728,0.03767
7.732,0.03282
7.736,0.03418
7.74,-0.00149
7.744,-0.02532
7.748,-0.09468
7.752,-0.12008
7.756,-0.08842
7.76,0.05182
7.764,0.26084
7.768,0.35878
7.772,0.65539
7.776,0.85326
7.78,1.00712
7.784,1.05378
7.788,0.91386
7.792,0.75766
7.796,0.59419
7.8,0.35261
7.804,0.10982
7.808,-0.01921
7.812,-0.12729
7.816,-0.16672
7.82,-0.17072
7.824,-0.15564
7.828,-0.01739
7.832,-0.11456
7.836,0.01642
7.84,0.05527
7.844,0.04981
7.848,0.07983
7.852,-0.00498
7.856,0.01841
7.86,0.05978
7.864,0.04515
7.868,-0.03257
7.872,0.07367
7.876,0.04747
7.88,0.04367
7.884,0.0174
7.888,0.01999
7.892,0.02483
7.896,0.00331
7.9,0.03183
7.904,0.00511
7.908,0.03536
7.912,0.04792
7.916,0.01421
7.92,0.00502
7.924,0.09944
7.928,0.07131
7.932,0.00982
7.936,0.01451
7.94,0.01251
7.944,0.10049
7.948,0.10218
7.952,0.0577
7.956,0.04024
7.96,0.01663
7.964,0.00509
7.968,0.02352
7.972,0.02221
7.976,0.01589
7.98,0.09861
7.984,0.04056
7.988,0.08562
7.992,0.12759
7.996,0.10307
8.0,0.13906
8.004,0.12049
8.008,0.11216
8.012,0.09214
8.016,0.13785
8.02,0.16772
8.024,0.15808
8.028,0.21021
8.032,0.21118
8.036,0.19017
8.04,0.23175
8.044,0.16125
8.048,0.23291
8.052,0.2251
8.056,0.21699
8.06,0.24943
8.064,0.21547
8.068,0.32906
8.072,0.26996
8.076,0.27076
8.08,0.28507
8.084,0.25022
8.088,0.15198
8.092,0.21233
8.096,0.19947
8.1,0.14023
8.104,0.16036
8.108,0.15954
8.112,0.19797
8.116,0.11053
8.12,0.16315
8.124,0.07092
8.128,0.10897
8.132,0.1127
8.136,0.12133
8.14,0.0971
8.144,0.04937
8.148,0.05904
8.152,0.08071
8.156,0.02822
8.16,-0.02928
8.164,0.05292
8.168,0.02797
8.172,-0.03762
8.176,-0.00074
8.18,0.04347
8.184,0.01907
8.188,0.00327
8.192,0.00386
8.196,0.04424
8.2,0.05492
8.204,-0.04772
8.208,-0.0118
8.212,0.07098
8.216,-0.00714
8.22,0.04968
8.224,0.01636
8.228,0.04105
8.232,0.05617
8.236,0.00461
8.24,0.0715
8.244,0.03134
8.248,0.01879
8.252,0.05494
8.256,0.03664
8.26,0.02073
8.264,0.06549
8.268,0.0203
8.272,0.10824
8.276,0.01254
8.28,0.01064
8.284,-0.01535
8.288,0.02389
8.292,0.09744
8.296,0.05356
8.3,0.00358
8.304,0.01663
8.308,-0.00464
8.312,0.1263
8.316,0.00427
8.32,0.05048
8.324,0.0247
8.328,0.02575
8.332,0.03373
8.336,-0.0319
8.34,0.08542
8.344,0.02692
8.348,0.0518
8.352,0.07501
8.356,0.05561
8.36,0.03595
8.364,0.04314
8.368,0.05952
8.372,-0.02654
8.376,-0.00623
8.38,0.03874
8.384,-0.0282
8.388,0.05206
8.392,0.12156
8.396,0.03838
8.4,0.03095
8.404,0.11227
8.408,0.0224
8.412,0.03109
8.416,0.01497
8.42,0.02142
8.424,0.05284
8.428,0.08146
8.432,0.02978
8.436,-0.00927
8.44,0.01518
8.444,0.00247
8.448,0.06324
8.452,0.06677
8.456,0.01559
8.46,0.03706
8.464,0.09192
8.468,0.15801
8.472,0.06753
8.476,0.0525
8.48,0.04631
8.484,0.09911
8.488,0.09822
8.492,0.12033
8.496,0.14417
8.5,0.12137
8.504,0.13681
8.508,0.10475
8.512,0.15028
8.516,0.09655
8.52,0.07899
8.524,0.12494
8.528,0.04453
8.532,0.12737
8.536,-0.01272
8.54,0.0737
8.544,0.01506
8.548,0.03624
8.552,0.04478
8.556,0.05575
8.56,0.0529
8.564,-0.0248
8.568,0.11912
8.572,0.0149
8.576,0.0126
8.58,0.00534
8.584,-0.00219
8.588,0.08021
8.592,0.06621
8.596,0.04303
8.6,-0.03664
8.604,0.00492
8.608,0.02895
8.612,0.02657
8.616,-0.11301
8.62,-0.0572
8.624,-0.08525
8.628,0.00307
8.632,0.16263
8.636,0.333
8.64,0.5137
8.644,0.6884
8.648,0.95862
8.652,1.05735
8.656,1.01659
8.66,0.85013
8.664,0.70665
8.668,0.47069
8.672,0.24667
8.676,0.10518
8.68,0.01531
8.684,-0.15561
8.688,-0.10232
8.692,-0.09181
8.696,-0.03326
8.7,0.02223
8.704,-0.0088
8.708,-0.01043
8.712,0.02768
8.716,-0.00021
8.72,0.05512
8.724,-0.00892
8.728,0.03052
8.732,0.02581
8.736,0.01035
8.74,0.06012
8.744,0.05474
8.748,0.0403
8.752,-0.05785
8.756,0.04147
8.76,0.01326
8.764,0.04702
8.768,0.04409
8.772,0.03777
8.776,0.03607
8.78,0.06623
8.784,0.03068
8.788,0.02079
8.792,0.04185
8.796,0.02324
8.8,0.03772
8.804,0.05416
8.808,0.03087
8.812,0.01597
8.816,0.09842
8.82,-0.03018
8.824,0.10115
8.828,0.01742
8.832,0.02327
8.836,0.08135
8.84,0.02709
8.844,0.01501
8.848,0.0543
8.852,0.03964
8.856,0.08342
8.86,0.10225
8.864,0.09627
8.868,0.06843
8.872,0.1173
8.876,0.08406
8.88,0.10802
8.884,0.15814
8.888,0.14104
8.892,0.1683
8.896,0.16981
8.9,0.16421
8.904,0.20373
8.908,0.21113
8.912,0.24605
8.916,0.23441
8.92,0.25066
8.924,0.20225
8.928,0.27037
8.932,0.22472
8.936,0.25797
8.94,0.20248
8.944,0.21585
8.948,0.18938
8.952,0.22219
8.956,0.23894
8.96,0.2669
8.964,0.2297
8.968,0.17648
8.972,0.16818
8.976,0.11391
8.98,0.12578
8.984,0.17257
8.988,0.1777
8.992,0.13696
8.996,0.19054
9.0,0.02666
9.004,0.12915
9.008,0.06706
9.012,0.09683
9.016,0.11547
9.02,0.08029
9.024,0.03412
9.028,0.04252
9.032,0.0396
9.036,0.10182
9.04,0.03333
9.044,0.04826
9.048,0.04054
9.052,-0.01677
9.056,0.01467
9.06,0.08977
9.064,0.05001
9.068,0.03836
9.072,0.03636
9.076,0.02699
9.08,0.01274
9.084,0.05283
9.088,0.04494
9.092,0.04536
9.096,0.07605
9.1,0.01897
9.104,-0.0127
9.108,0.12347
9.112,0.01381
9.116,0.02829
9.12,0.0291
9.124,0.02342
9.128,-0.05435
9.132,0.03282
9.136,0.07615
9.14,0.01587
9.144,-0.01673
9.148,0.08759
9.152,0.09388
9.156,0.08249
9.16,-0.0061
9.164,0.06531
9.168,0.05491
9.172,0.03095
9.176,0.07721
9.18,0.00638
9.184,0.02119
9.188,0.0473
9.192,0.01362
9.196,-0.0488
9.2,0.00822
9.204,0.01892
9.208,-0.02223
9.212,-0.02918
9.216,0.05775
9.22,0.01514
9.224,0.02968
9.228,0.0074
9.232,-0.01494
9.236,0.05828
9.24,-0.01459
9.244,0.05042
9.248,0.01281
9.252,0.01753
9.256,0.00732
9.26,0.07014
9.264,-0.05884
9.268,0.02111
9.272,0.06389
9.276,0.01577
9.28,0.0388
9.284,0.07249
9.288,0.02916
9.292,0.13611
9.296,0.07637
9.3,0.07614
9.304,0.10367
9.308,0.12509
9.312,0.14174
9.316,0.08232
9.32,0.15562
9.324,0.12063
9.328,0.13815
9.332,0.16106
9.336,0.05236
9.34,0.00835
9.344,0.06798
9.348,0.03747
9.352,0.11012
9.356,0.03408
9.36,0.00731
9.364,0.00108
9.368,-0.03265
9.372,0.0245
9.376,0.01486
9.38,-0.0156
9.384,0.03682
9.388,-0.10006
9.392,0.04463
9.396,-0.0221
9.4,0.02482
9.404,-0.01257
9.408,-0.01262
9.412,0.02729
9.416,-0.00667
9.42,0.02821
9.424,0.06574
9.428,-0.00186
9.432,-0.04173
9.436,-0.07783
9.44,-0.10953
9.444,-0.11019
9.448,0.0515
9.452,0.10535
9.456,0.37677
9.46,0.51492
9.464,0.71416
9.468,0.92114
9.472,1.02458
9.476,0.99917
9.48,0.89225
9.484,0.65463
9.488,0.40256
9.492,0.25191
9.496,0.03927
9.5,-0.03921
9.504,-0.14667
9.508,-0.09321
9.512,-0.12522
9.516,-0.09893
9.52,-0.03173
9.524,0.00558
9.528,0.05201
9.532,0.0123
9.536,0.02673
9.54,-0.01213
9.544,0.01892
9.548,-0.00072
9.552,-0.00486
9.556,-0.02816
9.56,0.00381
9.564,-0.00959
9.568,0.02981
9.572,0.12376
9.576,-0.04033
9.58,-0.0229
9.584,0.01543
9.588,-0.06661
9.592,0.05261
9.596,-0.01345
9.6,0.06805
9.604,0.03232
9.608,0.0095
9.612,0.05309
9.616,0.04173
9.62,0.04207
9.624,0.01111
9.628,-0.02205
9.632,0.00626
9.636,0.05121
9.64,-0.04069
9.644,0.03458
9.648,0.05025
9.652,0.00013
9.656,0.03544
9.66,0.00325
9.664,0.09388
9.668,0.04985
9.672,0.10134
9.676,0.0382
9.68,0.07048
9.684,0.1335
9.688,0.06936
9.692,0.04511
9.696,0.12679
9.7,0.04546
9.704,0.11742
9.708,0.12921
9.712,0.08228
9.716,0.21124
9.72,0.16035
9.724,0.15727
9.728,0.19838
9.732,0.20581
9.736,0.20232
9.74,0.23548
9.744,0.26157
9.748,0.16385
9.752,0.20409
9.756,0.23208
9.76,0.19342
9.764,0.24147
9.768,0.22775
9.772,0.2125
9.776,0.20668
9.78,0.19402
9.784,0.19679
9.788,0.11329
9.792,0.19276
9.796,0.17565
9.8,0.088
9.804,0.10651
9.808,0.10297
9.812,0.07573
9.816,0.04876
9.82,0.05061
9.824,0.07924
9.828,0.06445
9.832,0.06707
9.836,0.08085
9.84,0.02595
9.844,0.08199
9.848,-0.02331
9.852,0.00951
9.856,0.04676
9.86,0.04776
9.864,-0.03756
9.868,0.00873
9.872,0.0942
9.876,-0.00289
9.88,0.04388
9.884,0.0644
9.888,0.08775
9.892,0.01658
9.896,0.01467
9.9,0.01384
9.904,0.01308
9.908,0.04241
9.912,-0.00032
9.916,0.03331
9.92,-0.04091
9.924,0.04431
9.928,0.01524
9.932,-0.04171
9.936,0.01058
9.94,-0.03284
9.944,-0.03192
9.948,-0.014
9.952,0.03045
9.956,0.05891
9.96,0.031
9.964,0.05416
9.968,0.03834
9.972,0.00088
9.976,0.00283
9.98,0.02198
9.984,0.05776
9.988,0.04
9.992,0.00545
9.996,0.02356
