t_seg,ecg_mV
0.0,0.03804
0.004,0.00263
0.008,0.03328
0.012,0.08572
0.016,0.07698
0.02,0.0906
0.024,0.06578
0.028,0.07755
0.032,0.07708
0.036,0.05115
0.04,0.05703
0.044,0.00654
0.048,0.02605
0.052,-0.00627
0.056,0.01209
0.06,-0.00279
0.064,-0.05464
0.068,0.01957
0.072,0.00409
0.076,0.01757
0.08,0.04022
0.084,-0.00614
0.088,-0.02852
0.092,-0.02487
0.096,0.04411
0.1,-0.06597
0.104,-0.03093
0.108,0.00841
0.112,-0.00239
0.116,-0.00756
0.12,0.00474
0.124,-0.01426
0.128,-0.00938
0.132,-0.05995
0.136,-0.07455
0.14,-0.14774
0.144,-0.17552
0.148,-0.07868
0.152,0.05386
0.156,0.15322
0.16,0.48135
0.164,0.66425
0.168,0.80669
0.172,0.93619
0.176,0.96403
0.18,0.8834
0.184,0.77886
0.188,0.51231
0.192,0.3195
0.196,0.05095
0.2,-0.02327
0.204,-0.09912
0.208,-0.12873
0.212,-0.1663
0.216,-0.10851
0.22,-0.0487
0.224,-0.00926
0.228,-0.0345
0.232,0.01481
0.236,-0.0241
0.24,0.01807
0.244,-0.03088
0.248,6e-05
0.252,0.01132
0.256,-0.01202
0.26,0.01835
0.264,-0.03071
0.268,-0.00101
0.272,-0.03246
0.276,-0.00343
0.28,-0.05438
0.284,-0.01267
0.288,-0.04271
0.292,-0.02022
0.296,-0.02781
0.3,0.00733
0.304,0.03055
0.308,-0.02275
0.312,-0.04117
0.316,-0.11065
0.32,0.01346
0.324,0.08
0.328,0.01357
0.332,-0.02737
0.336,0.06215
0.34,0.02003
0.344,-0.05872
0.348,-0.01403
0.352,-0.01034
0.356,0.00613
0.36,0.03826
0.364,-0.04142
0.368,-0.02546
0.372,0.02932
0.376,0.04161
0.38,0.11967
0.384,-0.0139
0.388,0.10369
0.392,0.06301
0.396,0.10478
0.4,0.06427
0.404,0.11248
0.408,0.13346
0.412,0.19486
0.416,0.13334
0.42,0.18603
0.424,0.17721
0.428,0.24058
0.432,0.16358
0.436,0.1825
0.44,0.20258
0.444,0.22656
0.448,0.22025
0.452,0.22877
0.456,0.20521
0.46,0.18827
0.464,0.20502
0.468,0.19712
0.472,0.19999
0.476,0.19833
0.48,0.19993
0.484,0.26009
0.488,0.16045
0.492,0.10262
0.496,0.14603
0.5,0.18169
0.504,0.15151
0.508,0.17458
0.512,0.11233
0.516,0.11322
0.52,0.07436
0.524,0.1024
0.528,0.13556
0.532,0.12403
0.536,0.08538
0.54,0.09782
0.544,0.17394
0.548,0.14443
0.552,0.11606
0.556,0.09843
0.56,0.12447
0.564,0.0913
0.568,0.10001
0.572,0.08547
0.576,0.06161
0.58,0.02984
0.584,0.00798
0.588,-0.03839
0.592,0.01271
0.596,-0.02013
0.6,0.02951
0.604,-0.01076
0.608,0.01061
0.612,-0.03559
0.616,-0.05287
0.62,-0.02836
0.624,0.00179
0.628,0.04797
0.632,-0.02307
0.636,-0.022
0.64,0.06127
0.644,0.04412
0.648,-0.01548
0.652,0.02645
0.656,0.02161
0.66,0.06574
0.664,-0.00863
0.668,-0.01503
0.672,0.00969
0.676,-0.08678
0.68,-0.14939
0.684,-0.01237
0.688,0.04011
0.692,0.1661
0.696,0.32963
0.7,0.53629
0.704,0.82541
0.708,0.98938
0.712,0.98246
0.716,0.90632
0.72,0.69683
0.724,0.49439
0.728,0.39841
0.732,0.11893
0.736,-0.09952
0.74,-0.05501
0.744,-0.14379
0.748,-0.11548
0.752,-0.05478
0.756,-0.10497
0.76,-0.07485
0.764,0.00635
0.768,-0.01148
0.772,0.03489
0.776,0.01364
0.78,0.00044
0.784,0.01614
0.788,0.01983
0.792,-0.05301
0.796,-0.04049
0.8,0.05257
0.804,-0.04499
0.808,0.11324
0.812,-0.03823
0.816,0.01348
0.82,0.0314
0.824,0.01749
0.828,-0.02807
0.832,-0.04721
0.836,0.11128
0.84,0.05128
0.844,-0.02904
0.848,0.01484
0.852,-0.03844
0.856,0.03477
0.86,0.02841
0.864,0.00963
0.868,0.00034
0.872,0.03197
0.876,0.02118
0.88,0.02065
0.884,-0.01177
0.888,-0.00263
0.892,0.05434
0.896,0.0868
0.9,0.09633
0.904,-0.05979
0.908,0.09759
0.912,0.09178
0.916,0.06938
0.92,0.10754
0.924,0.06874
0.928,0.07447
0.932,0.10594
0.936,0.21404
0.94,0.11163
0.944,0.14375
0.948,0.16217
0.952,0.13472
0.956,0.12481
0.96,0.14853
0.964,0.21043
0.968,0.27328
0.972,0.16544
0.976,0.19214
0.98,0.23348
0.984,0.22953
0.988,0.17712
0.992,0.18854
0.996,0.2582
1.0,0.23726
1.004,0.23845
1.008,0.20809
1.012,0.21732
1.016,0.22288
1.02,0.15178
1.024,0.14302
1.028,0.13181
1.032,0.21074
1.036,0.14982
1.04,0.12907
1.044,0.10645
1.048,0.09035
1.052,0.08454
1.056,0.17928
1.06,0.04208
1.064,0.08116
1.068,0.07149
1.072,0.01487
1.076,0.00567
1.08,0.02415
1.084,0.05816
1.088,0.02157
1.092,0.06819
1.096,0.00262
1.1,0.00857
1.104,0.08155
1.108,0.02787
1.112,0.02755
1.116,-0.04301
1.12,-0.02814
1.124,0.00846
1.128,0.03504
1.132,0.0318
1.136,0.02414
1.14,0.05878
1.144,0.01371
1.148,0.01737
1.152,0.07585
1.156,0.04763
1.16,0.04878
1.164,0.05144
1.168,0.06397
1.172,-0.01431
1.176,0.06448
1.18,0.02148
1.184,0.04549
1.188,0.08956
1.192,0.0662
1.196,0.08914
1.2,0.10892
1.204,0.11761
1.208,0.08731
1.212,0.07343
1.216,0.09399
1.22,0.11839
1.224,0.06212
1.228,0.04177
1.232,0.01986
1.236,0.01351
1.24,-0.00445
1.244,0.01401
1.248,-0.01166
1.252,-0.00841
1.256,0.04993
1.26,0.03976
1.264,0.01301
1.268,0.04823
1.272,0.08637
1.276,-0.02771
1.28,0.07613
1.284,0.05568
1.288,0.0445
1.292,0.08701
1.296,0.0321
1.3,0.00493
1.304,0.01055
1.308,0.00975
1.312,0.02651
1.316,-0.0811
1.32,-0.05428
1.324,-0.06252
1.328,-0.12514
1.332,-0.05795
1.336,0.03398
1.34,0.13406
1.344,0.35638
1.348,0.58138
1.352,0.80615
1.356,0.89081
1.36,0.96038
1.364,1.00221
1.368,0.84234
1.372,0.6511
1.376,0.46046
1.38,0.20649
1.384,-0.01605
1.388,-0.01016
1.392,-0.18176
1.396,-0.1565
1.4,-0.12235
1.404,-0.09154
1.408,-0.04271
1.412,0.01408
1.416,-0.0145
1.42,0.0573
1.424,-0.00213
1.428,0.02004
1.432,0.07707
1.436,0.02492
1.44,0.05862
1.444,0.00115
1.448,0.05018
1.452,0.00244
1.456,0.02014
1.46,-0.01494
1.464,0.06212
1.468,0.05108
1.472,-0.00751
1.476,0.0213
1.48,0.06761
1.484,0.02259
1.488,0.00565
1.492,0.04204
1.496,0.00742
1.5,-0.01135
1.504,0.0728
1.508,0.0871
1.512,0.04255
1.516,-0.01618
1.52,-0.02345
1.524,0.06964
1.528,0.02635
1.532,-0.01695
1.536,-0.00944
1.54,-0.01016
1.544,0.02026
1.548,0.06094
1.552,0.07529
1.556,0.0502
1.56,0.06948
1.564,0.07877
1.568,0.07475
1.572,0.1162
1.576,0.08623
1.58,0.10012
1.584,0.1389
1.588,0.15932
1.592,0.13298
1.596,0.17378
1.6,0.19927
1.604,0.19444
1.608,0.2012
1.612,0.17942
1.616,0.24161
1.62,0.22809
1.624,0.22366
1.628,0.28149
1.632,0.2108
1.636,0.29306
1.64,0.27767
1.644,0.23444
1.648,0.21032
1.652,0.20883
1.656,0.22653
1.66,0.29995
1.664,0.20532
1.668,0.23802
1.672,0.17663
1.676,0.15839
1.68,0.23613
1.684,0.19529
1.688,0.11426
1.692,0.1636
1.696,0.10961
1.7,0.12689
1.704,0.11138
1.708,0.09826
1.712,0.09455
1.716,0.04355
1.72,0.0211
1.724,0.07185
1.728,0.06769
1.732,0.01652
1.736,0.01625
1.74,0.06522
1.744,0.02407
1.748,0.04641
1.752,0.0639
1.756,0.07484
1.76,0.01099
1.764,0.03829
1.768,-0.01915
1.772,0.00728
1.776,0.03289
1.78,-0.03219
1.784,0.04524
1.788,-0.01152
1.792,0.04419
1.796,-0.00721
1.8,0.0446
1.804,-0.01057
1.808,0.02455
1.812,-0.03883
1.816,0.02216
1.82,0.00581
1.824,-0.01049
1.828,0.0287
1.832,0.04851
1.836,0.09153
1.84,0.03436
1.844,0.0414
1.848,-0.00078
1.852,0.05617
1.856,0.09811
1.86,0.06905
1.864,-0.01374
1.868,-0.03876
1.872,0.10785
1.876,0.09652
1.88,0.0682
1.884,0.11539
1.888,0.03039
1.892,0.09978
1.896,0.10341
1.9,0.17403
1.904,0.13026
1.908,0.1113
1.912,0.10571
1.916,0.22043
1.92,0.0295
1.924,0.06527
1.928,0.05208
1.932,0.08669
1.936,0.07
1.94,-0.01063
1.944,0.02386
1.948,0.0337
1.952,0.07775
1.956,0.0729
1.96,0.04985
1.964,0.05917
1.968,-0.05321
1.972,0.01132
1.976,0.03306
1.98,0.01285
1.984,0.03042
1.988,0.09395
1.992,0.01527
1.996,0.01143
2.0,0.02167
2.004,0.02322
2.008,0.06386
2.012,0.06914
2.016,0.02656
2.02,-0.08522
2.024,-0.0888
2.028,-0.10127
2.032,0.01483
2.036,0.2499
2.04,0.37521
2.044,0.64335
2.048,0.87596
2.052,0.9481
2.056,1.05952
2.06,0.97325
2.064,0.80658
2.068,0.55759
2.072,0.32935
2.076,0.16115
2.08,-0.03354
2.084,-0.14854
2.088,-0.14873
2.092,-0.20229
2.096,-0.10956
2.1,-0.03739
2.104,0.00539
2.108,0.04538
2.112,0.06716
2.116,-0.01257
2.12,0.07204
2.124,0.0466
2.128,-0.01598
2.132,0.00688
2.136,-0.0348
2.14,-0.00127
2.144,-0.03797
2.148,-0.04713
2.152,0.00434
2.156,0.05673
2.16,0.0827
2.164,0.03233
2.168,0.01027
2.172,0.0017
2.176,0.06874
2.18,0.03554
2.184,0.05232
2.188,-0.03659
2.192,0.06186
2.196,0.04585
2.2,0.08382
2.204,-0.0165
2.208,0.06495
2.212,0.05185
2.216,0.02383
2.22,0.05596
2.224,0.08737
2.228,0.07279
2.232,0.05298
2.236,0.0668
2.24,0.11494
2.244,0.08719
2.248,0.16397
2.252,0.12817
2.256,0.20722
2.26,0.13178
2.264,0.19691
2.268,0.21302
2.272,0.18285
2.276,0.22854
2.28,0.12134
2.284,0.17772
2.288,0.21313
2.292,0.13463
2.296,0.17776
2.3,0.26348
2.304,0.21241
2.308,0.25012
2.312,0.18931
2.316,0.14403
2.32,0.2001
2.324,0.24556
2.328,0.22759
2.332,0.21459
2.336,0.25761
2.34,0.31637
2.344,0.25381
2.348,0.25247
2.352,0.21551
2.356,0.20407
2.36,0.17041
2.364,0.18137
2.368,0.20041
2.372,0.06333
2.376,0.13936
2.38,0.05984
2.384,0.10664
2.388,0.02786
2.392,0.02288
2.396,0.23669
2.4,0.32171
2.404,0.55901
2.408,0.72935
2.412,0.9325
2.416,1.00041
2.42,1.09702
2.424,0.92776
2.428,0.75043
2.432,0.55197
2.436,0.35001
2.44,0.13099
2.444,-0.03923
2.448,-0.15307
2.452,-0.10573
2.456,-0.17491
2.46,-0.08986
2.464,-0.07065
2.468,0.06398
2.472,0.06855
2.476,0.04887
2.48,0.05379
2.484,0.01268
2.488,0.03924
2.492,0.06016
2.496,0.05452
2.5,0.02994
2.504,-0.0381
2.508,0.00387
2.512,-0.0061
2.516,0.06001
2.52,0.01191
2.524,0.07278
2.528,0.00879
2.532,0.05763
2.536,0.04886
2.54,-0.00857
2.544,0.04542
2.548,-0.00997
2.552,0.02653
2.556,-0.00158
2.56,0.052
2.564,0.03269
2.568,0.12962
2.572,0.0357
2.576,0.01879
2.58,0.08262
2.584,-0.00837
2.588,0.00728
2.592,0.04869
2.596,0.01881
2.6,0.08403
2.604,0.03829
2.608,0.04522
2.612,0.0341
2.616,0.09316
2.62,0.09525
2.624,0.10626
2.628,0.02695
2.632,0.06208
2.636,0.03871
2.64,0.08372
2.644,0.13557
2.648,0.14702
2.652,0.18397
2.656,0.09478
2.66,0.17646
2.664,0.23965
2.668,0.22697
2.672,0.16732
2.676,0.21155
2.68,0.21031
2.684,0.26399
2.688,0.25219
2.692,0.26984
2.696,0.21798
2.7,0.20126
2.704,0.27764
2.708,0.18437
2.712,0.27486
2.716,0.24251
2.72,0.2627
2.724,0.20379
2.728,0.31358
2.732,0.17117
2.736,0.18077
2.74,0.17137
2.744,0.12824
2.748,0.15294
2.752,0.13055
2.756,0.07843
2.76,0.10468
2.764,0.08507
2.768,0.04164
2.772,0.03803
2.776,0.06474
2.78,0.0608
2.784,0.02611
2.788,0.03598
2.792,0.10239
2.796,0.00856
2.8,-0.00216
2.804,0.01497
2.808,0.045
2.812,0.0583
2.816,0.04586
2.82,0.01243
2.824,0.08088
2.828,0.07823
2.832,0.02398
2.836,0.00628
2.84,-0.03518
2.844,0.03392
2.848,-0.00119
2.852,0.09209
2.856,-0.00146
2.86,0.01289
2.864,0.03414
2.868,-0.01135
2.872,0.02965
2.876,0.03185
2.88,0.05852
2.884,0.0135
2.888,0.00157
2.892,0.00435
2.896,0.00833
2.9,0.02484
2.904,0.07974
2.908,0.01806
2.912,0.09241
2.916,0.04675
2.92,0.08866
2.924,0.14927
2.928,0.11852
2.932,0.11765
2.936,0.10216
2.94,0.14694
2.944,0.12126
2.948,0.12644
2.952,0.1346
2.956,0.05262
2.96,0.11732
2.964,0.04342
2.968,0.07975
2.972,0.02624
2.976,0.04541
2.98,0.02509
2.984,0.05026
2.988,0.05511
2.992,0.06192
2.996,0.01711
3.0,-0.01716
3.004,-0.01722
3.008,-0.01632
3.012,-0.03402
3.016,0.10597
3.02,0.01163
3.024,0.02779
3.028,0.07416
3.032,0.07388
3.036,0.00953
3.04,0.00764
3.044,-0.01703
3.048,0.05137
3.052,0.06052
3.056,-0.01782
3.06,-0.04144
3.064,-0.1126
3.068,-0.19768
3.072,0.01712
3.076,0.03873
3.08,0.24041
3.084,0.34815
3.088,0.56251
3.092,0.82655
3.096,0.9727
3.1,0.96974
3.104,0.94416
3.108,0.82839
3.112,0.60779
3.116,0.40759
3.12,0.16977
3.124,0.06648
3.128,-0.16343
3.132,-0.1267
3.136,-0.155
3.14,-0.12603
3.144,0.00678
3.148,-0.04245
3.152,0.05275
3.156,0.01402
3.16,-0.00805
3.164,-0.0138
3.168,0.01767
3.172,-0.04359
3.176,0.01228
3.18,0.03598
3.184,-0.0412
3.188,0.00092
3.192,0.01214
3.196,-0.01961
3.2,0.02994
3.204,0.04147
3.208,0.03364
3.212,0.04454
3.216,0.00821
3.22,0.0842
3.224,0.02543
3.228,0.05879
3.232,-0.01362
3.236,0.03029
3.24,0.00727
3.244,0.02302
3.248,0.01793
3.252,0.00994
3.256,0.02376
3.26,-0.03182
3.264,-0.00933
3.268,0.01121
3.272,0.00504
3.276,0.04109
3.28,-0.0003
3.284,0.03341
3.288,-0.01298
3.292,-0.0078
3.296,-0.00475
3.3,-0.02029
3.304,0.05061
3.308,0.03866
3.312,0.14173
3.316,0.05542
3.32,0.10625
3.324,0.08542
3.328,0.07918
3.332,0.11558
3.336,0.14239
3.34,0.14844
3.344,0.16143
3.348,0.22482
3.352,0.1659
3.356,0.14965
3.36,0.20394
3.364,0.22461
3.368,0.22152
3.372,0.24475
3.376,0.22771
3.38,0.25157
3.384,0.25394
3.388,0.22606
3.392,0.24878
3.396,0.17353
3.4,0.18053
3.404,0.21872
3.408,0.18136
3.412,0.22961
3.416,0.1775
3.42,0.19182
3.424,0.12157
3.428,0.17579
3.432,0.13462
3.436,0.05888
3.44,0.09089
3.444,0.1149
3.448,0.07807
3.452,0.07334
3.456,0.05586
3.46,0.0576
3.464,0.03943
3.468,-0.00091
3.472,0.03713
3.476,0.0631
3.48,0.07655
3.484,0.03466
3.488,0.01612
3.492,0.01329
3.496,0.02883
3.5,-0.00688
3.504,0.01489
3.508,0.01505
3.512,0.07764
3.516,-0.04092
3.52,0.00912
3.524,0.00672
3.528,0.05467
3.532,0.0633
3.536,0.01178
3.54,0.00233
3.544,0.01734
3.548,-0.00485
3.552,0.0329
3.556,-0.04389
3.56,0.03933
3.564,-0.0048
3.568,-0.04473
3.572,0.00016
3.576,0.07281
3.58,0.03928
3.584,-0.01379
3.588,0.04694
3.592,0.0272
3.596,0.01021
3.6,-0.00303
3.604,-0.02881
3.608,-0.09957
3.612,-0.01932
3.616,0.01467
3.62,-0.02548
3.624,0.02446
3.628,0.04598
3.632,0.00211
3.636,-0.00347
3.64,0.00316
3.644,0.06893
3.648,0.02387
3.652,-0.03668
3.656,0.01889
3.66,-0.00396
3.664,0.0022
3.668,0.02883
3.672,0.02061
3.676,0.02939
3.68,0.0128
3.684,0.00696
3.688,0.01699
3.692,-0.0238
3.696,0.00522
3.7,0.00634
3.704,0.04005
3.708,0.02757
3.712,-0.02904
3.716,-0.00967
3.72,-0.03982
3.724,0.0774
3.728,0.06266
3.732,0.06018
3.736,0.10452
3.74,0.10971
3.744,0.13333
3.748,0.09089
3.752,0.07201
3.756,0.10973
3.76,0.07223
3.764,0.07942
3.768,0.02551
3.772,0.07063
3.776,0.04157
3.78,0.06833
3.784,0.02009
3.788,0.04518
3.792,0.07242
3.796,-0.0232
3.8,0.05371
3.804,0.01945
3.808,-0.00579
3.812,-0.00443
3.816,0.00927
3.82,0.04786
3.824,-0.06174
3.828,-0.01445
3.832,0.00261
3.836,-0.01657
3.84,-0.08765
3.844,0.03267
3.848,-0.00151
3.852,-0.00456
3.856,-0.00338
3.86,-0.0248
3.864,0.05061
3.868,-0.03712
3.872,-0.08787
3.876,-0.12475
3.88,-0.11129
3.884,-0.01934
3.888,0.12861
3.892,0.32825
3.896,0.59496
3.9,0.71376
3.904,0.90518
3.908,0.98351
3.912,0.92942
3.916,0.81316
3.92,0.67138
3.924,0.37113
3.928,0.1642
3.932,0.02138
3.936,-0.03822
3.94,-0.08165
3.944,-0.13617
3.948,-0.12559
3.952,-0.1161
3.956,-0.06726
3.96,-0.00846
3.964,0.01106
3.968,0.00374
3.972,-0.0066
3.976,-0.02478
3.98,0.05944
3.984,0.01217
3.988,-0.0084
3.992,0.00044
3.996,-0.02047
4.0,-0.01907
4.004,0.03048
4.008,-0.0397
4.012,0.01644
4.016,-0.01232
4.02,0.00279
4.024,-0.02336
4.028,-0.10722
4.032,0.02822
4.036,0.03406
4.04,0.0056
4.044,-0.07817
4.048,-0.03607
4.052,-0.03531
4.056,0.01733
4.06,-0.04629
4.064,-0.04899
4.068,0.03595
4.072,-0.02581
4.076,-0.03231
4.08,-0.03146
4.084,-0.03214
4.088,-0.04656
4.092,-0.03132
4.096,0.09498
4.1,0.05694
4.104,0.06371
4.108,-0.00466
4.112,0.07469
4.116,0.06509
4.12,0.06711
4.124,0.12192
4.128,0.07845
4.132,-0.00308
4.136,0.13039
4.14,0.1019
4.144,0.13718
4.148,0.10242
4.152,0.0946
4.156,0.15041
4.16,0.16286
4.164,0.24025
4.168,0.24145
4.172,0.17529
4.176,0.20272
4.18,0.24377
4.184,0.18841
4.188,0.18241
4.192,0.23023
4.196,0.22848
4.2,0.18215
4.204,0.26625
4.208,0.17502
4.212,0.15317
4.216,0.20926
4.22,0.22813
4.224,0.10038
4.228,0.17205
4.232,0.10825
4.236,0.09002
4.24,0.1391
4.244,0.12009
4.248,0.11817
4.252,0.09635
4.256,0.10601
4.26,0.05553
4.264,0.04951
4.268,0.02883
4.272,0.0444
4.276,0.03461
4.28,0.02161
4.284,-0.00897
4.288,-0.03263
4.292,0.06468
4.296,0.00221
4.3,-0.0613
4.304,-0.0056
4.308,0.01579
4.312,-0.04844
4.316,-0.01978
4.32,-0.02489
4.324,-0.00872
4.328,-0.00704
4.332,0.00857
4.336,-0.01182
4.34,0.01178
4.344,0.01243
4.348,0.08113
4.352,0.003
4.356,0.00126
4.36,0.07054
4.364,0.05176
4.368,0.021
4.372,0.00143
4.376,0.07666
4.38,0.1214
4.384,0.09586
4.388,0.05805
4.392,0.07569
4.396,0.01674
4.4,0.05913
4.404,-0.0215
4.408,0.00027
4.412,0.05036
4.416,0.00173
4.42,-0.04256
4.424,-0.00504
4.428,-0.00644
4.432,-0.00971
4.436,0.00035
4.44,-0.03013
4.444,-0.02709
4.448,-0.01847
4.452,-0.02219
4.456,0.01118
4.46,-0.06621
4.464,-0.06609
4.468,-0.01765
4.472,-0.0143
4.476,-0.03948
4.48,-0.04442
4.484,-0.10127
4.488,-0.04241
4.492,-0.06249
4.496,-0.12819
4.5,-0.06413
4.504,-0.1198
4.508,-0.18186
4.512,-0.14679
4.516,-0.03038
4.52,0.18998
4.524,0.33659
4.528,0.58847
4.532,0.74534
4.536,0.909
4.54,0.95306
4.544,0.941
4.548,0.83738
4.552,0.59598
4.556,0.38068
4.56,0.16909
4.564,-0.02247
4.568,-0.14421
4.572,-0.16315
4.576,-0.1613
4.58,-0.13834
4.584,-0.13885
4.588,-0.10187
4.592,-0.07544
4.596,-0.08132
4.6,0.02142
4.604,-0.02089
4.608,0.03972
4.612,-0.01232
4.616,0.006
4.62,-0.05907
4.624,-0.00685
4.628,0.00693
4.632,-0.05068
4.636,0.07456
4.64,0.02029
4.644,-0.02735
4.648,-0.05459
4.652,-0.09426
4.656,-0.03608
4.66,0.02811
4.664,-0.02435
4.668,0.06508
4.672,0.01993
4.676,-0.03249
4.68,-0.03071
4.684,-0.05307
4.688,-0.01392
4.692,-0.0477
4.696,-0.02911
4.7,-0.04125
4.704,-0.02104
4.708,-0.03074
4.712,0.02947
4.716,-0.01429
4.72,0.00987
4.724,-0.01279
4.728,0.01589
4.732,-0.02059
4.736,-0.04559
4.74,-0.02015
4.744,0.11054
4.748,0.00184
4.752,0.01058
4.756,0.08098
4.76,0.11912
4.764,0.06026
4.768,0.07963
4.772,0.10506
4.776,0.07047
4.78,0.18719
4.784,0.16066
4.788,0.12765
4.792,0.18787
4.796,0.12336
4.8,0.14844
4.804,0.13202
4.808,0.22274
4.812,0.1465
4.816,0.19108
4.82,0.18384
4.824,0.12591
4.828,0.17644
4.832,0.22321
4.836,0.18424
4.84,0.18661
4.844,0.24614
4.848,0.16046
4.852,0.14364
4.856,0.15785
4.86,0.12652
4.864,0.16443
4.868,0.11811
4.872,0.13086
4.876,0.06134
4.88,0.00324
4.884,0.11514
4.888,0.09044
4.892,0.06095
4.896,0.00403
4.9,0.03634
4.904,0.0301
4.908,0.01176
4.912,0.0072
4.916,0.02419
4.92,-0.002
4.924,0.0105
4.928,-0.0755
4.932,-0.05068
4.936,-0.01917
4.94,-0.03883
4.944,-0.03194
4.948,-0.07148
4.952,-0.04
4.956,-0.04675
4.96,-0.05189
4.964,-0.01292
4.968,-0.01145
4.972,-0.06122
4.976,0.04287
4.98,0.01871
4.984,0.04082
4.988,-0.04808
4.992,0.00123
4.996,-0.00741
5.0,-0.02748
5.004,-0.02512
5.008,-0.06055
5.012,-0.00111
5.016,-0.01332
5.02,-0.01937
5.024,-0.05817
5.028,0.02617
5.032,-0.02978
5.036,-0.09637
5.04,-0.07602
5.044,-0.02614
5.048,-0.05774
5.052,0.02088
5.056,-0.00917
5.06,-0.00788
5.064,-0.04812
5.068,-0.02618
5.072,-0.01603
5.076,0.00647
5.08,-0.04756
5.084,-0.01157
5.088,0.0062
5.092,-0.05192
5.096,-0.10078
5.1,0.01617
5.104,-0.00191
5.108,0.08031
5.112,-0.00711
5.116,0.05281
5.12,0.02069
5.124,0.05892
5.128,0.02423
5.132,0.00142
5.136,0.0472
5.14,0.07478
5.144,0.04425
5.148,0.0367
5.152,-0.01791
5.156,0.04989
5.16,0.04692
5.164,-0.01169
5.168,0.00571
5.172,-0.00632
5.176,-0.03465
5.18,-0.00658
5.184,-0.01514
5.188,0.07444
5.192,0.00152
5.196,-0.05803
5.2,-0.06929
5.204,-0.03589
5.208,-0.04016
5.212,-0.04869
5.216,-0.05004
5.22,-0.00584
5.224,-0.06101
5.228,0.00656
5.232,-0.03325
5.236,-0.02279
5.24,-0.02144
5.244,-0.06921
5.248,-0.08666
5.252,-0.11724
5.256,-0.15979
5.26,-0.15194
5.264,-0.08429
5.268,-0.0657
5.272,0.10196
5.276,0.27819
5.28,0.55763
5.284,0.6899
5.288,0.90872
5.292,0.99398
5.296,0.97486
5.3,0.79582
5.304,0.59824
5.308,0.38546
5.312,0.25517
5.316,-0.03045
5.32,-0.13117
5.324,-0.19183
5.328,-0.19951
5.332,-0.19446
5.336,-0.09736
5.34,-0.14198
5.344,-0.10427
5.348,-0.00422
5.352,-0.14849
5.356,-0.04758
5.36,-0.02352
5.364,-0.05563
5.368,-0.10978
5.372,-0.0352
5.376,-0.02774
5.38,-0.04768
5.384,-0.00582
5.388,-0.05413
5.392,-0.01276
5.396,-0.00224
5.4,-0.01524
5.404,-0.08405
5.408,-0.05412
5.412,0.00796
5.416,-0.00226
5.42,0.05821
5.424,0.00614
5.428,-0.06307
5.432,-0.03167
5.436,-0.05211
5.44,-0.00913
5.444,-0.07122
5.448,-0.06828
5.452,-0.02899
5.456,0.03953
5.46,-0.05225
5.464,-0.00642
5.468,-0.01066
5.472,-0.01469
5.476,-0.01413
5.48,-0.01342
5.484,0.04786
5.488,0.04609
5.492,0.02568
5.496,-0.02061
5.5,0.00803
5.504,0.04893
5.508,0.03189
5.512,0.09208
5.516,0.1087
5.52,0.0088
5.524,0.14476
5.528,0.06223
5.532,0.02348
5.536,0.09238
5.54,0.13636
5.544,0.18161
5.548,0.10479
5.552,0.15489
5.556,0.2176
5.56,0.18667
5.564,0.1889
5.568,0.18459
5.572,0.25576
5.576,0.14667
5.58,0.14528
5.584,0.2493
5.588,0.19957
5.592,0.14653
5.596,0.15166
5.6,0.19098
5.604,0.15567
5.608,0.13971
5.612,0.12402
5.616,0.11306
5.62,0.11125
5.624,0.058
5.628,0.04741
5.632,0.08653
5.636,-0.03917
5.64,0.04855
5.644,0.0327
5.648,0.04192
5.652,-0.00889
5.656,0.00036
5.66,0.06944
5.664,-0.03767
5.668,-0.00017
5.672,-0.02356
5.676,0.00605
5.68,-0.0018
5.684,0.04713
5.688,0.03715
5.692,0.00475
5.696,-0.01874
5.7,-0.04083
5.704,-0.03397
5.708,-0.00187
5.712,-0.06491
5.716,-0.02638
5.72,-0.04385
5.724,-0.03861
5.728,-0.03355
5.732,-0.0371
5.736,-0.08504
5.74,-0.06752
5.744,-0.02502
5.748,-0.0097
5.752,0.00239
5.756,0.02871
5.76,0.00468
5.764,0.0088
5.768,-0.03933
5.772,0.00062
5.776,0.0823
5.78,0.04155
5.784,0.03114
5.788,0.05688
5.792,0.13298
5.796,0.00746
5.8,0.02197
5.804,0.01426
5.808,0.01724
5.812,0.02056
5.816,0.00492
5.82,0.00263
5.824,-0.02998
5.828,-0.00904
5.832,0.03467
5.836,-0.07732
5.84,-0.06937
5.844,-0.03049
5.848,-0.02632
5.852,-0.05414
5.856,-0.00079
5.86,-0.00422
5.864,-0.00264
5.868,-0.03213
5.872,-0.09613
5.876,-0.03041
5.88,-0.01046
5.884,-0.04693
5.888,0.02163
5.892,-0.0902
5.896,-0.01776
5.9,-0.02722
5.904,-0.04487
5.908,-0.17957
5.912,-0.15628
5.916,-0.06297
5.92,-0.01831
5.924,0.10467
5.928,0.32049
5.932,0.47959
5.936,0.62615
5.94,0.92013
5.944,0.97227
5.948,0.94396
5.952,0.76545
5.956,0.64156
5.96,0.43578
5.964,0.20179
5.968,-0.02311
5.972,-0.14681
5.976,-0.19594
5.98,-0.19652
5.984,-0.15912
5.988,-0.04675
5.992,-0.03352
5.996,-0.0264
6.0,-0.06186
6.004,-0.04606
6.008,-0.05197
6.012,-0.05362
6.016,-0.07468
6.02,0.00041
6.024,-0.00993
6.028,-0.06235
6.032,-0.02685
6.036,0.00168
6.04,-0.0436
6.044,-0.0622
6.048,-0.05189
6.052,-0.02895
6.056,-0.03317
6.06,-0.03008
6.064,-0.12887
6.068,0.01261
6.072,-0.00667
6.076,-0.0736
6.08,-0.00048
6.084,-0.05602
6.088,-0.05748
6.092,-0.05678
6.096,-0.05156
6.1,0.03373
6.104,0.01236
6.108,-0.02004
6.112,-0.01424
6.116,0.01576
6.12,-0.07015
6.124,0.02861
6.128,-0.04996
6.132,0.02337
6.136,-0.03958
6.14,0.08987
6.144,0.03308
6.148,0.04061
6.152,0.01758
6.156,0.05384
6.16,0.02441
6.164,0.08202
6.168,0.08789
6.172,0.07137
6.176,0.10286
6.18,0.03394
6.184,0.06731
6.188,0.0759
6.192,0.14494
6.196,0.11676
6.2,0.15259
6.204,0.17871
6.208,0.20511
6.212,0.15254
6.216,0.18453
6.22,0.21227
6.224,0.1684
6.228,0.1831
6.232,0.22527
6.236,0.16258
6.24,0.15813
6.244,0.21158
6.248,0.11544
6.252,0.16303
6.256,0.14801
6.26,0.11735
6.264,0.15096
6.268,0.12607
6.272,0.08704
6.276,0.14789
6.28,0.11574
6.284,0.11935
6.288,0.05949
6.292,0.0929
6.296,0.06532
6.3,0.02821
6.304,0.10139
6.308,0.10349
6.312,0.06046
6.316,0.10655
6.32,0.00946
6.324,0.08246
6.328,0.09419
6.332,0.07082
6.336,0.12769
6.34,0.0846
6.344,0.11017
6.348,0.10451
6.352,0.06487
6.356,0.11398
6.36,0.08013
6.364,-0.0317
6.368,0.11121
6.372,-0.00022
6.376,0.03984
6.38,0.02385
6.384,-0.07006
6.388,-0.04882
6.392,0.05954
6.396,0.01154
6.4,0.01106
6.404,-0.01423
6.408,-0.09245
6.412,-0.04736
6.416,-0.06782
6.42,0.0192
6.424,-0.06469
6.428,-0.01562
6.432,0.00539
6.436,0.02985
6.44,0.00483
6.444,-0.02742
6.448,0.00889
6.452,-0.03867
6.456,-0.04211
6.46,-0.07291
6.464,-0.13373
6.468,-0.16917
6.472,-0.11681
6.476,-0.03174
6.48,0.15847
6.484,0.34634
6.488,0.55854
6.492,0.75866
6.496,0.93022
6.5,0.93743
6.504,0.92716
6.508,0.76674
6.512,0.51746
6.516,0.25245
6.52,0.13726
6.524,-0.00665
6.528,-0.1496
6.532,-0.17602
6.536,-0.12316
6.54,-0.04935
6.544,-0.04272
6.548,-0.07634
6.552,-0.04139
6.556,-0.09003
6.56,-0.00437
6.564,-0.02206
6.568,-0.04338
6.572,-0.03978
6.576,-0.05803
6.58,-0.01682
6.584,-0.03417
6.588,0.01442
6.592,0.01763
6.596,-0.02534
6.6,-0.03863
6.604,-0.03785
6.608,-0.05583
6.612,-0.03846
6.616,0.01715
6.62,0.03713
6.624,-0.07437
6.628,0.03776
6.632,-0.00716
6.636,0.04803
6.64,-0.02906
6.644,0.03824
6.648,0.00791
6.652,0.01766
6.656,-0.06692
6.66,-0.02406
6.664,-0.02243
6.668,-0.02216
6.672,0.02617
6.676,0.03645
6.68,-0.01855
6.684,-0.03473
6.688,0.04536
6.692,0.05143
6.696,-0.02886
6.7,0.06124
6.704,0.01696
6.708,0.04813
6.712,0.03522
6.716,0.03013
6.72,0.0832
6.724,0.07794
6.728,0.04286
6.732,0.1388
6.736,0.12423
6.74,0.16371
6.744,0.08569
6.748,0.20669
6.752,0.19883
6.756,0.20487
6.76,0.19979
6.764,0.16228
6.768,0.18084
6.772,0.28779
6.776,0.23958
6.78,0.20604
6.784,0.23129
6.788,0.19382
6.792,0.13816
6.796,0.19909
6.8,0.1553
6.804,0.23948
6.808,0.13874
6.812,0.14711
6.816,0.11053
6.82,0.18213
6.824,0.12255
6.828,0.08564
6.832,0.14861
6.836,0.03936
6.84,0.10018
6.844,0.05916
6.848,0.02819
6.852,0.03059
6.856,0.06417
6.86,0.03164
6.864,0.00824
6.868,-0.02584
6.872,0.0462
6.876,0.06165
6.88,0.02443
6.884,0.04997
6.888,0.06686
6.892,0.02518
6.896,-0.00189
6.9,-0.06447
6.904,-0.02677
6.908,-0.02811
6.912,0.01511
6.916,-0.00571
6.92,0.04813
6.924,0.00352
6.928,-0.03836
6.932,-0.02963
6.936,0.01963
6.94,-0.04363
6.944,0.0267
6.948,-0.06544
6.952,-0.05966
6.956,0.00061
6.96,-0.0451
6.964,-0.00291
6.968,-0.02542
6.972,0.02047
6.976,0.06514
6.98,0.03584
6.984,0.01102
6.988,0.11353
6.992,0.00949
6.996,0.03562
7.0,0.09108
7.004,0.07726
7.008,0.11278
7.012,0.03035
7.016,0.06869
7.02,0.12908
7.024,0.08503
7.028,0.08738
7.032,0.08161
7.036,0.09787
7.04,0.0779
7.044,0.08747
7.048,0.03289
7.052,0.02513
7.056,0.026
7.06,0.119
7.064,0.05814
7.068,0.01427
7.072,-0.02959
7.076,0.02863
7.08,0.02318
7.084,0.00086
7.088,0.02543
7.092,-0.03916
7.096,0.02256
7.1,0.02224
7.104,0.00689
7.108,0.00039
7.112,0.03645
7.116,-0.0044
7.12,0.01079
7.124,0.02318
7.128,0.04248
7.132,0.1142
7.136,-0.00409
7.14,0.00252
7.144,-0.13787
7.148,-0.07284
7.152,-0.03806
7.156,0.02758
7.16,0.04635
7.164,0.15327
7.168,0.38176
7.172,0.64641
7.176,0.8438
7.18,1.00808
7.184,1.0151
7.188,0.85988
7.192,0.67348
7.196,0.52681
7.2,0.21277
7.204,0.03655
7.208,-0.09231
7.212,-0.15605
7.216,-0.1772
7.22,-0.09284
7.224,-0.11625
7.228,-0.06776
7.232,-0.05584
7.236,0.01255
7.24,0.03567
7.244,0.00557
7.248,0.02508
7.252,-0.02462
7.256,-0.03992
7.26,-0.00448
7.264,-0.02948
7.268,-0.03264
7.272,0.00122
7.276,0.01682
7.28,-0.0388
7.284,0.02246
7.288,-0.0716
7.292,-0.03219
7.296,0.03316
7.3,0.0245
7.304,0.00475
7.308,-0.00769
7.312,-0.02671
7.316,-0.02404
7.32,-0.02752
7.324,-0.0243
7.328,0.01229
7.332,0.00192
7.336,0.00347
7.34,-0.02023
7.344,0.02365
7.348,0.00327
7.352,0.03424
7.356,-0.00388
7.36,-0.03382
7.364,-0.03949
7.368,0.0473
7.372,0.08931
7.376,0.04617
7.38,0.0642
7.384,0.06224
7.388,0.07665
7.392,0.0768
7.396,0.14137
7.4,0.14355
7.404,0.15608
7.408,0.14723
7.412,0.19973
7.416,0.22635
7.42,0.28209
7.424,0.221
7.428,0.23094
7.432,0.27626
7.436,0.26541
7.44,0.31109
7.444,0.29051
7.448,0.23213
7.452,0.25847
7.456,0.26709
7.46,0.30407
7.464,0.24756
7.468,0.27991
7.472,0.17734
7.476,0.18579
7.48,0.18774
7.484,0.22465
7.488,0.1623
7.492,0.20703
7.496,0.16208
7.5,0.14961
7.504,0.1741
7.508,0.0886
7.512,0.11526
7.516,0.08174
7.52,0.11076
7.524,0.10804
7.528,0.04263
7.532,0.06468
7.536,0.13919
7.54,0.07503
7.544,0.05738
7.548,-0.03454
7.552,-0.08333
7.556,-0.04348
7.56,-0.09974
7.564,0.00114
7.568,0.14609
7.572,0.34706
7.576,0.58193
7.58,0.77222
7.584,0.90373
7.588,0.9969
7.592,0.95308
7.596,0.92349
7.6,0.65234
7.604,0.45666
7.608,0.23115
7.612,0.01858
7.616,-0.1121
7.62,-0.19046
7.624,-0.19573
7.628,-0.14016
7.632,-0.10252
7.636,-0.04474
7.64,-0.0347
7.644,0.01799
7.648,0.00574
7.652,0.02164
7.656,0.07875
7.66,-0.03385
7.664,0.09892
7.668,0.05292
7.672,-0.0323
7.676,0.06524
7.68,0.06134
7.684,-0.00837
7.688,-0.04711
7.692,-0.07816
7.696,0.0248
7.7,-0.00214
7.704,-0.01583
7.708,0.02699
7.712,0.03284
7.716,-0.02487
7.72,0.02507
7.724,-0.00501
7.728,0.08216
7.732,0.05673
7.736,0.02015
7.74,0.07478
7.744,-0.0435
7.748,0.08069
7.752,0.06499
7.756,0.01726
7.76,0.01008
7.764,0.04332
7.768,0.04616
7.772,0.04519
7.776,0.07825
7.78,0.04037
7.784,0.0271
7.788,0.0926
7.792,0.12885
7.796,0.11199
7.8,0.04262
7.804,0.11715
7.808,0.17722
7.812,0.16494
7.816,0.14349
7.82,0.16945
7.824,0.14882
7.828,0.13657
7.832,0.21942
7.836,0.16553
7.84,0.23365
7.844,0.20836
7.848,0.22078
7.852,0.22508
7.856,0.25265
7.86,0.17425
7.864,0.1868
7.868,0.21221
7.872,0.32354
7.876,0.23666
7.88,0.23854
7.884,0.21043
7.888,0.19835
7.892,0.18951
7.896,0.25841
7.9,0.19154
7.904,0.21278
7.908,0.13462
7.912,0.22049
7.916,0.16185
7.92,0.16166
7.924,0.11639
7.928,0.17536
7.932,0.10833
7.936,0.0888
7.94,0.08004
7.944,0.00377
7.948,0.04206
7.952,0.05824
7.956,0.1
7.96,0.06509
7.964,0.0303
7.968,0.00338
7.972,0.0265
7.976,0.05934
7.98,0.06719
7.984,0.03942
7.988,0.06397
7.992,-0.01375
7.996,0.07017
8.0,0.06813
8.004,0.09403
8.008,-0.05827
8.012,0.06366
8.016,0.01398
8.02,0.04898
8.024,-0.01453
8.028,0.06869
8.032,0.02971
8.036,0.06439
8.04,0.0742
8.044,-0.0167
8.048,0.02716
8.052,0.06484
8.056,-0.02023
8.06,0.01824
8.064,-0.02922
8.068,0.01798
8.072,0.13823
8.076,0.06702
8.08,0.10005
8.084,0.11166
8.088,0.16891
8.092,0.10688
8.096,0.11763
8.1,0.08504
8.104,0.172
8.108,0.17913
8.112,0.07134
8.116,0.05437
8.12,0.03863
8.124,0.10914
8.128,0.04945
8.132,0.12907
8.136,0.05578
8.14,0.04551
8.144,0.06346
8.148,0.07203
8.152,-0.0199
8.156,0.09764
8.16,-0.01192
8.164,0.07564
8.168,0.01272
8.172,-0.01521
8.176,-0.02024
8.18,-0.00273
8.184,0.02441
8.188,0.02112
8.192,0.01482
8.196,-0.00317
8.2,0.05421
8.204,0.04314
8.208,0.01664
8.212,0.01956
8.216,0.01443
8.22,0.01954
8.224,-0.08076
8.228,-0.13508
8.232,-0.08739
8.236,-0.03104
8.24,0.10087
8.244,0.23647
8.248,0.45417
8.252,0.69958
8.256,0.89095
8.26,1.0923
8.264,1.07471
8.268,0.90578
8.272,0.76382
8.276,0.56172
8.28,0.35262
8.284,0.11173
8.288,-0.08329
8.292,-0.186
8.296,-0.16477
8.3,-0.15367
8.304,-0.10643
8.308,-0.00144
8.312,-0.04503
8.316,-0.02289
8.32,-7e-05
8.324,0.00697
8.328,0.09022
8.332,-0.02326
8.336,0.02366
8.34,0.02284
8.344,0.03303
8.348,0.01831
8.352,0.03727
8.356,0.01098
8.36,0.02599
8.364,0.04534
8.368,0.02513
8.372,0.02179
8.376,-0.00858
8.38,0.05722
8.384,0.04313
8.388,0.04995
8.392,-0.00241
8.396,0.03989
8.4,0.06646
8.404,0.03067
8.408,0.00662
8.412,-0.03499
8.416,0.03853
8.42,0.08833
8.424,0.01621
8.428,0.02488
8.432,0.08786
8.436,0.06286
8.44,0.04276
8.444,0.06133
8.448,-0.04528
8.452,0.0166
8.456,0.09462
8.46,0.04555
8.464,0.05052
8.468,0.0971
8.472,0.06978
8.476,0.09813
8.48,0.11818
8.484,0.08347
8.488,0.19119
8.492,0.17424
8.496,0.15051
8.5,0.1529
8.504,0.21869
8.508,0.16045
8.512,0.22352
8.516,0.29107
8.52,0.23551
8.524,0.20995
8.528,0.28481
8.532,0.22908
8.536,0.26663
8.54,0.27054
8.544,0.25223
8.548,0.2418
8.552,0.28267
8.556,0.26583
8.56,0.22265
8.564,0.21149
8.568,0.25803
8.572,0.29854
8.576,0.22428
8.58,0.22894
8.584,0.09308
8.588,0.17113
8.592,0.10376
8.596,0.11569
8.6,0.02205
8.604,0.09239
8.608,0.13073
8.612,0.08213
8.616,0.06919
8.62,0.07402
8.624,0.06384
8.628,0.06162
8.632,0.05124
8.636,0.03664
8.64,0.02678
8.644,0.05097
8.648,0.12259
8.652,0.02385
8.656,0.06308
8.66,0.06824
8.664,-0.00676
8.668,-0.09327
8.672,0.00314
8.676,0.00169
8.68,0.05527
8.684,0.1004
8.688,0.03422
8.692,-0.04477
8.696,0.00643
8.7,0.03116
8.704,0.05957
8.708,0.07281
8.712,0.01056
8.716,0.03177
8.72,-0.01737
8.724,0.10327
8.728,0.04781
8.732,0.03617
8.736,0.06842
8.74,0.04805
8.744,0.05204
8.748,0.07875
8.752,0.05647
8.756,0.02959
8.76,0.07813
8.764,0.13761
8.768,0.0809
8.772,0.14066
8.776,0.13142
8.78,0.10847
8.784,0.17999
8.788,0.11598
8.792,0.04262
8.796,0.08301
8.8,0.11655
8.804,0.03439
8.808,0.03257
8.812,0.03493
8.816,0.04912
8.82,0.074
8.824,0.13003
8.828,0.05611
8.832,-0.01978
8.836,-0.00759
8.84,0.07903
8.844,0.05481
8.848,0.03529
8.852,0.02983
8.856,-0.00047
8.86,-0.02609
8.864,0.05842
8.868,0.02389
8.872,-0.04365
8.876,0.04116
8.88,0.0783
8.884,0.03203
8.888,0.03885
8.892,0.02037
8.896,-0.00216
8.9,-0.11213
8.904,-0.05226
8.908,-0.07236
8.912,-0.00638
8.916,0.13593
8.92,0.35853
8.924,0.51999
8.928,0.69498
8.932,0.93899
8.936,0.99839
8.94,1.05997
8.944,0.83386
8.948,0.68742
8.952,0.50074
8.956,0.20577
8.96,0.13028
8.964,-0.08633
8.968,-0.10066
8.972,-0.14949
8.976,-0.12537
8.98,-0.00873
8.984,-0.06268
8.988,0.0382
8.992,-0.02537
8.996,0.00997
9.0,0.07957
9.004,0.06824
9.008,0.00275
9.012,0.02989
9.016,0.0039
9.02,0.08042
9.024,0.06042
9.028,-0.05639
9.032,0.00135
9.036,0.06838
9.04,-0.0013
9.044,0.01652
9.048,0.01664
9.052,0.01462
9.056,0.0827
9.06,0.01641
9.064,-0.00092
9.068,0.01324
9.072,-0.03205
9.076,0.04968
9.08,0.01491
9.084,0.0138
9.088,0.0789
9.092,0.06158
9.096,0.09345
9.1,0.07402
9.104,0.07058
9.108,0.13745
9.112,0.07963
9.116,0.13427
9.12,0.27575
9.124,0.2173
9.128,0.16666
9.132,0.14187
9.136,0.08654
9.14,0.1674
9.144,0.11142
9.148,0.17125
9.152,0.05131
9.156,0.14002
9.16,0.03843
9.164,0.08412
9.168,0.14134
9.172,0.11755
9.176,0.23348
9.18,0.19216
9.184,0.19116
9.188,0.19837
9.192,0.13958
9.196,0.2233
9.2,0.29735
9.204,0.26105
9.208,0.2422
9.212,0.23213
9.216,0.29153
9.22,0.27271
9.224,0.22741
9.228,0.15999
9.232,0.16059
9.236,0.14704
9.24,0.12113
9.244,0.14281
9.248,0.11377
9.252,0.07704
9.256,0.2777
9.26,0.48008
9.264,0.56162
9.268,0.81027
9.272,1.03148
9.276,1.0628
9.28,1.08929
9.284,1.06452
9.288,0.79135
9.292,0.54103
9.296,0.29334
9.3,0.15016
9.304,0.01077
9.308,-0.12311
9.312,-0.13203
9.316,-0.09913
9.32,-0.04855
9.324,0.02029
9.328,-0.01149
9.332,0.05721
9.336,0.05654
9.34,-0.02479
9.344,0.0638
9.348,-0.03106
9.352,-0.03111
9.356,0.07086
9.36,0.05324
9.364,0.00282
9.368,-0.0366
9.372,-0.03698
9.376,0.04336
9.38,0.0155
9.384,0.0323
9.388,0.01592
9.392,0.03937
9.396,0.06102
9.4,0.00317
9.404,0.00659
9.408,0.00618
9.412,0.0451
9.416,0.04449
9.42,0.05466
9.424,0.0062
9.428,0.01918
9.432,-0.02541
9.436,0.05785
9.44,-0.03953
9.444,0.06075
9.448,0.08451
9.452,0.05957
9.456,-0.00084
9.46,0.03802
9.464,0.07334
9.468,0.07524
9.472,0.07198
9.476,0.01477
9.48,0.12105
9.484,0.05146
9.488,0.09082
9.492,0.04497
9.496,0.10077
9.5,0.09189
9.504,0.14785
9.508,0.16728
9.512,0.13909
9.516,0.14911
9.52,0.19875
9.524,0.1136
9.528,0.17637
9.532,0.24184
9.536,0.22323
9.54,0.21617
9.544,0.18135
9.548,0.26305
9.552,0.23515
9.556,0.23127
9.56,0.19954
9.564,0.26911
9.568,0.24667
9.572,0.24056
9.576,0.29402
9.58,0.17608
9.584,0.25357
9.588,0.13418
9.592,0.1603
9.596,0.21343
9.6,0.15618
9.604,0.17846
9.608,0.1891
9.612,0.09757
9.616,0.10725
9.62,0.12552
9.624,0.14366
9.628,0.05205
9.632,0.0889
9.636,0.07735
9.64,0.10105
9.644,0.07407
9.648,0.03128
9.652,-0.00676
9.656,0.0752
9.66,0.02292
9.664,-0.00414
9.668,0.02458
9.672,-0.04205
9.676,0.02561
9.68,0.07082
9.684,-0.00999
9.688,0.04692
9.692,0.03284
9.696,-0.02158
9.7,-0.01265
9.704,0.02564
9.708,-0.04203
9.712,-0.00252
9.716,0.04991
9.72,-0.01885
9.724,0.03144
9.728,0.05396
9.732,0.00157
9.736,0.00414
9.74,0.02397
9.744,0.00492
9.748,0.00364
9.752,0.0294
9.756,0.00394
9.76,0.02438
9.764,-0.006
9.768,-0.00459
9.772,-0.00411
9.776,-0.0533
9.78,0.00193
9.784,0.07578
9.788,-0.01618
9.792,0.05035
9.796,-0.02211
9.8,0.03201
9.804,-0.02688
9.808,0.00718
9.812,-0.01288
9.816,0.04757
9.82,0.00524
9.824,0.05205
9.828,-0.03346
9.832,0.03879
9.836,-0.04266
9.84,0.03606
9.844,-0.00325
9.848,-0.00579
9.852,-0.01932
9.856,-0.01483
9.86,0.03083
9.864,0.01354
9.868,0.01547
9.872,-0.01361
9.876,0.04462
9.88,0.02239
9.884,0.02552
9.888,-0.08282
9.892,0.06212
9.896,-0.01385
9.9,-0.02131
9.904,-0.01874
9.908,0.04507
9.912,0.02459
9.916,0.01503
9.92,0.00231
9.924,-0.00464
9.928,0.01202
9.932,-0.0098
9.936,0.05442
9.94,0.04515
9.944,0.02611
9.948,-0.021
9.952,0.00688
9.956,-0.03968
9.96,0.02231
9.964,0.04869
9.968,0.00997
9.972,0.00606
9.976,0.0611
9.98,0.02502
9.984,0.06098
9.988,0.03228
9.992,0.06441
9.996,0.00033
