t_seg,ecg_mV
0.0,0.03568
0.004,-0.02337
0.008,-0.02891
0.012,-0.00588
0.016,-0.03003
0.02,-0.08617
0.024,-0.02997
0.028,-0.02949
0.032,0.02822
0.036,-0.05219
0.04,-0.01464
0.044,-0.0159
0.048,-0.03128
0.052,-0.00055
0.056,0.02046
0.06,-0.03805
0.064,-0.11567
0.068,-0.05165
0.072,-0.02371
0.076,-0.03714
0.08,-0.08669
0.084,-0.06047
0.088,-0.01509
0.092,-0.0081
0.096,-0.01561
0.1,-0.0578
0.104,-0.05798
0.108,-0.0502
0.112,-0.01898
0.116,-0.045
0.12,-0.10556
0.124,-0.06502
0.128,-0.02228
0.132,-0.01723
0.136,-0.02377
0.14,-0.04406
0.144,-0.02742
0.148,0.02383
0.152,-0.01133
0.156,-0.02842
0.16,-0.0188
0.164,-0.01505
0.168,-0.06995
0.172,-0.02712
0.176,-0.00564
0.18,-0.0319
0.184,-0.0893
0.188,-0.07421
0.192,-0.04073
0.196,-0.12113
0.2,-0.00189
0.204,0.01208
0.208,0.006
0.212,0.03587
0.216,-0.05545
0.22,0.00923
0.224,0.04651
0.228,0.04744
0.232,0.05075
0.236,0.07645
0.24,0.07139
0.244,0.01721
0.248,0.10139
0.252,0.0269
0.256,0.04387
0.26,0.13754
0.264,0.02437
0.268,0.03703
0.272,0.07348
0.276,0.00423
0.28,0.0003
0.284,-0.04735
0.288,0.00906
0.292,0.05691
0.296,-0.03853
0.3,0.01722
0.304,-0.01543
0.308,-0.04104
0.312,0.01633
0.316,0.02572
0.32,-0.02142
0.324,0.02021
0.328,0.00564
0.332,-0.01191
0.336,-0.08586
0.34,-0.09081
0.344,-0.04286
0.348,-0.05879
0.352,0.03921
0.356,-0.02029
0.36,-0.07391
0.364,-0.0988
0.368,-0.10089
0.372,-0.14438
0.376,-0.1354
0.38,-0.04706
0.384,0.11551
0.388,0.26039
0.392,0.49565
0.396,0.63978
0.4,0.85192
0.404,0.98784
0.408,0.96768
0.412,0.87796
0.416,0.65822
0.42,0.38733
0.424,0.22846
0.428,0.02557
0.432,-0.14007
0.436,-0.17113
0.44,-0.20213
0.444,-0.09503
0.448,-0.07002
0.452,-0.11814
0.456,-0.03767
0.46,-0.03026
0.464,-0.0582
0.468,-0.02
0.472,-0.03222
0.476,-0.00451
0.48,0.04857
0.484,-0.06962
0.488,-0.01459
0.492,0.00445
0.496,-0.07257
0.5,-0.01521
0.504,0.0355
0.508,-0.04218
0.512,-0.05289
0.516,-0.04744
0.52,0.03906
0.524,-0.02384
0.528,0.00276
0.532,0.01683
0.536,0.06421
0.54,-0.079
0.544,-0.01223
0.548,-0.01561
0.552,-0.08245
0.556,0.00541
0.56,0.03174
0.564,0.01365
0.568,-0.03464
0.572,0.02655
0.576,0.01309
0.58,-0.00143
0.584,0.00189
0.588,0.03636
0.592,-0.02965
0.596,-0.02895
0.6,0.0186
0.604,0.05429
0.608,0.01235
0.612,0.06024
0.616,0.09093
0.62,0.0138
0.624,0.0772
0.628,0.07855
0.632,0.04844
0.636,0.02079
0.64,0.07096
0.644,0.07493
0.648,0.13178
0.652,0.17799
0.656,0.13332
0.66,0.23036
0.664,0.16262
0.668,0.13703
0.672,0.18822
0.676,0.14613
0.68,0.21359
0.684,0.1124
0.688,0.16656
0.692,0.18153
0.696,0.20458
0.7,0.15387
0.704,0.1959
0.708,0.14034
0.712,0.13047
0.716,0.19885
0.72,0.17585
0.724,0.16278
0.728,0.12101
0.732,0.11554
0.736,0.15529
0.74,0.0533
0.744,0.1116
0.748,0.07126
0.752,0.06182
0.756,0.1063
0.76,0.07345
0.764,0.0611
0.768,0.06564
0.772,0.06151
0.776,0.07456
0.78,0.05657
0.784,0.08404
0.788,0.14218
0.792,0.08583
0.796,0.05904
0.8,0.11705
0.804,0.12433
0.808,0.08431
0.812,0.071
0.816,0.07827
0.82,0.03133
0.824,-0.02063
0.828,-0.03704
0.832,0.02636
0.836,-0.01192
0.84,-0.03815
0.844,0.01614
0.848,-0.06177
0.852,-0.05905
0.856,-0.0509
0.86,0.0157
0.864,-0.00266
0.868,-0.00333
0.872,-0.01984
0.876,-0.00455
0.88,-0.01615
0.884,-0.06947
0.888,0.0155
0.892,-0.02613
0.896,0.02356
0.9,-0.00508
0.904,0.02077
0.908,0.00901
0.912,0.01535
0.916,-0.08241
0.92,-0.10626
0.924,-0.16012
0.928,-0.12536
0.932,0.06828
0.936,0.27364
0.94,0.39065
0.944,0.70308
0.948,0.84587
0.952,1.02126
0.956,1.02974
0.96,0.9457
0.964,0.75475
0.968,0.44176
0.972,0.31745
0.976,0.06882
0.98,-0.09639
0.984,-0.1204
0.988,-0.17872
0.992,-0.19595
0.996,-0.08512
1.0,-0.09437
1.004,-0.04549
1.008,-0.09482
1.012,0.01433
1.016,-0.05702
1.02,0.02031
1.024,-0.03706
1.028,-0.02189
1.032,0.02784
1.036,-0.04187
1.04,-0.01838
1.044,-0.07637
1.048,-0.02269
1.052,0.04725
1.056,0.03849
1.06,-0.03416
1.064,0.00422
1.068,-0.00109
1.072,0.02951
1.076,0.07181
1.08,-0.04086
1.084,-0.01261
1.088,-0.03379
1.092,0.00942
1.096,-0.02235
1.1,-0.07891
1.104,0.03235
1.108,-0.04158
1.112,-0.028
1.116,-0.0191
1.12,-0.01221
1.124,-0.06174
1.128,0.02901
1.132,-0.01006
1.136,0.01241
1.14,0.09128
1.144,0.04465
1.148,0.13648
1.152,0.07281
1.156,0.08486
1.16,0.07739
1.164,-0.02024
1.168,0.11055
1.172,0.07693
1.176,0.07916
1.18,0.08206
1.184,0.11294
1.188,0.15642
1.192,0.10832
1.196,0.1808
1.2,0.19929
1.204,0.22233
1.208,0.18145
1.212,0.12885
1.216,0.23752
1.22,0.23542
1.224,0.23821
1.228,0.20282
1.232,0.24231
1.236,0.24108
1.24,0.19479
1.244,0.2634
1.248,0.21566
1.252,0.21412
1.256,0.11935
1.26,0.20729
1.264,0.13339
1.268,0.16412
1.272,0.13033
1.276,0.11526
1.28,0.11777
1.284,0.14862
1.288,0.12559
1.292,0.09329
1.296,0.10171
1.3,0.04513
1.304,0.07672
1.308,0.00651
1.312,0.05491
1.316,0.06326
1.32,0.04644
1.324,0.04129
1.328,0.01893
1.332,0.07028
1.336,0.00592
1.34,-0.05792
1.344,0.01825
1.348,0.01224
1.352,0.07285
1.356,0.02777
1.36,0.0246
1.364,-0.05694
1.368,0.04018
1.372,0.04266
1.376,0.02813
1.38,0.01104
1.384,0.0411
1.388,-0.0118
1.392,0.00669
1.396,0.01537
1.4,0.03643
1.404,0.0013
1.408,0.00158
1.412,-0.01564
1.416,0.00727
1.42,-0.00406
1.424,-0.0222
1.428,0.0625
1.432,-0.04952
1.436,0.02735
1.44,-0.02159
1.444,0.01608
1.448,0.01922
1.452,0.06242
1.456,-0.02587
1.46,0.04685
1.464,-0.02153
1.468,0.02157
1.472,0.0285
1.476,-0.04395
1.48,0.01226
1.484,0.03527
1.488,0.04964
1.492,0.03915
1.496,0.01481
1.5,-0.00943
1.504,0.03511
1.508,0.12738
1.512,0.0332
1.516,0.03434
1.52,0.0803
1.524,0.05501
1.528,0.08743
1.532,0.11531
1.536,0.0899
1.54,0.10513
1.544,0.14992
1.548,0.0951
1.552,0.08026
1.556,0.1341
1.56,0.06195
1.564,0.02992
1.568,0.11837
1.572,0.06235
1.576,0.00796
1.58,0.03299
1.584,0.06028
1.588,0.04049
1.592,0.08359
1.596,0.05674
1.6,0.02356
1.604,0.0347
1.608,0.02544
1.612,0.01756
1.616,-0.03139
1.62,0.0214
1.624,-0.01423
1.628,0.01124
1.632,0.01278
1.636,0.00597
1.64,0.00036
1.644,-0.05387
1.648,0.03142
1.652,-0.01161
1.656,0.06514
1.66,0.01219
1.664,-0.08179
1.668,-0.09761
1.672,-0.0746
1.676,-0.12031
1.68,-0.06073
1.684,-0.02614
1.688,0.19591
1.692,0.38775
1.696,0.56594
1.7,0.7509
1.704,0.94401
1.708,0.91257
1.712,1.00831
1.716,0.8434
1.72,0.64608
1.724,0.43756
1.728,0.16681
1.732,0.03204
1.736,-0.05826
1.74,-0.18694
1.744,-0.19035
1.748,-0.15188
1.752,-0.05178
1.756,-0.03542
1.76,-0.02544
1.764,-0.02376
1.768,0.03705
1.772,0.03334
1.776,0.0372
1.78,0.07848
1.784,-0.00595
1.788,0.03131
1.792,0.03442
1.796,0.00414
1.8,0.024
1.804,0.00826
1.808,-0.06362
1.812,-0.01148
1.816,-0.04647
1.82,-0.02087
1.824,0.07867
1.828,0.04704
1.832,0.00638
1.836,-0.00433
1.84,0.03035
1.844,-0.03873
1.848,0.03599
1.852,-0.01882
1.856,0.10066
1.86,0.00268
1.864,0.01017
1.868,-0.02556
1.872,0.06696
1.876,-0.00744
1.88,0.03284
1.884,0.06307
1.888,0.03702
1.892,0.04337
1.896,0.06547
1.9,0.10595
1.904,0.0427
1.908,0.08849
1.912,0.102
1.916,0.06007
1.92,0.15228
1.924,0.10303
1.928,0.08235
1.932,0.16335
1.936,0.15501
1.94,0.17407
1.944,0.15592
1.948,0.19704
1.952,0.21138
1.956,0.2415
1.96,0.30185
1.964,0.26182
1.968,0.30948
1.972,0.30672
1.976,0.30106
1.98,0.35511
1.984,0.29977
1.988,0.3103
1.992,0.32817
1.996,0.30644
2.0,0.32674
2.004,0.29092
2.008,0.35445
2.012,0.2842
2.016,0.22005
2.02,0.20573
2.024,0.28046
2.028,0.16246
2.032,0.12664
2.036,0.18963
2.04,0.12021
2.044,0.15649
2.048,0.01903
2.052,0.1594
2.056,0.11546
2.06,0.03254
2.064,-0.00167
2.068,0.02631
2.072,0.09606
2.076,-0.00055
2.08,0.03276
2.084,0.01824
2.088,-0.00833
2.092,0.07125
2.096,0.08012
2.1,0.03989
2.104,0.02077
2.108,-0.00386
2.112,-0.06756
2.116,-0.13373
2.12,-0.00092
2.124,-0.00236
2.128,0.13413
2.132,0.42991
2.136,0.61965
2.14,0.79628
2.144,0.94327
2.148,1.01702
2.152,0.9514
2.156,0.81782
2.16,0.59463
2.164,0.37257
2.168,0.1484
2.172,0.01381
2.176,-0.05059
2.18,-0.11972
2.184,-0.12859
2.188,-0.10174
2.192,-0.05897
2.196,0.06155
2.2,-0.02436
2.204,0.05974
2.208,0.05782
2.212,0.04992
2.216,0.03344
2.22,0.06458
2.224,0.11056
2.228,0.0087
2.232,0.00877
2.236,-0.02339
2.24,0.03138
2.244,0.01003
2.248,-0.0148
2.252,0.0152
2.256,0.0399
2.26,0.01621
2.264,-0.03536
2.268,0.09361
2.272,0.04777
2.276,0.07598
2.28,0.00719
2.284,0.02799
2.288,0.0218
2.292,-0.01906
2.296,0.02472
2.3,0.03967
2.304,-0.03331
2.308,0.08197
2.312,-0.00185
2.316,0.05956
2.32,0.1062
2.324,0.04177
2.328,0.07444
2.332,0.12815
2.336,0.01336
2.34,0.04933
2.344,0.04822
2.348,0.01253
2.352,0.11364
2.356,0.11863
2.36,0.12421
2.364,0.03918
2.368,0.17002
2.372,0.1686
2.376,0.16141
2.38,0.16346
2.384,0.12849
2.388,0.1735
2.392,0.16089
2.396,0.18402
2.4,0.24085
2.404,0.16768
2.408,0.29554
2.412,0.22722
2.416,0.29433
2.42,0.22152
2.424,0.26793
2.428,0.27861
2.432,0.26961
2.436,0.23002
2.44,0.21865
2.444,0.25188
2.448,0.32061
2.452,0.229
2.456,0.1836
2.46,0.17753
2.464,0.17129
2.468,0.16015
2.472,0.13269
2.476,0.13099
2.48,0.20254
2.484,0.14892
2.488,0.02831
2.492,0.10661
2.496,0.13919
2.5,0.04903
2.504,0.02335
2.508,0.05395
2.512,0.09254
2.516,0.0918
2.52,0.00133
2.524,0.0391
2.528,-0.00052
2.532,0.07795
2.536,0.03794
2.54,0.01991
2.544,0.00734
2.548,-0.01745
2.552,0.08783
2.556,-0.00734
2.56,-0.02161
2.564,0.03178
2.568,0.01805
2.572,0.02116
2.576,0.07565
2.58,0.00759
2.584,0.03684
2.588,0.07984
2.592,0.06759
2.596,0.05117
2.6,0.01601
2.604,0.14143
2.608,0.11425
2.612,0.04665
2.616,0.06832
2.62,0.08787
2.624,0.12023
2.628,0.13737
2.632,0.14793
2.636,0.11198
2.64,0.11896
2.644,0.16022
2.648,0.09742
2.652,0.12517
2.656,0.07123
2.66,0.02677
2.664,0.09069
2.668,0.0529
2.672,0.05763
2.676,-0.03303
2.68,0.0979
2.684,0.07784
2.688,0.01568
2.692,0.05024
2.696,0.05703
2.7,0.05828
2.704,0.03546
2.708,0.06347
2.712,0.11635
2.716,-0.03682
2.72,0.05416
2.724,0.0258
2.728,0.0624
2.732,0.07156
2.736,0.01076
2.74,-0.00427
2.744,0.00168
2.748,-0.01992
2.752,-0.08149
2.756,-0.08084
2.76,-0.09727
2.764,-0.05186
2.768,0.05123
2.772,0.19978
2.776,0.3891
2.78,0.60818
2.784,0.87753
2.788,0.95313
2.792,1.06549
2.796,0.94819
2.8,0.82552
2.804,0.58148
2.808,0.41052
2.812,0.18216
2.816,-0.02886
2.82,-0.06107
2.824,-0.13272
2.828,-0.12498
2.832,-0.12958
2.836,-0.11917
2.84,-0.01694
2.844,0.00373
2.848,0.03072
2.852,0.05568
2.856,0.04199
2.86,0.11303
2.864,-0.00051
2.868,0.09174
2.872,0.06632
2.876,0.04567
2.88,0.03127
2.884,0.05412
2.888,0.07816
2.892,0.04674
2.896,-0.03611
2.9,0.08877
2.904,0.0353
2.908,-0.02425
2.912,0.03927
2.916,0.00962
2.92,0.04681
2.924,0.04143
2.928,0.05083
2.932,0.00804
2.936,0.01801
2.94,-0.01304
2.944,-0.00598
2.948,0.06643
2.952,0.03566
2.956,0.01452
2.96,0.06242
2.964,-0.00918
2.968,0.00388
2.972,0.06673
2.976,0.10017
2.98,0.19274
2.984,0.06621
2.988,0.1258
2.992,0.17586
2.996,0.12095
3.0,0.163
3.004,0.21583
3.008,0.233
3.012,0.23149
3.016,0.21684
3.02,0.18111
3.024,0.21421
3.028,0.17235
3.032,0.17412
3.036,0.15935
3.04,0.16404
3.044,0.22122
3.048,0.21792
3.052,0.21307
3.056,0.24964
3.06,0.2119
3.064,0.17625
3.068,0.24388
3.072,0.27845
3.076,0.22007
3.08,0.22857
3.084,0.24176
3.088,0.16806
3.092,0.26836
3.096,0.17595
3.1,0.19164
3.104,0.20156
3.108,0.21029
3.112,0.1319
3.116,0.14006
3.12,0.15908
3.124,0.07902
3.128,0.04115
3.132,0.01185
3.136,0.03772
3.14,0.08253
3.144,0.19786
3.148,0.45697
3.152,0.57795
3.156,0.73971
3.16,0.98783
3.164,1.12679
3.168,1.00498
3.172,0.88539
3.176,0.70062
3.18,0.46185
3.184,0.15231
3.188,-0.00368
3.192,-0.04598
3.196,-0.13283
3.2,-0.12838
3.204,-0.03797
3.208,-0.02396
3.212,-0.02008
3.216,0.0073
3.22,0.03218
3.224,0.0349
3.228,0.0696
3.232,0.06042
3.236,0.01989
3.24,0.05014
3.244,0.09513
3.248,0.06301
3.252,-0.0054
3.256,-0.01503
3.26,0.03886
3.264,0.08166
3.268,0.0691
3.272,0.00342
3.276,0.01192
3.28,-0.02884
3.284,0.01118
3.288,-0.00569
3.292,0.06993
3.296,0.02064
3.3,0.05374
3.304,0.07691
3.308,0.05063
3.312,0.07163
3.316,0.03451
3.32,0.05104
3.324,0.004
3.328,0.01676
3.332,-0.00566
3.336,0.06819
3.34,0.08534
3.344,0.05606
3.348,0.04771
3.352,0.03681
3.356,0.09608
3.36,0.02381
3.364,0.04518
3.368,0.0523
3.372,0.10511
3.376,0.06287
3.38,0.13181
3.384,0.12654
3.388,0.11982
3.392,0.15068
3.396,0.0658
3.4,0.09164
3.404,0.09809
3.408,0.20089
3.412,0.17149
3.416,0.19234
3.42,0.19903
3.424,0.25035
3.428,0.25655
3.432,0.21331
3.436,0.29241
3.44,0.25763
3.444,0.21644
3.448,0.30371
3.452,0.2468
3.456,0.20064
3.46,0.26276
3.464,0.22489
3.468,0.21038
3.472,0.24059
3.476,0.14516
3.48,0.21051
3.484,0.1695
3.488,0.15679
3.492,0.10642
3.496,0.18243
3.5,0.10695
3.504,0.15754
3.508,0.1318
3.512,0.04442
3.516,0.0679
3.52,0.08587
3.524,0.13852
3.528,0.09179
3.532,0.06421
3.536,0.09374
3.54,0.04709
3.544,0.05978
3.548,0.11002
3.552,0.08314
3.556,0.0709
3.56,0.03638
3.564,-0.01458
3.568,-0.02204
3.572,-0.00736
3.576,-0.01428
3.58,0.03726
3.584,0.02793
3.588,0.03521
3.592,0.00852
3.596,-0.00381
3.6,0.00819
3.604,-0.04169
3.608,0.06026
3.612,0.06002
3.616,0.05336
3.62,0.01914
3.624,0.05007
3.628,0.03822
3.632,0.13235
3.636,0.06896
3.64,0.04047
3.644,0.05556
3.648,0.03464
3.652,0.06661
3.656,0.11585
3.66,0.14745
3.664,0.11833
3.668,0.1703
3.672,0.10489
3.676,0.11433
3.68,0.08579
3.684,-0.00559
3.688,0.03351
3.692,0.05135
3.696,0.09679
3.7,0.0671
3.704,0.00551
3.708,0.03562
3.712,0.01332
3.716,-0.00983
3.72,0.02755
3.724,0.05241
3.728,0.05355
3.732,0.01076
3.736,0.0212
3.74,-0.01681
3.744,0.06061
3.748,-0.03921
3.752,0.08118
3.756,0.00066
3.76,0.02134
3.764,-0.00393
3.768,0.01219
3.772,0.01602
3.776,0.05799
3.78,0.00063
3.784,0.00054
3.788,-0.04917
3.792,-0.06369
3.796,-0.09041
3.8,-0.08609
3.804,-0.0032
3.808,0.19204
3.812,0.31864
3.816,0.60768
3.82,0.80987
3.824,0.96775
3.828,1.03146
3.832,0.98584
3.836,0.86993
3.84,0.59573
3.844,0.31191
3.848,0.16908
3.852,0.01871
3.856,-0.09919
3.86,-0.152
3.864,-0.10078
3.868,-0.08518
3.872,-0.15462
3.876,-0.05588
3.88,0.0254
3.884,-0.05029
3.888,0.02929
3.892,0.00758
3.896,-0.00129
3.9,0.04629
3.904,-0.0169
3.908,-0.04097
3.912,0.06358
3.916,0.05301
3.92,-0.0025
3.924,0.00774
3.928,0.04037
3.932,0.01099
3.936,0.08016
3.94,0.11409
3.944,0.0965
3.948,0.07231
3.952,0.11218
3.956,0.1304
3.96,0.14721
3.964,0.17075
3.968,0.12605
3.972,0.09676
3.976,0.04458
3.98,0.12408
3.984,0.08369
3.988,0.11837
3.992,0.00917
3.996,0.03685
4.0,0.07808
4.004,0.11692
4.008,0.01263
4.012,0.03366
4.016,0.00332
4.02,-0.05715
4.024,0.03504
4.028,0.07771
4.032,0.06044
4.036,0.10551
4.04,0.06376
4.044,0.05736
4.048,0.12417
4.052,0.15853
4.056,0.09176
4.06,0.16458
4.064,0.17611
4.068,0.16087
4.072,0.14402
4.076,0.13072
4.08,0.21137
4.084,0.04116
4.088,0.04911
4.092,0.10777
4.096,0.25802
4.1,0.38862
4.104,0.61241
4.108,0.86253
4.112,0.99345
4.116,1.12845
4.12,1.24828
4.124,1.11292
4.128,1.0725
4.132,0.74238
4.136,0.51822
4.14,0.27998
4.144,0.09863
4.148,0.01739
4.152,-0.01398
4.156,-0.02586
4.16,-0.03571
4.164,-0.06404
4.168,0.03715
4.172,0.08646
4.176,0.11517
4.18,0.06734
4.184,0.09769
4.188,0.0377
4.192,0.06611
4.196,-0.01901
4.2,0.01781
4.204,0.05334
4.208,0.04833
4.212,-0.00854
4.216,0.06205
4.22,0.03073
4.224,-0.00754
4.228,-0.03135
4.232,0.07908
4.236,0.01209
4.24,0.04211
4.244,0.0901
4.248,0.03251
4.252,-0.04484
4.256,0.00818
4.26,0.05822
4.264,0.03379
4.268,0.0411
4.272,0.08312
4.276,0.02691
4.28,0.03458
4.284,0.00808
4.288,0.0223
4.292,0.05443
4.296,-0.03975
4.3,0.03681
4.304,0.01779
4.308,0.01622
4.312,0.04497
4.316,0.0357
4.32,0.03771
4.324,0.14895
4.328,0.04724
4.332,0.09508
4.336,0.089
4.34,0.07941
4.344,0.11422
4.348,0.05728
4.352,0.13072
4.356,0.12753
4.36,0.13999
4.364,0.15589
4.368,0.16155
4.372,0.19281
4.376,0.13154
4.38,0.22624
4.384,0.15806
4.388,0.18311
4.392,0.20862
4.396,0.22182
4.4,0.21818
4.404,0.19186
4.408,0.21407
4.412,0.20377
4.416,0.15701
4.42,0.18741
4.424,0.1544
4.428,0.16453
4.432,0.18331
4.436,0.16125
4.44,0.12499
4.444,0.12567
4.448,0.21422
4.452,0.15191
4.456,0.08444
4.46,0.0387
4.464,0.09675
4.468,0.10507
4.472,0.03908
4.476,0.11032
4.48,0.02162
4.484,0.0408
4.488,-0.00216
4.492,0.02948
4.496,-0.02119
4.5,0.01775
4.504,0.04639
4.508,0.00547
4.512,0.02842
4.516,0.00473
4.52,0.08775
4.524,0.04061
4.528,-0.04729
4.532,0.03976
4.536,0.00647
4.54,0.02108
4.544,0.01747
4.548,0.00848
4.552,-0.07162
4.556,-0.01267
4.56,0.02071
4.564,-0.0008
4.568,0.0477
4.572,0.03604
4.576,0.04475
4.58,0.01942
4.584,0.07735
4.588,0.03337
4.592,0.10714
4.596,0.0777
4.6,0.10101
4.604,0.097
4.608,0.14033
4.612,0.06911
4.616,0.02593
4.62,0.05638
4.624,0.07846
4.628,0.0165
4.632,-0.00019
4.636,0.03844
4.64,-0.02592
4.644,0.0833
4.648,0.03136
4.652,-0.02839
4.656,0.0334
4.66,-0.03903
4.664,0.04576
4.668,-0.04415
4.672,-0.03747
4.676,-0.02485
4.68,0.0165
4.684,0.10159
4.688,-0.02477
4.692,0.0115
4.696,0.02222
4.7,-0.02808
4.704,-0.00852
4.708,0.03182
4.712,0.08062
4.716,0.01378
4.72,-0.03525
4.724,0.03776
4.728,-0.03704
4.732,-0.13111
4.736,-0.15953
4.74,-0.03778
4.744,-0.0827
4.748,0.0915
4.752,0.27969
4.756,0.51532
4.76,0.69729
4.764,0.85881
4.768,0.96792
4.772,0.99707
4.776,0.79448
4.78,0.64721
4.784,0.38464
4.788,0.19768
4.792,-0.02309
4.796,-0.12816
4.8,-0.18006
4.804,-0.18057
4.808,-0.15642
4.812,-0.10292
4.816,-0.04027
4.82,-0.04247
4.824,-0.06016
4.828,-0.00652
4.832,0.01463
4.836,-0.05968
4.84,-0.02376
4.844,-0.02435
4.848,-0.03726
4.852,0.01095
4.856,0.00128
4.86,-0.00203
4.864,-0.0249
4.868,0.01116
4.872,0.04454
4.876,-0.03974
4.88,0.01538
4.884,-0.04078
4.888,-0.00033
4.892,-0.04176
4.896,-0.04336
4.9,0.02489
4.904,0.03234
4.908,-0.02584
4.912,0.04014
4.916,-0.04926
4.92,0.003
4.924,-0.08249
4.928,-0.01359
4.932,-0.04631
4.936,0.00864
4.94,-0.00562
4.944,0.01777
4.948,0.02963
4.952,0.01605
4.956,0.00796
4.96,0.00156
4.964,0.00174
4.968,0.02271
4.972,0.02205
4.976,0.01111
4.98,0.02379
4.984,0.02373
4.988,0.0589
4.992,0.13944
4.996,0.09458
5.0,0.11395
5.004,0.14059
5.008,0.07405
5.012,0.14365
5.016,0.17741
5.02,0.14209
5.024,0.1665
5.028,0.14332
5.032,0.15436
5.036,0.19499
5.04,0.26693
5.044,0.16218
5.048,0.19963
5.052,0.20393
5.056,0.16861
5.06,0.18482
5.064,0.22206
5.068,0.18657
5.072,0.17221
5.076,0.17205
5.08,0.18674
5.084,0.15729
5.088,0.12261
5.092,0.13784
5.096,0.11262
5.1,0.17102
5.104,0.11029
5.108,0.05061
5.112,0.06128
5.116,0.09841
5.12,0.05772
5.124,0.05109
5.128,0.00031
5.132,-0.03983
5.136,0.0206
5.14,0.0331
5.144,-0.05036
5.148,-0.07035
5.152,-0.0243
5.156,-0.02429
5.16,0.00393
5.164,-0.03567
5.168,-0.02612
5.172,-0.02321
5.176,-0.02997
5.18,-0.04838
5.184,-0.00288
5.188,-0.01243
5.192,-0.04861
5.196,-0.02684
5.2,-0.03584
5.204,-0.03869
5.208,0.00726
5.212,-0.04158
5.216,-0.01262
5.22,-0.03362
5.224,-0.03328
5.228,-0.05703
5.232,-0.02417
5.236,0.01081
5.24,-0.02301
5.244,-0.00963
5.248,-0.01927
5.252,-0.0543
5.256,0.00287
5.26,-0.01628
5.264,-0.05629
5.268,-0.0205
5.272,-0.02863
5.276,-0.06442
5.28,-0.06402
5.284,0.03882
5.288,0.08398
5.292,-0.00012
5.296,0.05919
5.3,0.08189
5.304,0.04322
5.308,0.05611
5.312,0.06069
5.316,0.06554
5.32,0.08192
5.324,0.12195
5.328,0.02199
5.332,0.07526
5.336,0.04528
5.34,0.05229
5.344,-0.03078
5.348,-0.01843
5.352,-0.00854
5.356,-0.07359
5.36,-0.02265
5.364,0.02377
5.368,0.09027
5.372,-0.06458
5.376,-0.02436
5.38,0.01906
5.384,0.02054
5.388,-0.09644
5.392,-0.04876
5.396,0.02013
5.4,0.0372
5.404,0.00067
5.408,-0.06886
5.412,-0.00885
5.416,0.01311
5.42,0.02761
5.424,0.0083
5.428,-0.03896
5.432,-0.09196
5.436,-0.12552
5.44,-0.11795
5.444,-0.08664
5.448,-0.08781
5.452,-0.10183
5.456,-0.01135
5.46,0.15566
5.464,0.16858
5.468,0.31506
5.472,0.37021
5.476,0.36788
5.48,0.42841
5.484,0.30523
5.488,0.19112
5.492,0.1525
5.496,-0.05552
5.5,-0.14204
5.504,-0.23778
5.508,-0.14124
5.512,-0.08378
5.516,-0.11888
5.52,-0.09312
5.524,-0.04811
5.528,-0.01948
5.532,-0.00934
5.536,-0.01226
5.54,0.00845
5.544,0.01423
5.548,0.04186
5.552,0.09814
5.556,0.09333
5.56,0.03903
5.564,0.07372
5.568,0.00413
5.572,0.07387
5.576,0.02955
5.58,0.06698
5.584,0.02348
5.588,0.02358
5.592,0.06989
5.596,0.01473
5.6,-0.08233
5.604,0.09695
5.608,-0.01767
5.612,-0.06525
5.616,-0.01899
5.62,0.03043
5.624,-0.03661
5.628,-0.06134
5.632,-0.0916
5.636,-0.01369
5.64,-0.00166
5.644,-0.03868
5.648,-0.03432
5.652,-0.01371
5.656,-0.0405
5.66,0.03464
5.664,-0.03429
5.668,-0.01383
5.672,0.07512
5.676,0.04458
5.68,0.05214
5.684,0.06592
5.688,-0.07349
5.692,-0.03848
5.696,0.00411
5.7,0.06827
5.704,0.17944
5.708,0.47077
5.712,0.62028
5.716,0.87417
5.72,1.08449
5.724,1.21144
5.728,1.15462
5.732,0.9883
5.736,0.82281
5.74,0.68022
5.744,0.39326
5.748,0.25154
5.752,0.14329
5.756,-0.01836
5.76,0.0097
5.764,-0.02212
5.768,0.08932
5.772,0.12836
5.776,0.19658
5.78,0.16536
5.784,0.14755
5.788,0.13234
5.792,0.15533
5.796,0.14205
5.8,0.14556
5.804,0.09645
5.808,0.10185
5.812,0.01679
5.816,0.04106
5.82,-0.01267
5.824,0.08946
5.828,-0.03913
5.832,0.07381
5.836,0.06541
5.84,0.00714
5.844,-0.05488
5.848,-0.0137
5.852,-0.03733
5.856,0.01849
5.86,-0.07076
5.864,0.08204
5.868,0.01003
5.872,0.01547
5.876,-0.02594
5.88,-0.01807
5.884,-0.03692
5.888,-0.0492
5.892,-0.03414
5.896,-0.0184
5.9,0.02882
5.904,0.00707
5.908,-0.0136
5.912,-0.01623
5.916,-0.01917
5.92,-0.02602
5.924,0.02866
5.928,0.0488
5.932,0.02984
5.936,0.01476
5.94,-0.01294
5.944,0.00646
5.948,0.11053
5.952,0.03489
5.956,0.09211
5.96,0.05593
5.964,0.13607
5.968,0.1396
5.972,0.07994
5.976,0.19972
5.98,0.17658
5.984,0.15653
5.988,0.14948
5.992,0.13317
5.996,0.22795
6.0,0.14622
6.004,0.20255
6.008,0.2095
6.012,0.1986
6.016,0.15976
6.02,0.21048
6.024,0.18611
6.028,0.15923
6.032,0.16483
6.036,0.17918
6.04,0.18738
6.044,0.08851
6.048,0.09881
6.052,0.16586
6.056,0.09033
6.06,0.07673
6.064,0.07125
6.068,0.05142
6.072,0.06839
6.076,0.08207
6.08,0.04691
6.084,0.02758
6.088,0.02135
6.092,-0.00571
6.096,0.04121
6.1,0.01613
6.104,0.00298
6.108,0.02634
6.112,-0.00152
6.116,-0.03752
6.12,0.00668
6.124,-0.05436
6.128,-0.01055
6.132,-0.05965
6.136,-0.01547
6.14,-0.02944
6.144,-0.00558
6.148,0.00387
6.152,-0.03167
6.156,-0.08526
6.16,-0.04298
6.164,-0.06852
6.168,-0.03029
6.172,0.02155
6.176,-0.01986
6.18,-0.06953
6.184,-0.06972
6.188,-0.01491
6.192,0.02825
6.196,0.05553
6.2,0.01983
6.204,0.06637
6.208,0.04224
6.212,0.08801
6.216,0.05367
6.22,0.11588
6.224,0.0883
6.228,0.08227
6.232,0.0651
6.236,0.12952
6.24,0.07799
6.244,0.02002
6.248,0.0214
6.252,0.06088
6.256,-0.01086
6.26,0.02625
6.264,-0.02237
6.268,0.01597
6.272,-0.06936
6.276,-0.01987
6.28,-0.01849
6.284,0.03601
6.288,-0.01403
6.292,-0.03934
6.296,-0.07325
6.3,-0.03304
6.304,-0.01564
6.308,-0.05613
6.312,0.00744
6.316,-0.01859
6.32,0.01341
6.324,-0.01724
6.328,-0.00513
6.332,-0.06267
6.336,-0.046
6.34,-0.07451
6.344,-0.14535
6.348,-0.17473
6.352,-0.09242
6.356,-0.10951
6.36,0.02478
6.364,0.13763
6.368,0.4226
6.372,0.61046
6.376,0.83974
6.38,0.99189
6.384,0.9786
6.388,0.93058
6.392,0.66332
6.396,0.44077
6.4,0.2897
6.404,0.10531
6.408,-0.10546
6.412,-0.23287
6.416,-0.1951
6.42,-0.17428
6.424,-0.09319
6.428,-0.13501
6.432,-0.07076
6.436,-0.04231
6.44,-0.05114
6.444,-0.00044
6.448,-0.02617
6.452,0.02805
6.456,-0.06611
6.46,-0.01518
6.464,-0.06173
6.468,-0.06259
6.472,-0.01802
6.476,0.00377
6.48,-0.0352
6.484,-0.01378
6.488,-0.09443
6.492,-0.09193
6.496,-0.04428
6.5,0.00011
6.504,-0.10915
6.508,-0.04422
6.512,-0.03535
6.516,-0.04166
6.52,-0.05987
6.524,-0.04468
6.528,0.00373
6.532,-0.02801
6.536,-0.01885
6.54,-0.05991
6.544,0.00731
6.548,0.05038
6.552,0.01423
6.556,-0.01096
6.56,-0.07076
6.564,0.01053
6.568,-0.02609
6.572,0.03163
6.576,-0.06277
6.58,0.0031
6.584,0.02817
6.588,0.02016
6.592,0.04972
6.596,0.07949
6.6,0.07583
6.604,0.09181
6.608,0.11593
6.612,0.11237
6.616,0.08233
6.62,0.13039
6.624,0.10117
6.628,0.17767
6.632,0.13174
6.636,0.17141
6.64,0.1735
6.644,0.20153
6.648,0.16458
6.652,0.23853
6.656,0.24848
6.66,0.26446
6.664,0.23321
6.668,0.16971
6.672,0.20252
6.676,0.14137
6.68,0.15897
6.684,0.18027
6.688,0.1393
6.692,0.14171
6.696,0.1059
6.7,0.12248
6.704,0.10771
6.708,0.13125
6.712,0.0881
6.716,0.07096
6.72,0.06221
6.724,0.01905
6.728,0.04882
6.732,0.06846
6.736,0.03682
6.74,0.02803
6.744,-0.03758
6.748,0.03265
6.752,-0.00773
6.756,0.01092
6.76,0.02255
6.764,0.03138
6.768,0.03442
6.772,0.06314
6.776,0.02609
6.78,0.08156
6.784,0.08329
6.788,0.08505
6.792,0.06515
6.796,0.0626
6.8,0.02776
6.804,0.0344
6.808,0.04587
6.812,0.06046
6.816,-0.01309
6.82,0.04535
6.824,-0.003
6.828,0.08806
6.832,0.03414
6.836,-0.0163
6.84,-0.03577
6.844,-0.02407
6.848,-0.01317
6.852,-0.09866
6.856,0.00141
6.86,-0.04992
6.864,0.00503
6.868,0.00094
6.872,0.04246
6.876,-0.01576
6.88,-0.03126
6.884,-0.02056
6.888,0.02038
6.892,0.05215
6.896,-0.02359
6.9,-0.02235
6.904,-0.0796
6.908,-0.05607
6.912,-0.1203
6.916,-0.20032
6.92,-0.18054
6.924,-0.14195
6.928,-0.1571
6.932,0.12086
6.936,0.23317
6.94,0.38197
6.944,0.54755
6.948,0.60555
6.952,0.60669
6.956,0.61364
6.96,0.53447
6.964,0.3211
6.968,0.19816
6.972,0.09525
6.976,-0.0943
6.98,-0.23563
6.984,-0.20211
6.988,-0.13985
6.992,-0.178
6.996,-0.11023
7.0,-0.03731
7.004,0.00626
7.008,-0.02294
7.012,0.0001
7.016,-0.04051
7.02,-0.02008
7.024,-0.0173
7.028,-0.02495
7.032,-0.01263
7.036,-0.0185
7.04,-0.00653
7.044,0.0139
7.048,0.00518
7.052,-0.07379
7.056,-0.01868
7.06,-0.01949
7.064,-0.04439
7.068,-0.00368
7.072,-0.07818
7.076,-0.02613
7.08,-0.06445
7.084,0.02576
7.088,0.05478
7.092,-0.08685
7.096,-0.04262
7.1,0.00812
7.104,0.00743
7.108,-0.06224
7.112,-0.03424
7.116,0.02731
7.12,0.00176
7.124,-0.05123
7.128,-0.02576
7.132,0.02176
7.136,0.08694
7.14,0.01759
7.144,0.06665
7.148,0.00134
7.152,0.06308
7.156,0.08388
7.16,0.05414
7.164,0.0031
7.168,0.03547
7.172,0.12907
7.176,0.10096
7.18,0.08269
7.184,0.07133
7.188,0.10229
7.192,0.16931
7.196,0.16898
7.2,0.17644
7.204,0.15804
7.208,0.14202
7.212,0.17264
7.216,0.20931
7.22,0.22994
7.224,0.22698
7.228,0.21875
7.232,0.23456
7.236,0.1425
7.24,0.18332
7.244,0.18014
7.248,0.17195
7.252,0.16513
7.256,0.16538
7.26,0.14817
7.264,0.12818
7.268,0.13559
7.272,0.11424
7.276,0.09884
7.28,0.19838
7.284,0.0769
7.288,0.06391
7.292,0.12138
7.296,0.03653
7.3,0.00307
7.304,0.12023
7.308,0.04559
7.312,-0.02311
7.316,0.04706
7.32,0.02483
7.324,-0.01224
7.328,0.00489
7.332,-0.02827
7.336,0.01081
7.34,0.03725
7.344,-0.02789
7.348,-0.01218
7.352,-0.0254
7.356,-0.05659
7.36,-0.00385
7.364,0.02329
7.368,-0.01122
7.372,0.02906
7.376,-0.02885
7.38,-0.00659
7.384,-0.01455
7.388,-0.05468
7.392,-0.03721
7.396,-0.04949
7.4,-0.02711
7.404,0.00644
7.408,-0.03439
7.412,0.01984
7.416,-0.0171
7.42,-0.04201
7.424,-0.02447
7.428,-0.0454
7.432,0.01992
7.436,-0.04355
7.44,-0.02752
7.444,-0.02436
7.448,-0.02246
7.452,0.02535
7.456,0.0103
7.46,0.0118
7.464,0.02293
7.468,0.03626
7.472,-0.01166
7.476,0.06327
7.48,0.06918
7.484,0.09366
7.488,0.04672
7.492,0.04227
7.496,0.08307
7.5,0.07126
7.504,0.10597
7.508,0.02823
7.512,0.12069
7.516,0.00903
7.52,0.10699
7.524,0.11372
7.528,0.04082
7.532,0.03775
7.536,0.01858
7.54,0.01338
7.544,0.05207
7.548,-0.02642
7.552,0.03779
7.556,0.03472
7.56,-0.04451
7.564,-0.02841
7.568,-0.07693
7.572,-0.00307
7.576,-0.04264
7.58,0.05517
7.584,0.00329
7.588,-0.01692
7.592,-0.07488
7.596,0.01438
7.6,-0.05318
7.604,-0.03881
7.608,-0.00923
7.612,0.0264
7.616,-0.05082
7.62,0.04849
7.624,-0.01706
7.628,-0.0574
7.632,-0.05462
7.636,-0.08881
7.64,-0.0213
7.644,0.07473
7.648,0.18342
7.652,0.40875
7.656,0.63134
7.66,0.84682
7.664,0.9728
7.668,1.00366
7.672,0.91216
7.676,0.84529
7.68,0.6345
7.684,0.29034
7.688,0.11195
7.692,-0.01738
7.696,-0.16681
7.7,-0.08762
7.704,-0.16017
7.708,-0.09175
7.712,-0.11866
7.716,-0.04359
7.72,-0.01959
7.724,0.00191
7.728,-0.02432
7.732,0.04007
7.736,-0.00392
7.74,-0.01211
7.744,0.01943
7.748,-0.02507
7.752,-0.01951
7.756,-0.05254
7.76,-0.01101
7.764,0.02422
7.768,0.01801
7.772,-0.03786
7.776,0.01137
7.78,-0.01008
7.784,-0.01656
7.788,0.00559
7.792,-0.02597
7.796,0.00851
7.8,0.01697
7.804,-0.00392
7.808,0.0456
7.812,0.01293
7.816,0.05359
7.82,-0.00187
7.824,0.0249
7.828,0.00119
7.832,0.08735
7.836,0.02401
7.84,0.01967
7.844,0.03555
7.848,0.04024
7.852,-0.03294
7.856,0.00523
7.86,0.00131
7.864,0.05019
7.868,0.03565
7.872,0.0387
7.876,0.05082
7.88,0.07902
7.884,0.11634
7.888,0.12051
7.892,0.13845
7.896,0.08942
7.9,0.12136
7.904,0.1285
7.908,0.17514
7.912,0.12459
7.916,0.11654
7.92,0.18663
7.924,0.15407
7.928,0.24159
7.932,0.20879
7.936,0.17788
7.94,0.26004
7.944,0.20302
7.948,0.19446
7.952,0.2288
7.956,0.18711
7.96,0.20965
7.964,0.26791
7.968,0.25771
7.972,0.21722
7.976,0.21111
7.98,0.18247
7.984,0.18953
7.988,0.13736
7.992,0.10045
7.996,0.09509
8.0,0.14182
8.004,0.07098
8.008,0.07295
8.012,0.09736
8.016,0.10569
8.02,0.10954
8.024,0.07687
8.028,0.02169
8.032,0.02053
8.036,0.0293
8.04,0.04794
8.044,0.09256
8.048,0.03787
8.052,0.03783
8.056,-0.01993
8.06,0.0899
8.064,0.03518
8.068,0.03097
8.072,0.03313
8.076,0.09016
8.08,0.04463
8.084,0.03786
8.088,-0.00063
8.092,0.01086
8.096,0.07477
8.1,0.06435
8.104,0.07995
8.108,0.06741
8.112,0.11392
8.116,0.09593
8.12,0.08172
8.124,0.17726
8.128,0.10898
8.132,0.04266
8.136,0.08985
8.14,0.06319
8.144,0.08953
8.148,0.04495
8.152,0.05301
8.156,0.05564
8.16,-0.00207
8.164,0.07719
8.168,0.01999
8.172,-0.03986
8.176,0.04438
8.18,-0.0474
8.184,-0.00947
8.188,-0.05888
8.192,0.03654
8.196,0.02373
8.2,-0.02712
8.204,0.04268
8.208,-0.06467
8.212,-0.00889
8.216,-0.00342
8.22,0.03744
8.224,0.07387
8.228,0.01964
8.232,0.00893
8.236,-0.05003
8.24,-0.06112
8.244,-0.08539
8.248,-0.11529
8.252,-0.01397
8.256,0.09454
8.26,0.19595
8.264,0.38459
8.268,0.68757
8.272,0.85271
8.276,0.97664
8.28,0.95882
8.284,0.90785
8.288,0.80332
8.292,0.61403
8.296,0.34233
8.3,0.11211
8.304,-0.03056
8.308,-0.18487
8.312,-0.12948
8.316,-0.1368
8.32,-0.13184
8.324,-0.04996
8.328,-0.04612
8.332,0.002
8.336,0.01366
8.34,-0.01428
8.344,-0.03956
8.348,0.03023
8.352,-0.02053
8.356,0.04924
8.36,0.01173
8.364,-0.01043
8.368,0.0472
8.372,0.02835
8.376,-0.0417
8.38,0.00636
8.384,0.02109
8.388,0.06112
8.392,0.06094
8.396,-0.00629
8.4,-0.02901
8.404,0.08164
8.408,0.01489
8.412,0.01558
8.416,0.03861
8.42,0.03026
8.424,0.06811
8.428,-0.00925
8.432,0.00135
8.436,0.02931
8.44,0.08435
8.444,0.02028
8.448,0.03824
8.452,-0.00039
8.456,0.03837
8.46,0.08037
8.464,0.05944
8.468,-0.03712
8.472,0.09363
8.476,0.09605
8.48,0.04196
8.484,0.16002
8.488,0.03052
8.492,0.08686
8.496,0.15175
8.5,0.12551
8.504,0.16635
8.508,0.08523
8.512,0.11459
8.516,0.11886
8.52,0.11372
8.524,0.14356
8.528,0.19316
8.532,0.16636
8.536,0.20025
8.54,0.24679
8.544,0.14374
8.548,0.24565
8.552,0.21452
8.556,0.21333
8.56,0.23709
8.564,0.20224
8.568,0.24941
8.572,0.24976
8.576,0.1763
8.58,0.19909
8.584,0.2231
8.588,0.21359
8.592,0.20678
8.596,0.16796
8.6,0.11908
8.604,0.16734
8.608,0.09375
8.612,0.04763
8.616,0.14066
8.62,0.11892
8.624,0.06756
8.628,0.079
8.632,0.05113
8.636,0.0197
8.64,0.09433
8.644,0.08535
8.648,0.03957
8.652,0.07045
8.656,0.12667
8.66,0.02446
8.664,0.03629
8.668,0.00983
8.672,0.01443
8.676,0.01823
8.68,0.00192
8.684,-0.00247
8.688,0.01599
8.692,0.06275
8.696,0.0758
8.7,0.09303
8.704,0.01462
8.708,0.03275
8.712,0.12346
8.716,0.11977
8.72,0.06773
8.724,0.11818
8.728,0.1076
8.732,0.11565
8.736,0.12542
8.74,0.17457
8.744,0.11365
8.748,0.09526
8.752,0.10336
8.756,0.13144
8.76,0.05855
8.764,0.01502
8.768,0.04132
8.772,0.05792
8.776,0.04767
8.78,-0.01638
8.784,0.12107
8.788,0.00402
8.792,0.04493
8.796,0.00849
8.8,-0.05707
8.804,0.0134
8.808,0.02511
8.812,0.03136
8.816,0.03918
8.82,0.0254
8.824,0.07956
8.828,0.02348
8.832,-0.00199
8.836,0.04465
8.84,0.04662
8.844,0.04952
8.848,-0.00493
8.852,0.03307
8.856,0.09953
8.86,-0.00772
8.864,-0.06848
8.868,-0.11539
8.872,-0.0113
8.876,-0.00153
8.88,0.07757
8.884,0.32067
8.888,0.57222
8.892,0.74933
8.896,0.96563
8.9,0.98596
8.904,0.94148
8.908,0.86019
8.912,0.60235
8.916,0.43923
8.92,0.2223
8.924,0.02231
8.928,-0.03342
8.932,-0.09043
8.936,-0.09249
8.94,-0.11731
8.944,-0.08765
8.948,-0.04876
8.952,-0.03608
8.956,0.01708
8.96,-0.03068
8.964,-0.00386
8.968,0.04122
8.972,0.04226
8.976,0.04251
8.98,0.02431
8.984,0.03206
8.988,0.04396
8.992,0.00695
8.996,0.02874
9.0,0.04197
9.004,0.0471
9.008,-0.03328
9.012,0.00113
9.016,0.05512
9.02,0.00681
9.024,0.03715
9.028,0.02211
9.032,0.06208
9.036,-0.00974
9.04,-0.03656
9.044,0.03173
9.048,0.04693
9.052,0.07504
9.056,0.05239
9.06,0.00692
9.064,-0.00026
9.068,0.03471
9.072,-0.00791
9.076,0.01819
9.08,0.04969
9.084,0.02318
9.088,0.03398
9.092,0.04465
9.096,0.04187
9.1,0.12672
9.104,0.12511
9.108,0.07163
9.112,0.03635
9.116,0.12036
9.12,0.1485
9.124,0.11707
9.128,0.15519
9.132,0.24197
9.136,0.1749
9.14,0.25163
9.144,0.19169
9.148,0.20036
9.152,0.20435
9.156,0.23258
9.16,0.23714
9.164,0.20101
9.168,0.24497
9.172,0.25744
9.176,0.29827
9.18,0.27449
9.184,0.21009
9.188,0.22401
9.192,0.21001
9.196,0.27603
9.2,0.18582
9.204,0.25353
9.208,0.21485
9.212,0.15045
9.216,0.24954
9.22,0.18072
9.224,0.08501
9.228,0.11422
9.232,0.1425
9.236,0.20585
9.24,0.17269
9.244,0.15885
9.248,0.02595
9.252,0.0403
9.256,0.11946
9.26,0.11062
9.264,0.02987
9.268,0.04127
9.272,0.08044
9.276,0.01833
9.28,0.06216
9.284,0.03272
9.288,0.06241
9.292,0.03752
9.296,0.06155
9.3,-0.01613
9.304,-0.0091
9.308,0.01074
9.312,0.02463
9.316,0.0655
9.32,0.04536
9.324,0.0742
9.328,0.08826
9.332,0.03433
9.336,0.03507
9.34,0.02071
9.344,0.05203
9.348,0.05948
9.352,0.06307
9.356,0.04365
9.36,0.06088
9.364,0.09356
9.368,0.07302
9.372,0.00088
9.376,0.05378
9.38,0.01175
9.384,0.07811
9.388,0.09206
9.392,0.01326
9.396,0.00649
9.4,0.07936
9.404,0.105
9.408,0.00807
9.412,0.00113
9.416,0.03712
9.42,0.04282
9.424,0.07817
9.428,0.02719
9.432,0.0114
9.436,0.06011
9.44,0.02607
9.444,0.06873
9.448,0.0431
9.452,0.01068
9.456,0.01259
9.46,0.00981
9.464,0.04446
9.468,0.05389
9.472,0.0587
9.476,0.03354
9.48,0.09795
9.484,-0.01621
9.488,-0.03297
9.492,-0.06099
9.496,0.01757
9.5,0.01376
9.504,0.00301
9.508,0.0153
9.512,0.02676
9.516,0.05035
9.52,0.01205
9.524,0.07182
9.528,0.07892
9.532,0.12178
9.536,0.09387
9.54,0.08113
9.544,0.09465
9.548,0.11669
9.552,0.08988
9.556,0.18719
9.56,0.12719
9.564,0.0626
9.568,0.11729
9.572,0.03005
9.576,0.09055
9.58,0.07967
9.584,0.10861
9.588,0.12681
9.592,0.0613
9.596,0.02139
9.6,0.04748
9.604,0.05216
9.608,0.03026
9.612,0.03286
9.616,0.08062
9.62,0.03911
9.624,0.02723
9.628,0.05887
9.632,-0.01267
9.636,0.03922
9.64,0.0515
9.644,-0.02719
9.648,0.05856
9.652,0.07705
9.656,-0.04221
9.66,0.07483
9.664,-0.0159
9.668,0.02505
9.672,-0.02334
9.676,-0.02613
9.68,-0.09043
9.684,-0.03861
9.688,-0.04956
9.692,0.02355
9.696,0.13958
9.7,0.43055
9.704,0.65883
9.708,0.85057
9.712,1.0228
9.716,1.04682
9.72,0.97433
9.724,0.85499
9.728,0.60705
9.732,0.40425
9.736,0.1348
9.74,0.02488
9.744,-0.09735
9.748,-0.13205
9.752,-0.08172
9.756,-0.16094
9.76,-0.04877
9.764,-0.02854
9.768,-0.02449
9.772,0.05533
9.776,0.01881
9.78,0.03279
9.784,0.08823
9.788,0.00235
9.792,0.0809
9.796,0.00714
9.8,0.01975
9.804,0.01161
9.808,0.02678
9.812,0.01908
9.816,0.05459
9.82,0.05804
9.824,-0.0071
9.828,0.06658
9.832,0.03535
9.836,0.00014
9.84,0.01531
9.844,0.00042
9.848,0.02393
9.852,0.0624
9.856,0.03675
9.86,0.04764
9.864,-0.01792
9.868,0.06154
9.872,0.07982
9.876,0.08906
9.88,8e-05
9.884,0.02175
9.888,-0.00252
9.892,0.01981
9.896,0.04441
9.9,0.02616
9.904,0.07148
9.908,0.02652
9.912,0.04076
9.916,0.09935
9.92,0.08014
9.924,0.06217
9.928,0.16149
9.932,0.17882
9.936,0.1344
9.94,0.06967
9.944,0.16628
9.948,0.21014
9.952,0.17704
9.956,0.12313
9.96,0.1546
9.964,0.21013
9.968,0.17079
9.972,0.20092
9.976,0.1885
9.98,0.20389
9.984,0.17513
9.988,0.20566
9.992,0.23478
9.996,0.22963
