t_seg,ecg_mV
0.0,0.02189
0.004,-0.06732
0.008,-0.03374
0.012,-0.00719
0.016,0.04581
0.02,-0.0253
0.024,-0.04456
0.028,-0.00035
0.032,-0.00866
0.036,0.00184
0.04,-0.01768
0.044,0.04702
0.048,-0.00552
0.052,0.06955
0.056,-0.02348
0.06,-0.03392
0.064,0.07766
0.068,0.03949
0.072,0.02369
0.076,0.02178
0.08,0.06127
0.084,0.08318
0.088,0.07329
0.092,0.09044
0.096,0.08573
0.1,0.07392
0.104,0.10452
0.108,0.09596
0.112,0.0995
0.116,0.02105
0.12,0.07686
0.124,-0.0029
0.128,0.08428
0.132,0.10663
0.136,0.07828
0.14,0.04801
0.144,0.03043
0.148,0.08585
0.152,-0.08592
0.156,-0.03481
0.16,0.00291
0.164,-0.00185
0.168,-0.07436
0.172,-0.02502
0.176,-0.01125
0.18,-0.03289
0.184,0.02837
0.188,-0.012
0.192,0.01769
0.196,-0.01642
0.2,-0.00516
0.204,-0.05012
0.208,0.01097
0.212,-0.02359
0.216,0.00596
0.22,-0.05624
0.224,-0.09905
0.228,-0.06721
0.232,-0.12503
0.236,-0.05403
0.24,0.09978
0.244,0.23827
0.248,0.44706
0.252,0.69555
0.256,0.88108
0.26,1.03142
0.264,0.93826
0.268,0.87745
0.272,0.72201
0.276,0.42217
0.28,0.27394
0.284,0.0836
0.288,-0.11114
0.292,-0.10161
0.296,-0.2033
0.3,-0.13112
0.304,-0.13229
0.308,0.00317
0.312,-0.03817
0.316,-0.00266
0.32,0.05368
0.324,0.00053
0.328,0.00263
0.332,0.00566
0.336,0.01288
0.34,-0.02876
0.344,-0.05565
0.348,0.00034
0.352,-0.02167
0.356,-0.05723
0.36,-0.00514
0.364,-0.04949
0.368,-0.08844
0.372,-0.01312
0.376,0.03736
0.38,-0.00332
0.384,-0.02562
0.388,-0.05445
0.392,-0.03282
0.396,0.03692
0.4,0.01078
0.404,0.01205
0.408,0.02425
0.412,-0.05404
0.416,-0.01126
0.42,0.01906
0.424,0.02296
0.428,0.04941
0.432,0.03126
0.436,-0.00861
0.44,-0.02195
0.444,0.08253
0.448,0.04621
0.452,0.06754
0.456,0.01224
0.46,0.07887
0.464,0.03077
0.468,0.04464
0.472,0.05305
0.476,0.10784
0.48,0.0648
0.484,0.06897
0.488,0.10825
0.492,0.11227
0.496,0.13462
0.5,0.07227
0.504,0.11134
0.508,0.13752
0.512,0.1257
0.516,0.13498
0.52,0.14769
0.524,0.16378
0.528,0.15164
0.532,0.20754
0.536,0.21177
0.54,0.21685
0.544,0.18438
0.548,0.19186
0.552,0.20887
0.556,0.19001
0.56,0.2025
0.564,0.15292
0.568,0.23604
0.572,0.12687
0.576,0.1782
0.58,0.16777
0.584,0.1036
0.588,0.11723
0.592,0.0934
0.596,0.07563
0.6,0.14649
0.604,0.04337
0.608,0.06748
0.612,0.07858
0.616,0.06913
0.62,0.00513
0.624,-0.00626
0.628,0.06549
0.632,0.01153
0.636,0.04105
0.64,-0.05952
0.644,0.03568
0.648,0.032
0.652,-0.01814
0.656,0.00239
0.66,-0.08017
0.664,-0.04331
0.668,-0.02326
0.672,0.0061
0.676,-0.05922
0.68,-0.03943
0.684,-0.04657
0.688,0.01134
0.692,-0.02051
0.696,0.02558
0.7,0.00399
0.704,0.02767
0.708,0.02612
0.712,0.01831
0.716,-0.00618
0.72,-0.01422
0.724,-0.02501
0.728,-0.02292
0.732,0.00635
0.736,-0.0136
0.74,0.00189
0.744,-0.02696
0.748,-0.05612
0.752,0.00101
0.756,0.03015
0.76,-0.0004
0.764,-0.02382
0.768,-0.00643
0.772,0.02497
0.776,-0.06645
0.78,-0.03569
0.784,-0.01172
0.788,-0.03288
0.792,-0.03673
0.796,-0.0528
0.8,-0.01006
0.804,-0.04858
0.808,-0.027
0.812,-0.02784
0.816,-0.00052
0.82,-0.01707
0.824,-0.05897
0.828,0.01667
0.832,0.00756
0.836,-0.00631
0.84,-0.00489
0.844,-0.01018
0.848,0.01461
0.852,0.04102
0.856,-0.09126
0.86,-0.02069
0.864,-0.01625
0.868,-0.08674
0.872,-0.02483
0.876,0.02718
0.88,-0.03472
0.884,-0.00555
0.888,-0.0679
0.892,-0.00623
0.896,0.00055
0.9,-0.03198
0.904,-0.02498
0.908,-0.07424
0.912,-0.02865
0.916,0.03109
0.92,-0.03454
0.924,-0.03084
0.928,-0.07722
0.932,-0.01647
0.936,0.04052
0.94,-0.02861
0.944,-0.05423
0.948,-0.0103
0.952,0.00861
0.956,-0.10934
0.96,0.0292
0.964,-0.05519
0.968,0.04169
0.972,0.057
0.976,0.04408
0.98,-0.01956
0.984,0.02372
0.988,0.02323
0.992,-0.00933
0.996,0.02173
1.0,0.03965
1.004,0.05378
1.008,0.09319
1.012,0.0393
1.016,0.06768
1.02,0.00109
1.024,0.08019
1.028,-0.00011
1.032,0.05398
1.036,0.05394
1.04,-0.0148
1.044,0.02188
1.048,-0.02386
1.052,0.02759
1.056,-0.02048
1.06,-0.01969
1.064,0.00625
1.068,-0.0324
1.072,-0.00251
1.076,-0.00094
1.08,-0.02291
1.084,-0.05999
1.088,0.03447
1.092,-0.02802
1.096,-0.06988
1.1,0.00587
1.104,-0.04812
1.108,-0.09774
1.112,0.04514
1.116,-0.02701
1.12,0.0041
1.124,-0.05973
1.128,0.0077
1.132,-0.05724
1.136,-0.10404
1.14,-0.1592
1.144,-0.06703
1.148,0.05707
1.152,0.14605
1.156,0.33814
1.16,0.50849
1.164,0.77606
1.168,0.97251
1.172,0.98823
1.176,0.93471
1.18,0.80832
1.184,0.57197
1.188,0.31473
1.192,0.06464
1.196,-0.06757
1.2,-0.11907
1.204,-0.18768
1.208,-0.22778
1.212,-0.15815
1.216,-0.09073
1.22,-0.10013
1.224,-0.0706
1.228,-0.04443
1.232,-0.05118
1.236,-0.02479
1.24,-0.05083
1.244,-0.01303
1.248,-0.03982
1.252,0.03707
1.256,-0.04
1.26,-0.00794
1.264,-0.00157
1.268,-0.06223
1.272,-0.02676
1.276,-0.02319
1.28,-0.07249
1.284,0.04431
1.288,0.01203
1.292,-0.01978
1.296,-0.04899
1.3,-0.02748
1.304,-0.06863
1.308,-0.04881
1.312,0.00222
1.316,-0.03178
1.32,-0.00146
1.324,-0.02647
1.328,-0.00556
1.332,-0.08456
1.336,0.0322
1.34,-0.01274
1.344,0.0221
1.348,-0.0082
1.352,-0.02926
1.356,-0.02102
1.36,-0.00382
1.364,-0.00762
1.368,-0.01325
1.372,-0.02205
1.376,-0.04356
1.38,0.03446
1.384,0.06567
1.388,0.0789
1.392,0.04137
1.396,0.01395
1.4,0.11354
1.404,0.09107
1.408,0.08969
1.412,0.10454
1.416,0.12167
1.42,0.15058
1.424,0.15095
1.428,0.19351
1.432,0.24051
1.436,0.18605
1.44,0.14093
1.444,0.20853
1.448,0.16445
1.452,0.23726
1.456,0.16667
1.46,0.10113
1.464,0.23349
1.468,0.14096
1.472,0.17404
1.476,0.18482
1.48,0.13742
1.484,0.21391
1.488,0.18486
1.492,0.14478
1.496,0.08518
1.5,0.04963
1.504,0.04729
1.508,0.03822
1.512,0.04483
1.516,0.05571
1.52,0.03977
1.524,-0.01894
1.528,0.05254
1.532,0.02323
1.536,-0.00014
1.54,0.05897
1.544,0.00973
1.548,-0.02742
1.552,-0.02138
1.556,-0.04939
1.56,0.00505
1.564,-0.09893
1.568,-0.00308
1.572,-0.03567
1.576,-0.02974
1.58,-0.04602
1.584,-0.06227
1.588,-0.02956
1.592,-0.02058
1.596,-0.11885
1.6,0.00463
1.604,-0.03062
1.608,-0.04732
1.612,-0.03449
1.616,0.01764
1.62,-0.01549
1.624,-0.09918
1.628,-0.03702
1.632,0.00401
1.636,-0.01256
1.64,-0.02623
1.644,-0.02769
1.648,-0.00204
1.652,0.02618
1.656,0.02889
1.66,0.05288
1.664,0.09597
1.668,0.06819
1.672,0.0318
1.676,0.02503
1.68,0.10028
1.684,0.05124
1.688,0.05339
1.692,0.09571
1.696,0.097
1.7,0.02114
1.704,0.04179
1.708,0.02409
1.712,0.01635
1.716,0.03541
1.72,0.0141
1.724,-0.0484
1.728,-0.02775
1.732,-0.02288
1.736,0.02665
1.74,-0.05849
1.744,-0.04195
1.748,-0.01363
1.752,-0.03488
1.756,-0.03502
1.76,0.01329
1.764,-0.08168
1.768,-0.11455
1.772,-0.07139
1.776,-0.00687
1.78,-0.03819
1.784,-0.04537
1.788,-0.07902
1.792,-0.03537
1.796,-0.07072
1.8,-0.12151
1.804,-0.10982
1.808,-0.16299
1.812,-0.19758
1.816,-0.11366
1.82,0.02301
1.824,0.21846
1.828,0.41285
1.832,0.71832
1.836,0.80073
1.84,0.96451
1.844,0.99622
1.848,0.77252
1.852,0.64526
1.856,0.42393
1.86,0.18805
1.864,-0.05251
1.868,-0.14242
1.872,-0.18706
1.876,-0.16671
1.88,-0.18034
1.884,-0.15396
1.888,-0.0579
1.892,-0.02134
1.896,-0.00308
1.9,-0.04451
1.904,-0.04544
1.908,-0.02582
1.912,-0.02575
1.916,-0.05396
1.92,-0.03646
1.924,-0.03104
1.928,0.0118
1.932,-0.02423
1.936,-0.04026
1.94,0.02176
1.944,-0.08343
1.948,-0.05211
1.952,0.0095
1.956,-0.06092
1.96,-0.01267
1.964,-0.01735
1.968,-0.05756
1.972,0.01323
1.976,-0.04438
1.98,-0.0044
1.984,-0.03263
1.988,-0.05181
1.992,-0.02152
1.996,-0.02803
2.0,-0.04576
2.004,-0.0432
2.008,-0.05373
2.012,-0.02128
2.016,0.0713
2.02,-0.01739
2.024,-0.0491
2.028,0.00679
2.032,0.01624
2.036,0.00396
2.04,0.11097
2.044,-0.03668
2.048,0.03078
2.052,0.04321
2.056,-0.01155
2.06,0.05765
2.064,0.01238
2.068,0.04087
2.072,0.09085
2.076,0.12236
2.08,0.16798
2.084,0.10997
2.088,0.17315
2.092,0.15286
2.096,0.16462
2.1,0.19019
2.104,0.22311
2.108,0.13135
2.112,0.17189
2.116,0.1749
2.12,0.19328
2.124,0.1487
2.128,0.23308
2.132,0.16663
2.136,0.12557
2.14,0.18206
2.144,0.16107
2.148,0.18346
2.152,0.15878
2.156,0.11878
2.16,0.13264
2.164,0.12199
2.168,0.12189
2.172,0.08186
2.176,0.07888
2.18,0.01558
2.184,0.07766
2.188,0.08683
2.192,0.04052
2.196,0.01258
2.2,0.01465
2.204,0.00823
2.208,0.03411
2.212,0.00144
2.216,-0.01073
2.22,-0.01937
2.224,-0.01963
2.228,-0.05942
2.232,-0.0485
2.236,-0.01439
2.24,-0.02699
2.244,-0.08143
2.248,0.00715
2.252,-0.05947
2.256,-0.05561
2.26,0.01053
2.264,-0.00049
2.268,-0.00536
2.272,-0.03465
2.276,0.03344
2.28,0.0037
2.284,-0.05099
2.288,-0.03291
2.292,0.04272
2.296,0.01454
2.3,-0.09361
2.304,-0.00488
2.308,-0.05791
2.312,0.05145
2.316,-0.04556
2.32,-0.00767
2.324,0.00035
2.328,0.00197
2.332,-0.00431
2.336,-0.04481
2.34,-0.01721
2.344,-0.05154
2.348,-0.02495
2.352,-0.01745
2.356,-0.04872
2.36,-0.0473
2.364,-0.05089
2.368,-0.00447
2.372,-0.0913
2.376,-0.0868
2.38,-0.00134
2.384,-0.05726
2.388,-0.0393
2.392,0.05819
2.396,-0.00291
2.4,0.00204
2.404,-0.05565
2.408,-0.05581
2.412,0.0114
2.416,-0.06753
2.42,0.02364
2.424,0.00236
2.428,-0.00842
2.432,-0.09756
2.436,-0.00638
2.44,-0.00857
2.444,0.01539
2.448,0.05283
2.452,-0.0204
2.456,-0.07998
2.46,-0.06478
2.464,-0.089
2.468,-0.08219
2.472,-0.09716
2.476,-0.07821
2.48,0.00344
2.484,-0.07971
2.488,0.03112
2.492,-0.02727
2.496,-0.04967
2.5,-0.00986
2.504,-0.01201
2.508,-0.0226
2.512,-0.06973
2.516,0.01626
2.52,-0.04481
2.524,0.07238
2.528,-0.01642
2.532,-0.02462
2.536,0.01714
2.54,0.02994
2.544,0.08624
2.548,0.08983
2.552,0.02886
2.556,0.05149
2.56,0.07959
2.564,-0.01041
2.568,0.06282
2.572,0.02732
2.576,0.0254
2.58,0.06644
2.584,0.10008
2.588,0.02151
2.592,-0.02347
2.596,0.0723
2.6,-0.00465
2.604,-0.06926
2.608,0.03337
2.612,-0.03299
2.616,-0.03673
2.62,0.00647
2.624,0.01669
2.628,-0.01006
2.632,-0.05755
2.636,-0.04135
2.64,-0.03229
2.644,-0.04154
2.648,-0.05652
2.652,-0.02713
2.656,0.02385
2.66,0.04516
2.664,-0.0176
2.668,0.0086
2.672,0.05093
2.676,-0.02316
2.68,0.01493
2.684,-0.04715
2.688,-0.0979
2.692,-0.1104
2.696,-0.08213
2.7,-0.21242
2.704,-0.08761
2.708,-0.0215
2.712,0.16907
2.716,0.43263
2.72,0.65292
2.724,0.74346
2.728,0.96075
2.732,1.00799
2.736,0.88013
2.74,0.75536
2.744,0.49847
2.748,0.31943
2.752,0.08661
2.756,-0.09015
2.76,-0.15746
2.764,-0.16212
2.768,-0.20555
2.772,-0.1158
2.776,-0.04184
2.78,-0.05409
2.784,0.02227
2.788,-0.00301
2.792,-0.02407
2.796,0.00589
2.8,-0.01405
2.804,-0.01288
2.808,-0.024
2.812,-0.01803
2.816,0.02171
2.82,-0.00839
2.824,0.00275
2.828,0.00376
2.832,0.01196
2.836,-0.04407
2.84,0.01319
2.844,0.00265
2.848,-0.03818
2.852,-0.02819
2.856,0.00401
2.86,-0.02821
2.864,-0.04604
2.868,-0.05561
2.872,-0.03042
2.876,0.0417
2.88,-0.03296
2.884,-0.04902
2.888,-0.02728
2.892,-0.01881
2.896,0.06612
2.9,0.00355
2.904,0.01898
2.908,-0.05951
2.912,0.02199
2.916,0.00234
2.92,-0.01566
2.924,0.03336
2.928,0.0525
2.932,0.07832
2.936,0.00531
2.94,0.00401
2.944,0.07607
2.948,0.09891
2.952,0.08601
2.956,0.15195
2.96,0.03997
2.964,0.06048
2.968,0.05686
2.972,0.17134
2.976,0.15226
2.98,0.19806
2.984,0.16636
2.988,0.18631
2.992,0.18723
2.996,0.14539
3.0,0.26574
3.004,0.25153
3.008,0.20315
3.012,0.21771
3.016,0.18729
3.02,0.14721
3.024,0.17282
3.028,0.15729
3.032,0.15452
3.036,0.1749
3.04,0.2018
3.044,0.12957
3.048,0.20201
3.052,0.09248
3.056,0.12107
3.06,0.1416
3.064,0.06369
3.068,0.12139
3.072,-0.018
3.076,0.1108
3.08,0.11247
3.084,0.01564
3.088,0.06702
3.092,0.04542
3.096,0.06314
3.1,0.00744
3.104,-0.06196
3.108,-0.04269
3.112,0.03994
3.116,-0.01388
3.12,-0.03149
3.124,-0.01398
3.128,0.0174
3.132,-0.00335
3.136,-0.00151
3.14,-0.04568
3.144,-0.00019
3.148,-0.02042
3.152,-0.06676
3.156,-0.03924
3.16,0.01308
3.164,0.0182
3.168,-0.00215
3.172,0.03007
3.176,-0.02805
3.18,-0.02492
3.184,-0.0188
3.188,-0.02261
3.192,0.00793
3.196,0.00907
3.2,0.05354
3.204,0.12505
3.208,0.15546
3.212,0.09021
3.216,0.1282
3.22,0.11756
3.224,0.13097
3.228,0.09765
3.232,0.0974
3.236,0.10517
3.24,0.10076
3.244,0.01755
3.248,-0.03088
3.252,0.00036
3.256,-0.09966
3.26,0.0246
3.264,-0.00679
3.268,-0.03388
3.272,-0.00325
3.276,0.0121
3.28,-0.0542
3.284,-0.04398
3.288,-0.03451
3.292,0.01989
3.296,-0.04346
3.3,-0.03188
3.304,0.04592
3.308,-0.03584
3.312,-0.0484
3.316,0.02111
3.32,0.00602
3.324,-0.03057
3.328,0.07071
3.332,-0.0093
3.336,-0.03854
3.34,-0.07744
3.344,-0.12769
3.348,-0.12698
3.352,-0.13739
3.356,0.00512
3.36,0.15821
3.364,0.3587
3.368,0.56418
3.372,0.78525
3.376,0.93595
3.38,1.02089
3.384,0.97347
3.388,0.79487
3.392,0.62827
3.396,0.33841
3.4,0.198
3.404,-0.03234
3.408,-0.23949
3.412,-0.21308
3.416,-0.19718
3.42,-0.09975
3.424,-0.10375
3.428,-0.04004
3.432,-0.00437
3.436,-0.02637
3.44,0.01308
3.444,-0.04689
3.448,-0.02048
3.452,0.03403
3.456,0.01642
3.46,0.009
3.464,0.01115
3.468,-0.08286
3.472,0.01734
3.476,-0.04585
3.48,0.04172
3.484,-0.00084
3.488,-0.03956
3.492,0.03793
3.496,-0.04485
3.5,0.06384
3.504,-0.03527
3.508,0.0026
3.512,-0.01854
3.516,0.07186
3.52,0.02044
3.524,0.0519
3.528,-0.01505
3.532,0.04215
3.536,0.00982
3.54,-0.01847
3.544,0.01604
3.548,0.03353
3.552,-0.08232
3.556,-0.07654
3.56,0.05784
3.564,-0.02101
3.568,0.07571
3.572,0.08099
3.576,0.07881
3.58,0.09495
3.584,-0.01562
3.588,-0.01162
3.592,0.03128
3.596,0.13904
3.6,0.08673
3.604,0.07717
3.608,0.07151
3.612,0.09657
3.616,0.12582
3.62,0.12651
3.624,0.12711
3.628,0.22689
3.632,0.19124
3.636,0.16433
3.64,0.18411
3.644,0.18373
3.648,0.31091
3.652,0.24309
3.656,0.21351
3.66,0.17861
3.664,0.26274
3.668,0.23437
3.672,0.23703
3.676,0.26329
3.68,0.10949
3.684,0.2293
3.688,0.18966
3.692,0.16798
3.696,0.19535
3.7,0.1566
3.704,0.16118
3.708,0.1155
3.712,0.09943
3.716,0.05065
3.72,0.04913
3.724,0.05763
3.728,0.11876
3.732,0.07758
3.736,0.04127
3.74,0.01736
3.744,0.03128
3.748,0.06922
3.752,0.10547
3.756,0.05133
3.76,0.05576
3.764,0.00664
3.768,0.00201
3.772,0.05426
3.776,0.0459
3.78,0.0581
3.784,0.01774
3.788,0.04132
3.792,-0.006
3.796,-0.06473
3.8,-0.00745
3.804,0.00377
3.808,-0.00454
3.812,-0.02529
3.816,0.00995
3.82,-0.03022
3.824,0.02958
3.828,0.03597
3.832,0.03437
3.836,-0.0032
3.84,-0.00171
3.844,-0.01713
3.848,-6e-05
3.852,0.02627
3.856,0.0256
3.86,0.06615
3.864,-0.00972
3.868,-0.02201
3.872,0.02209
3.876,0.00068
3.88,0.01653
3.884,0.00815
3.888,0.01627
3.892,0.03035
3.896,0.01868
3.9,-0.00635
3.904,0.00342
3.908,-0.02574
3.912,0.07909
3.916,-0.08188
3.92,0.02238
3.924,0.01458
3.928,-0.02533
3.932,0.02701
3.936,0.06925
3.94,0.03498
3.944,0.03758
3.948,0.00139
3.952,0.0171
3.956,0.01675
3.96,0.02305
3.964,0.08518
3.968,0.05728
3.972,0.0739
3.976,0.02705
3.98,0.06488
3.984,0.01773
3.988,0.05971
3.992,0.0942
3.996,-0.00502
4.0,0.09821
4.004,0.0059
4.008,0.05158
4.012,0.10663
4.016,0.06363
4.02,0.11787
4.024,0.15482
4.028,0.07412
4.032,0.14347
4.036,0.1201
4.04,0.0454
4.044,0.13121
4.048,0.06067
4.052,0.11823
4.056,0.0056
4.06,0.04359
4.064,0.03253
4.068,0.02867
4.072,0.00487
4.076,-0.02978
4.08,0.02518
4.084,-0.0176
4.088,0.00444
4.092,-0.00935
4.096,-0.00591
4.1,-0.03463
4.104,0.0314
4.108,0.02063
4.112,0.03062
4.116,0.02595
4.12,0.0226
4.124,0.0616
4.128,-0.02077
4.132,0.01475
4.136,0.03822
4.14,-0.07381
4.144,0.02843
4.148,-0.04588
4.152,-0.11645
4.156,-0.0766
4.16,0.00652
4.164,0.14543
4.168,0.29435
4.172,0.54363
4.176,0.71156
4.18,0.86631
4.184,0.97867
4.188,0.97156
4.192,0.83646
4.196,0.67953
4.2,0.40261
4.204,0.21425
4.208,-0.03142
4.212,-0.07782
4.216,-0.11394
4.22,-0.12633
4.224,-0.11247
4.228,-0.06921
4.232,-0.0167
4.236,0.0285
4.24,0.05124
4.244,0.05437
4.248,0.03859
4.252,-0.00125
4.256,-0.01432
4.26,-0.00705
4.264,0.0244
4.268,0.04749
4.272,0.05368
4.276,0.04125
4.28,-0.01554
4.284,0.03018
4.288,0.07146
4.292,0.01679
4.296,0.02032
4.3,-0.01828
4.304,0.0356
4.308,-0.01375
4.312,-0.01873
4.316,-0.00226
4.32,0.00461
4.324,-0.0076
4.328,-0.01628
4.332,-0.00831
4.336,-0.03969
4.34,0.0761
4.344,0.06976
4.348,0.07282
4.352,-0.00079
4.356,0.02462
4.36,0.01047
4.364,0.02859
4.368,0.10326
4.372,0.05271
4.376,0.08217
4.38,0.07278
4.384,0.07342
4.388,0.04874
4.392,0.01785
4.396,0.03855
4.4,0.07472
4.404,0.09527
4.408,0.1251
4.412,0.1367
4.416,0.10722
4.42,0.17436
4.424,0.20058
4.428,0.13603
4.432,0.19119
4.436,0.16836
4.44,0.10853
4.444,0.18405
4.448,0.21779
4.452,0.23721
4.456,0.21912
4.46,0.26784
4.464,0.25557
4.468,0.19966
4.472,0.27086
4.476,0.23457
4.48,0.23192
4.484,0.21707
4.488,0.23316
4.492,0.25572
4.496,0.22908
4.5,0.25602
4.504,0.33125
4.508,0.24678
4.512,0.37054
4.516,0.2493
4.52,0.27374
4.524,0.22944
4.528,0.18343
4.532,0.20423
4.536,0.10041
4.54,0.13001
4.544,0.11091
4.548,0.11781
4.552,0.07169
4.556,0.10719
4.56,0.04725
4.564,0.06977
4.568,0.04127
4.572,0.06373
4.576,0.0614
4.58,0.00586
4.584,-7e-05
4.588,0.01615
4.592,0.03184
4.596,0.07853
4.6,0.04351
4.604,0.03068
4.608,0.02777
4.612,0.03215
4.616,-0.01125
4.62,0.01924
4.624,-0.00958
4.628,-0.05797
4.632,0.07547
4.636,-0.13243
4.64,-0.1209
4.644,-0.08037
4.648,0.01408
4.652,0.14267
4.656,0.38755
4.66,0.64134
4.664,0.85353
4.668,0.95751
4.672,1.01523
4.676,1.039
4.68,0.83222
4.684,0.63129
4.688,0.3769
4.692,0.19683
4.696,-0.01117
4.7,-0.06531
4.704,-0.06998
4.708,-0.05532
4.712,-0.18472
4.716,-0.00107
4.72,-0.0079
4.724,0.06115
4.728,0.03246
4.732,0.07646
4.736,0.07182
4.74,0.0707
4.744,0.00244
4.748,-0.02336
4.752,0.00062
4.756,0.11383
4.76,0.02317
4.764,0.02797
4.768,0.0854
4.772,0.02665
4.776,0.00507
4.78,0.03333
4.784,0.02031
4.788,0.06666
4.792,-0.02155
4.796,-0.00911
4.8,0.05181
4.804,0.04069
4.808,-0.01983
4.812,0.0458
4.816,0.00615
4.82,0.05688
4.824,0.03818
4.828,-0.02331
4.832,0.07844
4.836,0.0307
4.84,0.08785
4.844,0.10354
4.848,0.05076
4.852,0.08586
4.856,-0.00758
4.86,0.03757
4.864,0.04049
4.868,0.07787
4.872,0.07403
4.876,0.0763
4.88,0.06064
4.884,0.07797
4.888,0.08276
4.892,0.19116
4.896,0.19466
4.9,0.08714
4.904,0.14917
4.908,0.18886
4.912,0.18426
4.916,0.16637
4.92,0.18205
4.924,0.20534
4.928,0.24162
4.932,0.23481
4.936,0.25708
4.94,0.21672
4.944,0.27744
4.948,0.19966
4.952,0.23063
4.956,0.24621
4.96,0.25642
4.964,0.25352
4.968,0.23081
4.972,0.23519
4.976,0.17915
4.98,0.22353
4.984,0.2034
4.988,0.23053
4.992,0.166
4.996,0.09411
5.0,0.18659
5.004,0.1133
5.008,0.11112
5.012,0.11929
5.016,0.12981
5.02,0.05467
5.024,0.0726
5.028,-0.01347
5.032,0.03743
5.036,0.09258
5.04,0.07288
5.044,0.0727
5.048,0.00929
5.052,0.07326
5.056,-0.00179
5.06,0.05018
5.064,0.00526
5.068,0.08415
5.072,0.01916
5.076,0.10809
5.08,0.03402
5.084,0.09009
5.088,0.08513
5.092,0.03985
5.096,0.06256
5.1,0.00858
5.104,0.06364
5.108,0.0516
5.112,0.0561
5.116,0.02002
5.12,-0.01167
5.124,0.04273
5.128,-0.00118
5.132,0.0803
5.136,0.06652
5.14,0.03642
5.144,0.05186
5.148,0.09127
5.152,0.06677
5.156,-0.07207
5.16,-0.00623
5.164,-0.00179
5.168,0.08685
5.172,-0.03093
5.176,0.00533
5.18,0.01361
5.184,0.036
5.188,0.00591
5.192,-0.01962
5.196,0.06415
5.2,-0.00318
5.204,0.04782
5.208,0.03788
5.212,0.09734
5.216,0.00881
5.22,0.04098
5.224,0.08863
5.228,0.0536
5.232,-0.02491
5.236,0.01894
5.24,-0.01733
5.244,-0.02008
5.248,0.01386
5.252,0.09761
5.256,0.04984
5.26,0.05785
5.264,0.1198
5.268,-0.0784
5.272,-0.03628
5.276,-0.00058
5.28,0.01355
5.284,-0.01738
5.288,0.04063
5.292,0.02488
5.296,-0.02968
5.3,0.06518
5.304,0.0597
5.308,0.11735
5.312,0.03961
5.316,0.06282
5.32,0.0215
5.324,0.03805
5.328,0.08726
5.332,0.03489
5.336,0.00833
5.34,0.06325
5.344,0.05639
5.348,0.01765
5.352,0.03343
5.356,0.03196
5.36,0.07399
5.364,0.04076
5.368,0.01756
5.372,0.00439
5.376,0.06622
5.38,-0.00586
5.384,0.03334
5.388,0.04752
5.392,0.0484
5.396,0.04516
5.4,0.07547
5.404,0.00225
5.408,0.04706
5.412,-0.02389
5.416,-0.00489
5.42,0.04948
5.424,0.04411
5.428,0.10213
5.432,-0.00898
5.436,0.02112
5.44,0.00642
5.444,0.08459
5.448,0.01415
5.452,-0.02143
5.456,0.05144
5.46,0.01683
5.464,0.06298
5.468,0.00616
5.472,-0.0244
5.476,0.00617
5.48,0.01054
5.484,-0.00591
5.488,0.04606
5.492,0.0045
5.496,0.03136
5.5,0.01775
5.504,0.0156
5.508,0.00128
5.512,0.05683
5.516,0.0941
5.52,0.05247
5.524,0.10639
5.528,0.02247
5.532,0.03864
5.536,-0.00884
5.54,-0.00075
5.544,0.01516
5.548,0.05945
5.552,-0.01157
5.556,0.03621
5.56,-0.0161
5.564,-0.01052
5.568,0.02624
5.572,0.0211
5.576,0.01255
5.58,0.04411
5.584,0.02889
5.588,0.03667
5.592,0.01862
5.596,-0.05784
5.6,0.09115
5.604,0.0874
5.608,0.015
5.612,0.0725
5.616,0.11111
5.62,-0.0256
5.624,0.03357
5.628,0.0435
5.632,0.03613
5.636,0.05961
5.64,0.06177
5.644,0.02388
5.648,0.08991
5.652,-0.00935
5.656,0.05726
5.66,0.06354
5.664,0.06587
5.668,0.09291
5.672,0.1199
5.676,0.12847
5.68,0.12095
5.684,0.12286
5.688,0.18631
5.692,0.12174
5.696,0.11961
5.7,0.14944
5.704,0.0345
5.708,0.05109
5.712,0.00534
5.716,0.04079
5.72,0.12433
5.724,-0.00853
5.728,-0.02273
5.732,0.07233
5.736,0.0497
5.74,0.00144
5.744,0.04216
5.748,-0.01952
5.752,0.03396
5.756,-0.01126
5.76,0.05787
5.764,0.03568
5.768,0.04947
5.772,0.02262
5.776,0.04898
5.78,0.0256
5.784,0.02635
5.788,-0.01639
5.792,0.03007
5.796,-0.02882
5.8,0.04243
5.804,0.02463
5.808,-0.00413
5.812,0.04489
5.816,-0.10681
5.82,-0.00508
5.824,0.03619
5.828,0.14648
5.832,0.4084
5.836,0.65023
5.84,0.86881
5.844,1.00385
5.848,1.01712
5.852,1.01235
5.856,0.82909
5.86,0.56125
5.864,0.33721
5.868,0.14576
5.872,-0.0256
5.876,-0.11225
5.88,-0.11794
5.884,-0.15691
5.888,-0.03344
5.892,-0.0823
5.896,-0.03703
5.9,0.0199
5.904,0.04047
5.908,-0.01329
5.912,0.06251
5.916,-0.01843
5.92,0.01916
5.924,-0.01725
5.928,0.00612
5.932,0.02729
5.936,-0.02891
5.94,0.01723
5.944,0.02791
5.948,0.04071
5.952,0.07647
5.956,0.00421
5.96,0.00813
5.964,0.0242
5.968,0.06836
5.972,0.06792
5.976,0.01608
5.98,0.01305
5.984,-0.03121
5.988,0.0099
5.992,0.01758
5.996,0.05729
6.0,-0.00125
6.004,0.02307
6.008,0.03866
6.012,0.07476
6.016,-0.0216
6.02,0.10514
6.024,0.03691
6.028,0.03718
6.032,0.01816
6.036,0.05421
6.04,0.05282
6.044,0.13573
6.048,0.03229
6.052,-4e-05
6.056,0.11691
6.06,0.04865
6.064,0.07944
6.068,0.06857
6.072,0.0372
6.076,0.13349
6.08,0.17469
6.084,0.20657
6.088,0.19781
6.092,0.23725
6.096,0.22762
6.1,0.23407
6.104,0.25622
6.108,0.20144
6.112,0.18674
6.116,0.24694
6.12,0.18021
6.124,0.20042
6.128,0.24149
6.132,0.26903
6.136,0.24954
6.14,0.24305
6.144,0.25985
6.148,0.12817
6.152,0.19373
6.156,0.16015
6.16,0.24784
6.164,0.19823
6.168,0.14352
6.172,0.17118
6.176,0.15513
6.18,0.12892
6.184,0.09847
6.188,0.15466
6.192,0.02832
6.196,0.10305
6.2,0.06282
6.204,0.06681
6.208,0.08449
6.212,0.03374
6.216,-0.01357
6.22,0.0629
6.224,0.04489
6.228,0.02477
6.232,0.03967
6.236,0.01298
6.24,0.05668
6.244,0.0136
6.248,-0.05197
6.252,-0.01241
6.256,0.05482
6.26,0.0208
6.264,0.07058
6.268,0.02673
6.272,0.0067
6.276,0.06114
6.28,0.03007
6.284,-0.05261
6.288,0.05468
6.292,0.08229
6.296,0.00557
6.3,0.01661
6.304,-0.02204
6.308,-0.06331
6.312,0.06624
6.316,0.03712
6.32,0.01345
6.324,0.01847
6.328,0.04954
6.332,-0.01498
6.336,-0.01947
6.34,-0.00174
6.344,-0.00969
6.348,-0.00864
6.352,0.02112
6.356,-0.02182
6.36,0.03109
6.364,0.01745
6.368,0.0393
6.372,-0.04327
6.376,-0.02244
6.38,0.01062
6.384,0.0285
6.388,-0.05746
6.392,-0.04136
6.396,0.05453
6.4,0.05595
6.404,0.07315
6.408,0.04824
6.412,0.03797
6.416,0.04896
6.42,0.07288
6.424,0.06516
6.428,0.06047
6.432,0.05325
6.436,0.14372
6.44,0.1498
6.444,0.14593
6.448,0.09763
6.452,0.08359
6.456,0.11566
6.46,0.06914
6.464,0.03958
6.468,0.04672
6.472,0.07721
6.476,0.02504
6.48,0.05282
6.484,0.04692
6.488,-0.01049
6.492,-0.01534
6.496,-0.0373
6.5,-0.0402
6.504,0.0202
6.508,-0.0137
6.512,-0.0406
6.516,-0.00624
6.52,0.04162
6.524,-0.03132
6.528,0.01498
6.532,-0.03834
6.536,0.04073
6.54,0.0195
6.544,0.02233
6.548,0.0
6.552,-0.03401
6.556,-0.02166
6.56,0.00517
6.564,-0.08345
6.568,-0.14065
6.572,-0.09912
6.576,-0.10419
6.58,-0.03899
6.584,0.1144
6.588,0.41302
6.592,0.55385
6.596,0.7535
6.6,0.94083
6.604,1.02027
6.608,1.00683
6.612,0.83684
6.616,0.68
6.62,0.39618
6.624,0.25061
6.628,0.02174
6.632,-0.09515
6.636,-0.19484
6.64,-0.23855
6.644,-0.11596
6.648,-0.04477
6.652,-0.02869
6.656,0.00537
6.66,0.01246
6.664,0.0495
6.668,-0.04719
6.672,-0.0571
6.676,0.01138
6.68,0.08402
6.684,-0.01771
6.688,-0.03285
6.692,-0.02508
6.696,0.01108
6.7,0.00091
6.704,-0.04746
6.708,0.04307
6.712,-0.05552
6.716,0.01618
6.72,-0.00893
6.724,0.04946
6.728,0.08951
6.732,-0.0209
6.736,0.01385
6.74,0.02807
6.744,-0.01324
6.748,0.05829
6.752,0.00493
6.756,-0.01522
6.76,-0.01824
6.764,0.00887
6.768,0.05314
6.772,0.02862
6.776,0.05262
6.78,0.01465
6.784,0.07652
6.788,0.0442
6.792,0.01733
6.796,0.00592
6.8,0.06797
6.804,0.08605
6.808,0.05468
6.812,0.0583
6.816,0.06251
6.82,0.07419
6.824,0.07767
6.828,0.1241
6.832,0.052
6.836,0.09789
6.84,0.20296
6.844,0.14307
6.848,0.11743
6.852,0.1659
6.856,0.18328
6.86,0.23649
6.864,0.19693
6.868,0.21456
6.872,0.22744
6.876,0.18501
6.88,0.22822
6.884,0.27456
6.888,0.25353
6.892,0.2086
6.896,0.23906
6.9,0.24862
6.904,0.27639
6.908,0.23504
6.912,0.27059
6.916,0.22369
6.92,0.24231
6.924,0.30709
6.928,0.25827
6.932,0.23344
6.936,0.20826
6.94,0.21599
6.944,0.18646
6.948,0.09234
6.952,0.16598
6.956,0.16682
6.96,0.10402
6.964,0.1014
6.968,0.04806
6.972,-0.04203
6.976,0.08029
6.98,-0.01228
6.984,0.02712
6.988,-0.02904
6.992,-0.00409
6.996,-0.04636
7.0,-0.02748
7.004,-0.07352
7.008,0.01127
7.012,-0.04198
7.016,0.00938
7.02,0.01482
7.024,-0.03227
7.028,-0.02453
7.032,0.00658
7.036,0.01973
7.04,-0.00276
7.044,-0.01717
7.048,-0.00626
7.052,-0.09241
7.056,-0.12255
7.06,-0.10235
7.064,-0.06985
7.068,0.01736
7.072,0.19847
7.076,0.37467
7.08,0.59382
7.084,0.76688
7.088,1.05318
7.092,1.00311
7.096,0.92153
7.1,0.78251
7.104,0.44667
7.108,0.30757
7.112,0.09439
7.116,-0.01877
7.12,-0.17617
7.124,-0.10735
7.128,-0.19245
7.132,-0.12852
7.136,-0.07876
7.14,-0.00426
7.144,-0.04647
7.148,0.0181
7.152,0.05228
7.156,-0.0023
7.16,-0.01544
7.164,-0.10957
7.168,0.01022
7.172,-0.03762
7.176,-0.01682
7.18,-0.03378
7.184,0.03218
7.188,0.04159
7.192,0.02387
7.196,0.04076
7.2,0.01921
7.204,0.00797
7.208,-0.00183
7.212,0.04266
7.216,0.00497
7.22,0.03758
7.224,-0.02376
7.228,0.00368
7.232,-0.01259
7.236,-0.00616
7.24,0.04235
7.244,0.01721
7.248,-0.00989
7.252,0.00667
7.256,0.06928
7.26,-0.05861
7.264,-0.00835
7.268,-0.01296
7.272,-0.03009
7.276,-0.00239
7.28,-0.0002
7.284,0.09282
7.288,0.02502
7.292,0.02716
7.296,0.02249
7.3,0.02069
7.304,0.13318
7.308,0.11872
7.312,0.03339
7.316,0.13288
7.32,0.08783
7.324,0.08902
7.328,0.08483
7.332,0.14306
7.336,0.13801
7.34,0.18836
7.344,0.22229
7.348,0.22299
7.352,0.19761
7.356,0.19353
7.36,0.19023
7.364,0.19209
7.368,0.15146
7.372,0.13958
7.376,0.17899
7.38,0.20323
7.384,0.2068
7.388,0.13662
7.392,0.17766
7.396,0.13783
7.4,0.12524
7.404,0.18703
7.408,0.17027
7.412,0.12332
7.416,0.03037
7.42,0.07899
7.424,0.06903
7.428,0.16686
7.432,0.06828
7.436,0.07474
7.44,0.05205
7.444,0.04714
7.448,0.04514
7.452,0.10152
7.456,0.00997
7.46,0.00225
7.464,0.10577
7.468,-0.0088
7.472,0.00472
7.476,0.03531
7.48,-0.03332
7.484,-0.05578
7.488,-0.07954
7.492,0.00271
7.496,0.00839
7.5,-0.00083
7.504,-0.00744
7.508,0.00335
7.512,-0.0231
7.516,0.01157
7.52,0.02671
7.524,-0.04453
7.528,0.01493
7.532,-0.05765
7.536,-0.04382
7.54,0.02025
7.544,-0.02553
7.548,-0.01236
7.552,0.04421
7.556,-0.06254
7.56,-0.00314
7.564,-0.00941
7.568,-0.06778
7.572,0.02897
7.576,-0.02316
7.58,-0.01895
7.584,-0.01059
7.588,-0.08652
7.592,-0.03118
7.596,0.01479
7.6,0.00069
7.604,-0.02397
7.608,-0.05331
7.612,0.01572
7.616,-0.00803
7.62,-0.02274
7.624,-0.06903
7.628,-0.01616
7.632,0.00086
7.636,0.02557
7.64,-0.07606
7.644,-0.0913
7.648,0.01455
7.652,-0.00595
7.656,0.00844
7.66,-0.05888
7.664,-0.05631
7.668,-0.02707
7.672,0.00862
7.676,-0.00355
7.68,0.05964
7.684,-0.06646
7.688,-0.03161
7.692,-0.0417
7.696,-0.04183
7.7,-0.02419
7.704,0.02482
7.708,0.00335
7.712,-0.01312
7.716,-0.07396
7.72,-0.04457
7.724,-0.10651
7.728,-0.0043
7.732,-0.03672
7.736,-0.03053
7.74,-0.03589
7.744,0.04221
7.748,0.00293
7.752,-0.02221
7.756,0.00368
7.76,0.01528
7.764,0.00535
7.768,0.03746
7.772,0.05172
7.776,0.0423
7.78,0.05752
7.784,0.06565
7.788,0.07932
7.792,0.0696
7.796,0.14209
7.8,0.09513
7.804,0.04768
7.808,0.0107
7.812,0.10434
7.816,-0.0066
7.82,0.01843
7.824,-0.0189
7.828,-0.02619
7.832,-0.0182
7.836,-0.00181
7.84,-0.04127
7.844,0.01095
7.848,0.02337
7.852,-0.06119
7.856,-0.01819
7.86,0.01147
7.864,-0.04632
7.868,-0.00901
7.872,0.03054
7.876,-0.0303
7.88,-0.0388
7.884,0.04868
7.888,-0.02398
7.892,0.03291
7.896,-0.04698
7.9,-0.12344
7.904,-0.01516
7.908,0.00038
7.912,-0.06668
7.916,-0.17335
7.92,-0.18658
7.924,-0.08314
7.928,0.07895
7.932,0.25163
7.936,0.47474
7.94,0.68113
7.944,0.81683
7.948,0.94107
7.952,0.90889
7.956,0.80915
7.96,0.65756
7.964,0.37934
7.968,0.16735
7.972,0.00527
7.976,-0.10599
7.98,-0.21364
7.984,-0.18406
7.988,-0.10099
7.992,-0.11275
7.996,-0.0884
8.0,-0.01532
8.004,-0.02179
8.008,-0.04798
8.012,-0.01243
8.016,-0.08769
8.02,0.00374
8.024,-0.02201
8.028,-0.03222
8.032,0.01402
8.036,-0.0025
8.04,0.02384
8.044,-0.02145
8.048,-0.08907
8.052,-0.00557
8.056,-0.11228
8.06,-0.01703
8.064,-0.04521
8.068,-0.04025
8.072,0.01255
8.076,-0.02475
8.08,-0.04266
8.084,-0.01325
8.088,-0.05784
8.092,0.01094
8.096,-0.02562
8.1,-0.10167
8.104,-0.06353
8.108,0.0029
8.112,-0.005
8.116,0.01015
8.12,-0.02934
8.124,-0.04619
8.128,-0.01413
8.132,-0.05273
8.136,0.01917
8.14,-0.01206
8.144,0.04133
8.148,0.05942
8.152,-0.00061
8.156,0.00593
8.16,-0.0098
8.164,0.03207
8.168,-0.00641
8.172,0.11058
8.176,0.12517
8.18,0.07059
8.184,0.09141
8.188,0.13566
8.192,0.12347
8.196,0.1522
8.2,0.14741
8.204,0.11894
8.208,0.13566
8.212,0.1603
8.216,0.21201
8.22,0.19562
8.224,0.20548
8.228,0.17391
8.232,0.17866
8.236,0.23632
8.24,0.13938
8.244,0.173
8.248,0.1617
8.252,0.14235
8.256,0.13238
8.26,0.14683
8.264,0.13011
8.268,0.12131
8.272,0.06604
8.276,0.0786
8.28,0.09813
8.284,0.0391
8.288,0.01384
8.292,0.06101
8.296,-0.00335
8.3,0.08797
8.304,-0.01279
8.308,0.04563
8.312,0.09314
8.316,0.00959
8.32,0.05111
8.324,0.01118
8.328,0.05345
8.332,0.00018
8.336,-0.00615
8.34,-0.0258
8.344,-0.0199
8.348,0.0352
8.352,0.04695
8.356,-0.0318
8.36,-0.02021
8.364,-0.08675
8.368,-0.01197
8.372,-0.04631
8.376,-0.06703
8.38,-0.0311
8.384,0.01664
8.388,0.03531
8.392,0.0055
8.396,-0.03396
8.4,-0.02007
8.404,0.02682
8.408,-0.00993
8.412,-0.07642
8.416,-0.03745
8.42,-0.05216
8.424,-0.04899
8.428,-0.06156
8.432,-0.02805
8.436,-0.04096
8.44,-0.0258
8.444,-0.07109
8.448,0.01883
8.452,-0.058
8.456,-0.0075
8.46,0.06371
8.464,-0.08891
8.468,-0.0574
8.472,-0.056
8.476,-0.04675
8.48,-0.01084
8.484,0.02059
8.488,-0.02127
8.492,-0.02972
8.496,-0.04494
8.5,-0.04184
8.504,-0.03612
8.508,-0.03733
8.512,-0.0037
8.516,-0.12476
8.52,-0.05504
8.524,-0.01691
8.528,-0.00127
8.532,-0.031
8.536,-0.06171
8.54,0.0325
8.544,-0.02832
8.548,0.06721
8.552,0.03077
8.556,0.04236
8.56,-0.02354
8.564,0.07314
8.568,-0.00505
8.572,0.06314
8.576,0.07977
8.58,0.07573
8.584,0.1131
8.588,0.06481
8.592,0.04684
8.596,0.07667
8.6,0.07945
8.604,0.01982
8.608,0.03023
8.612,-0.00616
8.616,0.00288
8.62,-0.00873
8.624,-0.00865
8.628,0.00117
8.632,0.04878
8.636,-0.0878
8.64,-0.03403
8.644,-0.04382
8.648,-0.03987
8.652,-0.08303
8.656,0.00155
8.66,-0.04024
8.664,-0.01213
8.668,-0.02542
8.672,-0.04851
8.676,-0.03457
8.68,0.00415
8.684,-0.04618
8.688,-0.02682
8.692,-0.0198
8.696,-0.08556
8.7,-0.07826
8.704,-0.0827
8.708,-0.11703
8.712,-0.18955
8.716,-0.1521
8.72,-0.02125
8.724,0.07382
8.728,0.2899
8.732,0.4885
8.736,0.69931
8.74,0.85384
8.744,0.94661
8.748,0.95508
8.752,0.86067
8.756,0.65587
8.76,0.33748
8.764,0.16267
8.768,-0.05382
8.772,-0.15538
8.776,-0.1962
8.78,-0.23741
8.784,-0.25177
8.788,-0.17819
8.792,-0.00336
8.796,-0.05548
8.8,-0.04675
8.804,-0.00692
8.808,-0.01709
8.812,0.01593
8.816,-0.01639
8.82,-0.01452
8.824,-0.00759
8.828,0.01023
8.832,-0.0194
8.836,-0.02275
8.84,-0.02261
8.844,0.00467
8.848,-0.02552
8.852,-0.00049
8.856,-0.08058
8.86,-0.07864
8.864,-0.00634
8.868,-0.02466
8.872,-0.00957
8.876,-0.03805
8.88,-0.03263
8.884,-0.02928
8.888,-0.05374
8.892,-0.02086
8.896,-0.00894
8.9,0.0375
8.904,-0.02256
8.908,-0.03829
8.912,-0.0184
8.916,-0.02882
8.92,-0.0303
8.924,0.02453
8.928,-0.02175
8.932,-0.02695
8.936,-0.02403
8.94,0.01986
8.944,0.02702
8.948,0.03187
8.952,0.07063
8.956,0.01522
8.96,0.06501
8.964,-0.00973
8.968,0.05857
8.972,0.03503
8.976,0.10715
8.98,0.10389
8.984,0.11007
8.988,0.14795
8.992,0.18042
8.996,0.16468
9.0,0.14825
9.004,0.1505
9.008,0.19035
9.012,0.14511
9.016,0.13531
9.02,0.20587
9.024,0.24519
9.028,0.2044
9.032,0.20962
9.036,0.20672
9.04,0.21924
9.044,0.2498
9.048,0.14349
9.052,0.18966
9.056,0.17477
9.06,0.11457
9.064,0.11009
9.068,0.11965
9.072,0.13116
9.076,0.12532
9.08,0.06722
9.084,0.06779
9.088,0.08102
9.092,0.03008
9.096,-0.03659
9.1,0.05343
9.104,-0.00727
9.108,-0.05113
9.112,0.02575
9.116,0.06783
9.12,0.0303
9.124,-0.03292
9.128,-0.01911
9.132,0.00304
9.136,-0.02363
9.14,0.00423
9.144,-0.04466
9.148,0.01668
9.152,0.00572
9.156,-0.04193
9.16,-0.04868
9.164,0.06875
9.168,0.02137
9.172,-0.04528
9.176,-0.009
9.18,-0.08993
9.184,-0.06667
9.188,-0.01039
9.192,0.0199
9.196,-0.0068
9.2,-0.03039
9.204,-0.00201
9.208,-8e-05
9.212,0.00443
9.216,-0.01886
9.22,-0.01388
9.224,0.0154
9.228,0.00629
9.232,0.01319
9.236,-0.03833
9.24,-0.03794
9.244,-0.00723
9.248,0.00144
9.252,-0.04491
9.256,-0.01899
9.26,-0.02112
9.264,0.01288
9.268,-0.0225
9.272,-0.04483
9.276,-0.00212
9.28,0.04593
9.284,0.0012
9.288,-0.04013
9.292,-0.01554
9.296,-0.03363
9.3,-0.01759
9.304,-0.0303
9.308,-0.0538
9.312,-0.03153
9.316,-0.02542
9.32,-0.00677
9.324,0.00903
9.328,-0.00968
9.332,-0.05797
9.336,-0.06413
9.34,-0.02373
9.344,-0.03607
9.348,0.01403
9.352,-0.04661
9.356,-0.01932
9.36,-0.05944
9.364,-0.09414
9.368,-0.05938
9.372,-0.04444
9.376,0.00537
9.38,-0.015
9.384,0.03075
9.388,0.01834
9.392,-0.01839
9.396,-0.00248
9.4,-0.03741
9.404,-0.02284
9.408,-0.01457
9.412,0.04295
9.416,0.05553
9.42,-0.00059
9.424,0.01364
9.428,0.0008
9.432,0.04672
9.436,-0.08918
9.44,-0.03229
9.444,-0.01954
9.448,0.01908
9.452,-0.00065
9.456,0.00193
9.46,0.01656
9.464,0.02495
9.468,-0.05028
9.472,0.02353
9.476,0.00405
9.48,0.00631
9.484,-0.02533
9.488,0.00527
9.492,-0.01641
9.496,-0.0262
9.5,-0.05529
9.504,0.00716
9.508,0.0404
9.512,-0.06023
9.516,-0.01026
9.52,-0.03455
9.524,-0.03539
9.528,-0.07423
9.532,-0.03643
9.536,0.01716
9.54,0.01845
9.544,-0.00056
9.548,-0.04526
9.552,0.03466
9.556,0.0061
9.56,-0.03941
9.564,-0.00214
9.568,-0.00571
9.572,-0.01057
9.576,-0.00463
9.58,0.0369
9.584,-0.0254
9.588,-0.02516
9.592,-0.08002
9.596,-0.03635
9.6,0.05414
9.604,0.07262
9.608,0.06554
9.612,-0.04009
9.616,0.02461
9.62,-0.03244
9.624,-0.03265
9.628,-0.01094
9.632,-0.01167
9.636,0.01256
9.64,-0.0104
9.644,-0.04095
9.648,-0.01525
9.652,-0.02152
9.656,0.0082
9.66,0.02662
9.664,0.01125
9.668,0.03554
9.672,0.0254
9.676,-0.0066
9.68,0.07845
9.684,0.05206
9.688,0.04165
9.692,0.10505
9.696,0.12288
9.7,0.01427
9.704,0.12044
9.708,0.03928
9.712,0.07996
9.716,0.04979
9.72,0.0809
9.724,0.091
9.728,0.0239
9.732,0.01365
9.736,0.00579
9.74,0.02453
9.744,-0.04822
9.748,-0.01123
9.752,-0.0276
9.756,-0.06264
9.76,-0.02162
9.764,0.04726
9.768,-0.00882
9.772,0.01622
9.776,0.00291
9.78,-0.02135
9.784,-0.03118
9.788,0.01464
9.792,0.04249
9.796,-0.00458
9.8,0.05325
9.804,-0.07124
9.808,-0.02085
9.812,-0.07616
9.816,-0.08027
9.82,-0.15175
9.824,-0.14686
9.828,-0.07185
9.832,0.0571
9.836,0.24739
9.84,0.43387
9.844,0.68638
9.848,0.80885
9.852,1.00242
9.856,0.92953
9.86,0.9086
9.864,0.70539
9.868,0.51171
9.872,0.26529
9.876,0.0834
9.88,-0.11793
9.884,-0.21406
9.888,-0.22361
9.892,-0.12708
9.896,-0.14913
9.9,-0.04325
9.904,-0.02038
9.908,-0.04359
9.912,-0.03441
9.916,-0.07847
9.92,-0.0289
9.924,-0.00327
9.928,0.0085
9.932,-0.00981
9.936,0.05216
9.94,-0.04482
9.944,0.04261
9.948,-0.04072
9.952,0.00843
9.956,0.00041
9.96,0.02126
9.964,-0.00936
9.968,-0.00102
9.972,-0.05448
9.976,-0.02652
9.98,0.07925
9.984,-0.04922
9.988,-0.01095
9.992,0.02926
9.996,-0.04789
