t_seg,ecg_mV
0.0,0.02292
0.004,0.02399
0.008,0.04455
0.012,0.03341
0.016,0.04243
0.02,0.07759
0.024,0.02944
0.028,0.083
0.032,0.08649
0.036,0.10981
0.04,0.09962
0.044,0.08535
0.048,0.10111
0.052,0.08027
0.056,0.07377
0.06,0.10052
0.064,0.07332
0.068,0.05104
0.072,0.0325
0.076,0.02672
0.08,0.04114
0.084,0.04133
0.088,0.02167
0.092,0.01834
0.096,0.01263
0.1,0.02656
0.104,0.02942
0.108,0.02294
0.112,0.01733
0.116,-0.00261
0.12,0.00664
0.124,0.01432
0.128,0.03051
0.132,-0.01784
0.136,0.01067
0.14,0.00215
0.144,0.00209
0.148,0.02512
0.152,0.00526
0.156,0.01022
0.16,-0.01502
0.164,-0.05124
0.168,-0.06892
0.172,-0.0966
0.176,-0.09425
0.18,-0.0021
0.184,0.13319
0.188,0.30628
0.192,0.50813
0.196,0.75376
0.2,0.90205
0.204,1.00688
0.208,0.94102
0.212,0.85293
0.216,0.62758
0.22,0.41189
0.224,0.19267
0.228,0.00539
0.232,-0.09479
0.236,-0.16936
0.24,-0.17174
0.244,-0.12243
0.248,-0.05108
0.252,-0.0607
0.256,-0.05402
0.26,-0.01074
0.264,-0.00614
0.268,0.01272
0.272,-0.00045
0.276,-0.00565
0.28,-0.01607
0.284,-0.04768
0.288,-0.00807
0.292,-0.00047
0.296,-0.00681
0.3,-0.01875
0.304,0.00304
0.308,-0.02263
0.312,-0.00705
0.316,0.00065
0.32,-0.00886
0.324,0.0195
0.328,-0.01255
0.332,-0.02139
0.336,-0.01264
0.34,0.00962
0.344,0.00607
0.348,0.01217
0.352,-0.00399
0.356,-0.0319
0.36,0.00494
0.364,-0.00751
0.368,0.00588
0.372,0.02625
0.376,0.04528
0.38,0.04413
0.384,0.01863
0.388,0.00037
0.392,0.01922
0.396,0.04817
0.4,0.03704
0.404,0.03694
0.408,0.0444
0.412,0.03354
0.416,0.07953
0.42,0.05315
0.424,0.08613
0.428,0.08215
0.432,0.07708
0.436,0.10548
0.44,0.15295
0.444,0.15076
0.448,0.13761
0.452,0.15003
0.456,0.17818
0.46,0.17758
0.464,0.18747
0.468,0.20128
0.472,0.22727
0.476,0.23189
0.48,0.17639
0.484,0.19625
0.488,0.20086
0.492,0.24081
0.496,0.20664
0.5,0.19799
0.504,0.21552
0.508,0.18456
0.512,0.17165
0.516,0.16086
0.52,0.18551
0.524,0.16544
0.528,0.10599
0.532,0.12989
0.536,0.09651
0.54,0.09337
0.544,0.08319
0.548,0.05691
0.552,0.09627
0.556,0.07053
0.56,0.05078
0.564,0.0485
0.568,0.03035
0.572,0.04545
0.576,0.03382
0.58,0.01228
0.584,-0.01221
0.588,-4e-05
0.592,0.02616
0.596,0.02561
0.6,-0.01788
0.604,0.00155
0.608,0.00971
0.612,0.03226
0.616,-0.02193
0.62,-0.01525
0.624,-0.01632
0.628,-0.0026
0.632,-0.00074
0.636,0.00432
0.64,-0.01613
0.644,0.00152
0.648,-0.00507
0.652,-0.01171
0.656,-0.00863
0.66,0.01445
0.664,0.02063
0.668,0.0181
0.672,-0.01327
0.676,0.02379
0.68,0.03647
0.684,0.09994
0.688,0.09923
0.692,0.09915
0.696,0.09023
0.7,0.08826
0.704,0.08117
0.708,0.08765
0.712,0.10518
0.716,0.05156
0.72,0.03337
0.724,0.04026
0.728,0.00493
0.732,0.00556
0.736,-0.01394
0.74,0.00126
0.744,-0.02271
0.748,-0.0135
0.752,-0.01399
0.756,-0.02557
0.76,-0.0175
0.764,-0.01113
0.768,-0.03187
0.772,-0.0196
0.776,-0.0026
0.78,-0.0376
0.784,-0.00933
0.788,0.00878
0.792,-0.01404
0.796,-0.00269
0.8,-0.02234
0.804,0.00947
0.808,-0.02973
0.812,-0.02218
0.816,-0.08053
0.82,-0.07537
0.824,-0.14273
0.828,-0.10183
0.832,-0.03534
0.836,0.1225
0.84,0.32511
0.844,0.53266
0.848,0.7474
0.852,0.91698
0.856,0.98527
0.86,0.95767
0.864,0.8023
0.868,0.59102
0.872,0.37736
0.876,0.14617
0.88,-0.01986
0.884,-0.13591
0.888,-0.18644
0.892,-0.20767
0.896,-0.17067
0.9,-0.09102
0.904,-0.06504
0.908,-0.03011
0.912,-0.04048
0.916,-0.04498
0.92,0.0074
0.924,-0.00606
0.928,-0.02526
0.932,-0.00957
0.936,-0.00755
0.94,-0.00718
0.944,-0.01432
0.948,-0.02154
0.952,0.00419
0.956,-0.02203
0.96,-0.0143
0.964,-0.0022
0.968,-0.0106
0.972,-0.00938
0.976,-0.01161
0.98,-0.00942
0.984,-0.04531
0.988,0.0135
0.992,-0.03661
0.996,-0.01702
1.0,0.01521
1.004,-0.00653
1.008,-0.01977
1.012,-0.01448
1.016,0.00797
1.02,-0.01457
1.024,-0.02892
1.028,-0.00153
1.032,0.0269
1.036,-0.003
1.04,-0.00349
1.044,0.0007
1.048,0.017
1.052,0.01093
1.056,0.01832
1.06,0.03956
1.064,0.03985
1.068,0.04084
1.072,0.05273
1.076,0.04844
1.08,0.09506
1.084,0.07876
1.088,0.1114
1.092,0.11899
1.096,0.10576
1.1,0.1189
1.104,0.14859
1.108,0.17225
1.112,0.1512
1.116,0.1836
1.12,0.19004
1.124,0.17291
1.128,0.2018
1.132,0.22663
1.136,0.19531
1.14,0.17426
1.144,0.20796
1.148,0.19772
1.152,0.16769
1.156,0.17488
1.16,0.18439
1.164,0.16498
1.168,0.14823
1.172,0.14966
1.176,0.14601
1.18,0.10886
1.184,0.09569
1.188,0.09013
1.192,0.10841
1.196,0.08486
1.2,0.04501
1.204,0.03168
1.208,0.03745
1.212,0.03194
1.216,0.03061
1.22,0.02699
1.224,0.0186
1.228,-0.02159
1.232,-0.00132
1.236,-0.02125
1.24,-0.0186
1.244,-0.01425
1.248,-0.00055
1.252,0.02315
1.256,-0.01734
1.26,-0.0309
1.264,-0.03227
1.268,-0.03446
1.272,-0.01636
1.276,-0.01424
1.28,-0.03328
1.284,-0.01788
1.288,-0.00698
1.292,-0.04227
1.296,-0.04645
1.3,-0.01395
1.304,-0.01636
1.308,-0.00925
1.312,-0.00244
1.316,-0.02168
1.32,-0.01782
1.324,-0.02364
1.328,-0.06851
1.332,-0.02422
1.336,-0.02458
1.34,-0.03288
1.344,-0.01425
1.348,-0.02732
1.352,-0.02124
1.356,-0.03464
1.36,-0.03797
1.364,-0.04276
1.368,-0.03765
1.372,-0.02087
1.376,-0.01731
1.38,-0.0188
1.384,-0.0435
1.388,-0.046
1.392,-0.02559
1.396,-0.02603
1.4,-0.01203
1.404,-0.00798
1.408,-0.01733
1.412,-0.02583
1.416,-0.02189
1.42,-0.00304
1.424,0.01159
1.428,0.02374
1.432,0.03376
1.436,0.02478
1.44,0.02935
1.444,0.05079
1.448,0.07451
1.452,0.0725
1.456,0.07385
1.46,0.06738
1.464,0.06067
1.468,0.04125
1.472,0.04394
1.476,0.04019
1.48,0.01332
1.484,0.00868
1.488,-0.00509
1.492,-0.02783
1.496,0.00206
1.5,0.00165
1.504,-0.00202
1.508,-0.0228
1.512,-0.03728
1.516,-0.03674
1.52,-0.008
1.524,-0.01037
1.528,-0.06462
1.532,-0.01815
1.536,-0.01794
1.54,-0.03976
1.544,-0.03256
1.548,-0.03296
1.552,-0.03245
1.556,-0.03774
1.56,-0.03848
1.564,-0.04225
1.568,-0.04849
1.572,-0.06121
1.576,-0.11569
1.58,-0.13532
1.584,-0.13984
1.588,-0.08857
1.592,-0.00762
1.596,0.16481
1.6,0.37013
1.604,0.58749
1.608,0.7693
1.612,0.92044
1.616,0.95519
1.62,0.89041
1.624,0.72115
1.628,0.52466
1.632,0.29409
1.636,0.08938
1.64,-0.09023
1.644,-0.15838
1.648,-0.21202
1.652,-0.19569
1.656,-0.12844
1.66,-0.08311
1.664,-0.09861
1.668,-0.06796
1.672,-0.04037
1.676,-0.0581
1.68,-0.05011
1.684,-0.02726
1.688,-0.02776
1.692,-0.02127
1.696,-0.04036
1.7,-0.04513
1.704,-0.02501
1.708,-0.01702
1.712,-0.03017
1.716,-0.02111
1.72,-0.01589
1.724,-0.01646
1.728,0.0062
1.732,-0.02495
1.736,-0.0242
1.74,-0.0353
1.744,-0.03817
1.748,-0.0004
1.752,0.00946
1.756,-0.01765
1.76,-0.02001
1.764,-0.03783
1.768,-0.04479
1.772,-0.04689
1.776,-0.03565
1.78,-0.02797
1.784,-0.01846
1.788,-0.03184
1.792,-0.0057
1.796,0.00458
1.8,-0.00651
1.804,-0.02652
1.808,0.00342
1.812,-0.00251
1.816,0.01754
1.82,0.02871
1.824,0.02488
1.828,0.0443
1.832,0.05712
1.836,0.04978
1.84,0.10219
1.844,0.07543
1.848,0.09917
1.852,0.1234
1.856,0.10614
1.86,0.12645
1.864,0.14557
1.868,0.16511
1.872,0.17343
1.876,0.15759
1.88,0.1769
1.884,0.18879
1.888,0.17343
1.892,0.17615
1.896,0.18499
1.9,0.18721
1.904,0.18898
1.908,0.18719
1.912,0.1825
1.916,0.16568
1.92,0.16218
1.924,0.15338
1.928,0.12297
1.932,0.11351
1.936,0.10302
1.94,0.10266
1.944,0.10812
1.948,0.06916
1.952,0.07949
1.956,0.0837
1.96,0.07239
1.964,0.04747
1.968,0.00715
1.972,0.04031
1.976,0.02593
1.98,0.00705
1.984,0.01408
1.988,0.00255
1.992,0.00995
1.996,-0.03272
2.0,-0.01303
2.004,-0.0065
2.008,-0.04367
2.012,-0.01048
2.016,-0.01878
2.02,-0.03426
2.024,-0.02897
2.028,-0.02302
2.032,-0.04044
2.036,-0.02828
2.04,-0.01858
2.044,-0.03005
2.048,0.00515
2.052,-0.02514
2.056,0.01103
2.06,-0.01664
2.064,-0.03056
2.068,0.00302
2.072,-0.0406
2.076,-0.02221
2.08,-0.01658
2.084,-0.0353
2.088,-0.01912
2.092,-0.03361
2.096,-0.03185
2.1,0.00968
2.104,-0.01104
2.108,0.00615
2.112,0.02999
2.116,-0.00145
2.12,0.03128
2.124,0.05017
2.128,0.03704
2.132,0.04858
2.136,0.06426
2.14,0.07373
2.144,0.08796
2.148,0.05751
2.152,0.0554
2.156,0.04636
2.16,0.01434
2.164,-0.0054
2.168,-0.00099
2.172,-0.00955
2.176,0.00373
2.18,-0.02148
2.184,-0.00676
2.188,-0.02087
2.192,-0.00671
2.196,-0.01233
2.2,-0.02476
2.204,-0.01573
2.208,-0.01832
2.212,-0.03529
2.216,-0.02511
2.22,-0.04307
2.224,-0.02637
2.228,-0.00681
2.232,-0.03975
2.236,-0.05654
2.24,-0.05111
2.244,-0.03884
2.248,-0.04768
2.252,-0.05032
2.256,-0.07972
2.26,-0.08995
2.264,-0.14756
2.268,-0.14799
2.272,-0.03003
2.276,0.10596
2.28,0.28829
2.284,0.49652
2.288,0.70913
2.292,0.85762
2.296,0.95665
2.3,0.91788
2.304,0.83565
2.308,0.59182
2.312,0.3681
2.316,0.16416
2.32,-0.00655
2.324,-0.13902
2.328,-0.20275
2.332,-0.18669
2.336,-0.16662
2.34,-0.11622
2.344,-0.07846
2.348,-0.04175
2.352,-0.05375
2.356,-0.03686
2.36,-0.01625
2.364,-0.03992
2.368,-0.02214
2.372,-0.03788
2.376,-0.04865
2.38,-0.02005
2.384,-0.01797
2.388,-0.01089
2.392,-0.00161
2.396,-0.02828
2.4,-0.05109
2.404,-0.04604
2.408,-0.03109
2.412,-0.01773
2.416,-0.01421
2.42,-0.01868
2.424,-0.03275
2.428,-0.01893
2.432,0.00588
2.436,-0.05493
2.44,-0.02272
2.444,-0.02638
2.448,-0.00786
2.452,-0.0297
2.456,-0.03021
2.46,-0.03063
2.464,-0.03765
2.468,-0.02618
2.472,-0.01329
2.476,-0.00788
2.48,0.00318
2.484,-0.01142
2.488,0.00764
2.492,-0.03013
2.496,-0.00687
2.5,0.03733
2.504,0.04352
2.508,0.04922
2.512,0.04987
2.516,0.04847
2.52,0.06683
2.524,0.07211
2.528,0.10419
2.532,0.13029
2.536,0.10383
2.54,0.11883
2.544,0.12472
2.548,0.14254
2.552,0.16134
2.556,0.19934
2.56,0.19227
2.564,0.16861
2.568,0.21647
2.572,0.19325
2.576,0.15056
2.58,0.18477
2.584,0.19161
2.588,0.19218
2.592,0.16623
2.596,0.1849
2.6,0.17492
2.604,0.16751
2.608,0.15669
2.612,0.12348
2.616,0.13236
2.62,0.10976
2.624,0.103
2.628,0.09263
2.632,0.07433
2.636,0.06495
2.64,0.04513
2.644,0.03903
2.648,0.0288
2.652,0.03559
2.656,0.01102
2.66,0.01722
2.664,-0.01046
2.668,0.00409
2.672,0.01429
2.676,-0.01024
2.68,-0.01714
2.684,-0.02759
2.688,-0.01083
2.692,-0.03018
2.696,-0.03212
2.7,-0.03246
2.704,-0.04902
2.708,-0.02067
2.712,-0.02741
2.716,-0.02716
2.72,-0.00716
2.724,-0.03462
2.728,-0.00725
2.732,-0.02552
2.736,-0.0356
2.74,-0.02041
2.744,-0.01262
2.748,-0.03435
2.752,-0.01676
2.756,-0.01313
2.76,-0.037
2.764,-0.00167
2.768,-0.02532
2.772,-0.02707
2.776,-0.03898
2.78,-0.00395
2.784,-0.0369
2.788,-0.03236
2.792,0.00183
2.796,-0.01825
2.8,-0.01124
2.804,-0.0192
2.808,-0.01612
2.812,-0.02705
2.816,-0.01484
2.82,-0.02763
2.824,-0.01938
2.828,-0.01199
2.832,0.0097
2.836,-0.0136
2.84,-0.01237
2.844,-0.02287
2.848,-0.03007
2.852,-0.02644
2.856,-0.02364
2.86,0.01024
2.864,-0.02956
2.868,-0.03806
2.872,-0.01003
2.876,-0.02691
2.88,-0.03068
2.884,-0.00507
2.888,-0.00568
2.892,-0.02676
2.896,-0.02419
2.9,-0.01597
2.904,-0.02914
2.908,-0.04218
2.912,-0.00935
2.916,-0.03071
2.92,0.00075
2.924,0.00626
2.928,-0.00603
2.932,-0.01406
2.936,-0.02862
2.94,-0.03334
2.944,-0.01089
2.948,-0.00499
2.952,-0.02174
2.956,-0.03485
2.96,-0.0289
2.964,-0.01667
2.968,0.00758
2.972,-0.02667
2.976,-0.00701
2.98,-0.00664
2.984,-0.02283
2.988,-0.01211
2.992,-0.02202
2.996,-0.0435
3.0,-0.02416
3.004,0.00655
3.008,-0.03902
3.012,-0.01127
3.016,-0.0641
3.02,-0.03944
3.024,-0.02201
3.028,-0.02108
3.032,-0.01615
3.036,-0.02531
3.04,-0.04223
3.044,0.00389
3.048,-0.00245
3.052,-0.01647
3.056,-0.00174
3.06,0.01453
3.064,0.04172
3.068,0.06102
3.072,0.05727
3.076,0.04508
3.08,0.09332
3.084,0.08491
3.088,0.06338
3.092,0.07469
3.096,0.05345
3.1,0.06862
3.104,0.06901
3.108,0.04239
3.112,0.03369
3.116,0.03211
3.12,0.00592
3.124,0.01614
3.128,0.02491
3.132,0.00519
3.136,-0.01157
3.14,-0.01152
3.144,0.0034
3.148,-0.0202
3.152,0.00012
3.156,-0.03247
3.16,-0.01375
3.164,-0.04525
3.168,-0.01132
3.172,-0.01805
3.176,-0.01926
3.18,-0.01313
3.184,-0.03223
3.188,-0.04346
3.192,-0.02455
3.196,-0.02877
3.2,-0.02158
3.204,-0.03568
3.208,-0.08071
3.212,-0.12085
3.216,-0.12387
3.22,-0.07325
3.224,0.02672
3.228,0.17843
3.232,0.38787
3.236,0.58377
3.24,0.81724
3.244,0.94251
3.248,0.9868
3.252,0.94998
3.256,0.74436
3.26,0.53625
3.264,0.29065
3.268,0.11227
3.272,-0.05334
3.276,-0.16242
3.28,-0.18551
3.284,-0.16348
3.288,-0.12691
3.292,-0.08797
3.296,-0.05546
3.3,-0.02821
3.304,0.0041
3.308,-0.00679
3.312,-0.01305
3.316,-0.0142
3.32,3e-05
3.324,-0.01086
3.328,-0.04471
3.332,-0.02611
3.336,-0.03444
3.34,0.0221
3.344,-0.01592
3.348,-0.01966
3.352,0.0042
3.356,-0.02624
3.36,-0.0163
3.364,-0.01848
3.368,-0.0028
3.372,-0.0344
3.376,-0.03068
3.38,0.0054
3.384,-0.04486
3.388,-0.02045
3.392,0.00825
3.396,0.00061
3.4,-0.01946
3.404,0.01325
3.408,0.01829
3.412,0.00125
3.416,0.00755
3.42,-0.00214
3.424,0.01367
3.428,0.00553
3.432,0.0352
3.436,-0.01253
3.44,0.02454
3.444,0.04312
3.448,0.02043
3.452,0.06834
3.456,0.0581
3.46,0.05674
3.464,0.07235
3.468,0.05076
3.472,0.11499
3.476,0.11591
3.48,0.11009
3.484,0.11996
3.488,0.14019
3.492,0.15198
3.496,0.17038
3.5,0.17494
3.504,0.19557
3.508,0.18309
3.512,0.19453
3.516,0.2039
3.52,0.21656
3.524,0.22024
3.528,0.22536
3.532,0.21736
3.536,0.22673
3.54,0.21227
3.544,0.2116
3.548,0.19018
3.552,0.1972
3.556,0.1956
3.56,0.1385
3.564,0.15579
3.568,0.15558
3.572,0.12559
3.576,0.1075
3.58,0.10572
3.584,0.08901
3.588,0.10462
3.592,0.07466
3.596,0.09356
3.6,0.04888
3.604,0.04571
3.608,0.01998
3.612,0.00254
3.616,0.00871
3.62,0.03518
3.624,0.01841
3.628,-0.00953
3.632,0.02078
3.636,0.00754
3.64,-0.00482
3.644,0.00542
3.648,-0.00564
3.652,-0.00051
3.656,0.00267
3.66,-0.02678
3.664,0.00763
3.668,0.00423
3.672,-0.02275
3.676,-0.00753
3.68,0.01367
3.684,0.01115
3.688,0.00376
3.692,-0.00297
3.696,0.00343
3.7,-0.00487
3.704,0.01172
3.708,0.01268
3.712,-0.01137
3.716,0.00811
3.72,-7e-05
3.724,0.00374
3.728,0.01406
3.732,0.01494
3.736,0.00479
3.74,0.01222
3.744,-0.02828
3.748,-0.00124
3.752,0.0037
3.756,0.00136
3.76,0.01395
3.764,0.00394
3.768,-0.01126
3.772,-0.00515
3.776,0.00346
3.78,0.01321
3.784,-0.00669
3.788,0.009
3.792,0.02147
3.796,0.0001
3.8,-0.01725
3.804,0.00594
3.808,0.01783
3.812,0.0187
3.816,0.01126
3.82,0.02232
3.824,0.01939
3.828,0.02071
3.832,-0.01013
3.836,0.01454
3.84,0.01528
3.844,-0.00787
3.848,-0.02577
3.852,0.00541
3.856,-0.01557
3.86,0.00021
3.864,0.007
3.868,0.02647
3.872,0.01122
3.876,-0.00327
3.88,0.01501
3.884,-0.00257
3.888,0.01473
3.892,0.01223
3.896,0.00735
3.9,0.01834
3.904,0.02354
3.908,0.00404
3.912,0.02018
3.916,0.04152
3.92,0.01031
3.924,0.01084
3.928,-0.00428
3.932,0.04659
3.936,0.01211
3.94,0.04222
3.944,0.00304
3.948,0.05104
3.952,0.05331
3.956,0.07143
3.96,0.11641
3.964,0.11064
3.968,0.11335
3.972,0.08099
3.976,0.13591
3.98,0.08303
3.984,0.09982
3.988,0.09759
3.992,0.06712
3.996,0.0793
4.0,0.06087
4.004,0.02561
4.008,0.05232
4.012,0.01967
4.016,0.01787
4.02,0.00296
4.024,0.02551
4.028,0.00693
4.032,0.01853
4.036,0.01309
4.04,0.02992
4.044,0.01774
4.048,0.03233
4.052,0.01764
4.056,0.0125
4.06,-0.00768
4.064,0.01432
4.068,0.0041
4.072,0.04647
4.076,-0.00506
4.08,0.00987
4.084,0.0113
4.088,0.0294
4.092,-0.02656
4.096,-0.07454
4.1,-0.08455
4.104,-0.11094
4.108,-0.07937
4.112,0.04968
4.116,0.23086
4.12,0.40637
4.124,0.63229
4.128,0.83088
4.132,0.97471
4.136,0.9846
4.14,0.92349
4.144,0.788
4.148,0.55904
4.152,0.32108
4.156,0.10759
4.16,-0.02581
4.164,-0.11836
4.168,-0.18702
4.172,-0.12693
4.176,-0.07732
4.18,-0.05793
4.184,-0.02834
4.188,-0.00754
4.192,0.01949
4.196,0.02445
4.2,0.01427
4.204,0.04966
4.208,0.02647
4.212,0.03139
4.216,0.019
4.22,-0.00516
4.224,-0.00585
4.228,0.00851
4.232,0.02174
4.236,0.01396
4.24,-0.00224
4.244,0.01052
4.248,0.01095
4.252,0.00134
4.256,-0.01163
4.26,0.03632
4.264,0.0094
4.268,0.01029
4.272,0.03615
4.276,0.04975
4.28,0.00621
4.284,0.01728
4.288,0.04267
4.292,0.00143
4.296,0.02428
4.3,0.04402
4.304,0.01844
4.308,0.00722
4.312,0.03068
4.316,0.03607
4.32,0.02942
4.324,0.06415
4.328,0.05655
4.332,0.0608
4.336,0.06211
4.34,0.08272
4.344,0.0985
4.348,0.0955
4.352,0.07665
4.356,0.10928
4.36,0.10707
4.364,0.14947
4.368,0.1649
4.372,0.15917
4.376,0.1917
4.38,0.19485
4.384,0.1914
4.388,0.18749
4.392,0.19588
4.396,0.23852
4.4,0.22671
4.404,0.24608
4.408,0.25667
4.412,0.23448
4.416,0.25055
4.42,0.23444
4.424,0.2259
4.428,0.2319
4.432,0.21853
4.436,0.22757
4.44,0.19606
4.444,0.18244
4.448,0.19567
4.452,0.20136
4.456,0.18553
4.46,0.16648
4.464,0.15385
4.468,0.12593
4.472,0.11704
4.476,0.11361
4.48,0.08158
4.484,0.13627
4.488,0.09524
4.492,0.08088
4.496,0.03621
4.5,0.05666
4.504,0.05854
4.508,0.02928
4.512,0.03314
4.516,0.06943
4.52,0.01629
4.524,0.03007
4.528,0.03004
4.532,0.04375
4.536,0.0393
4.54,0.01285
4.544,0.05054
4.548,0.03978
4.552,0.0187
4.556,0.01278
4.56,0.01543
4.564,0.01856
4.568,0.04576
4.572,0.04805
4.576,0.01315
4.58,0.01783
4.584,0.03301
4.588,0.0321
4.592,0.0284
4.596,0.01949
4.6,0.01744
4.604,0.02316
4.608,0.01518
4.612,0.00884
4.616,0.0146
4.62,4e-05
4.624,0.02829
4.628,0.0465
4.632,0.02701
4.636,-0.00247
4.64,0.03147
4.644,0.03337
4.648,0.00836
4.652,0.02847
4.656,0.01618
4.66,0.03434
4.664,0.01907
4.668,0.05164
4.672,0.00696
4.676,0.00891
4.68,0.03877
4.684,0.03555
4.688,0.02238
4.692,0.00295
4.696,0.03641
4.7,0.01908
4.704,0.03663
4.708,0.01413
4.712,0.01595
4.716,0.03351
4.72,0.01683
4.724,0.04982
4.728,0.03642
4.732,0.03661
4.736,0.02709
4.74,0.02376
4.744,0.04314
4.748,0.03325
4.752,0.02854
4.756,0.00588
4.76,0.02514
4.764,0.01907
4.768,0.04039
4.772,-0.00112
4.776,0.03333
4.78,0.03592
4.784,0.00832
4.788,0.03362
4.792,0.02471
4.796,0.0535
4.8,0.06935
4.804,0.03505
4.808,0.06079
4.812,0.09846
4.816,0.0899
4.82,0.10856
4.824,0.11412
4.828,0.13351
4.832,0.12121
4.836,0.09751
4.84,0.11577
4.844,0.10018
4.848,0.07161
4.852,0.07763
4.856,0.06387
4.86,0.08985
4.864,0.059
4.868,0.06309
4.872,0.0489
4.876,0.05537
4.88,0.02988
4.884,0.05163
4.888,0.02455
4.892,0.02555
4.896,0.04633
4.9,0.02825
4.904,0.01602
4.908,0.04309
4.912,0.03521
4.916,0.03451
4.92,0.00206
4.924,0.033
4.928,0.05312
4.932,0.03136
4.936,0.03852
4.94,0.02995
4.944,-0.00694
4.948,-0.01958
4.952,-0.02242
4.956,-0.07871
4.96,-0.08014
4.964,-0.04738
4.968,0.08644
4.972,0.24734
4.976,0.4682
4.98,0.6787
4.984,0.87295
4.988,0.97208
4.992,0.98811
4.996,0.93871
5.0,0.76799
5.004,0.56665
5.008,0.33497
5.012,0.12441
5.016,-0.02204
5.02,-0.14676
5.024,-0.14126
5.028,-0.11947
5.032,-0.06687
5.036,-0.01578
5.04,-0.01849
5.044,0.01635
5.048,0.03446
5.052,0.03974
5.056,0.03167
5.06,0.01718
5.064,0.02411
5.068,0.03749
5.072,0.02202
5.076,0.04358
5.08,0.02811
5.084,0.05501
5.088,0.00267
5.092,0.04315
5.096,0.0392
5.1,0.04229
5.104,0.04357
5.108,0.04038
5.112,0.01769
5.116,0.02901
5.12,0.00892
5.124,0.0401
5.128,0.00441
5.132,0.01811
5.136,0.03273
5.14,0.04709
5.144,0.01252
5.148,0.02161
5.152,0.03823
5.156,0.02411
5.16,0.03829
5.164,0.04866
5.168,0.05677
5.172,0.04711
5.176,0.06431
5.18,0.06476
5.184,0.07426
5.188,0.08751
5.192,0.07342
5.196,0.08952
5.2,0.08607
5.204,0.11686
5.208,0.11089
5.212,0.11235
5.216,0.14777
5.22,0.12562
5.224,0.16461
5.228,0.18245
5.232,0.1825
5.236,0.17217
5.24,0.21576
5.244,0.23498
5.248,0.23285
5.252,0.22544
5.256,0.21468
5.26,0.25586
5.264,0.264
5.268,0.26609
5.272,0.24385
5.276,0.22371
5.28,0.25138
5.284,0.2509
5.288,0.23531
5.292,0.1955
5.296,0.22234
5.3,0.22319
5.304,0.17981
5.308,0.21241
5.312,0.15935
5.316,0.19694
5.32,0.17411
5.324,0.12592
5.328,0.12871
5.332,0.14
5.336,0.1236
5.34,0.07437
5.344,0.07888
5.348,0.07277
5.352,0.08595
5.356,0.06516
5.36,0.05283
5.364,0.0543
5.368,0.04315
5.372,0.06387
5.376,0.05675
5.38,0.05437
5.384,0.0343
5.388,0.04642
5.392,0.03942
5.396,0.01303
5.4,0.01591
5.404,0.03843
5.408,0.02776
5.412,0.01757
5.416,0.06246
5.42,0.00734
5.424,0.02453
5.428,0.01234
5.432,0.03147
5.436,0.03128
5.44,0.03358
5.444,0.02176
5.448,0.0066
5.452,0.04437
5.456,0.04218
5.46,0.02947
5.464,0.03232
5.468,0.01689
5.472,0.04364
5.476,0.02164
5.48,0.0146
5.484,0.01233
5.488,0.01468
5.492,0.02713
5.496,0.01897
5.5,0.02378
5.504,0.01965
5.508,0.02908
5.512,-0.00515
5.516,0.01021
5.52,0.04124
5.524,0.03774
5.528,0.0401
5.532,0.03192
5.536,0.03008
5.54,0.01627
5.544,0.02018
5.548,0.02896
5.552,0.02928
5.556,0.01875
5.56,0.01181
5.564,0.06423
5.568,0.03735
5.572,0.02558
5.576,0.03604
5.58,0.04976
5.584,0.02287
5.588,0.01113
5.592,0.02563
5.596,0.02042
5.6,0.02065
5.604,0.02366
5.608,0.04081
5.612,0.00231
5.616,0.03324
5.62,0.02576
5.624,0.02853
5.628,0.02307
5.632,0.02275
5.636,0.03687
5.64,0.04571
5.644,0.05341
5.648,0.02675
5.652,0.05246
5.656,0.02296
5.66,0.03843
5.664,0.02048
5.668,0.02628
5.672,0.01632
5.676,0.01168
5.68,0.02947
5.684,0.04709
5.688,0.04605
5.692,0.02286
5.696,0.00957
5.7,0.05693
5.704,0.01506
5.708,0.03968
5.712,0.03773
5.716,0.00961
5.72,0.02215
5.724,0.02677
5.728,0.02224
5.732,0.05276
5.736,0.0077
5.74,0.04408
5.744,0.02017
5.748,0.02917
5.752,0.03269
5.756,0.04453
5.76,0.05468
5.764,0.06238
5.768,0.05806
5.772,0.07355
5.776,0.07684
5.78,0.11287
5.784,0.11877
5.788,0.10967
5.792,0.14679
5.796,0.15519
5.8,0.13624
5.804,0.12734
5.808,0.11479
5.812,0.07582
5.816,0.07605
5.82,0.07414
5.824,0.05535
5.828,0.04789
5.832,0.04436
5.836,0.00983
5.84,0.04178
5.844,0.03812
5.848,0.014
5.852,0.02653
5.856,0.05809
5.86,0.02533
5.864,0.03838
5.868,0.04484
5.872,0.05301
5.876,0.00547
5.88,0.04728
5.884,0.02084
5.888,0.06094
5.892,0.02822
5.896,0.03613
5.9,0.01663
5.904,0.01528
5.908,0.01067
5.912,-0.04125
5.916,-0.07315
5.92,-0.09256
5.924,-0.02257
5.928,0.02516
5.932,0.19928
5.936,0.3973
5.94,0.57953
5.944,0.79988
5.948,0.94906
5.952,0.96903
5.956,0.95875
5.96,0.80561
5.964,0.59936
5.968,0.36606
5.972,0.17898
5.976,-0.0099
5.98,-0.10373
5.984,-0.12029
5.988,-0.13171
5.992,-0.11551
5.996,-0.04245
6.0,-0.01403
6.004,-0.01025
6.008,0.0339
6.012,0.02952
6.016,0.02687
6.02,0.02276
6.024,0.01633
6.028,0.0349
6.032,0.0073
6.036,0.01791
6.04,0.01788
6.044,0.03223
6.048,0.03085
6.052,0.03703
6.056,0.0187
6.06,0.04022
6.064,0.04253
6.068,0.03726
6.072,0.0249
6.076,0.04392
6.08,0.01267
6.084,0.01959
6.088,0.01366
6.092,0.04425
6.096,0.01474
6.1,0.0282
6.104,0.0271
6.108,0.0537
6.112,0.03874
6.116,0.02716
6.12,0.03139
6.124,0.02935
6.128,0.04647
6.132,0.041
6.136,0.02857
6.14,0.06111
6.144,0.06351
6.148,0.04794
6.152,0.06067
6.156,0.05506
6.16,0.08442
6.164,0.08269
6.168,0.10469
6.172,0.11105
6.176,0.13276
6.18,0.14245
6.184,0.11937
6.188,0.14917
6.192,0.18169
6.196,0.16197
6.2,0.19977
6.204,0.21208
6.208,0.21007
6.212,0.2152
6.216,0.18985
6.22,0.21288
6.224,0.2339
6.228,0.23694
6.232,0.25433
6.236,0.252
6.24,0.2377
6.244,0.23243
6.248,0.25309
6.252,0.20915
6.256,0.21909
6.26,0.19395
6.264,0.18855
6.268,0.22128
6.272,0.15721
6.276,0.15662
6.28,0.16039
6.284,0.12752
6.288,0.11032
6.292,0.09967
6.296,0.09783
6.3,0.07637
6.304,0.11021
6.308,0.04733
6.312,0.07819
6.316,0.06719
6.32,0.03842
6.324,0.02302
6.328,0.03971
6.332,0.05167
6.336,0.04214
6.34,0.01705
6.344,0.05092
6.348,0.01388
6.352,0.01323
6.356,0.02739
6.36,0.02979
6.364,-0.01126
6.368,0.00044
6.372,0.04409
6.376,0.02507
6.38,0.00141
6.384,0.02498
6.388,0.02705
6.392,-0.00961
6.396,0.02418
6.4,-0.00569
6.404,0.02058
6.408,0.00461
6.412,0.01722
6.416,-0.00398
6.42,0.00701
6.424,0.02038
6.428,0.01271
6.432,-0.01327
6.436,0.018
6.44,0.01262
6.444,0.01066
6.448,0.01133
6.452,0.02143
6.456,0.01768
6.46,0.01222
6.464,0.02179
6.468,0.03425
6.472,0.01908
6.476,0.01485
6.48,0.00878
6.484,0.02752
6.488,0.0251
6.492,-0.00375
6.496,0.01436
6.5,-0.014
6.504,0.01542
6.508,0.00626
6.512,0.01489
6.516,0.00484
6.52,0.01244
6.524,0.0221
6.528,-0.00694
6.532,0.01207
6.536,0.00397
6.54,-0.00469
6.544,0.00349
6.548,-0.00114
6.552,0.03432
6.556,-0.00645
6.56,0.01517
6.564,0.02884
6.568,0.04284
6.572,0.01953
6.576,0.0088
6.58,0.03038
6.584,0.06069
6.588,0.05001
6.592,0.07119
6.596,0.08933
6.6,0.08283
6.604,0.08454
6.608,0.10475
6.612,0.13003
6.616,0.11393
6.62,0.10017
6.624,0.09666
6.628,0.09286
6.632,0.06374
6.636,0.06622
6.64,0.077
6.644,0.01968
6.648,0.04035
6.652,0.00796
6.656,0.02655
6.66,0.02664
6.664,0.01955
6.668,-0.00328
6.672,-0.00503
6.676,0.00437
6.68,0.02091
6.684,-0.00687
6.688,0.0248
6.692,0.01865
6.696,0.00435
6.7,0.01521
6.704,0.01489
6.708,0.01754
6.712,0.0005
6.716,-0.00636
6.72,0.00626
6.724,0.00092
6.728,-0.047
6.732,-0.04285
6.736,-0.09843
6.74,-0.11565
6.744,-0.08879
6.748,-0.03194
6.752,0.13375
6.756,0.30887
6.76,0.49086
6.764,0.76721
6.768,0.90913
6.772,0.9918
6.776,0.95661
6.78,0.86276
6.784,0.6782
6.788,0.44669
6.792,0.20955
6.796,0.0436
6.8,-0.09533
6.804,-0.12334
6.808,-0.15877
6.812,-0.15372
6.816,-0.08149
6.82,-0.05817
6.824,-0.03616
6.828,-0.00363
6.832,-0.0165
6.836,0.00204
6.84,-0.00645
6.844,0.02328
6.848,-0.00853
6.852,-0.0002
6.856,0.00214
6.86,0.0128
6.864,-0.01133
6.868,-0.00221
6.872,0.01547
6.876,-0.00995
6.88,-0.0094
6.884,0.01419
6.888,-0.00402
6.892,-0.01784
6.896,0.01683
6.9,-0.0221
6.904,0.00841
6.908,0.0135
6.912,-0.0106
6.916,0.0015
6.92,0.02369
6.924,-0.01513
6.928,0.0085
6.932,-0.00222
6.936,-0.00178
6.94,0.02841
6.944,0.00686
6.948,0.02335
6.952,-0.00176
6.956,0.02168
6.96,0.03328
6.964,0.02359
6.968,0.03104
6.972,0.04926
6.976,0.04361
6.98,0.05942
6.984,0.05889
6.988,0.07975
6.992,0.08129
6.996,0.1275
7.0,0.09257
7.004,0.09567
7.008,0.15119
7.012,0.1457
7.016,0.15775
7.02,0.16602
7.024,0.19741
7.028,0.18395
7.032,0.20147
7.036,0.20636
7.04,0.21773
7.044,0.19983
7.048,0.2163
7.052,0.22457
7.056,0.19394
7.06,0.20199
7.064,0.19648
7.068,0.19885
7.072,0.18419
7.076,0.19029
7.08,0.17857
7.084,0.19076
7.088,0.14139
7.092,0.14407
7.096,0.1616
7.1,0.10475
7.104,0.11002
7.108,0.12298
7.112,0.09026
7.116,0.07768
7.12,0.07206
7.124,0.04695
7.128,0.01889
7.132,0.02837
7.136,0.04151
7.14,0.0164
7.144,0.04375
7.148,0.02633
7.152,0.00436
7.156,-0.00653
7.16,0.01927
7.164,-0.02132
7.168,-0.01952
7.172,-0.00652
7.176,0.00566
7.18,-0.00433
7.184,0.01702
7.188,-0.01848
7.192,-0.00053
7.196,-0.02626
7.2,-0.01068
7.204,-0.01966
7.208,-0.01602
7.212,0.01316
7.216,-0.02597
7.22,-0.0231
7.224,-0.03006
7.228,-0.00106
7.232,-0.01007
7.236,0.02471
7.24,-0.04441
7.244,-0.04472
7.248,0.00755
7.252,-0.02426
7.256,-0.00432
7.26,0.00334
7.264,-0.02123
7.268,-0.00045
7.272,-0.01545
7.276,-0.00749
7.28,0.02109
7.284,0.00901
7.288,-0.03443
7.292,0.01893
7.296,-0.01217
7.3,0.00863
7.304,0.01796
7.308,0.0047
7.312,0.03297
7.316,0.01451
7.32,0.03087
7.324,0.03998
7.328,0.07539
7.332,0.06463
7.336,0.08385
7.34,0.06367
7.344,0.089
7.348,0.10173
7.352,0.07172
7.356,0.03824
7.36,0.06069
7.364,0.04113
7.368,0.029
7.372,0.03133
7.376,0.02888
7.38,0.00834
7.384,0.02072
7.388,-0.01692
7.392,0.00364
7.396,-0.00283
7.4,0.01573
7.404,-0.04657
7.408,0.0004
7.412,-0.00464
7.416,0.02099
7.42,-0.01044
7.424,-0.00044
7.428,-0.02605
7.432,-0.01068
7.436,-0.02566
7.44,-0.02423
7.444,-0.01351
7.448,-0.03395
7.452,-0.0165
7.456,-0.0273
7.46,-0.05319
7.464,-0.09494
7.468,-0.12625
7.472,-0.12852
7.476,-0.05881
7.48,0.07194
7.484,0.24684
7.488,0.46303
7.492,0.63719
7.496,0.81301
7.5,0.98813
7.504,0.95532
7.508,0.86264
7.512,0.67875
7.516,0.46167
7.52,0.22059
7.524,0.03746
7.528,-0.11618
7.532,-0.16999
7.536,-0.18588
7.54,-0.16295
7.544,-0.12776
7.548,-0.07925
7.552,-0.02884
7.556,-0.02854
7.56,-0.02324
7.564,-0.01512
7.568,-0.02292
7.572,-0.03542
7.576,-0.03881
7.58,-0.03191
7.584,-0.01238
7.588,-0.04628
7.592,-0.03915
7.596,0.00974
7.6,-0.02574
7.604,0.00453
7.608,-0.04074
7.612,-0.04496
7.616,0.0036
7.62,-0.00584
7.624,-0.02821
7.628,-0.01638
7.632,-0.01872
7.636,-0.02312
7.64,0.00454
7.644,-0.01991
7.648,0.00333
7.652,-0.01824
7.656,-0.00411
7.66,-0.01271
7.664,0.01502
7.668,-0.0153
7.672,-0.01769
7.676,-0.00871
7.68,0.00253
7.684,0.00531
7.688,0.01303
7.692,0.01935
7.696,0.03967
7.7,0.02006
7.704,0.01474
7.708,0.01315
7.712,0.06166
7.716,0.0878
7.72,0.07039
7.724,0.08052
7.728,0.10306
7.732,0.08271
7.736,0.08483
7.74,0.15813
7.744,0.15572
7.748,0.165
7.752,0.17743
7.756,0.14848
7.76,0.17664
7.764,0.17451
7.768,0.19262
7.772,0.21672
7.776,0.21068
7.78,0.20365
7.784,0.18717
7.788,0.18513
7.792,0.17886
7.796,0.21131
7.8,0.19187
7.804,0.17873
7.808,0.17622
7.812,0.1969
7.816,0.14593
7.82,0.14923
7.824,0.11995
7.828,0.11299
7.832,0.09923
7.836,0.07088
7.84,0.1049
7.844,0.04926
7.848,0.04957
7.852,0.05479
7.856,0.02976
7.86,0.01601
7.864,0.01641
7.868,0.00761
7.872,0.01159
7.876,-0.02062
7.88,0.01169
7.884,-0.01566
7.888,0.01477
7.892,-0.03275
7.896,0.01914
7.9,-0.02515
7.904,-0.0213
7.908,-0.02707
7.912,-0.02694
7.916,0.00636
7.92,-0.01272
7.924,-0.0142
7.928,-0.00488
7.932,-0.02237
7.936,-0.01948
7.94,-0.01537
7.944,0.00269
7.948,-0.0384
7.952,-0.04228
7.956,-0.01369
7.96,0.00291
7.964,0.02243
7.968,-0.05109
7.972,-0.01245
7.976,-0.01645
7.98,-0.05203
7.984,-0.01622
7.988,-0.01106
7.992,0.00258
7.996,-0.01638
8.0,-0.05852
8.004,0.00838
8.008,-0.01298
8.012,-0.03778
8.016,-0.04227
8.02,-0.01565
8.024,-0.03516
8.028,-0.05244
8.032,-0.00329
8.036,-0.03671
8.04,-0.03602
8.044,-0.01647
8.048,-0.03917
8.052,-0.00768
8.056,-0.02343
8.06,-0.04997
8.064,-0.03031
8.068,-0.05431
8.072,-0.04161
8.076,-0.00508
8.08,-0.02993
8.084,0.00178
8.088,-0.01304
8.092,-0.04488
8.096,-0.02324
8.1,-0.03428
8.104,-0.01983
8.108,-0.02729
8.112,-0.02277
8.116,-0.00456
8.12,-0.0561
8.124,-0.02804
8.128,-0.02439
8.132,-0.02543
8.136,-0.02479
8.14,-0.03017
8.144,-0.0128
8.148,-0.03946
8.152,-0.03846
8.156,-0.02026
8.16,-0.02828
8.164,-0.00948
8.168,-0.04331
8.172,-0.03027
8.176,-0.00391
8.18,-0.00812
8.184,0.01079
8.188,-0.00577
8.192,0.01018
8.196,0.02111
8.2,0.03956
8.204,0.05554
8.208,0.06202
8.212,0.04014
8.216,0.05683
8.22,0.09513
8.224,0.07209
8.228,0.09256
8.232,0.07178
8.236,0.03551
8.24,0.01324
8.244,0.04486
8.248,0.0264
8.252,-0.02793
8.256,-0.00117
8.26,-0.02164
8.264,-0.0111
8.268,-0.00889
8.272,-0.01804
8.276,-0.00442
8.28,-0.03578
8.284,-0.01343
8.288,-0.02269
8.292,-0.0585
8.296,-0.01976
8.3,-0.01709
8.304,-0.03539
8.308,-0.04124
8.312,-0.01077
8.316,-0.01582
8.32,-0.0056
8.324,-0.01473
8.328,-0.04013
8.332,-0.03583
8.336,-0.05284
8.34,-0.11537
8.344,-0.12941
8.348,-0.13965
8.352,-0.10425
8.356,-0.02596
8.36,0.12793
8.364,0.28263
8.368,0.56176
8.372,0.72203
8.376,0.892
8.38,0.9692
8.384,0.9481
8.388,0.7823
8.392,0.5794
8.396,0.36538
8.4,0.15083
8.404,0.00669
8.408,-0.14811
8.412,-0.21091
8.416,-0.17619
8.42,-0.15785
8.424,-0.11535
8.428,-0.04693
8.432,-0.0783
8.436,-0.06626
8.44,-0.00812
8.444,-0.04201
8.448,-0.02816
8.452,-0.02996
8.456,-0.0358
8.46,-0.04055
8.464,-0.01764
8.468,-0.02556
8.472,-0.03256
8.476,-0.0568
8.48,-0.02986
8.484,-0.0278
8.488,-0.03484
8.492,-0.00755
8.496,-0.03795
8.5,-0.03165
8.504,-0.03386
8.508,-0.00092
8.512,-0.04255
8.516,-0.03358
8.52,-0.03537
8.524,-0.00841
8.528,-0.03571
8.532,-0.05633
8.536,-0.00164
8.54,0.0127
8.544,-0.00828
8.548,-0.02116
8.552,-0.03528
8.556,-0.02521
8.56,-0.02433
8.564,-0.03045
8.568,0.01123
8.572,-0.00481
8.576,0.01463
8.58,0.02807
8.584,0.02416
8.588,0.0016
8.592,0.04693
8.596,0.01356
8.6,0.04968
8.604,0.06885
8.608,0.0651
8.612,0.08581
8.616,0.1016
8.62,0.08368
8.624,0.10082
8.628,0.1244
8.632,0.12719
8.636,0.16392
8.64,0.17346
8.644,0.17854
8.648,0.18097
8.652,0.20624
8.656,0.22053
8.66,0.21537
8.664,0.17721
8.668,0.18647
8.672,0.20225
8.676,0.19401
8.68,0.14517
8.684,0.17679
8.688,0.15197
8.692,0.13722
8.696,0.13409
8.7,0.1203
8.704,0.13992
8.708,0.09744
8.712,0.07365
8.716,0.07337
8.72,0.06878
8.724,0.05685
8.728,0.02554
8.732,0.02188
8.736,0.02021
8.74,0.01052
8.744,-0.0022
8.748,0.0025
8.752,-0.00933
8.756,0.00503
8.76,-0.01247
8.764,-0.01785
8.768,-0.02271
8.772,-0.02976
8.776,-0.04429
8.78,-0.0394
8.784,-0.01652
8.788,-0.05043
8.792,-0.03922
8.796,-0.03469
8.8,-0.01595
8.804,-0.03182
8.808,-0.02818
8.812,-0.02979
8.816,-0.04356
8.82,-0.0301
8.824,-0.03526
8.828,-0.00125
8.832,-0.00928
8.836,0.00684
8.84,-0.02277
8.844,-0.01909
8.848,-0.02165
8.852,-0.03451
8.856,-0.03085
8.86,-0.02859
8.864,-0.01379
8.868,-0.0281
8.872,-0.05369
8.876,-0.01692
8.88,-0.03199
8.884,-0.02051
8.888,-0.03411
8.892,-0.03927
8.896,-0.03737
8.9,-0.02603
8.904,-0.02723
8.908,-0.05729
8.912,-0.02142
8.916,-0.04708
8.92,-0.02262
8.924,-0.05095
8.928,-0.03145
8.932,-0.0186
8.936,-0.03628
8.94,-0.0126
8.944,0.00141
8.948,-0.04176
8.952,-0.04675
8.956,-0.06216
8.96,-0.03051
8.964,-0.02698
8.968,-0.02057
8.972,-0.01299
8.976,-0.01498
8.98,-0.03086
8.984,-0.02522
8.988,-0.06034
8.992,-0.04218
8.996,-0.04089
9.0,-0.02716
9.004,-0.05084
9.008,-0.0484
9.012,-0.02927
9.016,-0.03277
9.02,-0.03851
9.024,-0.0416
9.028,-0.02528
9.032,-0.01883
9.036,-0.02894
9.04,-0.03004
9.044,-0.02893
9.048,-0.0375
9.052,-0.02309
9.056,-0.03333
9.06,-0.03416
9.064,-0.00858
9.068,-0.01495
9.072,-0.01344
9.076,-0.01221
9.08,-0.01715
9.084,-0.01887
9.088,-0.00368
9.092,0.00218
9.096,0.02527
9.1,-0.00493
9.104,0.03103
9.108,0.02098
9.112,0.04676
9.116,0.04988
9.12,0.07436
9.124,0.06194
9.128,0.07344
9.132,0.07478
9.136,0.09162
9.14,0.06203
9.144,0.02279
9.148,0.02312
9.152,-0.00226
9.156,0.02018
9.16,-0.00911
9.164,-0.00556
9.168,-0.00279
9.172,-0.01543
9.176,-0.02554
9.18,-0.02611
9.184,-0.02811
9.188,-0.01651
9.192,-0.01944
9.196,-0.02626
9.2,-0.01162
9.204,-0.02048
9.208,-0.02978
9.212,-0.025
9.216,-0.05787
9.22,-0.02997
9.224,-0.00914
9.228,-0.02587
9.232,-0.0433
9.236,-0.05638
9.24,-0.05993
9.244,-0.07345
9.248,-0.08064
9.252,-0.11877
9.256,-0.12795
9.26,-0.06318
9.264,0.06255
9.268,0.24938
9.272,0.43638
9.276,0.68859
9.28,0.86405
9.284,0.96255
9.288,0.94645
9.292,0.8576
9.296,0.65566
9.3,0.42143
9.304,0.18977
9.308,0.01866
9.312,-0.13294
9.316,-0.18
9.32,-0.20857
9.324,-0.1611
9.328,-0.12328
9.332,-0.07865
9.336,-0.07828
9.34,-0.02555
9.344,-0.02577
9.348,-0.04185
9.352,-0.03078
9.356,-0.02367
9.36,-0.01048
9.364,-0.0351
9.368,-0.02496
9.372,-0.04265
9.376,-0.0309
9.38,-0.01511
9.384,-0.00837
9.388,-0.05927
9.392,-0.02185
9.396,-0.0444
9.4,-0.06438
9.404,-0.01215
9.408,-0.02009
9.412,-0.01757
9.416,-0.04219
9.42,-0.0252
9.424,-0.02747
9.428,-0.01782
9.432,-0.01395
9.436,-0.04076
9.44,-0.03007
9.444,-0.01164
9.448,-0.00157
9.452,-0.01406
9.456,-0.02573
9.46,-0.02411
9.464,-0.00469
9.468,0.00872
9.472,0.01801
9.476,0.00371
9.48,0.02224
9.484,0.02386
9.488,0.03874
9.492,0.0571
9.496,0.01366
9.5,0.04009
9.504,0.06299
9.508,0.07433
9.512,0.10567
9.516,0.06786
9.52,0.10155
9.524,0.12126
9.528,0.11863
9.532,0.14911
9.536,0.19185
9.54,0.17053
9.544,0.19006
9.548,0.17452
9.552,0.19966
9.556,0.18032
9.56,0.18938
9.564,0.22927
9.568,0.19059
9.572,0.22062
9.576,0.18472
9.58,0.1686
9.584,0.19436
9.588,0.16336
9.592,0.18587
9.596,0.17856
9.6,0.13911
9.604,0.16101
9.608,0.11687
9.612,0.09603
9.616,0.10259
9.62,0.06515
9.624,0.09138
9.628,0.0702
9.632,0.06577
9.636,0.06626
9.64,0.03671
9.644,0.02685
9.648,0.0453
9.652,0.01231
9.656,0.0035
9.66,0.03155
9.664,0.00623
9.668,0.01636
9.672,-0.00484
9.676,-0.01247
9.68,-0.03338
9.684,-0.00209
9.688,-0.0199
9.692,-0.02872
9.696,-0.03943
9.7,-0.01862
9.704,-0.02577
9.708,-0.02851
9.712,-0.00575
9.716,-0.01265
9.72,-0.03471
9.724,0.00312
9.728,-0.01731
9.732,-0.03779
9.736,-0.00983
9.74,-0.0234
9.744,-0.02871
9.748,0.01166
9.752,-0.04614
9.756,-0.01326
9.76,-0.01463
9.764,-0.0371
9.768,-0.01363
9.772,-0.05302
9.776,-0.00675
9.78,-0.02171
9.784,-0.03062
9.788,0.00733
9.792,-0.01862
9.796,-0.0284
9.8,-0.02254
9.804,-0.01875
9.808,-0.03302
9.812,-0.0379
9.816,0.0077
9.82,0.00044
9.824,-0.00911
9.828,0.00879
9.832,-0.03185
9.836,-0.01211
9.84,0.00018
9.844,-0.01298
9.848,-0.0451
9.852,0.00265
9.856,0.00438
9.86,-0.02208
9.864,-0.01832
9.868,-0.01344
9.872,-0.00889
9.876,0.00463
9.88,-0.0252
9.884,-0.01594
9.888,-0.02928
9.892,-0.02693
9.896,0.00407
9.9,-0.01034
9.904,-0.01826
9.908,0.00737
9.912,0.01201
9.916,0.00508
9.92,0.01024
9.924,-0.00315
9.928,0.00671
9.932,-0.02153
9.936,-0.00462
9.94,-0.01693
9.944,-0.01819
9.948,-0.00307
9.952,0.02083
9.956,-0.0209
9.96,0.02866
9.964,-0.00986
9.968,-0.03101
9.972,-0.01056
9.976,-0.01624
9.98,-0.02841
9.984,-0.00247
9.988,-0.00557
9.992,0.01229
9.996,-0.00244
