t_seg,ecg_mV
0.0,-0.02092
0.004,-0.0007
0.008,-0.01379
0.012,-0.04263
0.016,-0.02744
0.02,-0.02982
0.024,-0.08374
0.028,-0.00083
0.032,-0.06963
0.036,-0.01564
0.04,-0.06468
0.044,-0.01735
0.048,-0.01321
0.052,0.07161
0.056,-0.01318
0.06,0.03173
0.064,0.04963
0.068,0.05868
0.072,0.01896
0.076,0.04249
0.08,0.09044
0.084,0.07041
0.088,0.05674
0.092,0.05034
0.096,0.04483
0.1,-0.02411
0.104,-0.04701
0.108,0.01427
0.112,0.01065
0.116,-0.02639
0.12,0.03495
0.124,-0.03496
0.128,-0.05195
0.132,-0.08122
0.136,-0.04416
0.14,-0.05572
0.144,0.06728
0.148,-0.07055
0.152,-0.00479
0.156,-0.0004
0.16,0.02583
0.164,-0.01003
0.168,0.00531
0.172,-0.01507
0.176,-0.02079
0.18,0.05149
0.184,-0.01815
0.188,-0.02426
0.192,-0.08219
0.196,-0.07639
0.2,-0.11074
0.204,-0.13374
0.208,-0.14816
0.212,-0.04052
0.216,0.0613
0.22,0.25961
0.224,0.41099
0.228,0.61598
0.232,0.85205
0.236,0.96096
0.24,1.00023
0.244,0.86992
0.248,0.59611
0.252,0.42495
0.256,0.21507
0.26,-0.03581
0.264,-0.10171
0.268,-0.19553
0.272,-0.15689
0.276,-0.20366
0.28,-0.0873
0.284,-0.12406
0.288,-0.07798
0.292,-0.08088
0.296,-0.03305
0.3,-0.07922
0.304,-0.03506
0.308,-0.02381
0.312,-0.02982
0.316,-0.01752
0.32,-0.03396
0.324,-0.04249
0.328,-0.05183
0.332,-0.05671
0.336,0.0434
0.34,-0.03639
0.344,0.00724
0.348,-0.03919
0.352,0.00382
0.356,-0.0574
0.36,-0.05068
0.364,-0.08478
0.368,-0.05578
0.372,-0.02497
0.376,0.00114
0.38,-0.06176
0.384,-0.04196
0.388,0.00511
0.392,-0.04229
0.396,-0.08646
0.4,-0.02524
0.404,-0.0425
0.408,-0.04069
0.412,-0.05606
0.416,-0.08829
0.42,0.01754
0.424,-0.01387
0.428,-0.00018
0.432,-0.01323
0.436,0.02274
0.44,0.02433
0.444,0.04443
0.448,0.02077
0.452,0.08998
0.456,0.07089
0.46,0.12353
0.464,0.10581
0.468,0.15089
0.472,0.1349
0.476,0.09787
0.48,0.10905
0.484,0.07011
0.488,0.16668
0.492,0.17103
0.496,0.18485
0.5,0.15595
0.504,0.19272
0.508,0.18271
0.512,0.13069
0.516,0.25475
0.52,0.19522
0.524,0.15848
0.528,0.18816
0.532,0.2086
0.536,0.21303
0.54,0.16038
0.544,0.1614
0.548,0.15299
0.552,0.1722
0.556,0.07346
0.56,0.08358
0.564,0.08815
0.568,0.13579
0.572,0.08429
0.576,0.005
0.58,-0.00558
0.584,0.06136
0.588,0.0772
0.592,0.06306
0.596,-0.01716
0.6,0.06674
0.604,-0.00076
0.608,-0.00639
0.612,0.02851
0.616,-0.01596
0.62,-0.02521
0.624,-0.01015
0.628,-0.03056
0.632,-0.05025
0.636,-0.03952
0.64,-0.06315
0.644,-0.02168
0.648,-0.03943
0.652,-0.01229
0.656,-0.01672
0.66,-0.03006
0.664,0.04238
0.668,-0.02069
0.672,-0.02911
0.676,-0.09407
0.68,-0.03477
0.684,-0.035
0.688,0.01504
0.692,-0.03842
0.696,-0.07441
0.7,0.00277
0.704,-0.02545
0.708,-0.00789
0.712,-0.06436
0.716,-0.05614
0.72,-0.02988
0.724,-0.10844
0.728,-0.02044
0.732,0.00254
0.736,-0.05551
0.74,0.0399
0.744,-0.04066
0.748,-0.06258
0.752,-0.0243
0.756,-0.0668
0.76,0.01737
0.764,-0.02245
0.768,-0.02715
0.772,-0.00593
0.776,-0.01211
0.78,-0.05612
0.784,-0.02524
0.788,-0.04999
0.792,-0.03756
0.796,-0.00424
0.8,0.00558
0.804,-0.00024
0.808,-0.04471
0.812,0.0061
0.816,-0.03876
0.82,0.04898
0.824,-0.02385
0.828,-0.02708
0.832,-0.05793
0.836,-0.07959
0.84,-0.0241
0.844,0.04913
0.848,-0.05193
0.852,-0.00867
0.856,-0.08004
0.86,-0.01411
0.864,-0.05502
0.868,-0.03895
0.872,-0.05997
0.876,-0.07419
0.88,-0.01205
0.884,-0.0098
0.888,-0.12107
0.892,-0.01812
0.896,-0.03739
0.9,-0.01733
0.904,-0.09023
0.908,-0.07778
0.912,0.0059
0.916,-0.00128
0.92,-0.00375
0.924,0.03789
0.928,-0.07437
0.932,-0.03558
0.936,-0.06939
0.94,-0.03246
0.944,-0.0254
0.948,0.0613
0.952,-0.01722
0.956,-0.10906
0.96,-0.04636
0.964,-0.0271
0.968,-0.02351
0.972,-0.06405
0.976,0.01812
0.98,-0.01029
0.984,0.03951
0.988,-0.00789
0.992,0.03459
0.996,0.11744
1.0,0.11872
1.004,0.11528
1.008,0.07533
1.012,0.12905
1.016,0.07608
1.02,0.04335
1.024,-0.00695
1.028,0.00471
1.032,0.05934
1.036,-0.03091
1.04,0.00804
1.044,-0.03215
1.048,-0.04429
1.052,-0.00655
1.056,-0.01964
1.06,-0.01234
1.064,-0.05132
1.068,-0.03169
1.072,0.02726
1.076,-0.07419
1.08,-0.07101
1.084,-0.0095
1.088,-0.04377
1.092,0.0282
1.096,0.01177
1.1,-0.02962
1.104,-0.09284
1.108,0.00487
1.112,0.01498
1.116,-0.02239
1.12,-0.04045
1.124,-0.08462
1.128,-0.05499
1.132,-0.10071
1.136,-0.01918
1.14,0.07474
1.144,0.35177
1.148,0.43694
1.152,0.68758
1.156,0.91983
1.16,0.93401
1.164,0.96687
1.168,0.81456
1.172,0.59717
1.176,0.43974
1.18,0.19968
1.184,-0.00455
1.188,-0.09948
1.192,-0.18138
1.196,-0.24143
1.2,-0.17319
1.204,-0.15467
1.208,-0.02091
1.212,-0.0493
1.216,-0.01788
1.22,0.0137
1.224,0.03686
1.228,-0.01002
1.232,-0.0512
1.236,0.02655
1.24,0.01263
1.244,-0.03968
1.248,-0.04768
1.252,-0.02957
1.256,-0.03147
1.26,-0.04017
1.264,0.02207
1.268,-0.03399
1.272,-0.02693
1.276,-0.05014
1.28,-0.03022
1.284,-0.02854
1.288,0.01066
1.292,-0.04708
1.296,0.04214
1.3,-0.02699
1.304,-0.04323
1.308,0.03927
1.312,0.05293
1.316,-0.01199
1.32,-0.05709
1.324,-0.0207
1.328,0.00797
1.332,0.01115
1.336,-0.02209
1.34,-0.01637
1.344,-0.03574
1.348,0.07634
1.352,-0.01217
1.356,-0.06539
1.36,0.08502
1.364,-0.00804
1.368,0.0882
1.372,0.03505
1.376,0.10801
1.38,0.08544
1.384,0.09118
1.388,0.07066
1.392,0.17489
1.396,0.06216
1.4,0.09619
1.404,0.10886
1.408,0.13175
1.412,0.23924
1.416,0.17761
1.42,0.18639
1.424,0.17887
1.428,0.15676
1.432,0.19671
1.436,0.18533
1.44,0.21312
1.444,0.21761
1.448,0.17187
1.452,0.21371
1.456,0.21187
1.46,0.16094
1.464,0.10742
1.468,0.18854
1.472,0.09999
1.476,0.203
1.48,0.16351
1.484,0.13325
1.488,0.07564
1.492,0.15553
1.496,0.07797
1.5,0.11802
1.504,0.1092
1.508,0.09948
1.512,0.07434
1.516,0.05385
1.52,-0.02557
1.524,0.04463
1.528,0.05806
1.532,-9e-05
1.536,-0.01141
1.54,-0.0163
1.544,0.02557
1.548,-0.01656
1.552,-0.03171
1.556,0.0392
1.56,-0.06792
1.564,0.0215
1.568,-0.01835
1.572,-0.02273
1.576,-0.07924
1.58,-0.05112
1.584,-0.01177
1.588,0.00305
1.592,-0.00294
1.596,-0.03267
1.6,0.02429
1.604,-0.01467
1.608,-0.04618
1.612,-0.04465
1.616,0.00098
1.62,0.0091
1.624,-0.02121
1.628,-0.02736
1.632,0.00531
1.636,-0.01955
1.64,0.07888
1.644,0.00373
1.648,0.03242
1.652,0.02304
1.656,-0.04567
1.66,0.0196
1.664,-0.06842
1.668,-0.00909
1.672,-0.05291
1.676,-0.03403
1.68,-0.01395
1.684,-0.07768
1.688,-0.05026
1.692,0.00535
1.696,0.02482
1.7,0.02925
1.704,0.04038
1.708,0.01338
1.712,0.03912
1.716,0.0029
1.72,0.08751
1.724,0.01913
1.728,0.00372
1.732,0.017
1.736,-0.03345
1.74,-0.10705
1.744,-0.03173
1.748,0.0003
1.752,0.01566
1.756,0.00513
1.76,0.07131
1.764,0.01755
1.768,-0.03694
1.772,-0.00943
1.776,0.03747
1.78,-0.00542
1.784,-0.01054
1.788,-0.02008
1.792,0.02023
1.796,0.0584
1.8,0.05196
1.804,0.04773
1.808,0.00362
1.812,-0.01508
1.816,0.04298
1.82,0.06588
1.824,0.07909
1.828,0.08067
1.832,0.01409
1.836,0.09235
1.84,0.09644
1.844,0.10522
1.848,0.09337
1.852,0.07568
1.856,0.07883
1.86,0.05728
1.864,0.11002
1.868,0.08665
1.872,0.1139
1.876,0.02352
1.88,0.07532
1.884,0.02999
1.888,0.01148
1.892,-0.04512
1.896,-0.01048
1.9,-0.02777
1.904,0.06912
1.908,-0.03403
1.912,-0.05869
1.916,0.01512
1.92,-0.02721
1.924,0.02916
1.928,-0.0413
1.932,-0.03866
1.936,-0.01426
1.94,0.03479
1.944,-0.03775
1.948,0.01278
1.952,0.01459
1.956,-0.00128
1.96,-0.01267
1.964,-0.05947
1.968,-0.07038
1.972,-0.16702
1.976,-0.11423
1.98,-0.04174
1.984,0.13322
1.988,0.21925
1.992,0.35786
1.996,0.64507
2.0,0.85515
2.004,1.00278
2.008,0.95533
2.012,0.91726
2.016,0.77455
2.02,0.4983
2.024,0.3305
2.028,0.11193
2.032,-0.08025
2.036,-0.05431
2.04,-0.20259
2.044,-0.15612
2.048,-0.14938
2.052,-0.09464
2.056,-0.02073
2.06,0.04008
2.064,0.0116
2.068,-0.01018
2.072,-0.02309
2.076,-0.05254
2.08,-0.01319
2.084,0.01071
2.088,0.05561
2.092,0.0608
2.096,-0.04688
2.1,-0.00569
2.104,0.01549
2.108,-0.00156
2.112,0.04186
2.116,0.11384
2.12,0.02521
2.124,0.03086
2.128,-0.00867
2.132,0.05393
2.136,0.01472
2.14,-0.04831
2.144,0.01871
2.148,0.01417
2.152,0.00701
2.156,-0.01929
2.16,-0.00238
2.164,-0.01116
2.168,0.03489
2.172,0.03358
2.176,-0.00603
2.18,0.00255
2.184,0.03966
2.188,-0.00851
2.192,0.03446
2.196,0.0142
2.2,0.02222
2.204,-0.01881
2.208,0.06052
2.212,0.07482
2.216,0.05003
2.22,0.12012
2.224,0.10812
2.228,0.07247
2.232,0.07644
2.236,0.08926
2.24,0.14546
2.244,0.15689
2.248,0.15528
2.252,0.21652
2.256,0.17253
2.26,0.1915
2.264,0.11574
2.268,0.19101
2.272,0.2746
2.276,0.18923
2.28,0.24045
2.284,0.24588
2.288,0.21
2.292,0.18484
2.296,0.16985
2.3,0.24008
2.304,0.13673
2.308,0.16085
2.312,0.13103
2.316,0.2501
2.32,0.11459
2.324,0.20063
2.328,0.12619
2.332,0.0989
2.336,0.13895
2.34,0.15281
2.344,0.13613
2.348,0.05987
2.352,0.10278
2.356,0.12298
2.36,0.02931
2.364,0.09608
2.368,0.07136
2.372,0.08439
2.376,0.04573
2.38,0.05235
2.384,0.04661
2.388,0.00591
2.392,0.01938
2.396,0.0337
2.4,-0.00041
2.404,0.05058
2.408,0.03938
2.412,-0.02176
2.416,0.07489
2.42,0.02394
2.424,0.01669
2.428,-0.0404
2.432,-0.03631
2.436,-0.02185
2.44,0.079
2.444,0.00258
2.448,0.02818
2.452,0.06857
2.456,0.02782
2.46,0.04012
2.464,0.02108
2.468,0.00535
2.472,-0.00233
2.476,-0.00289
2.48,0.00989
2.484,0.02183
2.488,0.02757
2.492,0.03461
2.496,0.02824
2.5,0.03026
2.504,0.00997
2.508,-0.00421
2.512,0.01831
2.516,-0.01463
2.52,-0.08641
2.524,0.04546
2.528,-0.02847
2.532,0.01816
2.536,0.02163
2.54,0.02682
2.544,0.02431
2.548,0.00046
2.552,0.01154
2.556,0.04313
2.56,9e-05
2.564,0.03688
2.568,-0.07854
2.572,-0.02865
2.576,0.06307
2.58,-0.02646
2.584,0.04255
2.588,0.00808
2.592,0.03991
2.596,0.06303
2.6,0.05106
2.604,-0.06247
2.608,0.01341
2.612,0.04591
2.616,0.03423
2.62,0.01208
2.624,-0.03799
2.628,0.01214
2.632,0.00292
2.636,-0.00045
2.64,-0.04624
2.644,0.04324
2.648,0.07446
2.652,0.02939
2.656,0.02305
2.66,-0.00795
2.664,-0.0259
2.668,-0.03448
2.672,0.01332
2.676,0.00081
2.68,-0.00061
2.684,-0.05478
2.688,0.02299
2.692,0.03751
2.696,0.07564
2.7,0.03458
2.704,0.01097
2.708,-0.02282
2.712,0.05485
2.716,-0.00674
2.72,0.0271
2.724,0.06399
2.728,-0.00806
2.732,0.04673
2.736,0.02708
2.74,0.00775
2.744,-0.00097
2.748,0.08858
2.752,0.11132
2.756,0.00313
2.76,0.06962
2.764,0.11158
2.768,0.07969
2.772,0.03881
2.776,0.1316
2.78,0.11277
2.784,0.16734
2.788,0.08233
2.792,0.04107
2.796,0.04845
2.8,0.07543
2.804,0.06889
2.808,0.09626
2.812,0.05149
2.816,0.06456
2.82,0.08149
2.824,0.08191
2.828,-0.00255
2.832,-0.00358
2.836,-0.0082
2.84,0.02661
2.844,0.00272
2.848,0.02069
2.852,0.02391
2.856,0.01116
2.86,-0.01095
2.864,-0.03703
2.868,0.01026
2.872,-0.01161
2.876,0.01884
2.88,0.02381
2.884,0.03142
2.888,0.03877
2.892,0.04194
2.896,0.04112
2.9,-0.00225
2.904,-0.05791
2.908,-0.16539
2.912,-0.12327
2.916,-0.02971
2.92,0.06455
2.924,0.13376
2.928,0.40334
2.932,0.59033
2.936,0.87815
2.94,0.94344
2.944,1.04621
2.948,1.03939
2.952,0.79653
2.956,0.59754
2.96,0.39097
2.964,0.06671
2.968,-0.0259
2.972,-0.12883
2.976,-0.11565
2.98,-0.09888
2.984,-0.13047
2.988,-0.0512
2.992,-0.03937
2.996,-0.01858
3.0,0.05508
3.004,0.01243
3.008,-0.05481
3.012,-0.01671
3.016,0.02155
3.02,0.01612
3.024,-0.04127
3.028,0.00724
3.032,0.03701
3.036,-0.07776
3.04,0.01805
3.044,0.00898
3.048,-0.01401
3.052,0.06329
3.056,0.00774
3.06,0.02582
3.064,0.00058
3.068,-0.01614
3.072,0.00312
3.076,0.01146
3.08,-0.01011
3.084,-0.01142
3.088,0.0451
3.092,0.0348
3.096,0.10348
3.1,-0.01154
3.104,-0.03768
3.108,0.05291
3.112,0.0229
3.116,0.09296
3.12,0.12037
3.124,-0.03499
3.128,0.08219
3.132,0.0427
3.136,0.05101
3.14,0.05207
3.144,0.08221
3.148,0.1109
3.152,-0.01603
3.156,0.09728
3.16,0.0047
3.164,0.09142
3.168,0.08161
3.172,0.06802
3.176,0.17566
3.18,0.1333
3.184,0.13967
3.188,0.24565
3.192,0.20249
3.196,0.20318
3.2,0.25408
3.204,0.24469
3.208,0.2544
3.212,0.23789
3.216,0.22172
3.22,0.28386
3.224,0.28866
3.228,0.28522
3.232,0.19055
3.236,0.29857
3.24,0.29036
3.244,0.25037
3.248,0.21785
3.252,0.21817
3.256,0.24292
3.26,0.19269
3.264,0.12186
3.268,0.20315
3.272,0.1095
3.276,0.1337
3.28,0.12462
3.284,0.06376
3.288,0.11442
3.292,0.1365
3.296,0.06454
3.3,0.10507
3.304,0.01851
3.308,0.06324
3.312,0.08823
3.316,0.09599
3.32,0.078
3.324,0.01042
3.328,0.03424
3.332,0.04636
3.336,0.03133
3.34,0.06293
3.344,0.04565
3.348,0.02148
3.352,0.04679
3.356,-0.01654
3.36,0.01217
3.364,-0.04297
3.368,-0.01519
3.372,0.04934
3.376,-0.02457
3.38,0.01983
3.384,0.02059
3.388,0.02875
3.392,0.032
3.396,-0.00547
3.4,0.02212
3.404,0.06299
3.408,0.00431
3.412,0.0531
3.416,0.09598
3.42,0.00598
3.424,0.06839
3.428,0.08017
3.432,0.00373
3.436,0.0281
3.44,0.07466
3.444,0.05862
3.448,0.02774
3.452,0.10587
3.456,0.11783
3.46,0.05314
3.464,0.12936
3.468,0.14296
3.472,0.08301
3.476,0.10295
3.48,0.14151
3.484,0.11654
3.488,0.07771
3.492,0.16992
3.496,0.10291
3.5,0.01183
3.504,0.11043
3.508,0.09124
3.512,0.06921
3.516,-0.02054
3.52,0.0737
3.524,-0.00692
3.528,0.08128
3.532,0.03597
3.536,0.0595
3.54,-0.01378
3.544,0.03153
3.548,0.04071
3.552,0.02149
3.556,-0.0038
3.56,0.13927
3.564,0.05774
3.568,0.02523
3.572,-0.03033
3.576,0.06917
3.58,0.02886
3.584,0.04495
3.588,-0.03079
3.592,0.04222
3.596,0.02105
3.6,0.0497
3.604,-0.05247
3.608,-0.07374
3.612,-0.11514
3.616,0.00536
3.62,0.13161
3.624,0.39794
3.628,0.54196
3.632,0.82014
3.636,0.9774
3.64,0.98445
3.644,1.00462
3.648,0.80884
3.652,0.66997
3.656,0.37342
3.66,0.22719
3.664,0.06289
3.668,-0.09593
3.672,-0.13963
3.676,-0.09448
3.68,-0.02528
3.684,-0.07046
3.688,-0.02712
3.692,0.09534
3.696,-0.04479
3.7,-0.00411
3.704,0.00237
3.708,0.01022
3.712,0.02704
3.716,0.02373
3.72,0.00335
3.724,0.05026
3.728,0.01691
3.732,0.08661
3.736,0.02134
3.74,0.02602
3.744,0.06343
3.748,0.06234
3.752,0.06106
3.756,0.0128
3.76,0.01677
3.764,0.0004
3.768,0.00718
3.772,0.03577
3.776,-0.00087
3.78,-0.01373
3.784,0.0888
3.788,0.02514
3.792,0.07289
3.796,0.00343
3.8,0.03727
3.804,0.03853
3.808,0.06398
3.812,0.04386
3.816,0.00979
3.82,0.00672
3.824,0.11152
3.828,0.08147
3.832,0.0067
3.836,0.11823
3.84,0.10159
3.844,0.09113
3.848,0.06645
3.852,0.10618
3.856,0.15617
3.86,0.1237
3.864,0.07623
3.868,0.12832
3.872,0.21063
3.876,0.20168
3.88,0.16653
3.884,0.164
3.888,0.19732
3.892,0.20498
3.896,0.24303
3.9,0.27767
3.904,0.23486
3.908,0.21052
3.912,0.20271
3.916,0.27039
3.92,0.22722
3.924,0.22884
3.928,0.25625
3.932,0.23423
3.936,0.27697
3.94,0.2695
3.944,0.32697
3.948,0.28228
3.952,0.19326
3.956,0.20681
3.96,0.15691
3.964,0.11389
3.968,0.09814
3.972,0.13108
3.976,0.08948
3.98,0.1314
3.984,0.15631
3.988,0.19205
3.992,0.07071
3.996,0.12376
4.0,0.05833
4.004,0.06016
4.008,-0.00555
4.012,0.02957
4.016,0.05589
4.02,0.0152
4.024,0.02269
4.028,-0.02234
4.032,-0.07255
4.036,0.01917
4.04,0.04838
4.044,0.06925
4.048,0.00939
4.052,0.00828
4.056,0.02865
4.06,0.01329
4.064,-0.0044
4.068,0.04638
4.072,0.01901
4.076,0.02632
4.08,0.01559
4.084,0.12744
4.088,-0.03058
4.092,0.05974
4.096,0.02126
4.1,0.00247
4.104,0.09732
4.108,0.01068
4.112,0.04466
4.116,0.08215
4.12,0.07001
4.124,-0.01406
4.128,-0.04818
4.132,0.04804
4.136,0.08813
4.14,0.07082
4.144,0.01678
4.148,0.0552
4.152,-0.0521
4.156,0.05129
4.16,-0.02877
4.164,-0.00415
4.168,0.00987
4.172,0.02357
4.176,0.06464
4.18,0.04948
4.184,0.10574
4.188,0.02295
4.192,0.03131
4.196,-0.00212
4.2,0.06437
4.204,0.09244
4.208,0.04657
4.212,0.15483
4.216,0.04955
4.22,0.03751
4.224,0.06603
4.228,0.12274
4.232,0.12796
4.236,0.10105
4.24,0.18205
4.244,0.12447
4.248,0.09126
4.252,0.11111
4.256,0.09741
4.26,0.10637
4.264,0.08577
4.268,0.11441
4.272,0.12044
4.276,0.13705
4.28,0.03771
4.284,0.04038
4.288,0.03397
4.292,0.01659
4.296,-0.00635
4.3,0.01906
4.304,-0.03431
4.308,0.07173
4.312,0.02931
4.316,0.02397
4.32,0.01229
4.324,0.05588
4.328,0.06646
4.332,0.02627
4.336,0.02559
4.34,0.00253
4.344,0.01563
4.348,-0.04565
4.352,0.06229
4.356,-0.00178
4.36,0.03248
4.364,-0.01582
4.368,-0.13295
4.372,-0.06698
4.376,-0.13625
4.38,-0.06787
4.384,0.10192
4.388,0.20307
4.392,0.43616
4.396,0.72761
4.4,0.78342
4.404,0.96123
4.408,0.99515
4.412,0.97522
4.416,0.77998
4.42,0.65935
4.424,0.37973
4.428,0.18662
4.432,-0.01121
4.436,-0.13822
4.44,-0.19563
4.444,-0.17317
4.448,-0.09337
4.452,-0.08354
4.456,-0.00568
4.46,0.01365
4.464,0.01976
4.468,0.00268
4.472,-0.01701
4.476,0.01557
4.48,0.05805
4.484,0.0963
4.488,0.04746
4.492,0.0183
4.496,0.03432
4.5,0.0246
4.504,-0.04984
4.508,0.02111
4.512,0.03018
4.516,0.00761
4.52,0.06313
4.524,-0.00676
4.528,0.04675
4.532,0.03584
4.536,0.02189
4.54,0.04987
4.544,0.06504
4.548,-0.06127
4.552,0.01882
4.556,0.04187
4.56,0.00571
4.564,-0.00094
4.568,0.01904
4.572,0.02248
4.576,0.01558
4.58,0.04157
4.584,-0.00881
4.588,0.0994
4.592,0.0138
4.596,0.0425
4.6,0.03868
4.604,0.0521
4.608,0.04059
4.612,0.1286
4.616,0.04585
4.62,0.14593
4.624,0.08148
4.628,0.09795
4.632,0.09091
4.636,0.16577
4.64,0.15682
4.644,0.12184
4.648,0.20493
4.652,0.18879
4.656,0.17672
4.66,0.2387
4.664,0.2883
4.668,0.21219
4.672,0.22766
4.676,0.22225
4.68,0.26748
4.684,0.22428
4.688,0.27669
4.692,0.19729
4.696,0.28068
4.7,0.2637
4.704,0.21267
4.708,0.26714
4.712,0.2421
4.716,0.22454
4.72,0.20696
4.724,0.19302
4.728,0.17136
4.732,0.17385
4.736,0.10987
4.74,0.186
4.744,0.20745
4.748,0.05082
4.752,0.03687
4.756,0.0781
4.76,0.11797
4.764,0.05612
4.768,0.05124
4.772,0.055
4.776,0.04516
4.78,0.02408
4.784,0.10502
4.788,0.0183
4.792,0.02766
4.796,0.04357
4.8,0.04681
4.804,0.044
4.808,0.01997
4.812,0.0264
4.816,0.0269
4.82,0.09104
4.824,0.01327
4.828,0.06061
4.832,-0.03353
4.836,0.05901
4.84,-0.03239
4.844,0.03087
4.848,0.04279
4.852,0.06531
4.856,-0.0012
4.86,-0.01132
4.864,0.03988
4.868,0.04208
4.872,-0.01232
4.876,-0.03684
4.88,0.03268
4.884,0.045
4.888,0.01989
4.892,0.04417
4.896,0.08001
4.9,0.00701
4.904,-0.0041
4.908,0.05408
4.912,0.05926
4.916,0.00315
4.92,0.06786
4.924,0.15577
4.928,0.07274
4.932,0.07004
4.936,0.07043
4.94,0.1122
4.944,0.11094
4.948,0.09378
4.952,0.13259
4.956,0.13994
4.96,0.10058
4.964,0.09856
4.968,0.04976
4.972,-0.00699
4.976,0.06209
4.98,0.03041
4.984,-0.00342
4.988,-0.00167
4.992,0.07146
4.996,0.00901
5.0,-0.00048
5.004,0.04418
5.008,0.02443
5.012,-0.03803
5.016,0.00103
5.02,0.03951
5.024,-0.02995
5.028,0.07304
5.032,0.01489
5.036,0.01887
5.04,-0.01591
5.044,-0.01041
5.048,0.0339
5.052,-0.04868
5.056,0.02033
5.06,-0.01804
5.064,-0.12788
5.068,-0.15682
5.072,-0.14636
5.076,-0.09326
5.08,0.07992
5.084,0.18386
5.088,0.47415
5.092,0.5967
5.096,0.81421
5.1,0.95248
5.104,1.02178
5.108,0.93374
5.112,0.78984
5.116,0.54751
5.12,0.30294
5.124,0.06935
5.128,-0.01372
5.132,-0.20329
5.136,-0.22249
5.14,-0.14859
5.144,-0.12294
5.148,-0.04415
5.152,-0.04689
5.156,-0.05418
5.16,-0.00281
5.164,-0.01252
5.168,-0.03247
5.172,0.00731
5.176,0.07253
5.18,0.01716
5.184,0.07602
5.188,0.01597
5.192,0.01583
5.196,-0.0248
5.2,0.05188
5.204,-0.01349
5.208,-0.02847
5.212,0.01859
5.216,0.01934
5.22,-0.00975
5.224,0.01607
5.228,-0.00639
5.232,-0.02337
5.236,0.07309
5.24,-0.07577
5.244,0.01499
5.248,0.0106
5.252,0.01723
5.256,0.00337
5.26,-0.02767
5.264,-0.03267
5.268,0.06581
5.272,0.04549
5.276,-0.04327
5.28,0.05686
5.284,0.05846
5.288,0.03819
5.292,0.06138
5.296,0.03372
5.3,0.05442
5.304,0.09207
5.308,0.06363
5.312,0.06429
5.316,0.07717
5.32,0.1156
5.324,0.16984
5.328,0.13726
5.332,0.24394
5.336,0.23538
5.34,0.23367
5.344,0.22775
5.348,0.30408
5.352,0.31276
5.356,0.25099
5.36,0.26786
5.364,0.2199
5.368,0.3087
5.372,0.28993
5.376,0.22135
5.38,0.26036
5.384,0.22743
5.388,0.23913
5.392,0.24727
5.396,0.20787
5.4,0.19874
5.404,0.18038
5.408,0.19412
5.412,0.17299
5.416,0.12697
5.42,0.25002
5.424,0.15565
5.428,0.09612
5.432,0.14504
5.436,0.06392
5.44,0.12434
5.444,0.05744
5.448,0.06265
5.452,0.08778
5.456,0.0084
5.46,0.06837
5.464,0.04214
5.468,-0.05116
5.472,-0.04921
5.476,-0.09663
5.48,-0.02159
5.484,0.09549
5.488,0.25441
5.492,0.42566
5.496,0.65991
5.5,0.79597
5.504,1.00077
5.508,1.02553
5.512,0.86361
5.516,0.82758
5.52,0.50145
5.524,0.33369
5.528,0.12009
5.532,-0.10397
5.536,-0.15628
5.54,-0.14084
5.544,-0.09786
5.548,-0.10975
5.552,-0.10538
5.556,-0.0846
5.56,-0.03803
5.564,0.04196
5.568,-0.0181
5.572,-0.01217
5.576,0.0242
5.58,-0.03605
5.584,0.01223
5.588,0.01559
5.592,-0.0436
5.596,-0.00314
5.6,0.02423
5.604,-0.04834
5.608,0.0
5.612,-0.00575
5.616,0.01306
5.62,0.01211
5.624,0.0369
5.628,0.03364
5.632,-0.03846
5.636,0.00584
5.64,-0.0054
5.644,0.01229
5.648,-0.00247
5.652,-0.0203
5.656,-0.0525
5.66,0.00364
5.664,0.01401
5.668,-0.02692
5.672,-0.01372
5.676,0.05152
5.68,-0.01714
5.684,0.0434
5.688,0.00666
5.692,-0.03407
5.696,0.00104
5.7,0.0182
5.704,0.05336
5.708,0.02609
5.712,0.01821
5.716,0.13633
5.72,0.05391
5.724,0.06223
5.728,0.0431
5.732,0.16523
5.736,0.11719
5.74,0.06169
5.744,0.07896
5.748,0.16506
5.752,0.20762
5.756,0.15575
5.76,0.21761
5.764,0.13611
5.768,0.19578
5.772,0.1639
5.776,0.22902
5.78,0.21311
5.784,0.23191
5.788,0.22802
5.792,0.28338
5.796,0.26473
5.8,0.18973
5.804,0.21951
5.808,0.19898
5.812,0.18787
5.816,0.18028
5.82,0.14033
5.824,0.14404
5.828,0.07009
5.832,0.13701
5.836,0.12863
5.84,0.15548
5.844,0.15939
5.848,0.02676
5.852,0.0541
5.856,0.07111
5.86,0.07751
5.864,0.04346
5.868,0.03296
5.872,0.01082
5.876,-0.02806
5.88,0.00214
5.884,-0.05743
5.888,0.04899
5.892,-0.04715
5.896,0.02354
5.9,0.01381
5.904,-0.02234
5.908,-0.03121
5.912,0.03324
5.916,-0.05225
5.92,-0.02939
5.924,0.00472
5.928,-0.08318
5.932,-0.02911
5.936,0.0308
5.94,-0.01172
5.944,-0.00264
5.948,-0.05924
5.952,-0.03054
5.956,0.04555
5.96,-0.06495
5.964,0.00123
5.968,-4e-05
5.972,-0.00842
5.976,-0.03235
5.98,0.00448
5.984,0.00138
5.988,-0.05844
5.992,0.0003
5.996,0.0495
6.0,-0.03754
6.004,0.00814
6.008,0.01221
6.012,-0.08385
6.016,-0.048
6.02,-0.01668
6.024,-0.01641
6.028,-0.03346
6.032,-0.02352
6.036,0.06917
6.04,-0.0429
6.044,0.01694
6.048,0.00787
6.052,-0.03053
6.056,-0.02516
6.06,-0.04874
6.064,-0.02316
6.068,-0.05188
6.072,-0.01324
6.076,-0.01784
6.08,0.01292
6.084,0.01727
6.088,-0.00975
6.092,-0.00197
6.096,-0.04739
6.1,-0.04735
6.104,-0.07054
6.108,-0.02279
6.112,-0.05321
6.116,-0.07944
6.12,-0.10239
6.124,0.01954
6.128,-0.06797
6.132,-0.0231
6.136,-0.04302
6.14,-0.00139
6.144,0.01324
6.148,-0.07154
6.152,-0.03929
6.156,-0.00822
6.16,0.06641
6.164,-0.02996
6.168,0.01351
6.172,0.02925
6.176,0.09979
6.18,0.11378
6.184,0.13184
6.188,0.05978
6.192,0.12613
6.196,0.02743
6.2,0.06317
6.204,0.03939
6.208,0.01833
6.212,-0.00536
6.216,-0.0033
6.22,-0.00391
6.224,0.01454
6.228,-0.01881
6.232,-0.07118
6.236,0.01544
6.24,0.01073
6.244,0.0095
6.248,0.03772
6.252,-0.03641
6.256,-0.04765
6.26,-0.02298
6.264,0.03555
6.268,-0.01675
6.272,0.03373
6.276,0.0085
6.28,0.03579
6.284,-0.01722
6.288,-0.02656
6.292,0.03999
6.296,-0.07333
6.3,-0.05936
6.304,-0.04993
6.308,-0.02634
6.312,-0.11153
6.316,-0.19542
6.32,-0.17074
6.324,-0.09311
6.328,0.01099
6.332,0.24781
6.336,0.47246
6.34,0.59691
6.344,0.86126
6.348,0.95107
6.352,0.96448
6.356,0.83592
6.36,0.68284
6.364,0.40833
6.368,0.23264
6.372,0.03307
6.376,-0.0698
6.38,-0.15035
6.384,-0.16992
6.388,-0.15124
6.392,-0.14089
6.396,-0.11822
6.4,-0.06073
6.404,-0.07226
6.408,0.02548
6.412,-0.01265
6.416,-0.05073
6.42,-0.04321
6.424,0.01255
6.428,0.0112
6.432,0.01019
6.436,-0.00383
6.44,-0.07549
6.444,-0.02843
6.448,0.01368
6.452,0.00465
6.456,-0.01795
6.46,-0.01635
6.464,0.01027
6.468,-0.02279
6.472,-0.02215
6.476,-0.00434
6.48,0.01197
6.484,-0.06453
6.488,-0.03486
6.492,0.00921
6.496,-0.01966
6.5,-0.02566
6.504,-0.00302
6.508,-0.00759
6.512,0.04883
6.516,-0.03783
6.52,-0.02795
6.524,0.00443
6.528,0.00895
6.532,0.00464
6.536,-0.04226
6.54,0.02546
6.544,-0.01034
6.548,-0.02818
6.552,0.00885
6.556,0.0001
6.56,0.02979
6.564,0.09322
6.568,0.03086
6.572,0.0184
6.576,0.05031
6.58,0.04628
6.584,0.10566
6.588,0.15616
6.592,0.13469
6.596,0.09946
6.6,0.06854
6.604,0.19197
6.608,0.22394
6.612,0.08558
6.616,0.15091
6.62,0.16834
6.624,0.21747
6.628,0.20818
6.632,0.25487
6.636,0.16675
6.64,0.22429
6.644,0.14859
6.648,0.15566
6.652,0.14203
6.656,0.16383
6.66,0.18117
6.664,0.16524
6.668,0.10924
6.672,0.10411
6.676,0.06484
6.68,0.1686
6.684,0.03381
6.688,0.14775
6.692,0.08894
6.696,0.0007
6.7,0.08244
6.704,-0.00842
6.708,-0.02616
6.712,0.04197
6.716,-0.00401
6.72,-0.03668
6.724,0.03188
6.728,0.02099
6.732,-0.07603
6.736,-0.03096
6.74,-0.0636
6.744,0.04936
6.748,0.00272
6.752,0.00289
6.756,-0.02819
6.76,-0.04203
6.764,-0.03304
6.768,-0.0103
6.772,-0.05262
6.776,-0.04094
6.78,-0.04843
6.784,-0.10491
6.788,-0.03746
6.792,-0.03125
6.796,-0.01868
6.8,-0.04469
6.804,-0.05384
6.808,-0.04843
6.812,0.04717
6.816,-0.06187
6.82,-0.02863
6.824,-0.03591
6.828,-0.02062
6.832,-0.06805
6.836,-0.08104
6.84,-0.0323
6.844,-0.02337
6.848,-0.01816
6.852,-0.02419
6.856,-0.00609
6.86,-0.00341
6.864,-0.02633
6.868,-0.06676
6.872,-0.01409
6.876,-0.01092
6.88,0.00233
6.884,0.01385
6.888,-0.0858
6.892,-0.01765
6.896,-0.01337
6.9,0.02113
6.904,-0.0685
6.908,-0.04862
6.912,-0.04858
6.916,0.00216
6.92,0.03557
6.924,-0.04738
6.928,-0.04148
6.932,-0.05231
6.936,-0.05791
6.94,-0.04291
6.944,-0.04703
6.948,-0.08566
6.952,0.00271
6.956,-0.07268
6.96,-0.02701
6.964,-0.05236
6.968,-0.07811
6.972,-0.02063
6.976,0.01834
6.98,-0.05532
6.984,0.03327
6.988,-0.08139
6.992,0.01176
6.996,0.07263
7.0,0.08609
7.004,0.0271
7.008,0.03985
7.012,0.01549
7.016,0.11194
7.02,0.04782
7.024,0.0639
7.028,0.08791
7.032,0.05181
7.036,0.07302
7.04,0.03303
7.044,0.02797
7.048,0.03064
7.052,-0.06128
7.056,0.04064
7.06,-0.03846
7.064,-0.01059
7.068,-0.08109
7.072,0.02189
7.076,-0.08182
7.08,-0.04542
7.084,0.02058
7.088,-0.01743
7.092,-0.0033
7.096,-0.0456
7.1,-0.0831
7.104,-0.04259
7.108,-0.01554
7.112,-0.01193
7.116,-0.06372
7.12,-3e-05
7.124,-0.08779
7.128,0.02105
7.132,-0.03886
7.136,-0.02935
7.14,-0.0662
7.144,-0.07823
7.148,-0.14082
7.152,-0.12865
7.156,-0.08871
7.16,-0.04656
7.164,0.14879
7.168,0.33717
7.172,0.45603
7.176,0.68422
7.18,0.88595
7.184,0.92762
7.188,0.96137
7.192,0.80698
7.196,0.61844
7.2,0.34431
7.204,0.10584
7.208,0.0034
7.212,-0.11393
7.216,-0.1974
7.22,-0.17779
7.224,-0.16286
7.228,-0.11514
7.232,-0.05575
7.236,-0.05711
7.24,-0.04499
7.244,-0.04351
7.248,-0.08517
7.252,-0.01725
7.256,-0.0284
7.26,-0.01011
7.264,-0.01708
7.268,-0.03538
7.272,0.03696
7.276,0.02006
7.28,-0.08754
7.284,-0.03353
7.288,-0.04999
7.292,0.00814
7.296,-0.03741
7.3,0.00545
7.304,-0.0541
7.308,0.01684
7.312,0.01116
7.316,-0.02409
7.32,-0.02787
7.324,0.01151
7.328,-0.05483
7.332,-0.00613
7.336,0.01001
7.34,-0.02014
7.344,0.00268
7.348,-0.03123
7.352,-0.04558
7.356,-0.04882
7.36,-0.00884
7.364,0.02997
7.368,0.02908
7.372,0.03042
7.376,0.0254
7.38,0.00649
7.384,-0.06172
7.388,0.05769
7.392,0.01236
7.396,0.01392
7.4,0.04515
7.404,0.07852
7.408,0.06568
7.412,0.07178
7.416,0.12189
7.42,0.13389
7.424,0.063
7.428,0.1793
7.432,0.13171
7.436,0.14155
7.44,0.2112
7.444,0.1462
7.448,0.16714
7.452,0.21463
7.456,0.20175
7.46,0.15841
7.464,0.19049
7.468,0.20433
7.472,0.24625
7.476,0.20467
7.48,0.20198
7.484,0.18387
7.488,0.19843
7.492,0.17591
7.496,0.14823
7.5,0.13852
7.504,0.17067
7.508,0.1272
7.512,0.05543
7.516,0.06027
7.52,0.07302
7.524,0.06126
7.528,0.04272
7.532,0.04024
7.536,-0.05525
7.54,0.04129
7.544,0.03696
7.548,0.00429
7.552,0.06431
7.556,-0.02686
7.56,0.01411
7.564,-0.02085
7.568,0.02197
7.572,-0.01446
7.576,-0.00393
7.58,-0.02501
7.584,-0.01281
7.588,-0.02847
7.592,-0.03241
7.596,-0.0575
7.6,0.01262
7.604,-0.04856
7.608,-0.05626
7.612,0.01552
7.616,-0.00845
7.62,0.00188
7.624,-0.07345
7.628,-0.06199
7.632,-0.06307
7.636,-0.04559
7.64,0.02474
7.644,-0.00388
7.648,-0.06642
7.652,-0.07682
7.656,-0.05918
7.66,-0.02592
7.664,-0.02969
7.668,0.02525
7.672,-0.03565
7.676,0.00549
7.68,-0.0043
7.684,0.04267
7.688,0.00918
7.692,-0.10213
7.696,-0.01495
7.7,-0.02874
7.704,-0.04085
7.708,-0.01647
7.712,-0.00527
7.716,-0.00995
7.72,-0.06572
7.724,-0.05462
7.728,-0.08969
7.732,-0.08408
7.736,-0.00362
7.74,-2e-05
7.744,-0.03319
7.748,-0.04269
7.752,-0.04335
7.756,-0.00872
7.76,-0.05316
7.764,-0.05367
7.768,-0.0357
7.772,0.01629
7.776,-0.03866
7.78,0.02182
7.784,-0.0412
7.788,-0.04613
7.792,-0.10709
7.796,-0.00543
7.8,-0.00804
7.804,0.02929
7.808,-0.02135
7.812,-0.04045
7.816,-0.02362
7.82,-0.07552
7.824,-0.11506
7.828,-0.05262
7.832,-0.02781
7.836,-0.00952
7.84,-0.05248
7.844,0.02842
7.848,-0.01514
7.852,0.00541
7.856,-0.02657
7.86,0.0534
7.864,-0.05189
7.868,-0.03676
7.872,-0.00458
7.876,-0.00849
7.88,0.01075
7.884,-0.07343
7.888,-0.03722
7.892,-0.00041
7.896,-0.05382
7.9,-0.03653
7.904,0.00879
7.908,-0.00115
7.912,-0.02831
7.916,-0.0644
7.92,-0.00331
7.924,-0.04987
7.928,-0.02954
7.932,-0.00816
7.936,0.01714
7.94,-0.05252
7.944,-0.06582
7.948,-0.05578
7.952,-0.00965
7.956,-0.00832
7.96,-0.00806
7.964,-0.00368
7.968,-0.00097
7.972,0.03701
7.976,-0.01782
7.98,0.02054
7.984,-0.03995
7.988,0.0208
7.992,0.01654
7.996,0.00607
8.0,-0.02174
8.004,-0.08631
8.008,-0.08194
8.012,-0.02254
8.016,-0.02553
8.02,0.02429
8.024,-0.02028
8.028,0.00877
8.032,0.04789
8.036,0.01249
8.04,0.08346
8.044,0.07995
8.048,0.1257
8.052,0.14451
8.056,0.02952
8.06,0.12264
8.064,0.02266
8.068,0.05203
8.072,0.09534
8.076,0.04939
8.08,0.03259
8.084,0.05154
8.088,0.04396
8.092,-0.03914
8.096,0.03121
8.1,0.04082
8.104,0.02686
8.108,-0.01196
8.112,0.04431
8.116,-0.066
8.12,-0.05136
8.124,-0.00799
8.128,-0.01493
8.132,-0.01634
8.136,-0.00411
8.14,-0.01667
8.144,3e-05
8.148,0.00727
8.152,0.01455
8.156,-0.03065
8.16,0.00966
8.164,-0.04069
8.168,-0.08818
8.172,-0.0449
8.176,-0.06034
8.18,-0.16922
8.184,-0.07787
8.188,-0.12718
8.192,0.04321
8.196,0.23142
8.2,0.42223
8.204,0.60528
8.208,0.80732
8.212,0.9512
8.216,1.05424
8.22,0.93483
8.224,0.69644
8.228,0.54585
8.232,0.25465
8.236,0.08188
8.24,-0.12886
8.244,-0.16862
8.248,-0.17166
8.252,-0.19571
8.256,-0.11746
8.26,-0.09755
8.264,-0.05742
8.268,-0.01791
8.272,-0.02622
8.276,0.0024
8.28,-0.03096
8.284,0.03742
8.288,-0.00602
8.292,0.00871
8.296,0.00593
8.3,-0.04726
8.304,-0.02716
8.308,-0.09628
8.312,0.02167
8.316,-0.03824
8.32,-0.03047
8.324,0.03402
8.328,-0.02296
8.332,-0.00597
8.336,0.02458
8.34,0.02814
8.344,-0.03497
8.348,0.02541
8.352,-0.03118
8.356,-0.01519
8.36,-0.009
8.364,0.01332
8.368,-0.11651
8.372,-0.01179
8.376,-0.0452
8.38,-0.03138
8.384,0.01848
8.388,-0.01648
8.392,0.02725
8.396,0.01758
8.4,0.02728
8.404,0.03164
8.408,0.02232
8.412,-0.01382
8.416,0.03556
8.42,0.06545
8.424,0.05173
8.428,0.04674
8.432,0.03909
8.436,0.07421
8.44,0.05235
8.444,0.12656
8.448,0.15258
8.452,0.07307
8.456,0.10231
8.46,0.16615
8.464,0.15951
8.468,0.17135
8.472,0.24847
8.476,0.18961
8.48,0.16465
8.484,0.22586
8.488,0.25543
8.492,0.18633
8.496,0.2739
8.5,0.19597
8.504,0.2183
8.508,0.2326
8.512,0.19119
8.516,0.21712
8.52,0.20337
8.524,0.16835
8.528,0.10331
8.532,0.19152
8.536,0.14926
8.54,0.14195
8.544,0.07889
8.548,0.09582
8.552,0.14538
8.556,0.14081
8.56,0.1047
8.564,0.03185
8.568,0.00794
8.572,0.03266
8.576,0.08037
8.58,-0.01531
8.584,-0.0041
8.588,0.08271
8.592,0.0026
8.596,0.03243
8.6,-0.00172
8.604,0.00713
8.608,-0.0507
8.612,-0.00965
8.616,0.01741
8.62,0.02996
8.624,0.04049
8.628,0.0313
8.632,0.03618
8.636,-0.04495
8.64,0.01539
8.644,-0.01775
8.648,0.02998
8.652,0.03494
8.656,0.02316
8.66,0.0272
8.664,0.01485
8.668,0.0156
8.672,0.06986
8.676,0.01354
8.68,0.03934
8.684,0.00542
8.688,0.07244
8.692,-0.0096
8.696,-0.00896
8.7,0.03153
8.704,-0.01401
8.708,-0.02251
8.712,0.02026
8.716,-0.00975
8.72,0.00508
8.724,0.03181
8.728,-0.048
8.732,-0.04665
8.736,-0.00616
8.74,-0.00105
8.744,-0.03731
8.748,-0.0231
8.752,0.01503
8.756,-0.03943
8.76,-0.00234
8.764,-0.0086
8.768,0.06258
8.772,0.02307
8.776,0.01083
8.78,0.01809
8.784,-0.02983
8.788,-0.06023
8.792,-0.02525
8.796,-0.01744
8.8,-0.00266
8.804,-0.00246
8.808,-0.02875
8.812,-0.0077
8.816,-0.00462
8.82,-0.00389
8.824,-0.05017
8.828,0.04535
8.832,-0.00394
8.836,0.04105
8.84,0.02695
8.844,0.01156
8.848,0.01108
8.852,0.05039
8.856,0.02805
8.86,-0.00755
8.864,0.00213
8.868,0.08175
8.872,0.04503
8.876,-0.00259
8.88,-0.03376
8.884,-0.00279
8.888,0.0034
8.892,0.00819
8.896,-0.01265
8.9,0.02448
8.904,-0.00495
8.908,-0.05151
8.912,0.01206
8.916,-0.00649
8.92,-0.03416
8.924,0.01505
8.928,0.02937
8.932,0.01598
8.936,0.00277
8.94,0.01876
8.944,-0.04245
8.948,0.03115
8.952,-0.03418
8.956,0.06586
8.96,0.012
8.964,0.01055
8.968,-0.02586
8.972,0.00605
8.976,-0.00684
8.98,-0.039
8.984,0.03333
8.988,-0.01702
8.992,0.06073
8.996,-0.00387
9.0,0.02935
9.004,-0.03373
9.008,0.02824
9.012,0.08546
9.016,-0.00913
9.02,0.07079
9.024,-0.00572
9.028,0.01005
9.032,-0.00422
9.036,-0.05189
9.04,0.02136
9.044,0.00886
9.048,-0.02957
9.052,0.06489
9.056,0.00853
9.06,0.02214
9.064,0.08422
9.068,0.04006
9.072,0.04303
9.076,0.03401
9.08,0.00722
9.084,0.0269
9.088,0.05013
9.092,0.08765
9.096,0.01716
9.1,0.01173
9.104,0.00823
9.108,-0.02115
9.112,-0.0426
9.116,0.02883
9.12,0.05945
9.124,-0.01194
9.128,-0.01473
9.132,-0.01891
9.136,0.01864
9.14,0.0037
9.144,0.06074
9.148,0.05552
9.152,0.06634
9.156,0.03263
9.16,-0.04704
9.164,0.02809
9.168,0.06964
9.172,-0.04702
9.176,-0.03887
9.18,0.04369
9.184,0.00373
9.188,0.03897
9.192,0.05175
9.196,0.01645
9.2,-0.00385
9.204,0.03834
9.208,0.00845
9.212,-0.01314
9.216,-0.06078
9.22,0.04794
9.224,0.02748
9.228,0.00314
9.232,-0.05368
9.236,-0.00314
9.24,0.06527
9.244,0.04658
9.248,0.02511
9.252,0.04865
9.256,-0.01836
9.26,0.00647
9.264,0.03503
9.268,0.07638
9.272,-0.02569
9.276,-0.0267
9.28,-0.01769
9.284,0.06361
9.288,0.01767
9.292,0.07935
9.296,0.08927
9.3,0.20307
9.304,0.06928
9.308,0.16469
9.312,0.12683
9.316,0.10284
9.32,0.09872
9.324,0.08559
9.328,0.10089
9.332,0.10564
9.336,0.04296
9.34,0.0674
9.344,0.0262
9.348,0.02296
9.352,0.06132
9.356,0.04629
9.36,0.09848
9.364,0.08681
9.368,0.06861
9.372,0.05138
9.376,0.00279
9.38,0.00398
9.384,0.00312
9.388,0.03866
9.392,-0.00027
9.396,0.07555
9.4,0.05827
9.404,0.0138
9.408,0.02447
9.412,0.05722
9.416,0.0768
9.42,0.05062
9.424,0.04607
9.428,0.00895
9.432,-0.02816
9.436,-0.0386
9.44,-0.0742
9.444,-0.10433
9.448,-0.08386
9.452,-0.07626
9.456,0.04943
9.46,0.13968
9.464,0.28012
9.468,0.55857
9.472,0.78838
9.476,0.96126
9.48,1.05355
9.484,0.96203
9.488,0.77576
9.492,0.59862
9.496,0.32424
9.5,0.18598
9.504,0.01522
9.508,-0.15338
9.512,-0.15902
9.516,-0.15181
9.52,-0.08473
9.524,-0.00675
9.528,0.0337
9.532,-0.00399
9.536,0.07694
9.54,0.0735
9.544,-0.00688
9.548,0.00967
9.552,0.0054
9.556,0.04998
9.56,0.01409
9.564,0.07371
9.568,0.01215
9.572,0.05535
9.576,0.03979
9.58,0.07822
9.584,0.03537
9.588,0.01013
9.592,-0.01139
9.596,0.11664
9.6,0.02707
9.604,0.06062
9.608,0.03707
9.612,0.04183
9.616,0.08659
9.62,0.01236
9.624,0.09353
9.628,-0.00028
9.632,0.08152
9.636,-0.00487
9.64,0.0397
9.644,0.02911
9.648,0.07409
9.652,0.07114
9.656,-0.03576
9.66,0.01813
9.664,0.01312
9.668,0.12496
9.672,0.00122
9.676,0.08979
9.68,0.097
9.684,0.03008
9.688,0.07242
9.692,0.14429
9.696,0.05359
9.7,0.17419
9.704,0.0504
9.708,0.14622
9.712,0.12153
9.716,0.172
9.72,0.10806
9.724,0.14076
9.728,0.19772
9.732,0.22306
9.736,0.19391
9.74,0.16117
9.744,0.2151
9.748,0.28973
9.752,0.23067
9.756,0.22179
9.76,0.22991
9.764,0.26814
9.768,0.25161
9.772,0.24439
9.776,0.29746
9.78,0.20866
9.784,0.22291
9.788,0.18545
9.792,0.1765
9.796,0.15591
9.8,0.14801
9.804,0.20598
9.808,0.09969
9.812,0.17985
9.816,0.1402
9.82,0.13989
9.824,0.16848
9.828,0.11514
9.832,0.03496
9.836,0.05003
9.84,-0.00283
9.844,0.0801
9.848,0.05958
9.852,0.04421
9.856,-0.01668
9.86,0.04326
9.864,0.04719
9.868,0.05327
9.872,0.03689
9.876,0.06231
9.88,0.02555
9.884,0.01415
9.888,0.01218
9.892,-0.02365
9.896,0.02157
9.9,0.10736
9.904,0.04451
9.908,0.0696
9.912,0.06072
9.916,0.04179
9.92,-0.01377
9.924,0.09432
9.928,0.04134
9.932,0.02746
9.936,0.07561
9.94,0.05549
9.944,0.06916
9.948,0.05642
9.952,0.07806
9.956,0.04209
9.96,-0.02637
9.964,0.07917
9.968,0.07298
9.972,0.05641
9.976,0.07269
9.98,0.03936
9.984,0.01526
9.988,-0.00879
9.992,-0.03293
9.996,-0.01595
