t_seg,ecg_mV
0.0,0.08093
0.004,0.07279
0.008,0.07638
0.012,0.06718
0.016,0.09342
0.02,0.04644
0.024,0.06469
0.028,0.02847
0.032,0.00215
0.036,0.02213
0.04,0.00702
0.044,0.00723
0.048,-0.01389
0.052,0.01362
0.056,0.00608
0.06,-0.00857
0.064,-0.03904
0.068,-0.0255
0.072,0.00729
0.076,-0.02308
0.08,-0.02306
0.084,-0.01764
0.088,-0.0042
0.092,-0.0571
0.096,-0.03045
0.1,-0.03899
0.104,-0.00694
0.108,-0.0211
0.112,-0.00376
0.116,-0.02719
0.12,-0.02969
0.124,-0.04693
0.128,-0.08675
0.132,-0.09669
0.136,-0.13011
0.14,-0.14653
0.144,-0.03494
0.148,0.0773
0.152,0.28869
0.156,0.51276
0.16,0.68465
0.164,0.85662
0.168,0.96066
0.172,0.96542
0.176,0.82179
0.18,0.62468
0.184,0.35287
0.188,0.1742
0.192,-0.0196
0.196,-0.13962
0.2,-0.17322
0.204,-0.22683
0.208,-0.15502
0.212,-0.12138
0.216,-0.09583
0.22,-0.03144
0.224,-0.04149
0.228,-0.02318
0.232,-0.01118
0.236,-0.01206
0.24,-0.026
0.244,-0.01726
0.248,-0.04166
0.252,-0.02211
0.256,-0.03317
0.26,0.01016
0.264,-0.0296
0.268,-0.00772
0.272,-0.02613
0.276,-0.02973
0.28,-0.03624
0.284,-0.01523
0.288,-0.01181
0.292,-0.03127
0.296,-0.02719
0.3,-0.01913
0.304,-0.02891
0.308,0.00192
0.312,-0.023
0.316,-0.02208
0.32,-0.01916
0.324,-0.02737
0.328,-0.01488
0.332,-0.01543
0.336,-0.04878
0.34,-0.01769
0.344,-0.00426
0.348,0.00768
0.352,-0.00087
0.356,-0.00331
0.36,-0.00201
0.364,0.00287
0.368,0.01396
0.372,0.0059
0.376,0.04326
0.38,0.04353
0.384,0.05752
0.388,0.04007
0.392,0.07917
0.396,0.10234
0.4,0.11353
0.404,0.13303
0.408,0.12383
0.412,0.11876
0.416,0.15177
0.42,0.17087
0.424,0.173
0.428,0.19399
0.432,0.179
0.436,0.20898
0.44,0.21359
0.444,0.19655
0.448,0.22495
0.452,0.19818
0.456,0.16855
0.46,0.21093
0.464,0.17216
0.468,0.18479
0.472,0.18161
0.476,0.17384
0.48,0.13844
0.484,0.16752
0.488,0.12829
0.492,0.12432
0.496,0.12479
0.5,0.08438
0.504,0.08558
0.508,0.09904
0.512,0.08378
0.516,0.04061
0.52,0.04273
0.524,0.04393
0.528,0.02745
0.532,0.02134
0.536,0.01764
0.54,0.01835
0.544,0.00114
0.548,-0.01115
0.552,-0.02367
0.556,0.01333
0.56,0.01377
0.564,-0.03442
0.568,0.011
0.572,-0.00196
0.576,-0.02743
0.58,0.00834
0.584,-0.02355
0.588,-0.01965
0.592,-0.02696
0.596,-0.01715
0.6,-0.01568
0.604,-0.00488
0.608,-0.03577
0.612,-0.02262
0.616,-0.03493
0.62,-0.01427
0.624,-0.01313
0.628,-0.01913
0.632,-0.00962
0.636,-0.03655
0.64,-0.00891
0.644,0.00268
0.648,-0.02286
0.652,-0.03776
0.656,0.01116
0.66,-0.00578
0.664,-0.00519
0.668,-0.03516
0.672,-0.02124
0.676,-0.02888
0.68,-0.00446
0.684,-0.02904
0.688,-0.0139
0.692,0.00101
0.696,-0.00826
0.7,-0.02209
0.704,0.00696
0.708,-0.03608
0.712,0.00784
0.716,-0.00653
0.72,0.00614
0.724,-0.01789
0.728,0.00798
0.732,0.03454
0.736,0.04122
0.74,0.06907
0.744,0.0732
0.748,0.0724
0.752,0.08726
0.756,0.08732
0.76,0.08378
0.764,0.08488
0.768,0.10211
0.772,0.07712
0.776,0.04207
0.78,0.05425
0.784,0.06311
0.788,-0.00015
0.792,0.02619
0.796,-0.00655
0.8,-0.00962
0.804,-0.00762
0.808,-0.0147
0.812,-0.00363
0.816,-0.01579
0.82,0.00039
0.824,-0.00972
0.828,-0.01749
0.832,0.00206
0.836,0.00523
0.84,-0.0029
0.844,-0.00303
0.848,0.00852
0.852,-0.02548
0.856,-0.01098
0.86,-0.01916
0.864,-0.00501
0.868,-0.02862
0.872,-0.02088
0.876,-0.03026
0.88,-0.07917
0.884,-0.13448
0.888,-0.09191
0.892,-0.07711
0.896,0.03404
0.9,0.22794
0.904,0.43149
0.908,0.65064
0.912,0.85337
0.916,0.9569
0.92,0.97361
0.924,0.85011
0.928,0.70181
0.932,0.44882
0.936,0.26049
0.94,0.05668
0.944,-0.09179
0.948,-0.1431
0.952,-0.17513
0.956,-0.15069
0.96,-0.12434
0.964,-0.06888
0.968,-0.04266
0.972,-0.00582
0.976,0.00201
0.98,-0.00367
0.984,0.00813
0.988,0.02512
0.992,0.00661
0.996,-0.00116
1.0,0.0101
1.004,-0.01557
1.008,-0.00591
1.012,-0.01559
1.016,0.00389
1.02,0.00938
1.024,-0.01015
1.028,-0.00727
1.032,-0.0039
1.036,-0.01187
1.04,-0.00895
1.044,-0.01496
1.048,0.00552
1.052,0.00076
1.056,-0.0112
1.06,0.01905
1.064,0.00034
1.068,-0.01959
1.072,-0.00827
1.076,0.01778
1.08,-0.03252
1.084,0.02465
1.088,-0.02313
1.092,-0.01227
1.096,0.00019
1.1,0.01372
1.104,0.02198
1.108,0.02167
1.112,0.01082
1.116,0.0132
1.12,0.0426
1.124,0.02596
1.128,0.06068
1.132,0.0712
1.136,0.09238
1.14,0.07925
1.144,0.09754
1.148,0.1399
1.152,0.13049
1.156,0.125
1.16,0.16024
1.164,0.15088
1.168,0.19485
1.172,0.1933
1.176,0.1963
1.18,0.20325
1.184,0.20594
1.188,0.23937
1.192,0.17282
1.196,0.21952
1.2,0.21783
1.204,0.20137
1.208,0.21563
1.212,0.20482
1.216,0.20065
1.22,0.18028
1.224,0.18126
1.228,0.16399
1.232,0.17329
1.236,0.14927
1.24,0.13414
1.244,0.13709
1.248,0.13199
1.252,0.09747
1.256,0.09143
1.26,0.0524
1.264,0.07367
1.268,0.07933
1.272,0.06572
1.276,0.0411
1.28,0.03744
1.284,0.04805
1.288,0.04419
1.292,-0.01267
1.296,0.02637
1.3,0.01138
1.304,0.04171
1.308,-0.01244
1.312,0.03228
1.316,0.00905
1.32,0.00669
1.324,0.0301
1.328,0.00335
1.332,0.00836
1.336,-0.01289
1.34,-0.00108
1.344,-0.00076
1.348,-0.00764
1.352,0.02186
1.356,0.02245
1.36,0.00557
1.364,-0.0088
1.368,0.01025
1.372,-0.00207
1.376,0.02271
1.38,-0.00196
1.384,0.03895
1.388,0.02077
1.392,0.01492
1.396,-0.02416
1.4,-0.02968
1.404,0.00338
1.408,0.00366
1.412,0.02084
1.416,0.00945
1.42,0.00289
1.424,0.0253
1.428,0.02333
1.432,0.00313
1.436,-0.00705
1.44,0.01535
1.444,0.00992
1.448,0.02656
1.452,-0.00281
1.456,-0.01116
1.46,-0.01373
1.464,0.01826
1.468,-0.0222
1.472,-0.01563
1.476,-0.00074
1.48,-0.02301
1.484,0.01017
1.488,0.01109
1.492,-0.01463
1.496,0.02049
1.5,0.02669
1.504,0.00274
1.508,-0.0046
1.512,-0.00258
1.516,-0.02342
1.52,0.00638
1.524,0.00455
1.528,0.00535
1.532,0.02155
1.536,-0.00062
1.54,-0.0095
1.544,0.0128
1.548,0.03401
1.552,0.01296
1.556,-0.01196
1.56,0.02119
1.564,0.01344
1.568,-0.00427
1.572,0.01081
1.576,-0.00694
1.58,0.00703
1.584,0.0262
1.588,-0.00096
1.592,0.01423
1.596,-0.01275
1.6,0.0115
1.604,-0.00625
1.608,0.00995
1.612,0.01056
1.616,0.03148
1.62,0.01291
1.624,0.00652
1.628,0.00616
1.632,0.02423
1.636,0.03927
1.64,0.01055
1.644,0.04448
1.648,0.03235
1.652,0.05007
1.656,0.06295
1.66,0.04815
1.664,0.09259
1.668,0.08712
1.672,0.10982
1.676,0.12888
1.68,0.12191
1.684,0.11189
1.688,0.09875
1.692,0.08269
1.696,0.07197
1.7,0.09769
1.704,0.07346
1.708,0.0376
1.712,0.04255
1.716,0.03167
1.72,0.03489
1.724,0.03964
1.728,0.01467
1.732,0.00446
1.736,0.03486
1.74,0.0124
1.744,-0.00265
1.748,0.03289
1.752,-0.00928
1.756,0.00286
1.76,0.00496
1.764,0.00669
1.768,-0.00185
1.772,-0.00069
1.776,0.02484
1.78,0.00408
1.784,0.04762
1.788,0.01471
1.792,-0.00047
1.796,-0.01552
1.8,-0.03149
1.804,-0.10183
1.808,-0.10808
1.812,-0.04776
1.816,0.02159
1.82,0.16182
1.824,0.37341
1.828,0.57391
1.832,0.76503
1.836,0.95492
1.84,0.99978
1.844,0.99742
1.848,0.84989
1.852,0.63465
1.856,0.3924
1.86,0.19414
1.864,-0.0156
1.868,-0.10256
1.872,-0.12264
1.876,-0.15262
1.88,-0.10423
1.884,-0.07545
1.888,-0.03681
1.892,-0.00853
1.896,0.00119
1.9,0.03213
1.904,0.01403
1.908,0.00561
1.912,0.01578
1.916,0.03965
1.92,0.04388
1.924,-0.00257
1.928,0.02238
1.932,0.00175
1.936,0.04452
1.94,0.03529
1.944,0.02244
1.948,0.01735
1.952,0.02484
1.956,0.00607
1.96,0.02154
1.964,0.0381
1.968,0.03178
1.972,-0.0029
1.976,0.05106
1.98,0.03925
1.984,0.02728
1.988,0.05097
1.992,0.04272
1.996,0.05895
2.0,0.04043
2.004,0.04359
2.008,0.02065
2.012,0.04494
2.016,0.05249
2.02,0.05611
2.024,0.02897
2.028,0.04273
2.032,0.05
2.036,0.09423
2.04,0.06495
2.044,0.09033
2.048,0.07373
2.052,0.10998
2.056,0.09377
2.06,0.12336
2.064,0.13461
2.068,0.1304
2.072,0.14841
2.076,0.14676
2.08,0.15541
2.084,0.1746
2.088,0.22645
2.092,0.20021
2.096,0.22529
2.1,0.2434
2.104,0.22878
2.108,0.23611
2.112,0.23359
2.116,0.22286
2.12,0.24522
2.124,0.27155
2.128,0.23472
2.132,0.25815
2.136,0.22469
2.14,0.24742
2.144,0.21428
2.148,0.19421
2.152,0.22261
2.156,0.19144
2.16,0.17385
2.164,0.15609
2.168,0.175
2.172,0.12949
2.176,0.11083
2.18,0.09994
2.184,0.12461
2.188,0.11436
2.192,0.08307
2.196,0.06488
2.2,0.07755
2.204,0.06245
2.208,0.04562
2.212,0.05775
2.216,0.05503
2.22,0.05956
2.224,0.04354
2.228,0.03001
2.232,0.01335
2.236,0.03555
2.24,0.0533
2.244,0.02934
2.248,0.0216
2.252,0.03382
2.256,0.02523
2.26,0.00889
2.264,0.00315
2.268,0.01327
2.272,0.0253
2.276,0.05512
2.28,0.04304
2.284,0.03436
2.288,0.0268
2.292,0.02156
2.296,0.04601
2.3,0.03038
2.304,0.03795
2.308,0.00064
2.312,0.01931
2.316,0.03394
2.32,0.00365
2.324,0.03159
2.328,0.03957
2.332,0.04942
2.336,0.03625
2.34,0.04217
2.344,0.01202
2.348,0.03704
2.352,0.01264
2.356,0.00531
2.36,0.01811
2.364,0.03092
2.368,0.02216
2.372,0.01742
2.376,0.03464
2.38,0.03111
2.384,0.03356
2.388,0.01974
2.392,0.04435
2.396,0.0103
2.4,0.02319
2.404,0.0114
2.408,0.02722
2.412,0.02738
2.416,0.03118
2.42,0.03496
2.424,0.03179
2.428,0.01156
2.432,0.02446
2.436,0.02663
2.44,0.03137
2.444,0.04396
2.448,0.01534
2.452,0.03596
2.456,0.01529
2.46,0.04018
2.464,0.02957
2.468,0.01604
2.472,0.03828
2.476,0.0786
2.48,0.0476
2.484,0.05117
2.488,0.02663
2.492,0.05702
2.496,0.03636
2.5,0.02308
2.504,0.04072
2.508,0.04014
2.512,0.07444
2.516,0.10357
2.52,0.08195
2.524,0.08991
2.528,0.11823
2.532,0.12927
2.536,0.12647
2.54,0.14372
2.544,0.11643
2.548,0.12866
2.552,0.10914
2.556,0.13019
2.56,0.06107
2.564,0.13481
2.568,0.08129
2.572,0.05278
2.576,0.05036
2.58,0.0414
2.584,0.04682
2.588,0.03459
2.592,0.04109
2.596,0.03379
2.6,0.01935
2.604,0.0481
2.608,0.04788
2.612,0.01599
2.616,0.0348
2.62,0.00987
2.624,0.04133
2.628,0.02095
2.632,0.02166
2.636,0.03683
2.64,0.01444
2.644,0.01571
2.648,0.02027
2.652,0.01176
2.656,0.03239
2.66,-0.0159
2.664,-0.0193
2.668,-0.06238
2.672,-0.10003
2.676,-0.05048
2.68,0.06409
2.684,0.24047
2.688,0.43294
2.692,0.64538
2.696,0.84037
2.7,1.00982
2.704,1.0126
2.708,0.96909
2.712,0.76629
2.716,0.59057
2.72,0.36465
2.724,0.15559
2.728,-0.01086
2.732,-0.10104
2.736,-0.13099
2.74,-0.12365
2.744,-0.0884
2.748,-0.02953
2.752,0.03494
2.756,0.01558
2.76,0.02146
2.764,0.00163
2.768,0.02126
2.772,0.05503
2.776,0.01832
2.78,0.03693
2.784,0.04574
2.788,0.04725
2.792,0.04704
2.796,0.00912
2.8,0.06055
2.804,0.01381
2.808,0.04586
2.812,0.03929
2.816,0.07816
2.82,0.01656
2.824,0.01649
2.828,0.02104
2.832,0.01666
2.836,0.01279
2.84,0.02845
2.844,0.05285
2.848,0.02216
2.852,0.05156
2.856,0.04887
2.86,0.05959
2.864,0.04551
2.868,0.03635
2.872,0.02818
2.876,0.04072
2.88,0.04832
2.884,0.06111
2.888,0.03927
2.892,0.06347
2.896,0.07198
2.9,0.06481
2.904,0.11046
2.908,0.09499
2.912,0.09053
2.916,0.10488
2.92,0.11989
2.924,0.10829
2.928,0.13499
2.932,0.15183
2.936,0.15314
2.94,0.17193
2.944,0.1841
2.948,0.1754
2.952,0.23695
2.956,0.2093
2.96,0.22958
2.964,0.2162
2.968,0.26019
2.972,0.2448
2.976,0.26478
2.98,0.24434
2.984,0.26197
2.988,0.2203
2.992,0.25974
2.996,0.22933
3.0,0.24881
3.004,0.18602
3.008,0.21189
3.012,0.19623
3.016,0.20808
3.02,0.18128
3.024,0.1862
3.028,0.18444
3.032,0.15214
3.036,0.15295
3.04,0.1205
3.044,0.08278
3.048,0.07903
3.052,0.1004
3.056,0.11196
3.06,0.09233
3.064,0.05908
3.068,0.03279
3.072,0.0534
3.076,0.05231
3.08,0.04432
3.084,0.05154
3.088,0.04833
3.092,0.06716
3.096,0.03244
3.1,0.04352
3.104,0.05536
3.108,0.02969
3.112,0.03751
3.116,0.04336
3.12,0.03828
3.124,0.00668
3.128,0.03235
3.132,0.00893
3.136,0.05833
3.14,0.03361
3.144,0.03476
3.148,0.04787
3.152,0.04063
3.156,0.01367
3.16,0.02033
3.164,0.01832
3.168,0.01476
3.172,0.0237
3.176,0.02814
3.18,0.02423
3.184,0.0279
3.188,0.04832
3.192,0.02117
3.196,0.00235
3.2,0.01275
3.204,0.02361
3.208,0.0164
3.212,0.01803
3.216,0.03071
3.22,0.0094
3.224,0.01556
3.228,0.03611
3.232,-0.00202
3.236,0.00958
3.24,0.0486
3.244,0.01305
3.248,-0.00062
3.252,0.04511
3.256,0.01654
3.26,0.05741
3.264,0.01412
3.268,0.05478
3.272,0.05651
3.276,0.01743
3.28,0.00385
3.284,0.02183
3.288,0.01025
3.292,0.04284
3.296,0.04135
3.3,0.01756
3.304,0.02331
3.308,0.02499
3.312,0.0149
3.316,0.02682
3.32,0.02718
3.324,0.01661
3.328,-0.00331
3.332,0.04004
3.336,0.01585
3.34,0.02584
3.344,0.03939
3.348,0.03266
3.352,0.02752
3.356,0.04913
3.36,0.01436
3.364,0.00942
3.368,0.01345
3.372,0.0415
3.376,0.01487
3.38,0.03285
3.384,0.02599
3.388,0.02071
3.392,0.06885
3.396,0.06338
3.4,0.01879
3.404,0.08161
3.408,0.04149
3.412,0.09174
3.416,0.10612
3.42,0.11063
3.424,0.10018
3.428,0.12468
3.432,0.14901
3.436,0.111
3.44,0.11302
3.444,0.08765
3.448,0.11283
3.452,0.07932
3.456,0.10885
3.46,0.06594
3.464,0.06439
3.468,0.06836
3.472,0.03613
3.476,0.01714
3.48,0.01891
3.484,0.01819
3.488,0.01488
3.492,0.04293
3.496,0.01291
3.5,-0.0134
3.504,0.04194
3.508,0.03729
3.512,0.0118
3.516,0.02315
3.52,0.03636
3.524,0.03399
3.528,0.02458
3.532,0.02175
3.536,0.03053
3.54,0.03469
3.544,0.00021
3.548,0.03703
3.552,-0.01484
3.556,-0.04168
3.56,-0.07271
3.564,-0.08201
3.568,-0.06814
3.572,0.02275
3.576,0.17804
3.58,0.37743
3.584,0.60693
3.588,0.8008
3.592,0.94944
3.596,1.02343
3.6,0.9413
3.604,0.84154
3.608,0.63066
3.612,0.39558
3.616,0.16153
3.62,0.02791
3.624,-0.08257
3.628,-0.14601
3.632,-0.12396
3.636,-0.12537
3.64,-0.05419
3.644,-0.02077
3.648,0.00826
3.652,-0.01858
3.656,0.02501
3.66,0.02601
3.664,0.05243
3.668,0.03977
3.672,0.0097
3.676,0.01679
3.68,0.01949
3.684,0.02786
3.688,0.04331
3.692,0.02808
3.696,0.03024
3.7,0.00046
3.704,0.05055
3.708,0.05298
3.712,0.00357
3.716,0.01865
3.72,0.01268
3.724,0.02048
3.728,0.0131
3.732,-0.02219
3.736,0.00934
3.74,0.03176
3.744,0.00866
3.748,0.01935
3.752,0.0246
3.756,0.01336
3.76,0.041
3.764,0.01667
3.768,0.00483
3.772,0.0454
3.776,0.04648
3.78,0.05881
3.784,0.05484
3.788,0.04191
3.792,0.08983
3.796,0.0596
3.8,0.08509
3.804,0.05106
3.808,0.08208
3.812,0.08239
3.816,0.11047
3.82,0.09083
3.824,0.14448
3.828,0.16484
3.832,0.15291
3.836,0.1627
3.84,0.17141
3.844,0.18289
3.848,0.20154
3.852,0.22254
3.856,0.19548
3.86,0.21221
3.864,0.22809
3.868,0.24564
3.872,0.23934
3.876,0.25507
3.88,0.23804
3.884,0.22008
3.888,0.2273
3.892,0.21143
3.896,0.19507
3.9,0.20723
3.904,0.19107
3.908,0.18632
3.912,0.17118
3.916,0.17062
3.92,0.16195
3.924,0.14465
3.928,0.13523
3.932,0.13912
3.936,0.09248
3.94,0.11523
3.944,0.06358
3.948,0.06996
3.952,0.06296
3.956,0.06423
3.96,0.04612
3.964,0.0477
3.968,0.03896
3.972,0.04477
3.976,0.05673
3.98,0.00345
3.984,0.03195
3.988,0.02571
3.992,0.03555
3.996,0.04095
4.0,-0.02003
4.004,0.03722
4.008,0.00891
4.012,0.02537
4.016,0.01995
4.02,0.03185
4.024,0.00441
4.028,0.01902
4.032,-0.00345
4.036,0.02535
4.04,0.02616
4.044,0.00311
4.048,0.01177
4.052,0.00217
4.056,0.01844
4.06,0.0119
4.064,0.01979
4.068,0.00266
4.072,-0.0128
4.076,-0.00795
4.08,0.01863
4.084,-0.00523
4.088,0.02434
4.092,0.01982
4.096,0.00279
4.1,-0.0038
4.104,0.02847
4.108,-0.00737
4.112,-0.01066
4.116,0.02579
4.12,0.03639
4.124,0.00256
4.128,0.03421
4.132,0.02514
4.136,0.01573
4.14,-0.00468
4.144,0.01931
4.148,-0.00753
4.152,0.00404
4.156,0.01779
4.16,0.00112
4.164,0.00579
4.168,0.02618
4.172,-0.00472
4.176,0.02448
4.18,-0.00547
4.184,0.01282
4.188,0.00142
4.192,0.0102
4.196,0.03046
4.2,0.035
4.204,-0.00129
4.208,0.01686
4.212,0.00842
4.216,0.00111
4.22,0.01663
4.224,-0.00806
4.228,-0.0114
4.232,-0.00502
4.236,0.00523
4.24,0.01737
4.244,0.00058
4.248,0.00044
4.252,-0.01747
4.256,0.0364
4.26,-0.01678
4.264,-0.01198
4.268,0.01769
4.272,0.00931
4.276,-0.00903
4.28,0.03346
4.284,0.00591
4.288,0.00758
4.292,0.04767
4.296,0.04999
4.3,0.08523
4.304,0.07593
4.308,0.09516
4.312,0.07654
4.316,0.08412
4.32,0.11614
4.324,0.09693
4.328,0.12079
4.332,0.10034
4.336,0.10475
4.34,0.09628
4.344,0.09969
4.348,0.04456
4.352,0.06061
4.356,0.04728
4.36,0.0243
4.364,0.00622
4.368,0.02217
4.372,0.00658
4.376,0.00221
4.38,0.01446
4.384,-0.00736
4.388,0.01065
4.392,0.01738
4.396,-0.00397
4.4,0.02236
4.404,0.02043
4.408,0.01175
4.412,0.03122
4.416,-0.01222
4.42,0.01962
4.424,-0.00356
4.428,0.00732
4.432,0.01623
4.436,-0.01362
4.44,-0.03551
4.444,-0.07313
4.448,-0.11273
4.452,-0.10187
4.456,-0.05355
4.46,0.04518
4.464,0.23867
4.468,0.42765
4.472,0.63868
4.476,0.82533
4.48,0.96956
4.484,0.99659
4.488,0.91714
4.492,0.7646
4.496,0.52875
4.5,0.30855
4.504,0.10465
4.508,-0.06939
4.512,-0.13386
4.516,-0.1801
4.52,-0.14958
4.524,-0.1091
4.528,-0.07393
4.532,-0.0404
4.536,-0.03981
4.54,-0.01197
4.544,0.03406
4.548,-0.00715
4.552,0.00816
4.556,-0.00448
4.56,-0.00106
4.564,-0.00729
4.568,0.00726
4.572,-0.00133
4.576,0.00528
4.58,0.0308
4.584,0.02122
4.588,0.01125
4.592,-0.01758
4.596,0.01325
4.6,-0.02545
4.604,-0.00498
4.608,0.01348
4.612,-0.01451
4.616,-0.00954
4.62,-0.00287
4.624,0.02208
4.628,-0.01004
4.632,0.01341
4.636,-0.00522
4.64,-0.00506
4.644,0.00418
4.648,-0.00465
4.652,0.02281
4.656,0.02749
4.66,0.02044
4.664,0.00879
4.668,0.0343
4.672,0.02512
4.676,0.04514
4.68,0.03474
4.684,0.04048
4.688,0.04784
4.692,0.05646
4.696,0.09311
4.7,0.08593
4.704,0.08366
4.708,0.09639
4.712,0.13671
4.716,0.10289
4.72,0.1258
4.724,0.13705
4.728,0.15
4.732,0.14929
4.736,0.16966
4.74,0.18027
4.744,0.1986
4.748,0.18888
4.752,0.22136
4.756,0.21425
4.76,0.2116
4.764,0.1933
4.768,0.21588
4.772,0.2262
4.776,0.21683
4.78,0.20052
4.784,0.17995
4.788,0.19697
4.792,0.16361
4.796,0.13157
4.8,0.16675
4.804,0.14323
4.808,0.14074
4.812,0.10511
4.816,0.12314
4.82,0.08292
4.824,0.07741
4.828,0.07597
4.832,0.0661
4.836,0.05093
4.84,0.02061
4.844,0.0476
4.848,0.05014
4.852,0.00243
4.856,0.04403
4.86,0.02355
4.864,0.01763
4.868,-0.01189
4.872,0.00544
4.876,0.02038
4.88,0.00573
4.884,-0.00055
4.888,-0.01594
4.892,-0.01231
4.896,-0.01965
4.9,0.00961
4.904,-0.0034
4.908,-0.00663
4.912,0.0034
4.916,-0.01411
4.92,-0.00076
4.924,-0.00013
4.928,-0.02
4.932,-0.00166
4.936,-0.03398
4.94,-0.007
4.944,-0.00687
4.948,-0.01726
4.952,-0.02468
4.956,-0.02536
4.96,-0.00302
4.964,-0.01723
4.968,-0.00058
4.972,-0.005
4.976,-0.01806
4.98,-0.01195
4.984,-0.00088
4.988,-0.00752
4.992,-0.01309
4.996,-0.00563
5.0,-0.01766
5.004,0.01016
5.008,0.0261
5.012,0.03028
5.016,0.01063
5.02,0.05466
5.024,0.04244
5.028,0.07999
5.032,0.07248
5.036,0.07394
5.04,0.10188
5.044,0.08133
5.048,0.09388
5.052,0.07918
5.056,0.06398
5.06,0.05492
5.064,0.03139
5.068,0.0144
5.072,0.00215
5.076,0.00325
5.08,0.01337
5.084,-0.00875
5.088,-0.02738
5.092,0.02049
5.096,-0.01374
5.1,0.00369
5.104,-0.00361
5.108,-0.01092
5.112,-0.01756
5.116,-0.01933
5.12,0.00041
5.124,-0.02989
5.128,0.00383
5.132,0.00926
5.136,-0.01897
5.14,-0.01678
5.144,-0.02719
5.148,-0.02277
5.152,-0.0135
5.156,-0.0447
5.16,-0.06255
5.164,-0.10508
5.168,-0.12549
5.172,-0.11495
5.176,-0.0463
5.18,0.07516
5.184,0.27921
5.188,0.50503
5.192,0.68213
5.196,0.86801
5.2,0.97234
5.204,0.98444
5.208,0.86567
5.212,0.66978
5.216,0.41731
5.22,0.17378
5.224,0.00085
5.228,-0.11516
5.232,-0.16462
5.236,-0.20892
5.24,-0.18074
5.244,-0.11311
5.248,-0.07107
5.252,-0.04269
5.256,-0.04341
5.26,-0.05181
5.264,-0.04379
5.268,-0.02593
5.272,-0.02148
5.276,-0.01856
5.28,-0.06754
5.284,-0.02371
5.288,0.00328
5.292,0.00797
5.296,0.0045
5.3,-0.0204
5.304,-0.02328
5.308,-0.02814
5.312,-0.0262
5.316,-0.01255
5.32,-0.05398
5.324,-0.03045
5.328,-0.01231
5.332,0.02871
5.336,-0.00691
5.34,-0.02176
5.344,-0.005
5.348,0.0063
5.352,-0.0036
5.356,-0.06859
5.36,0.0174
5.364,0.01407
5.368,0.00183
5.372,-0.02702
5.376,-0.03176
5.38,-0.00622
5.384,0.00548
5.388,0.01939
5.392,0.00143
5.396,-0.00122
5.4,0.02197
5.404,-0.00042
5.408,0.01378
5.412,0.03356
5.416,0.04104
5.42,0.05671
5.424,0.06931
5.428,0.06784
5.432,0.09454
5.436,0.12312
5.44,0.12432
5.444,0.1523
5.448,0.16247
5.452,0.15835
5.456,0.12451
5.46,0.16387
5.464,0.17662
5.468,0.20633
5.472,0.20796
5.476,0.17012
5.48,0.199
5.484,0.21667
5.488,0.18482
5.492,0.19434
5.496,0.18206
5.5,0.18908
5.504,0.15968
5.508,0.15609
5.512,0.14325
5.516,0.15652
5.52,0.12599
5.524,0.1337
5.528,0.08726
5.532,0.11456
5.536,0.07969
5.54,0.0961
5.544,0.07163
5.548,0.05622
5.552,0.04648
5.556,0.02944
5.56,0.02066
5.564,0.00016
5.568,0.02613
5.572,0.02546
5.576,0.00637
5.58,-0.01722
5.584,-0.04439
5.588,0.03053
5.592,-0.0128
5.596,-0.0186
5.6,-0.02971
5.604,-0.01697
5.608,-0.04152
5.612,-0.00471
5.616,-0.03297
5.62,-0.00883
5.624,-0.01123
5.628,-0.01403
5.632,-0.02239
5.636,-0.04789
5.64,-0.04217
5.644,-0.03287
5.648,-0.01413
5.652,-0.01064
5.656,-0.03579
5.66,0.0015
5.664,-0.03595
5.668,-0.02472
5.672,-0.01039
5.676,-0.0114
5.68,-0.02074
5.684,-0.03372
5.688,-0.01413
5.692,-0.03941
5.696,-0.0026
5.7,-0.02597
5.704,-0.04316
5.708,-0.05354
5.712,-0.03726
5.716,-0.00606
5.72,-0.01909
5.724,-0.03941
5.728,-0.02753
5.732,-0.02803
5.736,-0.02679
5.74,-0.04084
5.744,-0.00515
5.748,-0.03122
5.752,-0.0498
5.756,-0.03451
5.76,-0.00736
5.764,-0.02875
5.768,-0.00618
5.772,-0.05869
5.776,-0.0289
5.78,-0.04044
5.784,-0.04601
5.788,-0.02989
5.792,-0.03371
5.796,-0.03738
5.8,-0.01789
5.804,-0.05045
5.808,-0.02251
5.812,-0.01902
5.816,-0.03554
5.82,-0.0299
5.824,-0.01011
5.828,-0.00212
5.832,-0.02113
5.836,0.02146
5.84,0.04641
5.844,0.02699
5.848,0.03089
5.852,0.07022
5.856,0.07785
5.86,0.07018
5.864,0.08382
5.868,0.06042
5.872,0.07234
5.876,0.05823
5.88,0.05824
5.884,0.03852
5.888,0.02084
5.892,0.00813
5.896,-0.00549
5.9,-0.02601
5.904,-0.00185
5.908,-0.01198
5.912,-0.02314
5.916,0.00418
5.92,-0.02916
5.924,-0.00345
5.928,-0.03902
5.932,-0.03994
5.936,-0.02785
5.94,-0.05416
5.944,-0.02675
5.948,-0.02538
5.952,-0.00366
5.956,-0.02694
5.96,-0.01844
5.964,-0.03385
5.968,-0.03974
5.972,-0.02002
5.976,-0.01547
5.98,-0.04054
5.984,-0.07909
5.988,-0.11462
5.992,-0.13008
5.996,-0.12074
6.0,-0.06183
6.004,0.07565
6.008,0.26032
6.012,0.49742
6.016,0.6964
6.02,0.87107
6.024,0.96639
6.028,0.95483
6.032,0.84349
6.036,0.64706
6.04,0.40867
6.044,0.16877
6.048,-0.00227
6.052,-0.13196
6.056,-0.19088
6.06,-0.19801
6.064,-0.16155
6.068,-0.10727
6.072,-0.08893
6.076,-0.0512
6.08,-0.04241
6.084,-0.03115
6.088,-0.02946
6.092,-0.03495
6.096,-0.04575
6.1,0.01209
6.104,-0.02783
6.108,-0.03887
6.112,-0.02262
6.116,-0.03104
6.12,-0.04056
6.124,-0.00764
6.128,-0.03964
6.132,-0.02783
6.136,-0.03635
6.14,-0.02102
6.144,-0.00745
6.148,-0.04167
6.152,-0.02986
6.156,-0.01838
6.16,-0.05311
6.164,-0.02787
6.168,-0.02126
6.172,-0.02304
6.176,-0.01553
6.18,-0.03808
6.184,-0.0511
6.188,-0.00175
6.192,-0.00329
6.196,-0.0152
6.2,-0.033
6.204,-0.01867
6.208,0.01254
6.212,0.00291
6.216,0.00791
6.22,0.01333
6.224,0.01403
6.228,0.02817
6.232,0.03998
6.236,0.04745
6.24,0.05273
6.244,0.04894
6.248,0.046
6.252,0.11104
6.256,0.10299
6.26,0.08811
6.264,0.10739
6.268,0.10666
6.272,0.1478
6.276,0.12846
6.28,0.17355
6.284,0.17364
6.288,0.17298
6.292,0.17901
6.296,0.17017
6.3,0.18747
6.304,0.20389
6.308,0.19035
6.312,0.19214
6.316,0.18465
6.32,0.18671
6.324,0.20541
6.328,0.16841
6.332,0.16208
6.336,0.15312
6.34,0.13611
6.344,0.14646
6.348,0.12594
6.352,0.08563
6.356,0.07718
6.36,0.07853
6.364,0.05724
6.368,0.04663
6.372,0.04382
6.376,0.04008
6.38,0.01361
6.384,-0.00191
6.388,-0.02662
6.392,0.03449
6.396,0.01241
6.4,0.00647
6.404,0.00181
6.408,-0.02333
6.412,-0.01207
6.416,0.00299
6.42,-0.01064
6.424,-0.01914
6.428,0.00333
6.432,0.01255
6.436,0.01569
6.44,0.053
6.444,0.03097
6.448,0.0784
6.452,0.07757
6.456,0.05401
6.46,0.07299
6.464,0.09114
6.468,0.05249
6.472,0.06976
6.476,0.03386
6.48,0.07122
6.484,0.05101
6.488,0.01424
6.492,0.01965
6.496,-0.04016
6.5,-0.00618
6.504,-0.00578
6.508,-0.044
6.512,-0.05202
6.516,-0.0362
6.52,-0.0404
6.524,-0.0245
6.528,-0.048
6.532,-0.02576
6.536,-0.03845
6.54,-0.02832
6.544,-0.05548
6.548,-0.02925
6.552,-0.02224
6.556,-0.02155
6.56,-0.04592
6.564,-0.02196
6.568,-0.04344
6.572,-0.05209
6.576,-0.05398
6.58,-0.09397
6.584,-0.13414
6.588,-0.16219
6.592,-0.08541
6.596,0.03436
6.6,0.21942
6.604,0.41152
6.608,0.64564
6.612,0.82808
6.616,0.94169
6.62,0.99303
6.624,0.89162
6.628,0.67046
6.632,0.50606
6.636,0.23496
6.64,0.07623
6.644,-0.08965
6.648,-0.17058
6.652,-0.1867
6.656,-0.16828
6.66,-0.14331
6.664,-0.09054
6.668,-0.06762
6.672,-0.00178
6.676,-0.02556
6.68,-0.04983
6.684,-0.01692
6.688,-0.04211
6.692,-0.03335
6.696,-0.03001
6.7,-0.03795
6.704,-0.02502
6.708,0.00121
6.712,-0.03611
6.716,-0.04022
6.72,-0.01513
6.724,-0.00963
6.728,-0.00807
6.732,-0.01546
6.736,-0.04098
6.74,-0.01709
6.744,-0.04712
6.748,-0.01777
6.752,-0.05563
6.756,-0.03504
6.76,-0.00718
6.764,-0.02054
6.768,-0.00337
6.772,-0.01763
6.776,-0.02008
6.78,-0.05138
6.784,-0.03209
6.788,-0.03006
6.792,-0.02332
6.796,-0.00799
6.8,-0.0015
6.804,0.0087
6.808,0.01475
6.812,0.04661
6.816,0.01681
6.82,0.02742
6.824,0.01633
6.828,0.02291
6.832,0.0584
6.836,0.07109
6.84,0.06172
6.844,0.08475
6.848,0.09693
6.852,0.10226
6.856,0.11287
6.86,0.14092
6.864,0.15208
6.868,0.15854
6.872,0.17319
6.876,0.15826
6.88,0.18343
6.884,0.19157
6.888,0.1896
6.892,0.18366
6.896,0.19202
6.9,0.1896
6.904,0.20824
6.908,0.16474
6.912,0.18965
6.916,0.17492
6.92,0.19181
6.924,0.17419
6.928,0.16549
6.932,0.15682
6.936,0.09403
6.94,0.13309
6.944,0.10636
6.948,0.07554
6.952,0.08717
6.956,0.06502
6.96,0.06578
6.964,0.06307
6.968,0.02627
6.972,0.04565
6.976,0.04253
6.98,0.01833
6.984,0.03775
6.988,0.0036
6.992,0.00202
6.996,0.00452
7.0,0.02138
7.004,-0.02946
7.008,-0.03241
7.012,-0.01223
7.016,-0.02511
7.02,-0.02648
7.024,0.01115
7.028,-0.03193
7.032,-0.00838
7.036,-0.01259
7.04,-0.01786
7.044,-0.01748
7.048,0.00121
7.052,-0.02682
7.056,-0.02137
7.06,-0.04042
7.064,-0.00469
7.068,-0.03595
7.072,-0.01601
7.076,-0.04291
7.08,-0.02656
7.084,-0.01051
7.088,-0.01402
7.092,-0.02486
7.096,0.00113
7.1,-0.03934
7.104,-0.02488
7.108,-0.01957
7.112,-0.0209
7.116,-0.02926
7.12,-0.02378
7.124,-0.0139
7.128,-0.01023
7.132,-0.04709
7.136,-0.00835
7.14,-0.0259
7.144,-0.01759
7.148,-0.01875
7.152,-0.02427
7.156,-0.02346
7.16,-0.02169
7.164,-0.05994
7.168,0.00323
7.172,-0.01304
7.176,-0.02716
7.18,-0.02115
7.184,-0.01069
7.188,-0.00354
7.192,-0.0166
7.196,-0.03425
7.2,-0.02351
7.204,-0.02486
7.208,-0.01565
7.212,-0.0153
7.216,0.01257
7.22,0.02126
7.224,0.04587
7.228,0.04052
7.232,0.04935
7.236,0.07077
7.24,0.04802
7.244,0.08105
7.248,0.06015
7.252,0.07723
7.256,0.05749
7.26,0.09357
7.264,0.04968
7.268,0.04606
7.272,0.05361
7.276,0.01714
7.28,0.03141
7.284,0.01185
7.288,0.01065
7.292,-0.01409
7.296,-0.01721
7.3,-0.00294
7.304,0.01286
7.308,-0.01707
7.312,-0.00091
7.316,-0.00911
7.32,0.00614
7.324,-0.01918
7.328,-0.00859
7.332,-0.00121
7.336,-0.00695
7.34,-0.03558
7.344,-0.02437
7.348,-0.01553
7.352,-0.01296
7.356,-0.02433
7.36,-0.01564
7.364,-0.04211
7.368,-0.08716
7.372,-0.1275
7.376,-0.14255
7.38,-0.12469
7.384,-0.00368
7.388,0.12905
7.392,0.34349
7.396,0.5572
7.4,0.75229
7.404,0.91908
7.408,0.98094
7.412,0.94127
7.416,0.76259
7.42,0.58302
7.424,0.35119
7.428,0.11697
7.432,-0.024
7.436,-0.14466
7.44,-0.19151
7.444,-0.18215
7.448,-0.11504
7.452,-0.09689
7.456,-0.05015
7.46,-0.06464
7.464,-0.00931
7.468,-0.02264
7.472,0.00214
7.476,-0.00081
7.48,-0.00187
7.484,-0.02362
7.488,0.00494
7.492,-0.01524
7.496,-0.04104
7.5,-0.02502
7.504,-0.01105
7.508,-0.01184
7.512,0.00173
7.516,0.00521
7.52,-0.02509
7.524,-0.00859
7.528,-0.01486
7.532,-0.01189
7.536,-0.0211
7.54,-0.03345
7.544,-0.0028
7.548,-0.02576
7.552,-0.02662
7.556,-0.03011
7.56,-0.01149
7.564,-0.01039
7.568,0.00362
7.572,0.00049
7.576,0.00964
7.58,0.00814
7.584,-0.00669
7.588,-0.01143
7.592,0.00621
7.596,0.03079
7.6,0.01587
7.604,0.02319
7.608,0.02904
7.612,0.03918
7.616,0.05149
7.62,0.04353
7.624,0.08237
7.628,0.07233
7.632,0.08853
7.636,0.12845
7.64,0.12869
7.644,0.16624
7.648,0.13059
7.652,0.13501
7.656,0.15731
7.66,0.15459
7.664,0.19172
7.668,0.18187
7.672,0.18848
7.676,0.22378
7.68,0.2276
7.684,0.22097
7.688,0.23215
7.692,0.24691
7.696,0.20964
7.7,0.20018
7.704,0.23114
7.708,0.21118
7.712,0.1768
7.716,0.17811
7.72,0.17094
7.724,0.14041
7.728,0.14623
7.732,0.12647
7.736,0.0978
7.74,0.11126
7.744,0.09769
7.748,0.0991
7.752,0.10199
7.756,0.06066
7.76,0.06482
7.764,0.06462
7.768,0.03226
7.772,0.03395
7.776,0.03693
7.78,0.02645
7.784,-0.01357
7.788,0.00533
7.792,0.01653
7.796,0.03091
7.8,-0.02925
7.804,-0.01239
7.808,0.02408
7.812,0.0062
7.816,0.00087
7.82,0.00367
7.824,0.01521
7.828,0.01449
7.832,-0.0079
7.836,0.01565
7.84,-0.00602
7.844,-0.00128
7.848,0.01156
7.852,-0.00932
7.856,-0.01194
7.86,0.00665
7.864,0.01539
7.868,0.00422
7.872,0.00028
7.876,-0.00244
7.88,0.00642
7.884,-0.00772
7.888,0.00175
7.892,-0.01173
7.896,-0.00747
7.9,0.01219
7.904,-0.02045
7.908,-0.02184
7.912,-0.00372
7.916,0.0057
7.92,-0.00054
7.924,0.00081
7.928,0.00648
7.932,0.01485
7.936,0.01244
7.94,0.00529
7.944,-0.01141
7.948,-0.01036
7.952,0.00576
7.956,0.01388
7.96,-0.02356
7.964,0.01523
7.968,0.02709
7.972,0.00908
7.976,0.02011
7.98,0.03742
7.984,0.01602
7.988,0.0665
7.992,0.09079
7.996,0.071
8.0,0.09247
8.004,0.09218
8.008,0.13012
8.012,0.0803
8.016,0.0904
8.02,0.09139
8.024,0.12303
8.028,0.07871
8.032,0.0625
8.036,0.03494
8.04,0.03967
8.044,0.04997
8.048,0.02378
8.052,0.02392
8.056,0.02482
8.06,0.0045
8.064,0.0133
8.068,-0.00601
8.072,0.0059
8.076,-0.01602
8.08,-0.00605
8.084,0.02958
8.088,0.01527
8.092,-0.00215
8.096,-0.00887
8.1,0.00599
8.104,-0.00043
8.108,0.01178
8.112,0.03225
8.116,-0.00123
8.12,-0.00138
8.124,0.01674
8.128,-0.01861
8.132,-0.0794
8.136,-0.08862
8.14,-0.15348
8.144,-0.07216
8.148,0.04705
8.152,0.22439
8.156,0.41915
8.16,0.61266
8.164,0.82717
8.168,0.97854
8.172,1.0307
8.176,0.94993
8.18,0.75625
8.184,0.54381
8.188,0.32043
8.192,0.0928
8.196,-0.03254
8.2,-0.10942
8.204,-0.15512
8.208,-0.13677
8.212,-0.1093
8.216,-0.05918
8.22,-0.02002
8.224,-0.01485
8.228,0.01088
8.232,0.01668
8.236,-0.00092
8.24,-0.00672
8.244,-0.00394
8.248,0.02686
8.252,0.0017
8.256,0.00633
8.26,0.04285
8.264,-0.00531
8.268,0.00365
8.272,0.02745
8.276,0.00825
8.28,0.02657
8.284,0.01341
8.288,-0.01289
8.292,0.00361
8.296,0.0181
8.3,0.0246
8.304,0.01708
8.308,-0.01436
8.312,0.00503
8.316,0.02041
8.32,0.01203
8.324,0.01298
8.328,0.0116
8.332,0.03399
8.336,0.03322
8.34,-0.00471
8.344,0.01822
8.348,0.03079
8.352,0.03049
8.356,0.04358
8.36,0.06229
8.364,0.0452
8.368,0.03807
8.372,0.07782
8.376,0.06867
8.38,0.06112
8.384,0.05545
8.388,0.09173
8.392,0.09616
8.396,0.08421
8.4,0.13112
8.404,0.15625
8.408,0.15632
8.412,0.16221
8.416,0.16372
8.42,0.20233
8.424,0.19683
8.428,0.20151
8.432,0.24569
8.436,0.22888
8.44,0.22258
8.444,0.21444
8.448,0.23022
8.452,0.22211
8.456,0.23256
8.46,0.24618
8.464,0.21042
8.468,0.22185
8.472,0.23394
8.476,0.2212
8.48,0.19347
8.484,0.17916
8.488,0.14608
8.492,0.19194
8.496,0.14678
8.5,0.13518
8.504,0.14527
8.508,0.11898
8.512,0.11524
8.516,0.08512
8.52,0.09971
8.524,0.09902
8.528,0.05767
8.532,0.0427
8.536,0.05006
8.54,0.02979
8.544,0.05272
8.548,0.03472
8.552,0.0241
8.556,0.05189
8.56,0.01334
8.564,0.01734
8.568,0.01358
8.572,0.04566
8.576,0.03281
8.58,0.00034
8.584,0.03387
8.588,0.01989
8.592,0.02009
8.596,0.00804
8.6,0.01286
8.604,0.04372
8.608,0.04876
8.612,0.00394
8.616,0.01357
8.62,0.02549
8.624,0.01431
8.628,0.01108
8.632,0.01333
8.636,0.01029
8.64,0.0222
8.644,0.0292
8.648,0.00275
8.652,0.04484
8.656,0.01106
8.66,-0.00555
8.664,0.0074
8.668,0.00326
8.672,0.02646
8.676,0.01477
8.68,-0.00669
8.684,0.02293
8.688,0.03288
8.692,0.01639
8.696,0.01316
8.7,0.03642
8.704,0.01481
8.708,0.01103
8.712,0.03074
8.716,0.02752
8.72,0.02411
8.724,0.01187
8.728,0.02386
8.732,0.0069
8.736,0.00795
8.74,0.00966
8.744,0.04434
8.748,0.02428
8.752,0.03176
8.756,0.04114
8.76,0.05177
8.764,0.02487
8.768,0.02131
8.772,0.01044
8.776,0.02671
8.78,0.02768
8.784,0.03014
8.788,-0.0095
8.792,-0.00525
8.796,0.02213
8.8,0.03033
8.804,0.01478
8.808,0.0237
8.812,0.01732
8.816,0.03961
8.82,0.01775
8.824,-0.0002
8.828,0.04649
8.832,0.02476
8.836,0.03673
8.84,0.03405
8.844,0.03575
8.848,0.04587
8.852,0.01935
8.856,0.01963
8.86,0.0576
8.864,0.02526
8.868,0.04873
8.872,0.03626
8.876,0.03647
8.88,0.04583
8.884,0.01083
8.888,0.06309
8.892,0.0516
8.896,0.09885
8.9,0.13251
8.904,0.13201
8.908,0.08523
8.912,0.12233
8.916,0.13033
8.92,0.11182
8.924,0.11484
8.928,0.10285
8.932,0.10211
8.936,0.07384
8.94,0.05897
8.944,0.06483
8.948,0.01702
8.952,0.03736
8.956,0.03326
8.96,0.05176
8.964,0.01515
8.968,0.05009
8.972,0.04611
8.976,0.02858
8.98,0.04723
8.984,0.03978
8.988,0.0106
8.992,0.02178
8.996,0.04268
9.0,0.06189
9.004,0.05773
9.008,0.00172
9.012,0.01603
9.016,0.04264
9.02,0.00698
9.024,-0.00283
9.028,0.02141
9.032,-0.02941
9.036,-0.04357
9.04,-0.07913
9.044,-0.07891
9.048,-0.00814
9.052,0.11634
9.056,0.27721
9.06,0.48221
9.064,0.67862
9.068,0.85654
9.072,1.00874
9.076,1.02871
9.08,0.92086
9.084,0.7133
9.088,0.50106
9.092,0.26018
9.096,0.10408
9.1,-0.03408
9.104,-0.12315
9.108,-0.10616
9.112,-0.10987
9.116,-0.07686
9.12,-0.02687
9.124,-0.05647
9.128,0.04212
9.132,0.04185
9.136,0.02598
9.14,0.01593
9.144,0.00672
9.148,0.01756
9.152,0.04281
9.156,0.02353
9.16,0.01592
9.164,0.02819
9.168,0.0307
9.172,0.05611
9.176,0.0222
9.18,0.01051
9.184,0.0205
9.188,0.02343
9.192,0.01203
9.196,0.02932
9.2,0.03506
9.204,0.02485
9.208,0.03519
9.212,0.02139
9.216,0.01375
9.22,0.03405
9.224,0.05338
9.228,0.05446
9.232,0.0167
9.236,0.02578
9.24,0.05995
9.244,0.03098
9.248,0.05889
9.252,0.01828
9.256,0.06334
9.26,0.03186
9.264,0.06538
9.268,0.07835
9.272,0.07179
9.276,0.07436
9.28,0.09615
9.284,0.08276
9.288,0.10191
9.292,0.10501
9.296,0.13891
9.3,0.13267
9.304,0.15178
9.308,0.17348
9.312,0.15985
9.316,0.21381
9.32,0.19298
9.324,0.20057
9.328,0.22072
9.332,0.21861
9.336,0.22703
9.34,0.2383
9.344,0.2373
9.348,0.2818
9.352,0.25317
9.356,0.23572
9.36,0.25048
9.364,0.22887
9.368,0.2339
9.372,0.22953
9.376,0.24215
9.38,0.20353
9.384,0.23105
9.388,0.18552
9.392,0.1725
9.396,0.19139
9.4,0.16604
9.404,0.15369
9.408,0.12682
9.412,0.15685
9.416,0.10412
9.42,0.11184
9.424,0.09645
9.428,0.06041
9.432,0.08175
9.436,0.08945
9.44,0.04567
9.444,0.05648
9.448,0.04453
9.452,0.0704
9.456,0.04592
9.46,0.02144
9.464,0.06084
9.468,0.04195
9.472,0.03053
9.476,0.03421
9.48,0.02173
9.484,0.04121
9.488,0.02833
9.492,0.0172
9.496,0.03279
9.5,0.02582
9.504,0.04825
9.508,0.04409
9.512,0.06025
9.516,0.01963
9.52,0.02437
9.524,0.03347
9.528,0.05765
9.532,0.03
9.536,0.02759
9.54,0.00598
9.544,0.05377
9.548,-0.00417
9.552,0.03633
9.556,0.03843
9.56,0.02387
9.564,0.02105
9.568,0.03794
9.572,0.02076
9.576,0.05053
9.58,0.03911
9.584,0.03093
9.588,0.03056
9.592,0.04537
9.596,0.05736
9.6,0.02251
9.604,0.02095
9.608,0.02654
9.612,0.02763
9.616,0.01705
9.62,0.02951
9.624,0.04324
9.628,0.03774
9.632,-0.01277
9.636,0.04554
9.64,0.02201
9.644,-0.01198
9.648,0.0319
9.652,0.03365
9.656,0.01628
9.66,0.01537
9.664,0.03904
9.668,0.02768
9.672,0.03923
9.676,0.03842
9.68,0.06167
9.684,0.02832
9.688,0.0481
9.692,0.03914
9.696,0.03281
9.7,0.02774
9.704,0.02845
9.708,0.0149
9.712,0.02054
9.716,0.03019
9.72,0.04904
9.724,0.03388
9.728,0.02391
9.732,0.04294
9.736,0.04373
9.74,0.03386
9.744,0.03676
9.748,0.04717
9.752,0.06206
9.756,0.06969
9.76,0.07758
9.764,0.08599
9.768,0.07836
9.772,0.10785
9.776,0.1162
9.78,0.12493
9.784,0.12215
9.788,0.13725
9.792,0.13275
9.796,0.11998
9.8,0.08283
9.804,0.05981
9.808,0.0633
9.812,0.05912
9.816,0.05457
9.82,0.04772
9.824,0.05174
9.828,0.02454
9.832,0.05665
9.836,0.03148
9.84,0.05171
9.844,0.02017
9.848,0.01856
9.852,0.02601
9.856,0.03807
9.86,0.04059
9.864,0.02042
9.868,0.03998
9.872,0.0443
9.876,0.03112
9.88,0.03685
9.884,0.04673
9.888,0.01288
9.892,0.01361
9.896,0.00155
9.9,-0.01594
9.904,-0.08411
9.908,-0.07312
9.912,-0.09956
9.916,0.00114
9.92,0.13733
9.924,0.27865
9.928,0.5094
9.932,0.7308
9.936,0.90543
9.94,1.00838
9.944,1.00603
9.948,0.87562
9.952,0.71984
9.956,0.49184
9.96,0.24579
9.964,0.06664
9.968,-0.05801
9.972,-0.11612
9.976,-0.15644
9.98,-0.1154
9.984,-0.09412
9.988,-0.01769
9.992,-0.01058
9.996,0.02158
