t_seg,ecg_mV
0.0,0.01594
0.004,0.0385
0.008,0.0268
0.012,0.04402
0.016,0.04844
0.02,0.0312
0.024,0.05591
0.028,0.04515
0.032,0.04232
0.036,0.04843
0.04,0.01937
0.044,0.03684
0.048,0.02108
0.052,0.01876
0.056,0.02149
0.06,0.04236
0.064,0.02544
0.068,0.03494
0.072,0.05098
0.076,0.03238
0.08,0.03235
0.084,0.0269
0.088,0.0084
0.092,0.05953
0.096,0.04455
0.1,0.05576
0.104,0.03659
0.108,0.03071
0.112,0.04612
0.116,0.02256
0.12,0.04553
0.124,0.04528
0.128,0.03237
0.132,0.02206
0.136,0.02076
0.14,0.04167
0.144,0.05491
0.148,0.02004
0.152,0.01157
0.156,0.02631
0.16,0.02395
0.164,0.03722
0.168,0.02159
0.172,0.02166
0.176,0.0118
0.18,0.01797
0.184,0.03357
0.188,0.0388
0.192,0.01764
0.196,0.01281
0.2,0.01714
0.204,0.02694
0.208,0.01295
0.212,0.03293
0.216,0.04561
0.22,0.02282
0.224,0.01889
0.228,0.0226
0.232,0.01193
0.236,0.04701
0.24,0.05521
0.244,0.05403
0.248,0.0439
0.252,0.054
0.256,0.07906
0.26,0.10144
0.264,0.10443
0.268,0.11961
0.272,0.10155
0.276,0.12654
0.28,0.12934
0.284,0.14335
0.288,0.12171
0.292,0.11894
0.296,0.12891
0.3,0.08823
0.304,0.07069
0.308,0.06281
0.312,0.04807
0.316,0.05469
0.32,0.02021
0.324,0.04797
0.328,0.01498
0.332,0.04564
0.336,0.02019
0.34,0.01181
0.344,0.01626
0.348,0.00631
0.352,0.01463
0.356,0.03212
0.36,0.03602
0.364,0.02821
0.368,0.02651
0.372,0.01663
0.376,0.0238
0.38,0.02364
0.384,0.01781
0.388,0.02779
0.392,0.0276
0.396,0.00749
0.4,-0.04698
0.404,-0.09104
0.408,-0.10477
0.412,-0.05968
0.416,0.01511
0.42,0.18839
0.424,0.39215
0.428,0.59519
0.432,0.80921
0.436,0.95516
0.44,1.01695
0.444,0.97581
0.448,0.8252
0.452,0.62259
0.456,0.39692
0.46,0.18371
0.464,-0.00312
0.468,-0.10686
0.472,-0.14956
0.476,-0.12975
0.48,-0.09667
0.484,-0.0571
0.488,-0.00983
0.492,-0.0061
0.496,4e-05
0.5,0.02981
0.504,0.02962
0.508,0.03282
0.512,0.01792
0.516,0.01574
0.52,0.04016
0.524,0.02838
0.528,0.0087
0.532,-0.00313
0.536,0.01819
0.54,0.04371
0.544,0.01605
0.548,0.03914
0.552,0.0259
0.556,0.02232
0.56,0.01169
0.564,0.04423
0.568,0.00931
0.572,0.01638
0.576,0.02346
0.58,0.01768
0.584,0.04109
0.588,0.06091
0.592,0.00539
0.596,0.03328
0.6,0.06656
0.604,0.02064
0.608,0.06347
0.612,0.05465
0.616,0.04206
0.62,0.05616
0.624,0.06498
0.628,0.05802
0.632,0.07097
0.636,0.04734
0.64,0.06093
0.644,0.05463
0.648,0.07549
0.652,0.09566
0.656,0.09129
0.66,0.11376
0.664,0.09725
0.668,0.13675
0.672,0.13834
0.676,0.15469
0.68,0.17083
0.684,0.19663
0.688,0.19649
0.692,0.19025
0.696,0.19485
0.7,0.22561
0.704,0.22412
0.708,0.2357
0.712,0.22621
0.716,0.24808
0.72,0.23899
0.724,0.23476
0.728,0.24908
0.732,0.2627
0.736,0.23686
0.74,0.22703
0.744,0.20588
0.748,0.1905
0.752,0.17309
0.756,0.18641
0.76,0.17979
0.764,0.17801
0.768,0.13031
0.772,0.13279
0.776,0.11224
0.78,0.14396
0.784,0.11379
0.788,0.10953
0.792,0.06578
0.796,0.09446
0.8,0.07148
0.804,0.07376
0.808,0.06209
0.812,0.05339
0.816,0.08618
0.82,0.04479
0.824,0.04923
0.828,0.02283
0.832,0.03053
0.836,0.03246
0.84,-0.00937
0.844,0.01696
0.848,-0.00647
0.852,0.02597
0.856,0.0338
0.86,0.01864
0.864,-0.003
0.868,0.02045
0.872,0.0274
0.876,0.02426
0.88,0.01728
0.884,0.01769
0.888,0.01966
0.892,0.02708
0.896,0.02469
0.9,0.02205
0.904,-0.00324
0.908,0.02477
0.912,0.00845
0.916,0.03869
0.92,0.00565
0.924,0.03859
0.928,0.03557
0.932,0.01092
0.936,0.01288
0.94,0.03164
0.944,0.01616
0.948,0.00816
0.952,-0.00211
0.956,0.00923
0.96,0.01592
0.964,0.06964
0.968,0.02457
0.972,0.00845
0.976,0.00326
0.98,0.01989
0.984,0.01722
0.988,0.01942
0.992,0.01163
0.996,0.03752
1.0,-0.00074
1.004,0.01154
1.008,0.03328
1.012,-0.00089
1.016,0.01626
1.02,0.0098
1.024,0.003
1.028,0.02302
1.032,0.00827
1.036,0.01259
1.04,0.04097
1.044,0.02545
1.048,0.03831
1.052,0.00264
1.056,0.02397
1.06,0.03334
1.064,0.01795
1.068,0.01939
1.072,0.03336
1.076,0.01909
1.08,0.0184
1.084,0.00528
1.088,-0.01181
1.092,0.01244
1.096,0.00823
1.1,-0.00744
1.104,0.00876
1.108,0.03696
1.112,0.03005
1.116,0.02922
1.12,0.04161
1.124,-0.00815
1.128,0.02583
1.132,0.0205
1.136,0.01176
1.14,0.02696
1.144,0.05048
1.148,0.06145
1.152,0.09334
1.156,0.10781
1.16,0.0886
1.164,0.12304
1.168,0.09921
1.172,0.09435
1.176,0.14097
1.18,0.0883
1.184,0.10767
1.188,0.09352
1.192,0.09835
1.196,0.07232
1.2,0.05473
1.204,0.03804
1.208,0.03144
1.212,0.03617
1.216,0.01996
1.22,-0.00326
1.224,0.00233
1.228,0.01118
1.232,-0.00252
1.236,0.00224
1.24,0.01501
1.244,0.01098
1.248,-0.00946
1.252,0.01667
1.256,0.00937
1.26,-0.0023
1.264,0.00555
1.268,-0.00013
1.272,0.01365
1.276,0.01467
1.28,-0.00211
1.284,-0.00033
1.288,-0.01644
1.292,-0.04381
1.296,-0.09885
1.3,-0.09004
1.304,-0.10083
1.308,-0.01379
1.312,0.11757
1.316,0.30191
1.32,0.5243
1.324,0.7453
1.328,0.88041
1.332,1.01514
1.336,0.9783
1.34,0.85525
1.344,0.67831
1.348,0.43234
1.352,0.21042
1.356,-0.00291
1.36,-0.09032
1.364,-0.15583
1.368,-0.19147
1.372,-0.12436
1.376,-0.08455
1.38,-0.04993
1.384,-0.01369
1.388,0.01137
1.392,-0.0011
1.396,0.01101
1.4,0.02072
1.404,0.01294
1.408,0.0031
1.412,-0.01055
1.416,0.01683
1.42,-0.00017
1.424,0.0094
1.428,-0.00456
1.432,0.00352
1.436,0.02318
1.44,0.00884
1.444,0.03753
1.448,0.03987
1.452,0.01569
1.456,-0.01807
1.46,0.01283
1.464,0.04071
1.468,0.02143
1.472,0.01239
1.476,0.02045
1.48,0.0171
1.484,0.02039
1.488,0.01304
1.492,0.01278
1.496,-0.02073
1.5,0.002
1.504,0.02717
1.508,0.02145
1.512,0.00701
1.516,0.01777
1.52,0.03206
1.524,0.0194
1.528,0.01751
1.532,0.02264
1.536,0.04576
1.54,0.03378
1.544,0.07624
1.548,0.07309
1.552,0.10584
1.556,0.10034
1.56,0.11215
1.564,0.14975
1.568,0.13552
1.572,0.1422
1.576,0.1534
1.58,0.16389
1.584,0.1876
1.588,0.17668
1.592,0.20865
1.596,0.18511
1.6,0.22321
1.604,0.22529
1.608,0.21467
1.612,0.21491
1.616,0.23773
1.62,0.22623
1.624,0.21638
1.628,0.21452
1.632,0.20372
1.636,0.20989
1.64,0.17975
1.644,0.16591
1.648,0.16681
1.652,0.13247
1.656,0.13687
1.66,0.14686
1.664,0.12338
1.668,0.11485
1.672,0.09067
1.676,0.07428
1.68,0.0408
1.684,0.04438
1.688,0.03345
1.692,0.0503
1.696,0.03601
1.7,0.04494
1.704,0.02122
1.708,0.00664
1.712,0.02231
1.716,0.02891
1.72,0.02125
1.724,-0.00747
1.728,0.0267
1.732,0.0008
1.736,0.00623
1.74,-0.0147
1.744,-0.01248
1.748,0.01017
1.752,-0.00041
1.756,-0.00346
1.76,0.02802
1.764,-0.00501
1.768,-0.03505
1.772,0.01306
1.776,-0.01301
1.78,0.00356
1.784,-0.02668
1.788,-0.00413
1.792,-0.00566
1.796,-0.00444
1.8,-0.00784
1.804,0.01047
1.808,-0.02089
1.812,-0.02217
1.816,-0.01537
1.82,-0.02959
1.824,-0.01123
1.828,0.0007
1.832,-0.00637
1.836,0.00291
1.84,-0.02212
1.844,-0.0172
1.848,-0.03224
1.852,-0.00237
1.856,-0.00886
1.86,0.01588
1.864,0.02359
1.868,-0.0063
1.872,0.04587
1.876,-0.00506
1.88,-0.00171
1.884,-0.00979
1.888,0.01749
1.892,-0.03597
1.896,-0.02797
1.9,-0.0022
1.904,-0.01169
1.908,-0.02789
1.912,6e-05
1.916,-0.01908
1.92,-0.01072
1.924,-0.01381
1.928,-0.00798
1.932,-0.02267
1.936,0.02461
1.94,-0.00779
1.944,-0.03416
1.948,-0.02569
1.952,0.00243
1.956,0.02218
1.96,-0.00733
1.964,-0.01524
1.968,0.00912
1.972,-0.03912
1.976,-0.02563
1.98,-0.02818
1.984,-0.01713
1.988,0.00187
1.992,-0.00808
1.996,-0.01074
2.0,0.0101
2.004,-0.00795
2.008,-0.01466
2.012,-0.02022
2.016,-0.01172
2.02,-0.01714
2.024,0.02142
2.028,0.00321
2.032,0.00534
2.036,-0.02351
2.04,0.02271
2.044,-0.00225
2.048,-0.001
2.052,-0.02073
2.056,0.00778
2.06,0.00075
2.064,0.00512
2.068,-0.02823
2.072,-0.01476
2.076,-0.01675
2.08,-0.02604
2.084,-0.0042
2.088,-0.0024
2.092,-0.01235
2.096,-0.01404
2.1,-0.0286
2.104,0.0037
2.108,-0.00438
2.112,-0.02682
2.116,-0.01617
2.12,-0.01662
2.124,-0.01252
2.128,-0.01181
2.132,-0.00712
2.136,-0.02304
2.14,0.00091
2.144,-0.0113
2.148,-0.01442
2.152,-0.01945
2.156,-0.00807
2.16,0.00387
2.164,-0.00424
2.168,-0.02735
2.172,-0.01989
2.176,-0.03058
2.18,-0.00426
2.184,-0.02749
2.188,-0.01064
2.192,-0.02946
2.196,-0.00675
2.2,-0.01274
2.204,-0.00913
2.208,-0.03981
2.212,-0.01835
2.216,-0.03259
2.22,-0.00267
2.224,0.00209
2.228,-0.03604
2.232,-0.02356
2.236,-0.02572
2.24,-0.02072
2.244,-0.01779
2.248,-0.04952
2.252,0.00703
2.256,-0.0181
2.26,0.00658
2.264,-0.01852
2.268,-0.04788
2.272,-0.01017
2.276,0.00285
2.28,0.00423
2.284,-0.0115
2.288,-0.01179
2.292,0.00762
2.296,0.00082
2.3,-0.03437
2.304,-0.02471
2.308,-0.00552
2.312,-0.00823
2.316,-0.00336
2.32,0.00586
2.324,0.01148
2.328,0.05014
2.332,0.03992
2.336,0.04564
2.34,0.05914
2.344,0.07314
2.348,0.09563
2.352,0.07248
2.356,0.08377
2.36,0.0904
2.364,0.04036
2.368,0.05165
2.372,0.04055
2.376,0.01583
2.38,0.02484
2.384,-0.0057
2.388,-0.0065
2.392,-0.00857
2.396,-0.01366
2.4,-0.00647
2.404,-0.01552
2.408,-0.00658
2.412,-0.01663
2.416,-0.0515
2.42,-0.01137
2.424,-0.01513
2.428,0.00498
2.432,-0.02126
2.436,-0.01
2.44,-0.02595
2.444,-0.02005
2.448,-0.02264
2.452,-0.03046
2.456,-0.03794
2.46,-0.03222
2.464,-0.03869
2.468,-0.06582
2.472,-0.10445
2.476,-0.12688
2.48,-0.14133
2.484,-0.04584
2.488,0.09666
2.492,0.26593
2.496,0.45502
2.5,0.67394
2.504,0.86977
2.508,0.98346
2.512,0.95133
2.516,0.83937
2.52,0.66609
2.524,0.41132
2.528,0.21702
2.532,0.04641
2.536,-0.14235
2.54,-0.17835
2.544,-0.19606
2.548,-0.15785
2.552,-0.10901
2.556,-0.06842
2.56,-0.06613
2.564,-0.01271
2.568,-0.00368
2.572,-0.00627
2.576,0.00016
2.58,-0.02458
2.584,-0.00036
2.588,-0.01583
2.592,-0.01825
2.596,-0.01689
2.6,-0.00419
2.604,-0.04245
2.608,-0.01109
2.612,-0.0219
2.616,-0.02479
2.62,-0.00149
2.624,-0.02039
2.628,-0.02756
2.632,-0.02112
2.636,-0.01221
2.64,-0.00803
2.644,-0.05173
2.648,-0.03629
2.652,-0.03158
2.656,-0.00277
2.66,-0.00507
2.664,-0.00347
2.668,-0.01383
2.672,-0.02302
2.676,-0.01388
2.68,-0.04029
2.684,-0.03282
2.688,0.00756
2.692,0.01353
2.696,-0.01518
2.7,-0.00077
2.704,-0.00417
2.708,0.0282
2.712,0.04916
2.716,0.02959
2.72,0.03941
2.724,0.04532
2.728,0.04975
2.732,0.04523
2.736,0.08468
2.74,0.08876
2.744,0.11882
2.748,0.1249
2.752,0.13087
2.756,0.14851
2.76,0.13621
2.764,0.1611
2.768,0.16375
2.772,0.1931
2.776,0.18833
2.78,0.17869
2.784,0.19932
2.788,0.20531
2.792,0.19413
2.796,0.19487
2.8,0.20119
2.804,0.18084
2.808,0.17493
2.812,0.15899
2.816,0.16456
2.82,0.13956
2.824,0.14769
2.828,0.12921
2.832,0.10971
2.836,0.10155
2.84,0.09618
2.844,0.08102
2.848,0.07718
2.852,0.07065
2.856,0.04908
2.86,0.02128
2.864,0.00985
2.868,0.01548
2.872,0.01477
2.876,0.01226
2.88,-0.03648
2.884,-0.01265
2.888,0.00902
2.892,-0.00683
2.896,-0.02682
2.9,-0.01523
2.904,-0.00115
2.908,-0.01323
2.912,-0.01137
2.916,-0.02131
2.92,-0.03738
2.924,-0.01272
2.928,-0.02674
2.932,-0.03556
2.936,-0.03589
2.94,-0.02364
2.944,-0.00216
2.948,-0.02406
2.952,-0.05305
2.956,-0.01837
2.96,-0.03758
2.964,-0.02662
2.968,-0.02979
2.972,-0.04216
2.976,-0.02353
2.98,-0.02191
2.984,-0.01053
2.988,-0.03961
2.992,-0.03546
2.996,-0.00466
3.0,-0.00574
3.004,-0.02565
3.008,-0.03073
3.012,-0.02387
3.016,-0.01108
3.02,-0.01707
3.024,-0.0251
3.028,-0.04036
3.032,-0.03921
3.036,-0.03563
3.04,-0.05553
3.044,-0.02653
3.048,-0.04257
3.052,-0.02293
3.056,-0.01967
3.06,-0.01641
3.064,-0.07107
3.068,-0.03603
3.072,-0.03147
3.076,-0.03097
3.08,0.00609
3.084,-0.05388
3.088,-0.04178
3.092,-0.04663
3.096,-0.03224
3.1,-0.05033
3.104,-0.03466
3.108,0.00882
3.112,-0.02839
3.116,-0.01727
3.12,-0.05505
3.124,-0.02419
3.128,-0.03987
3.132,-0.04386
3.136,-0.02789
3.14,-0.00397
3.144,-0.01092
3.148,-0.01465
3.152,0.01022
3.156,0.01395
3.16,0.02242
3.164,0.04497
3.168,0.08342
3.172,0.08698
3.176,0.06322
3.18,0.0437
3.184,0.03589
3.188,0.05493
3.192,0.06278
3.196,0.02646
3.2,0.02476
3.204,0.00278
3.208,-1e-05
3.212,-0.00192
3.216,-0.01695
3.22,-0.01433
3.224,-0.02547
3.228,-0.03723
3.232,-0.03848
3.236,-0.05222
3.24,-0.00822
3.244,-0.04776
3.248,-0.03005
3.252,-0.03917
3.256,-0.01902
3.26,-0.03641
3.264,-0.02561
3.268,-0.03664
3.272,-0.0375
3.276,-0.02842
3.28,-0.01557
3.284,-0.05434
3.288,-0.04111
3.292,-0.05408
3.296,-0.0656
3.3,-0.08131
3.304,-0.1351
3.308,-0.16175
3.312,-0.09596
3.316,0.00451
3.32,0.18853
3.324,0.34609
3.328,0.58872
3.332,0.7655
3.336,0.90446
3.34,0.96248
3.344,0.90557
3.348,0.739
3.352,0.51475
3.356,0.26914
3.36,0.07912
3.364,-0.07973
3.368,-0.1513
3.372,-0.17747
3.376,-0.18005
3.38,-0.16571
3.384,-0.07629
3.388,-0.06328
3.392,-0.01986
3.396,-0.03749
3.4,-0.0262
3.404,-0.01946
3.408,-0.01686
3.412,-0.06788
3.416,-0.03152
3.42,-0.04244
3.424,-0.03553
3.428,-0.03174
3.432,-0.03968
3.436,-0.02083
3.44,-0.05055
3.444,-0.03788
3.448,-0.02124
3.452,-0.02112
3.456,-0.02189
3.46,-0.04454
3.464,-0.02732
3.468,-0.01843
3.472,-0.01467
3.476,-0.00471
3.48,-0.00085
3.484,-0.02381
3.488,-0.01468
3.492,-0.05022
3.496,-0.03513
3.5,-0.01798
3.504,-0.0071
3.508,-0.05273
3.512,-0.01743
3.516,0.00079
3.52,-0.01009
3.524,-0.00255
3.528,-0.00618
3.532,0.00797
3.536,0.01936
3.54,0.03678
3.544,0.04283
3.548,0.04482
3.552,0.01176
3.556,0.05413
3.56,0.07182
3.564,0.07665
3.568,0.07952
3.572,0.09473
3.576,0.12032
3.58,0.11893
3.584,0.14332
3.588,0.14089
3.592,0.15714
3.596,0.15424
3.6,0.16253
3.604,0.18637
3.608,0.17129
3.612,0.19035
3.616,0.19664
3.62,0.19349
3.624,0.21348
3.628,0.18042
3.632,0.18234
3.636,0.17473
3.64,0.15643
3.644,0.17805
3.648,0.17401
3.652,0.15967
3.656,0.13995
3.66,0.13338
3.664,0.09735
3.668,0.09097
3.672,0.10352
3.676,0.02929
3.68,0.02197
3.684,0.0593
3.688,0.06306
3.692,0.01793
3.696,0.05541
3.7,0.03503
3.704,0.00781
3.708,0.01153
3.712,0.0194
3.716,-0.00456
3.72,-0.03224
3.724,-0.00107
3.728,-0.01224
3.732,-0.01721
3.736,-0.02222
3.74,8e-05
3.744,-0.01144
3.748,-0.03158
3.752,-0.01718
3.756,-0.05232
3.76,-0.00987
3.764,-0.04149
3.768,-0.02163
3.772,-0.00939
3.776,-0.01403
3.78,-0.03404
3.784,-0.03867
3.788,-0.02818
3.792,0.0203
3.796,-0.0105
3.8,-0.01555
3.804,-0.02576
3.808,-0.05244
3.812,-0.02605
3.816,-0.01478
3.82,-0.04096
3.824,-0.03611
3.828,-0.02845
3.832,-0.01692
3.836,-0.03923
3.84,-0.02888
3.844,-0.01717
3.848,-0.0425
3.852,0.01468
3.856,-0.01656
3.86,-0.02352
3.864,-0.02213
3.868,-0.0182
3.872,-0.02992
3.876,-0.05425
3.88,-0.03349
3.884,-0.02896
3.888,-0.02753
3.892,-0.03433
3.896,0.02645
3.9,-0.01807
3.904,-0.01657
3.908,-0.03253
3.912,-0.01182
3.916,-0.0365
3.92,-0.03651
3.924,0.00221
3.928,-0.01863
3.932,-0.0186
3.936,-0.02272
3.94,-0.04094
3.944,-0.01451
3.948,0.00666
3.952,-0.02976
3.956,-0.02778
3.96,-0.02464
3.964,-0.01907
3.968,-0.03615
3.972,-0.02139
3.976,-0.02253
3.98,0.00647
3.984,-0.0129
3.988,-0.02486
3.992,-0.02608
3.996,-0.02497
4.0,-0.05295
4.004,-0.02589
4.008,0.01062
4.012,-0.01641
4.016,0.00109
4.02,-0.03049
4.024,-0.04445
4.028,-0.0343
4.032,-0.05328
4.036,-0.0335
4.04,-0.02039
4.044,-0.03026
4.048,-0.02613
4.052,-0.03168
4.056,-0.00989
4.06,-0.03352
4.064,-0.01822
4.068,-0.00285
4.072,0.00828
4.076,-0.00459
4.08,-0.00848
4.084,0.00524
4.088,0.03386
4.092,0.03024
4.096,0.01315
4.1,0.01106
4.104,0.03297
4.108,0.04643
4.112,0.0699
4.116,0.04662
4.12,0.06742
4.124,0.08167
4.128,0.09459
4.132,0.05366
4.136,0.0803
4.14,0.08064
4.144,0.06038
4.148,0.01468
4.152,0.03376
4.156,-0.00138
4.16,-0.00042
4.164,0.00245
4.168,-0.0089
4.172,-0.00721
4.176,-0.01049
4.18,-0.02916
4.184,-0.02477
4.188,-0.00632
4.192,-0.01138
4.196,0.00572
4.2,-0.01294
4.204,-0.05687
4.208,-0.02033
4.212,-0.02149
4.216,-0.0188
4.22,-0.025
4.224,-0.04559
4.228,-0.03829
4.232,-0.0134
4.236,-0.01503
4.24,-0.02543
4.244,-0.09423
4.248,-0.10324
4.252,-0.1425
4.256,-0.09208
4.26,-0.05328
4.264,0.11617
4.268,0.28795
4.272,0.52707
4.276,0.73307
4.28,0.90381
4.284,0.97739
4.288,0.98105
4.292,0.82753
4.296,0.60562
4.3,0.35675
4.304,0.16385
4.308,-0.04304
4.312,-0.12917
4.316,-0.20576
4.32,-0.16743
4.324,-0.17372
4.328,-0.09588
4.332,-0.08701
4.336,-0.01407
4.34,-0.04743
4.344,-0.00919
4.348,-0.01178
4.352,-0.02867
4.356,-0.03193
4.36,-0.02013
4.364,-0.00527
4.368,0.00095
4.372,-0.03852
4.376,0.00995
4.38,-0.00131
4.384,-0.01445
4.388,-0.02448
4.392,-0.00192
4.396,-0.0011
4.4,-0.02217
4.404,-0.00414
4.408,0.01313
4.412,0.00037
4.416,-0.02252
4.42,-0.02401
4.424,-0.01304
4.428,-0.02625
4.432,0.00236
4.436,-0.02398
4.44,-0.01613
4.444,0.00898
4.448,-0.02056
4.452,-0.00326
4.456,-0.00856
4.46,0.00849
4.464,0.00648
4.468,0.03879
4.472,0.01514
4.476,0.00301
4.48,0.035
4.484,0.07378
4.488,0.03728
4.492,0.05207
4.496,0.03694
4.5,0.07122
4.504,0.09614
4.508,0.09427
4.512,0.07402
4.516,0.10186
4.52,0.12128
4.524,0.15686
4.528,0.1347
4.532,0.16479
4.536,0.14232
4.54,0.17599
4.544,0.19325
4.548,0.20054
4.552,0.18275
4.556,0.22988
4.56,0.19552
4.564,0.20614
4.568,0.20016
4.572,0.20363
4.576,0.1778
4.58,0.20422
4.584,0.20796
4.588,0.2032
4.592,0.18655
4.596,0.16924
4.6,0.15033
4.604,0.13698
4.608,0.11863
4.612,0.13443
4.616,0.1195
4.62,0.10081
4.624,0.09775
4.628,0.06716
4.632,0.05709
4.636,0.03099
4.64,0.01688
4.644,0.03857
4.648,0.04231
4.652,0.01958
4.656,0.03232
4.66,0.04916
4.664,0.00729
4.668,0.02715
4.672,-0.01851
4.676,-0.00634
4.68,-0.01291
4.684,-0.00679
4.688,-0.02632
4.692,-0.01115
4.696,-0.0061
4.7,-0.02
4.704,0.00185
4.708,-0.0123
4.712,-0.00686
4.716,-0.01928
4.72,0.01151
4.724,-0.00312
4.728,-0.00365
4.732,0.01381
4.736,-0.03495
4.74,-0.0005
4.744,-0.01434
4.748,-0.00283
4.752,-0.02078
4.756,-0.00607
4.76,-0.0271
4.764,-0.00474
4.768,0.01712
4.772,-0.00516
4.776,0.0147
4.78,-0.01465
4.784,-0.00956
4.788,-0.01456
4.792,-0.03515
4.796,0.00019
4.8,-0.00026
4.804,0.01746
4.808,0.02453
4.812,0.02317
4.816,0.01241
4.82,-0.03089
4.824,-0.02018
4.828,-0.00783
4.832,-0.00293
4.836,-0.02098
4.84,-0.00704
4.844,-0.00897
4.848,0.01416
4.852,0.00865
4.856,-0.02493
4.86,0.01074
4.864,-0.0163
4.868,-0.01549
4.872,0.00444
4.876,-0.02298
4.88,-0.01374
4.884,0.00153
4.888,0.0226
4.892,0.00474
4.896,-0.00508
4.9,-0.01071
4.904,0.00932
4.908,-0.01538
4.912,0.02013
4.916,0.01018
4.92,0.01344
4.924,-0.01249
4.928,-0.03715
4.932,0.01326
4.936,0.01033
4.94,0.02616
4.944,-0.01598
4.948,0.03629
4.952,-0.00764
4.956,0.04585
4.96,0.01095
4.964,-0.02346
4.968,0.02643
4.972,-0.00549
4.976,0.00161
4.98,0.00237
4.984,-0.00274
4.988,-0.0054
4.992,-0.02434
4.996,-0.01684
5.0,-0.02308
5.004,-0.0012
5.008,0.00344
5.012,0.01003
5.016,0.00578
5.02,0.01459
5.024,0.02958
5.028,0.00908
5.032,0.00854
5.036,0.0078
5.04,-0.01817
5.044,-0.01516
5.048,0.0234
5.052,-0.01324
5.056,-0.00453
5.06,-0.01189
5.064,-0.00066
5.068,0.00653
5.072,0.0109
5.076,-0.0002
5.08,0.00145
5.084,0.03249
5.088,0.00665
5.092,-0.01068
5.096,0.03368
5.1,0.03208
5.104,0.00405
5.108,0.01841
5.112,0.00457
5.116,-0.02584
5.12,0.00078
5.124,-0.01475
5.128,0.01924
5.132,0.02714
5.136,-0.00999
5.14,0.04282
5.144,0.03235
5.148,0.04779
5.152,0.03571
5.156,0.02478
5.16,0.06925
5.164,0.0725
5.168,0.08152
5.172,0.08577
5.176,0.0759
5.18,0.10806
5.184,0.1222
5.188,0.10966
5.192,0.07003
5.196,0.08237
5.2,0.05759
5.204,0.03487
5.208,0.05396
5.212,0.0232
5.216,0.02526
5.22,0.01896
5.224,0.0159
5.228,0.01126
5.232,0.01871
5.236,-0.00826
5.24,0.02223
5.244,0.03059
5.248,0.02309
5.252,-0.00367
5.256,-0.00415
5.26,0.03906
5.264,0.01364
5.268,0.01773
5.272,-0.00326
5.276,0.01814
5.28,0.00097
5.284,0.02621
5.288,0.02358
5.292,0.01958
5.296,-0.04058
5.3,-0.06416
5.304,-0.08556
5.308,-0.1118
5.312,-0.07168
5.316,0.04373
5.32,0.18226
5.324,0.41199
5.328,0.59737
5.332,0.79744
5.336,0.94192
5.34,0.98321
5.344,0.94952
5.348,0.81857
5.352,0.60869
5.356,0.36291
5.36,0.17547
5.364,-0.02536
5.368,-0.12665
5.372,-0.1418
5.376,-0.15856
5.38,-0.11424
5.384,-0.08316
5.388,-0.02462
5.392,-0.01226
5.396,-0.0089
5.4,-0.02403
5.404,0.066
5.408,0.00804
5.412,0.01524
5.416,0.00869
5.42,0.01046
5.424,0.03244
5.428,0.01682
5.432,0.00923
5.436,0.00744
5.44,0.00437
5.444,0.00631
5.448,0.01094
5.452,-0.01709
5.456,0.03379
5.46,0.0294
5.464,0.01324
5.468,0.00151
5.472,0.0087
5.476,0.03687
5.48,-0.00115
5.484,0.01181
5.488,0.03919
5.492,0.0013
5.496,0.04519
5.5,0.01478
5.504,0.04949
5.508,0.01799
5.512,0.05114
5.516,0.0608
5.52,0.02808
5.524,0.02526
5.528,0.01878
5.532,0.02925
5.536,0.05489
5.54,0.0532
5.544,0.06765
5.548,0.09878
5.552,0.07396
5.556,0.08074
5.56,0.12376
5.564,0.12896
5.568,0.12857
5.572,0.16272
5.576,0.15281
5.58,0.15116
5.584,0.17349
5.588,0.17164
5.592,0.18132
5.596,0.21875
5.6,0.227
5.604,0.22984
5.608,0.25743
5.612,0.23288
5.616,0.24599
5.62,0.23299
5.624,0.26247
5.628,0.24104
5.632,0.24904
5.636,0.25594
5.64,0.24999
5.644,0.22448
5.648,0.18883
5.652,0.19279
5.656,0.19617
5.66,0.19975
5.664,0.1574
5.668,0.13894
5.672,0.14482
5.676,0.13093
5.68,0.08321
5.684,0.09052
5.688,0.088
5.692,0.10474
5.696,0.05831
5.7,0.08437
5.704,0.0793
5.708,0.03065
5.712,0.05226
5.716,0.03516
5.72,0.02269
5.724,0.03556
5.728,0.00306
5.732,0.03201
5.736,0.04877
5.74,0.01233
5.744,0.02709
5.748,0.01652
5.752,0.02529
5.756,0.03515
5.76,0.02283
5.764,0.04899
5.768,0.02863
5.772,0.0208
5.776,-0.00289
5.78,0.04503
5.784,0.01336
5.788,0.02377
5.792,0.01752
5.796,0.00543
5.8,-0.00448
5.804,0.01485
5.808,0.0442
5.812,0.00148
5.816,0.02919
5.82,0.02142
5.824,0.00295
5.828,0.02839
5.832,0.01543
5.836,0.00151
5.84,0.03036
5.844,0.01323
5.848,0.03154
5.852,0.00389
5.856,0.01559
5.86,0.03893
5.864,0.03431
5.868,0.00736
5.872,0.01666
5.876,0.01171
5.88,0.02175
5.884,0.01705
5.888,0.05174
5.892,0.00764
5.896,0.0336
5.9,0.04932
5.904,0.03654
5.908,0.03055
5.912,0.02886
5.916,0.04336
5.92,0.03768
5.924,0.02397
5.928,0.0302
5.932,0.02047
5.936,0.02013
5.94,0.03727
5.944,0.05072
5.948,0.0313
5.952,0.0262
5.956,0.01783
5.96,0.00848
5.964,0.02534
5.968,0.00068
5.972,0.02113
5.976,0.01959
5.98,-0.00917
5.984,0.02095
5.988,0.02964
5.992,0.03733
5.996,0.04704
6.0,0.03605
6.004,0.04115
6.008,0.05894
6.012,0.01951
6.016,-0.00099
6.02,0.01549
6.024,0.0163
6.028,-0.01852
6.032,0.00192
6.036,0.00445
6.04,0.01932
6.044,0.01631
6.048,0.03742
6.052,0.0264
6.056,0.02876
6.06,0.02995
6.064,0.04284
6.068,0.02146
6.072,0.03419
6.076,0.03075
6.08,0.0113
6.084,0.01571
6.088,0.03973
6.092,0.01556
6.096,0.03822
6.1,0.03003
6.104,0.0262
6.108,0.00953
6.112,0.04144
6.116,0.0613
6.12,0.03005
6.124,0.03208
6.128,0.00725
6.132,0.02054
6.136,0.02844
6.14,0.03419
6.144,0.02078
6.148,0.01455
6.152,0.05193
6.156,0.02312
6.16,0.03015
6.164,0.04593
6.168,0.0405
6.172,0.00872
6.176,0.01955
6.18,0.01801
6.184,0.0362
6.188,0.05039
6.192,0.02577
6.196,0.05375
6.2,0.0225
6.204,0.03468
6.208,0.07597
6.212,0.03772
6.216,0.07903
6.22,0.12145
6.224,0.04931
6.228,0.13613
6.232,0.15028
6.236,0.12231
6.24,0.11326
6.244,0.10087
6.248,0.12818
6.252,0.11578
6.256,0.10391
6.26,0.1175
6.264,0.07936
6.268,0.08796
6.272,0.04875
6.276,0.05057
6.28,0.0492
6.284,0.04006
6.288,0.03826
6.292,0.03912
6.296,0.05348
6.3,0.02936
6.304,0.0285
6.308,0.02414
6.312,-0.01328
6.316,0.03066
6.32,0.00854
6.324,0.02289
6.328,0.00184
6.332,0.02
6.336,0.02606
6.34,0.01663
6.344,0.04451
6.348,0.02038
6.352,0.01984
6.356,0.01037
6.36,0.00093
6.364,-0.03015
6.368,-0.07874
6.372,-0.07943
6.376,-0.05605
6.38,0.00096
6.384,0.19719
6.388,0.38445
6.392,0.58482
6.396,0.79473
6.4,0.95758
6.404,1.03861
6.408,0.98147
6.412,0.85402
6.416,0.64866
6.42,0.38747
6.424,0.18312
6.428,0.019
6.432,-0.08831
6.436,-0.13381
6.44,-0.1438
6.444,-0.08756
6.448,-0.04235
6.452,-0.0349
6.456,-0.00445
6.46,0.00758
6.464,0.01223
6.468,0.05535
6.472,0.01976
6.476,0.03667
6.48,0.04695
6.484,0.03098
6.488,0.0424
6.492,0.02051
6.496,0.02578
6.5,0.03983
6.504,0.02986
6.508,0.02162
6.512,0.01155
6.516,0.0379
6.52,0.01268
6.524,0.03071
6.528,0.01482
6.532,0.03778
6.536,0.03706
6.54,0.04256
6.544,0.00644
6.548,0.03629
6.552,0.02942
6.556,0.02596
6.56,0.0574
6.564,0.03559
6.568,0.01706
6.572,0.03529
6.576,0.02822
6.58,0.03513
6.584,0.02915
6.588,0.06167
6.592,0.06545
6.596,0.03106
6.6,0.06842
6.604,0.08444
6.608,0.08634
6.612,0.1044
6.616,0.09551
6.62,0.08837
6.624,0.1284
6.628,0.15457
6.632,0.10457
6.636,0.17366
6.64,0.14645
6.644,0.16407
6.648,0.21375
6.652,0.21055
6.656,0.21407
6.66,0.21973
6.664,0.23062
6.668,0.21839
6.672,0.24177
6.676,0.24232
6.68,0.24838
6.684,0.26244
6.688,0.25651
6.692,0.23862
6.696,0.22981
6.7,0.2364
6.704,0.23702
6.708,0.23393
6.712,0.20295
6.716,0.16794
6.72,0.1848
6.724,0.19088
6.728,0.15462
6.732,0.16632
6.736,0.14496
6.74,0.1323
6.744,0.10317
6.748,0.12306
6.752,0.11028
6.756,0.08438
6.76,0.09557
6.764,0.07411
6.768,0.05799
6.772,0.08091
6.776,0.06225
6.78,0.02981
6.784,0.07666
6.788,0.05854
6.792,0.03129
6.796,0.00669
6.8,0.03767
6.804,0.03101
6.808,0.02197
6.812,0.03308
6.816,0.01577
6.82,0.04586
6.824,0.04309
6.828,0.03914
6.832,0.03852
6.836,0.08274
6.84,0.03281
6.844,0.03363
6.848,0.02876
6.852,0.01865
6.856,0.03632
6.86,0.04836
6.864,0.0372
6.868,0.03681
6.872,0.01157
6.876,0.01426
6.88,0.02569
6.884,0.05663
6.888,0.02163
6.892,0.04076
6.896,0.03582
6.9,0.0058
6.904,0.04805
6.908,0.03285
6.912,0.0525
6.916,0.02204
6.92,0.0343
6.924,0.05227
6.928,0.01343
6.932,0.02252
6.936,0.02173
6.94,0.03624
6.944,0.03599
6.948,0.02882
6.952,0.02
6.956,0.0341
6.96,-0.00113
6.964,0.0201
6.968,0.0426
6.972,0.0245
6.976,0.03142
6.98,0.04337
6.984,0.0464
6.988,0.0082
6.992,0.02435
6.996,-0.00081
7.0,0.00481
7.004,0.02929
7.008,0.04116
7.012,0.04794
7.016,0.0379
7.02,0.05476
7.024,0.03045
7.028,0.01172
7.032,0.04124
7.036,0.02217
7.04,0.02491
7.044,0.04982
7.048,0.04151
7.052,0.02422
7.056,0.02252
7.06,0.02084
7.064,0.0178
7.068,0.02157
7.072,0.02654
7.076,0.01143
7.08,0.03091
7.084,0.02981
7.088,0.0291
7.092,0.04912
7.096,0.03377
7.1,0.02363
7.104,0.02154
7.108,0.01192
7.112,0.0311
7.116,0.01777
7.12,0.01798
7.124,0.02648
7.128,0.03261
7.132,0.0236
7.136,0.01934
7.14,0.01745
7.144,0.01189
7.148,0.03724
7.152,0.00433
7.156,0.03638
7.16,0.02022
7.164,0.02543
7.168,0.03407
7.172,0.01544
7.176,0.05541
7.18,0.02078
7.184,0.05585
7.188,0.03648
7.192,0.03158
7.196,0.03071
7.2,0.06626
7.204,0.05696
7.208,0.07883
7.212,0.09697
7.216,0.08683
7.22,0.13392
7.224,0.10487
7.228,0.14664
7.232,0.12851
7.236,0.10246
7.24,0.1159
7.244,0.12223
7.248,0.07435
7.252,0.11737
7.256,0.04886
7.26,0.02671
7.264,0.03109
7.268,0.05779
7.272,0.03471
7.276,0.03507
7.28,0.04068
7.284,0.0196
7.288,0.02924
7.292,0.01413
7.296,0.03439
7.3,0.01771
7.304,-0.00777
7.308,-0.00258
7.312,0.02133
7.316,0.04252
7.32,0.03847
7.324,0.02914
7.328,0.02364
7.332,0.03257
7.336,0.00077
7.34,0.01466
7.344,-0.01391
7.348,-0.00679
7.352,-0.04038
7.356,-0.11444
7.36,-0.09511
7.364,-0.03729
7.368,0.09646
7.372,0.26841
7.376,0.4414
7.38,0.63938
7.384,0.87021
7.388,0.98551
7.392,1.03151
7.396,0.91348
7.4,0.74732
7.404,0.51583
7.408,0.34564
7.412,0.10302
7.416,-0.05292
7.42,-0.11174
7.424,-0.16524
7.428,-0.12986
7.432,-0.07925
7.436,-0.03589
7.44,0.00702
7.444,0.00642
7.448,-0.0041
7.452,0.00675
7.456,0.01856
7.46,0.02714
7.464,-0.00758
7.468,0.03822
7.472,0.05185
7.476,0.00341
7.48,0.01557
7.484,0.01524
7.488,0.00734
7.492,0.0281
7.496,0.0131
7.5,0.03038
7.504,0.02121
7.508,0.03364
7.512,-0.00178
7.516,0.01954
7.52,0.02633
7.524,0.02925
7.528,0.068
7.532,0.02124
7.536,0.01256
7.54,0.0151
7.544,0.00573
7.548,0.03152
7.552,0.02955
7.556,0.03511
7.56,0.03505
7.564,0.05423
7.568,0.04059
7.572,0.03943
7.576,0.03422
7.58,0.0637
7.584,0.05464
7.588,0.06727
7.592,0.09453
7.596,0.07479
7.6,0.0982
7.604,0.10479
7.608,0.12026
7.612,0.10987
7.616,0.1197
7.62,0.11899
7.624,0.12388
7.628,0.16354
7.632,0.18227
7.636,0.19032
7.64,0.20607
7.644,0.20769
7.648,0.21699
7.652,0.23507
7.656,0.2318
7.66,0.24687
7.664,0.24485
7.668,0.24242
7.672,0.22317
7.676,0.24701
7.68,0.23058
7.684,0.23581
7.688,0.23227
7.692,0.17896
7.696,0.19309
7.7,0.1856
7.704,0.1966
7.708,0.16613
7.712,0.15652
7.716,0.15
7.72,0.13621
7.724,0.10852
7.728,0.09625
7.732,0.06952
7.736,0.09239
7.74,0.11199
7.744,0.07
7.748,0.08123
7.752,0.0661
7.756,0.04796
7.76,0.04881
7.764,0.02873
7.768,0.01996
7.772,0.00463
7.776,0.03659
7.78,0.04186
7.784,-0.00879
7.788,0.04769
7.792,0.0108
7.796,0.03069
7.8,0.00347
7.804,0.01097
7.808,0.02875
7.812,0.00287
7.816,-0.01004
7.82,-0.01076
7.824,0.01674
7.828,0.02649
7.832,0.0151
7.836,0.02125
7.84,0.02361
7.844,0.00237
7.848,0.01133
7.852,0.01488
7.856,0.00977
7.86,0.01488
7.864,-0.00728
7.868,-0.00362
7.872,-0.00801
7.876,0.01236
7.88,0.03908
7.884,0.03477
7.888,0.00421
7.892,0.01456
7.896,0.00703
7.9,0.01247
7.904,0.01592
7.908,0.0169
7.912,0.02083
7.916,-0.02098
7.92,0.03224
7.924,0.0387
7.928,0.01293
7.932,0.02106
7.936,0.00128
7.94,-0.00136
7.944,-0.00605
7.948,0.02133
7.952,-0.01
7.956,0.01744
7.96,0.03392
7.964,0.02599
7.968,0.00697
7.972,0.02028
7.976,0.00439
7.98,0.00452
7.984,0.013
7.988,0.005
7.992,0.02331
7.996,0.01001
8.0,0.00217
8.004,0.02162
8.008,0.01303
8.012,0.00983
8.016,0.01503
8.02,0.01546
8.024,0.03142
8.028,-0.00032
8.032,0.01218
8.036,0.01351
8.04,0.03041
8.044,0.00342
8.048,0.01972
8.052,0.00331
8.056,-0.01265
8.06,-0.00527
8.064,-0.00431
8.068,-0.00732
8.072,0.01359
8.076,0.00876
8.08,0.01915
8.084,-0.01961
8.088,0.02067
8.092,-0.02007
8.096,0.00171
8.1,0.0209
8.104,0.00587
8.108,0.01212
8.112,0.02137
8.116,-0.01428
8.12,-0.00655
8.124,0.02462
8.128,-0.00417
8.132,0.00996
8.136,0.00283
8.14,0.00166
8.144,-0.00584
8.148,0.00263
8.152,-0.01937
8.156,-0.0059
8.16,0.01058
8.164,-0.00725
8.168,-0.0259
8.172,0.01513
8.176,0.00983
8.18,0.00913
8.184,0.0093
8.188,-0.00559
8.192,-0.00467
8.196,0.0115
8.2,-0.00319
8.204,0.00465
8.208,0.02069
8.212,-0.01586
8.216,0.03209
8.22,0.01304
8.224,0.01465
8.228,0.01383
8.232,0.01976
8.236,0.04692
8.24,0.06191
8.244,0.06947
8.248,0.09197
8.252,0.09916
8.256,0.12228
8.26,0.11062
8.264,0.07415
8.268,0.10982
8.272,0.05897
8.276,0.04934
8.28,0.08412
8.284,0.02042
8.288,0.03318
8.292,0.025
8.296,0.0406
8.3,0.01234
8.304,0.01812
8.308,-0.00303
8.312,0.01589
8.316,0.03308
8.32,-0.01717
8.324,-0.00149
8.328,-0.03385
8.332,0.00575
8.336,-0.02105
8.34,0.00483
8.344,-0.00898
8.348,-0.02541
8.352,0.02011
8.356,0.00553
8.36,-0.00091
8.364,0.00473
8.368,0.00313
8.372,-0.00491
8.376,-0.03138
8.38,-0.04829
8.384,-0.09298
8.388,-0.096
8.392,-0.11884
8.396,-0.03049
8.4,0.10765
8.404,0.30048
8.408,0.50044
8.412,0.69762
8.416,0.88507
8.42,0.97962
8.424,0.98069
8.428,0.84165
8.432,0.68346
8.436,0.39876
8.44,0.2101
8.444,0.03657
8.448,-0.12998
8.452,-0.18822
8.456,-0.16472
8.46,-0.12749
8.464,-0.13374
8.468,-0.0563
8.472,0.00464
8.476,-0.02662
8.48,-0.00871
8.484,-0.00322
8.488,-0.00431
8.492,-0.00054
8.496,-0.03046
8.5,0.00623
8.504,0.01647
8.508,-0.03334
8.512,-0.00794
8.516,-0.00338
8.52,-0.02142
8.524,0.01012
8.528,-0.0274
8.532,0.00103
8.536,0.00902
8.54,0.00632
8.544,-0.00345
8.548,0.00296
8.552,-0.02227
8.556,-0.0041
8.56,0.0034
8.564,-0.01276
8.568,-0.01393
8.572,0.01273
8.576,-0.03133
8.58,-0.00969
8.584,0.02061
8.588,0.00436
8.592,-0.01276
8.596,0.02077
8.6,-0.01705
8.604,0.03072
8.608,0.00031
8.612,0.01701
8.616,0.03122
8.62,0.02766
8.624,0.04494
8.628,0.0473
8.632,0.03312
8.636,0.072
8.64,0.07526
8.644,0.07346
8.648,0.10459
8.652,0.09027
8.656,0.12108
8.66,0.13984
8.664,0.15313
8.668,0.14323
8.672,0.18261
8.676,0.18201
8.68,0.16719
8.684,0.18847
8.688,0.20226
8.692,0.22154
8.696,0.19338
8.7,0.23141
8.704,0.23589
8.708,0.20002
8.712,0.20991
8.716,0.19047
8.72,0.18603
8.724,0.15396
8.728,0.1889
8.732,0.15281
8.736,0.15628
8.74,0.15115
8.744,0.14694
8.748,0.11985
8.752,0.09535
8.756,0.10265
8.76,0.05651
8.764,0.05708
8.768,0.05102
8.772,0.03319
8.776,0.0331
8.78,0.03237
8.784,0.05881
8.788,0.00614
8.792,0.01419
8.796,-0.01817
8.8,-0.01943
8.804,0.00998
8.808,0.02241
8.812,-0.01975
8.816,0.00725
8.82,-0.00471
8.824,0.00813
8.828,-0.02751
8.832,0.00799
8.836,-0.00099
8.84,-0.01339
8.844,-0.03225
8.848,-0.02905
8.852,-0.00484
8.856,-0.02385
8.86,-0.02024
8.864,0.01805
8.868,0.00551
8.872,-0.01907
8.876,-0.02048
8.88,0.00501
8.884,-0.02154
8.888,-0.0203
8.892,-0.03001
8.896,-0.00257
8.9,-0.02139
8.904,-0.01659
8.908,-0.0251
8.912,-0.01768
8.916,-0.01939
8.92,-0.02488
8.924,-0.02604
8.928,-0.04899
8.932,-0.0346
8.936,-0.01949
8.94,-0.01098
8.944,-0.02716
8.948,-0.00038
8.952,-0.01587
8.956,-0.04013
8.96,-0.03803
8.964,-0.00662
8.968,-0.0088
8.972,-0.04995
8.976,-0.03592
8.98,-0.04863
8.984,-0.0123
8.988,-0.03687
8.992,-0.00963
8.996,-0.02168
9.0,-0.0131
9.004,-0.04433
9.008,-0.01931
9.012,-0.00231
9.016,0.00338
9.02,-0.01419
9.024,-0.03167
9.028,-0.02544
9.032,-0.02848
9.036,-0.03907
9.04,-0.03716
9.044,-0.03858
9.048,-0.0342
9.052,-0.02094
9.056,-0.03531
9.06,-0.00878
9.064,-0.02944
9.068,-0.03651
9.072,-0.00298
9.076,-0.01639
9.08,-0.03549
9.084,-0.0262
9.088,-0.02872
9.092,-0.01039
9.096,-0.02493
9.1,-0.00854
9.104,-0.01077
9.108,0.00289
9.112,0.00785
9.116,-0.03905
9.12,-0.00919
9.124,-0.01721
9.128,-0.00305
9.132,-0.01772
9.136,-0.00554
9.14,-0.00245
9.144,-0.02186
9.148,0.01394
9.152,-0.00084
9.156,-0.03718
9.16,-0.01058
9.164,-0.02516
9.168,0.00601
9.172,-0.00662
9.176,-0.01118
9.18,-0.01142
9.184,0.00123
9.188,0.01506
9.192,0.0381
9.196,0.07552
9.2,0.06521
9.204,0.07099
9.208,0.08247
9.212,0.04035
9.216,0.09824
9.22,0.06537
9.224,0.07883
9.228,0.05834
9.232,0.02448
9.236,0.03572
9.24,0.01731
9.244,0.00852
9.248,-0.00651
9.252,-0.01883
9.256,-0.00465
9.26,-0.01549
9.264,-0.02333
9.268,-0.04642
9.272,-0.02791
9.276,-0.0216
9.28,0.00112
9.284,-0.02656
9.288,-0.02737
9.292,-0.0605
9.296,-0.05307
9.3,-0.03601
9.304,-0.01736
9.308,-0.03233
9.312,0.02277
9.316,-0.02449
9.32,-0.00954
9.324,-0.05501
9.328,-0.02844
9.332,-0.05296
9.336,-0.13269
9.34,-0.14887
9.344,-0.15993
9.348,-0.07481
9.352,0.07043
9.356,0.24485
9.36,0.43025
9.364,0.63974
9.368,0.83901
9.372,0.98207
9.376,0.94167
9.38,0.86178
9.384,0.6362
9.388,0.44901
9.392,0.20068
9.396,0.01819
9.4,-0.14355
9.404,-0.19874
9.408,-0.20604
9.412,-0.175
9.416,-0.11001
9.42,-0.08244
9.424,-0.05294
9.428,-0.03592
9.432,-0.04545
9.436,-0.04465
9.44,-0.03587
9.444,-0.02056
9.448,-0.02597
9.452,-0.02727
9.456,-0.02527
9.46,-0.01969
9.464,-0.01815
9.468,-0.02484
9.472,-0.01044
9.476,-0.01427
9.48,-0.00802
9.484,-0.03817
9.488,-0.04643
9.492,-0.05276
9.496,-0.02996
9.5,-0.03659
9.504,0.00617
9.508,-0.03195
9.512,-0.0309
9.516,-0.03256
9.52,-0.01391
9.524,-0.04403
9.528,0.01357
9.532,-0.01908
9.536,-0.03784
9.54,-0.02502
9.544,-0.03699
9.548,-0.02646
9.552,-0.03073
9.556,0.00605
9.56,0.00552
9.564,0.01915
9.568,0.02771
9.572,0.01375
9.576,0.01587
9.58,0.00628
9.584,0.04305
9.588,0.05248
9.592,0.06087
9.596,0.05469
9.6,0.06032
9.604,0.08483
9.608,0.1104
9.612,0.12444
9.616,0.13268
9.62,0.11466
9.624,0.17432
9.628,0.15531
9.632,0.14429
9.636,0.18423
9.64,0.20028
9.644,0.17516
9.648,0.182
9.652,0.1974
9.656,0.20773
9.66,0.17148
9.664,0.17715
9.668,0.1675
9.672,0.18656
9.676,0.14693
9.68,0.17636
9.684,0.11207
9.688,0.15854
9.692,0.13779
9.696,0.10846
9.7,0.08025
9.704,0.09955
9.708,0.08142
9.712,0.05478
9.716,0.05571
9.72,0.01389
9.724,0.05353
9.728,0.03162
9.732,0.01402
9.736,0.01291
9.74,0.00761
9.744,-0.01083
9.748,-0.00871
9.752,-0.01421
9.756,-0.01535
9.76,-0.04155
9.764,-0.02348
9.768,-0.01538
9.772,-0.0208
9.776,-0.0382
9.78,-0.02867
9.784,-0.01003
9.788,-0.01564
9.792,-0.02555
9.796,-0.03236
9.8,-0.04766
9.804,-0.02775
9.808,-0.02977
9.812,-0.0212
9.816,-0.04178
9.82,-0.03021
9.824,-0.0293
9.828,-0.02925
9.832,-0.01591
9.836,-0.01391
9.84,-0.01133
9.844,-0.0283
9.848,-0.03636
9.852,-0.02882
9.856,-0.03396
9.86,-0.01457
9.864,-0.02529
9.868,-0.0234
9.872,-0.05129
9.876,-0.02757
9.88,-0.0434
9.884,-0.02567
9.888,-0.02629
9.892,-0.04303
9.896,-0.02946
9.9,-0.00612
9.904,-0.03982
9.908,-0.03762
9.912,-0.0576
9.916,-0.03159
9.92,-0.00351
9.924,-0.04176
9.928,-0.05378
9.932,-0.03726
9.936,-0.0674
9.94,-0.03098
9.944,-0.04527
9.948,-0.05158
9.952,-0.017
9.956,-0.0127
9.96,-0.01059
9.964,-0.0356
9.968,-0.02973
9.972,-0.01362
9.976,-0.01784
9.98,-0.02712
9.984,-0.02868
9.988,-0.02192
9.992,-0.01382
9.996,-0.03876
