t_seg,ecg_mV
0.0,-0.01183
0.004,-0.01824
0.008,-0.03491
0.012,0.00265
0.016,-0.03332
0.02,-0.00575
0.024,-0.01332
0.028,-0.02654
0.032,-0.03254
0.036,-0.03038
0.04,-0.02807
0.044,0.00478
0.048,-0.02908
0.052,-0.00134
0.056,-0.01619
0.06,-0.02215
0.064,-0.01125
0.068,-0.04745
0.072,-0.00115
0.076,-0.02576
0.08,0.00095
0.084,0.01002
0.088,-0.02726
0.092,0.01489
0.096,-0.01508
0.1,-0.03196
0.104,0.00229
0.108,-0.00707
0.112,-0.02696
0.116,-0.00807
0.12,0.01695
0.124,-0.03012
0.128,-0.00531
0.132,-0.01318
0.136,-0.00925
0.14,-0.00786
0.144,-0.03132
0.148,-0.00186
0.152,-0.02515
0.156,0.00513
0.16,-0.01472
0.164,-0.00742
0.168,-0.01106
0.172,0.0003
0.176,-0.01882
0.18,-0.01426
0.184,0.00052
0.188,-0.02203
0.192,0.00275
0.196,-0.00268
0.2,-0.01387
0.204,-0.02709
0.208,-0.01706
0.212,-0.01893
0.216,-0.01659
0.22,-0.02113
0.224,-0.00647
0.228,-0.00242
0.232,-0.02806
0.236,0.00361
0.24,-0.02755
0.244,-0.03125
0.248,-0.02113
0.252,0.00075
0.256,-0.02973
0.26,-0.00065
0.264,-0.02685
0.268,-0.00613
0.272,-0.03544
0.276,0.00297
0.28,-0.00152
0.284,0.01234
0.288,-0.02195
0.292,0.01292
0.296,-0.04058
0.3,-0.00216
0.304,0.03885
0.308,0.01635
0.312,-0.02019
0.316,0.01426
0.32,-0.00971
0.324,-0.02483
0.328,-0.01429
0.332,0.00271
0.336,0.00305
0.34,-0.0029
0.344,-0.00773
0.348,0.01172
0.352,-0.01632
0.356,-0.00157
0.36,0.01358
0.364,0.0234
0.368,0.00266
0.372,-0.00504
0.376,-0.01692
0.38,-0.01726
0.384,-0.01094
0.388,-0.00845
0.392,-0.0008
0.396,0.00726
0.4,0.00181
0.404,-0.00068
0.408,-0.01075
0.412,-0.00637
0.416,-0.00695
0.42,-0.03819
0.424,0.00023
0.428,-0.02312
0.432,-0.00237
0.436,0.00688
0.44,-0.01513
0.444,0.01346
0.448,-0.03742
0.452,-0.01618
0.456,-0.00857
0.46,-0.00974
0.464,-0.02473
0.468,-0.00729
0.472,-0.01293
0.476,-0.00647
0.48,-0.00549
0.484,0.01746
0.488,-0.03435
0.492,-0.00478
0.496,0.00435
0.5,-0.01519
0.504,-0.0232
0.508,-0.01602
0.512,0.01119
0.516,0.00359
0.52,-0.00367
0.524,0.00715
0.528,0.0102
0.532,-0.00478
0.536,-0.00149
0.54,0.00033
0.544,0.0071
0.548,0.04905
0.552,0.04163
0.556,0.02961
0.56,0.04001
0.564,0.06048
0.568,0.08099
0.572,0.09037
0.576,0.12906
0.58,0.10004
0.584,0.0851
0.588,0.10907
0.592,0.09769
0.596,0.06573
0.6,0.07691
0.604,0.06713
0.608,0.01713
0.612,0.06629
0.616,0.03086
0.62,0.02229
0.624,-0.0082
0.628,0.0143
0.632,0.00834
0.636,-0.01835
0.64,0.04061
0.644,0.02013
0.648,-0.01745
0.652,-0.00276
0.656,-0.0064
0.66,0.00919
0.664,0.0072
0.668,3e-05
0.672,-0.02861
0.676,0.03273
0.68,0.00083
0.684,-0.01023
0.688,-0.00981
0.692,0.00079
0.696,0.01162
0.7,-0.05525
0.704,-0.06347
0.708,-0.11518
0.712,-0.1018
0.716,-0.01186
0.72,0.0861
0.724,0.23759
0.728,0.45706
0.732,0.686
0.736,0.87462
0.74,0.96081
0.744,0.99057
0.748,0.90158
0.752,0.70198
0.756,0.50039
0.76,0.24896
0.764,0.06424
0.768,-0.09642
0.772,-0.13894
0.776,-0.1586
0.78,-0.1567
0.784,-0.11389
0.788,-0.0457
0.792,-0.03235
0.796,0.02562
0.8,0.00422
0.804,-0.0048
0.808,-0.00615
0.812,-0.00663
0.816,0.01012
0.82,0.02522
0.824,-0.00083
0.828,-0.0078
0.832,0.02067
0.836,0.00337
0.84,0.03077
0.844,0.00771
0.848,0.01073
0.852,0.00299
0.856,-0.00893
0.86,-0.01593
0.864,-0.00956
0.868,0.04454
0.872,0.01135
0.876,0.00261
0.88,0.00692
0.884,0.00134
0.888,0.01715
0.892,0.0205
0.896,0.01851
0.9,-0.00614
0.904,-0.01655
0.908,0.04153
0.912,0.01677
0.916,-0.02756
0.92,0.00367
0.924,0.03518
0.928,-0.00043
0.932,0.04455
0.936,0.04725
0.94,0.08656
0.944,0.06979
0.948,0.05811
0.952,0.0878
0.956,0.09054
0.96,0.08884
0.964,0.09971
0.968,0.09306
0.972,0.11632
0.976,0.13659
0.98,0.16003
0.984,0.15486
0.988,0.16834
0.992,0.18296
0.996,0.23471
1.0,0.21432
1.004,0.19737
1.008,0.21953
1.012,0.2483
1.016,0.26358
1.02,0.23762
1.024,0.23811
1.028,0.219
1.032,0.22057
1.036,0.20844
1.04,0.18163
1.044,0.21748
1.048,0.20841
1.052,0.19741
1.056,0.198
1.06,0.19984
1.064,0.13599
1.068,0.15081
1.072,0.14179
1.076,0.1191
1.08,0.11156
1.084,0.12013
1.088,0.10967
1.092,0.1025
1.096,0.0754
1.1,0.08618
1.104,0.04767
1.108,0.03264
1.112,0.02886
1.116,0.02022
1.12,0.05155
1.124,0.03788
1.128,0.05084
1.132,0.01076
1.136,0.00921
1.14,0.00562
1.144,0.02357
1.148,-0.00247
1.152,0.02344
1.156,0.01408
1.16,0.0345
1.164,0.02283
1.168,0.05894
1.172,-0.00769
1.176,0.02581
1.18,-0.00371
1.184,0.01458
1.188,0.04912
1.192,0.01951
1.196,0.02818
1.2,0.00236
1.204,-0.0111
1.208,0.01606
1.212,0.03609
1.216,0.04084
1.22,0.05879
1.224,0.02681
1.228,-0.00773
1.232,0.00656
1.236,-0.00502
1.24,0.02612
1.244,0.03499
1.248,-0.00616
1.252,0.0104
1.256,0.01692
1.26,0.02638
1.264,0.01416
1.268,0.00286
1.272,-0.00323
1.276,0.02932
1.28,0.02714
1.284,0.0269
1.288,0.03097
1.292,0.02027
1.296,0.01813
1.3,0.02018
1.304,0.00557
1.308,0.01675
1.312,0.02097
1.316,0.04388
1.32,0.03709
1.324,0.01723
1.328,0.00109
1.332,0.01642
1.336,0.00622
1.34,-0.00898
1.344,0.00734
1.348,0.03059
1.352,0.0267
1.356,0.01198
1.36,0.02594
1.364,0.01797
1.368,0.01541
1.372,0.02419
1.376,0.01298
1.38,0.03369
1.384,0.00631
1.388,0.02934
1.392,0.00691
1.396,0.03255
1.4,0.02262
1.404,0.02758
1.408,0.01923
1.412,0.04122
1.416,0.03356
1.42,0.04148
1.424,0.01968
1.428,0.03752
1.432,0.0276
1.436,0.06624
1.44,0.07217
1.444,0.08113
1.448,0.07772
1.452,0.11555
1.456,0.13212
1.46,0.11338
1.464,0.13309
1.468,0.10777
1.472,0.13391
1.476,0.08848
1.48,0.08083
1.484,0.07299
1.488,0.05086
1.492,0.05823
1.496,0.03913
1.5,0.07332
1.504,0.04595
1.508,0.02931
1.512,0.02273
1.516,0.03351
1.52,0.04411
1.524,0.02264
1.528,0.02886
1.532,0.01736
1.536,0.02707
1.54,-0.00639
1.544,0.01151
1.548,0.00996
1.552,0.03489
1.556,0.03664
1.56,0.04569
1.564,0.02691
1.568,0.04781
1.572,0.02085
1.576,0.00423
1.58,-0.02926
1.584,-0.06392
1.588,-0.09296
1.592,-0.09166
1.596,-0.03197
1.6,0.08901
1.604,0.24411
1.608,0.4822
1.612,0.68038
1.616,0.8549
1.62,0.99552
1.624,1.01074
1.628,0.92552
1.632,0.75936
1.636,0.50929
1.64,0.29317
1.644,0.12747
1.648,-0.06863
1.652,-0.11338
1.656,-0.13841
1.66,-0.1522
1.664,-0.10399
1.668,-0.04794
1.672,-0.01755
1.676,0.0147
1.68,0.01837
1.684,0.03254
1.688,0.02593
1.692,0.04697
1.696,0.0306
1.7,0.03003
1.704,0.02468
1.708,0.03104
1.712,0.03217
1.716,0.03715
1.72,0.0286
1.724,0.02898
1.728,0.01754
1.732,0.04312
1.736,0.05907
1.74,0.02971
1.744,0.04085
1.748,0.03227
1.752,0.0224
1.756,0.05056
1.76,0.05266
1.764,0.01393
1.768,0.02273
1.772,0.0348
1.776,0.03018
1.78,0.06407
1.784,0.01863
1.788,0.02115
1.792,0.03147
1.796,0.02232
1.8,0.05818
1.804,0.04663
1.808,0.0552
1.812,0.06012
1.816,0.05767
1.82,0.08678
1.824,0.08977
1.828,0.05063
1.832,0.10503
1.836,0.0972
1.84,0.13578
1.844,0.1472
1.848,0.12418
1.852,0.15095
1.856,0.17794
1.86,0.18065
1.864,0.17529
1.868,0.19701
1.872,0.21085
1.876,0.23231
1.88,0.24431
1.884,0.21951
1.888,0.21517
1.892,0.23962
1.896,0.26309
1.9,0.25704
1.904,0.25898
1.908,0.23598
1.912,0.21701
1.916,0.25585
1.92,0.23812
1.924,0.21407
1.928,0.21976
1.932,0.19484
1.936,0.17972
1.94,0.15134
1.944,0.18274
1.948,0.15668
1.952,0.15387
1.956,0.1198
1.96,0.12397
1.964,0.11141
1.968,0.1233
1.972,0.0751
1.976,0.07525
1.98,0.10342
1.984,0.05891
1.988,0.05928
1.992,0.0571
1.996,0.04187
2.0,0.03801
2.004,0.05813
2.008,0.03278
2.012,0.07546
2.016,0.04951
2.02,0.04149
2.024,0.05216
2.028,0.02719
2.032,0.0266
2.036,0.01134
2.04,0.02999
2.044,0.02268
2.048,0.01696
2.052,0.01325
2.056,0.01911
2.06,0.04043
2.064,0.02621
2.068,0.02376
2.072,0.04856
2.076,0.02641
2.08,0.01878
2.084,0.03444
2.088,0.02424
2.092,0.05076
2.096,0.02415
2.1,0.05951
2.104,0.00851
2.108,0.04842
2.112,-0.01425
2.116,0.04552
2.12,0.01589
2.124,0.04045
2.128,0.03787
2.132,0.01283
2.136,0.03668
2.14,0.03467
2.144,0.04021
2.148,0.02659
2.152,0.05712
2.156,0.03968
2.16,0.04836
2.164,0.02572
2.168,0.03934
2.172,0.04047
2.176,0.03806
2.18,0.02166
2.184,-0.0002
2.188,0.04068
2.192,0.03496
2.196,0.00513
2.2,0.05199
2.204,0.02948
2.208,0.01944
2.212,0.00393
2.216,0.02498
2.22,0.07786
2.224,0.01557
2.228,0.0212
2.232,0.00086
2.236,0.01852
2.24,0.03509
2.244,0.03211
2.248,0.04617
2.252,0.04585
2.256,0.0294
2.26,0.0192
2.264,0.04458
2.268,0.03515
2.272,0.00558
2.276,0.03805
2.28,0.03375
2.284,0.04936
2.288,0.04265
2.292,0.05278
2.296,0.02107
2.3,0.0198
2.304,0.0504
2.308,0.0167
2.312,0.01716
2.316,0.03122
2.32,0.02494
2.324,0.044
2.328,0.02517
2.332,0.00214
2.336,0.01907
2.34,0.0326
2.344,0.02893
2.348,-0.00098
2.352,0.0123
2.356,0.0429
2.36,0.05514
2.364,0.06184
2.368,0.03217
2.372,0.00529
2.376,0.0119
2.38,0.01986
2.384,0.03455
2.388,0.01238
2.392,0.00849
2.396,0.02475
2.4,0.00551
2.404,0.00456
2.408,0.01578
2.412,0.0507
2.416,0.03937
2.42,0.05327
2.424,0.02823
2.428,0.03422
2.432,0.0414
2.436,0.02073
2.44,0.04296
2.444,0.01617
2.448,0.02186
2.452,0.02053
2.456,0.07474
2.46,0.03862
2.464,0.04713
2.468,0.04623
2.472,0.01748
2.476,0.02012
2.48,0.03856
2.484,0.02231
2.488,0.04561
2.492,0.02786
2.496,0.02242
2.5,0.02243
2.504,0.03358
2.508,0.03262
2.512,0.02168
2.516,0.03778
2.52,0.03937
2.524,0.0055
2.528,0.03709
2.532,0.03178
2.536,0.03633
2.54,0.04737
2.544,0.05571
2.548,0.00814
2.552,0.02405
2.556,-0.00792
2.56,0.03538
2.564,0.02451
2.568,0.04206
2.572,0.03446
2.576,0.03831
2.58,0.03984
2.584,0.04445
2.588,0.03145
2.592,0.03346
2.596,0.03378
2.6,0.03103
2.604,0.05234
2.608,0.01546
2.612,0.03581
2.616,0.04539
2.62,0.00803
2.624,0.00866
2.628,0.02529
2.632,0.04292
2.636,0.02872
2.64,0.04132
2.644,0.0316
2.648,0.0105
2.652,0.01527
2.656,0.04313
2.66,-0.00308
2.664,0.01983
2.668,0.02685
2.672,0.04748
2.676,0.04237
2.68,0.06735
2.684,0.0506
2.688,0.10482
2.692,0.08148
2.696,0.08571
2.7,0.10123
2.704,0.09583
2.708,0.12778
2.712,0.15019
2.716,0.12261
2.72,0.13879
2.724,0.15736
2.728,0.11176
2.732,0.08466
2.736,0.07618
2.74,0.05028
2.744,0.03582
2.748,0.0455
2.752,0.06812
2.756,0.00875
2.76,0.05974
2.764,0.03253
2.768,0.03086
2.772,0.00729
2.776,0.04006
2.78,0.04827
2.784,0.01766
2.788,0.016
2.792,0.02017
2.796,0.01546
2.8,0.00936
2.804,0.03503
2.808,0.01689
2.812,0.02752
2.816,0.03846
2.82,0.01631
2.824,0.0102
2.828,0.01141
2.832,-0.02747
2.836,-0.04565
2.84,-0.07467
2.844,-0.09066
2.848,-0.03601
2.852,0.12197
2.856,0.28883
2.86,0.52742
2.864,0.71405
2.868,0.89393
2.872,1.02527
2.876,1.02817
2.88,0.88769
2.884,0.69679
2.888,0.48544
2.892,0.2741
2.896,0.06517
2.9,-0.04419
2.904,-0.12228
2.908,-0.13723
2.912,-0.10517
2.916,-0.08208
2.92,-0.02223
2.924,-0.01673
2.928,-0.00253
2.932,0.04938
2.936,0.05245
2.94,0.03796
2.944,0.02193
2.948,0.03696
2.952,0.03816
2.956,0.01989
2.96,0.00511
2.964,0.01302
2.968,0.01903
2.972,0.05504
2.976,0.0294
2.98,0.03204
2.984,0.01551
2.988,0.00334
2.992,0.02886
2.996,0.02532
3.0,0.02761
3.004,0.009
3.008,0.03386
3.012,0.02643
3.016,0.00313
3.02,0.01662
3.024,0.00809
3.028,0.0265
3.032,0.02987
3.036,0.01955
3.04,0.03071
3.044,0.04146
3.048,0.02735
3.052,0.03471
3.056,0.04657
3.06,0.06006
3.064,0.05567
3.068,0.05262
3.072,0.05778
3.076,0.07479
3.08,0.0677
3.084,0.0633
3.088,0.08725
3.092,0.1131
3.096,0.12526
3.1,0.1341
3.104,0.15631
3.108,0.13997
3.112,0.14287
3.116,0.17696
3.12,0.19344
3.124,0.18215
3.128,0.21134
3.132,0.23864
3.136,0.2288
3.14,0.24973
3.144,0.24347
3.148,0.22728
3.152,0.23556
3.156,0.24471
3.16,0.22564
3.164,0.22576
3.168,0.25351
3.172,0.24417
3.176,0.22324
3.18,0.22783
3.184,0.18508
3.188,0.20075
3.192,0.16906
3.196,0.16332
3.2,0.17621
3.204,0.1229
3.208,0.1351
3.212,0.11256
3.216,0.11439
3.22,0.10619
3.224,0.05967
3.228,0.07202
3.232,0.05624
3.236,0.04772
3.24,0.07358
3.244,0.05966
3.248,0.04351
3.252,0.0375
3.256,0.0285
3.26,0.03327
3.264,0.03041
3.268,-0.01138
3.272,0.00861
3.276,0.01017
3.28,0.01344
3.284,-0.00353
3.288,0.02858
3.292,0.02867
3.296,0.00851
3.3,0.01191
3.304,0.0119
3.308,0.00462
3.312,0.03847
3.316,0.01386
3.32,0.03873
3.324,-0.01642
3.328,0.03529
3.332,0.04069
3.336,0.00616
3.34,0.02093
3.344,0.00446
3.348,0.019
3.352,0.03089
3.356,0.01525
3.36,0.02211
3.364,0.02424
3.368,0.03926
3.372,0.00567
3.376,0.00535
3.38,0.03791
3.384,-0.00501
3.388,0.02532
3.392,0.03186
3.396,0.01459
3.4,0.01823
3.404,0.01706
3.408,0.03278
3.412,0.00591
3.416,0.01356
3.42,0.01538
3.424,0.01254
3.428,0.02807
3.432,-0.00391
3.436,0.00222
3.44,0.01464
3.444,0.01301
3.448,0.00465
3.452,-0.01451
3.456,0.03285
3.46,-0.00352
3.464,0.03574
3.468,0.02996
3.472,0.01282
3.476,0.02384
3.48,0.03179
3.484,0.01105
3.488,-0.00084
3.492,0.00916
3.496,0.01883
3.5,0.01234
3.504,-0.0126
3.508,0.01559
3.512,0.02879
3.516,-0.01712
3.52,0.02075
3.524,-0.01544
3.528,0.01246
3.532,0.01663
3.536,0.02163
3.54,-0.0185
3.544,0.01829
3.548,0.00493
3.552,0.0265
3.556,0.02904
3.56,0.00359
3.564,0.00772
3.568,0.02411
3.572,-0.00856
3.576,0.0324
3.58,0.02898
3.584,0.00512
3.588,0.02623
3.592,-0.00049
3.596,0.02519
3.6,0.01846
3.604,0.00039
3.608,0.01985
3.612,-0.0042
3.616,-0.013
3.62,0.02094
3.624,0.00251
3.628,-0.00404
3.632,0.00402
3.636,-0.00323
3.64,0.01229
3.644,0.00713
3.648,0.02592
3.652,0.02335
3.656,0.01717
3.66,0.00509
3.664,-0.00271
3.668,0.01236
3.672,-0.0091
3.676,-0.01011
3.68,-0.00393
3.684,-0.00759
3.688,0.00062
3.692,0.00901
3.696,-0.00016
3.7,0.0195
3.704,0.01755
3.708,0.02627
3.712,0.02683
3.716,0.01031
3.72,0.00729
3.724,0.03425
3.728,0.0323
3.732,0.02054
3.736,-0.00897
3.74,0.03371
3.744,0.0372
3.748,0.06052
3.752,0.06317
3.756,0.06835
3.76,0.05988
3.764,0.08331
3.768,0.10289
3.772,0.11409
3.776,0.08087
3.78,0.08747
3.784,0.08565
3.788,0.07917
3.792,0.05036
3.796,0.03862
3.8,0.02009
3.804,0.02116
3.808,-0.00332
3.812,-0.00273
3.816,0.03184
3.82,0.00572
3.824,0.00478
3.828,-0.0007
3.832,0.00236
3.836,0.02881
3.84,-0.00927
3.844,-0.00528
3.848,-0.00319
3.852,0.03427
3.856,-0.01397
3.86,0.00375
3.864,0.02041
3.868,-0.02061
3.872,-0.00499
3.876,0.02523
3.88,-0.00623
3.884,0.00678
3.888,-0.00571
3.892,-0.07188
3.896,-0.10031
3.9,-0.12243
3.904,-0.09381
3.908,-0.00303
3.912,0.13099
3.916,0.32701
3.92,0.49587
3.924,0.76917
3.928,0.91968
3.932,0.96947
3.936,0.96115
3.94,0.83473
3.944,0.62322
3.948,0.40274
3.952,0.17382
3.956,0.02438
3.96,-0.10851
3.964,-0.15794
3.968,-0.16998
3.972,-0.14366
3.976,-0.07452
3.98,-0.06168
3.984,-0.01805
3.988,-0.0106
3.992,-0.01037
3.996,0.00294
4.0,0.01576
4.004,0.00381
4.008,-0.00931
4.012,0.00884
4.016,-0.01911
4.02,-0.01408
4.024,-0.00649
4.028,-0.00852
4.032,-0.0012
4.036,0.01203
4.04,-0.02007
4.044,-0.00672
4.048,-0.01428
4.052,-0.0132
4.056,-0.01362
4.06,-0.01967
4.064,0.01399
4.068,-0.0121
4.072,0.0189
4.076,0.02782
4.08,-0.0244
4.084,-0.01355
4.088,0.03205
4.092,-0.00104
4.096,0.00435
4.1,3e-05
4.104,-0.00256
4.108,-0.00518
4.112,0.03827
4.116,0.00186
4.12,-0.01738
4.124,0.06129
4.128,0.03273
4.132,0.02122
4.136,0.02782
4.14,0.05609
4.144,0.08108
4.148,0.05037
4.152,0.0883
4.156,0.08322
4.16,0.13587
4.164,0.1532
4.168,0.12675
4.172,0.12335
4.176,0.12241
4.18,0.19595
4.184,0.16582
4.188,0.19519
4.192,0.19722
4.196,0.194
4.2,0.21277
4.204,0.19955
4.208,0.18668
4.212,0.22473
4.216,0.19211
4.22,0.21865
4.224,0.22248
4.228,0.20597
4.232,0.22547
4.236,0.16623
4.24,0.16914
4.244,0.17194
4.248,0.12841
4.252,0.1607
4.256,0.13033
4.26,0.11463
4.264,0.11723
4.268,0.08944
4.272,0.08536
4.276,0.0827
4.28,0.05654
4.284,0.04184
4.288,0.04679
4.292,0.05302
4.296,0.04336
4.3,0.02848
4.304,0.03462
4.308,0.02668
4.312,0.01498
4.316,-0.0163
4.32,0.01509
4.324,0.01687
4.328,0.01021
4.332,0.00303
4.336,-0.00382
4.34,-0.01579
4.344,0.0069
4.348,-0.03422
4.352,0.02195
4.356,-0.05044
4.36,-0.00787
4.364,-0.00214
4.368,-0.02064
4.372,0.01317
4.376,0.00176
4.38,0.01762
4.384,-0.02657
4.388,-0.01025
4.392,-0.02686
4.396,-0.02025
4.4,-0.00505
4.404,-0.01826
4.408,-0.01738
4.412,-0.004
4.416,-0.01557
4.42,0.02112
4.424,-0.01646
4.428,-0.01344
4.432,-0.00585
4.436,-0.00405
4.44,-0.03152
4.444,-0.02524
4.448,-0.00186
4.452,-0.01245
4.456,0.02148
4.46,-0.00556
4.464,0.00815
4.468,-0.00559
4.472,-0.01821
4.476,-0.03203
4.48,-0.00855
4.484,0.02109
4.488,-0.0168
4.492,-0.0123
4.496,0.02846
4.5,0.02736
4.504,0.02539
4.508,0.02386
4.512,0.06487
4.516,0.0614
4.52,0.0668
4.524,0.06561
4.528,0.09237
4.532,0.08429
4.536,0.06208
4.54,0.07357
4.544,0.06461
4.548,0.06502
4.552,0.0396
4.556,0.05315
4.56,0.00992
4.564,-0.0092
4.568,0.02378
4.572,-0.01069
4.576,-0.0001
4.58,0.00671
4.584,-0.01382
4.588,-0.03879
4.592,-0.03088
4.596,-0.00447
4.6,0.02329
4.604,-0.02778
4.608,-0.02452
4.612,-0.02142
4.616,-0.02875
4.62,-0.05286
4.624,-0.01362
4.628,-0.02265
4.632,0.00079
4.636,-0.01386
4.64,0.00243
4.644,-0.01934
4.648,-0.04787
4.652,-0.07419
4.656,-0.10707
4.66,-0.14291
4.664,-0.10312
4.668,-0.00446
4.672,0.16199
4.676,0.40313
4.68,0.59291
4.684,0.80575
4.688,0.93466
4.692,0.96888
4.696,0.90673
4.7,0.71989
4.704,0.54037
4.708,0.30502
4.712,0.06583
4.716,-0.08323
4.72,-0.17098
4.724,-0.19508
4.728,-0.17962
4.732,-0.15421
4.736,-0.08515
4.74,-0.06168
4.744,-0.06288
4.748,0.01074
4.752,-0.0046
4.756,-0.04011
4.76,-0.0457
4.764,-0.01488
4.768,-0.05894
4.772,-0.03637
4.776,-0.03975
4.78,-0.01879
4.784,-0.04948
4.788,-0.03444
4.792,-0.03368
4.796,-0.02533
4.8,-0.00937
4.804,-0.018
4.808,-0.01732
4.812,-0.01901
4.816,0.00397
4.82,-0.03449
4.824,-0.01403
4.828,-0.04273
4.832,-0.01024
4.836,-0.01959
4.84,-0.0624
4.844,-0.02688
4.848,-0.03013
4.852,-0.02453
4.856,0.00581
4.86,0.00756
4.864,-0.01783
4.868,0.00945
4.872,-0.0062
4.876,0.02783
4.88,0.01092
4.884,0.00688
4.888,0.01696
4.892,-0.00543
4.896,0.03516
4.9,0.04387
4.904,0.0595
4.908,0.05493
4.912,0.0705
4.916,0.08773
4.92,0.10251
4.924,0.10825
4.928,0.1244
4.932,0.11999
4.936,0.11275
4.94,0.11924
4.944,0.1543
4.948,0.1452
4.952,0.18057
4.956,0.1696
4.96,0.18543
4.964,0.20646
4.968,0.18548
4.972,0.19811
4.976,0.20918
4.98,0.22761
4.984,0.18889
4.988,0.17707
4.992,0.17843
4.996,0.171
5.0,0.16198
5.004,0.15415
5.008,0.1334
5.012,0.10435
5.016,0.10559
5.02,0.10001
5.024,0.09
5.028,0.09715
5.032,0.07748
5.036,0.05848
5.04,0.03804
5.044,0.0374
5.048,0.02952
5.052,-0.02414
5.056,0.00163
5.06,0.0432
5.064,-0.01858
5.068,-0.01905
5.072,-0.01962
5.076,-0.02639
5.08,0.01573
5.084,-0.00775
5.088,-0.03286
5.092,-0.03148
5.096,-0.03642
5.1,-0.01275
5.104,-0.01563
5.108,-0.00905
5.112,-0.02108
5.116,-0.0332
5.12,-0.05524
5.124,-0.00478
5.128,-0.02694
5.132,-0.01932
5.136,-0.04013
5.14,-0.02868
5.144,-0.03879
5.148,-0.04809
5.152,-0.01485
5.156,-0.02384
5.16,-0.01873
5.164,0.00094
5.168,-0.0243
5.172,-0.00056
5.176,-0.04457
5.18,-0.02514
5.184,-0.00862
5.188,-0.01296
5.192,-0.02471
5.196,-0.04631
5.2,-0.03698
5.204,-0.01092
5.208,-0.03315
5.212,-0.02406
5.216,-0.03065
5.22,-0.03555
5.224,-0.03603
5.228,-0.0149
5.232,-0.03056
5.236,0.00103
5.24,-0.02447
5.244,-0.01611
5.248,-0.01076
5.252,0.0012
5.256,-0.02021
5.26,-0.01382
5.264,-0.02647
5.268,-0.00721
5.272,0.03958
5.276,-0.00702
5.28,0.05192
5.284,0.02434
5.288,0.08197
5.292,0.06221
5.296,0.07837
5.3,0.05177
5.304,0.07209
5.308,0.04692
5.312,0.04203
5.316,0.07595
5.32,0.01381
5.324,0.01372
5.328,-0.01598
5.332,-0.00732
5.336,-0.01381
5.34,-0.02358
5.344,-0.02531
5.348,-0.02679
5.352,-0.04212
5.356,-0.01669
5.36,-0.03456
5.364,-0.02595
5.368,-0.01908
5.372,-0.0014
5.376,-0.01658
5.38,-0.00838
5.384,-0.04555
5.388,-0.03521
5.392,-0.04809
5.396,-0.03424
5.4,-0.03379
5.404,-0.04459
5.408,-0.03034
5.412,-0.05842
5.416,-0.07606
5.42,-0.11327
5.424,-0.11236
5.428,-0.13777
5.432,-0.08725
5.436,0.00141
5.44,0.18558
5.444,0.3836
5.448,0.61088
5.452,0.77249
5.456,0.93542
5.46,0.93776
5.464,0.88439
5.468,0.72498
5.472,0.51015
5.476,0.27175
5.48,0.05863
5.484,-0.0832
5.488,-0.15773
5.492,-0.18917
5.496,-0.18841
5.5,-0.14068
5.504,-0.11178
5.508,-0.05995
5.512,-0.04061
5.516,-0.02123
5.52,-0.04184
5.524,0.0041
5.528,-0.00966
5.532,-0.02681
5.536,-0.04385
5.54,-0.0152
5.544,-0.04895
5.548,-0.04118
5.552,-0.02929
5.556,-0.03032
5.56,-0.01539
5.564,-0.0121
5.568,-0.0312
5.572,-0.04305
5.576,-0.02749
5.58,-0.02595
5.584,-0.02306
5.588,-0.02713
5.592,-0.04282
5.596,-0.007
5.6,-0.01862
5.604,-0.0145
5.608,-0.03322
5.612,-0.02312
5.616,-0.00611
5.62,-0.00067
5.624,-0.00072
5.628,-0.00772
5.632,-0.02048
5.636,-0.01293
5.64,-0.03128
5.644,-0.024
5.648,-0.01726
5.652,0.01858
5.656,0.02404
5.66,0.014
5.664,0.00746
5.668,0.02864
5.672,0.04395
5.676,0.06873
5.68,0.08572
5.684,0.06115
5.688,0.07579
5.692,0.06832
5.696,0.12346
5.7,0.13041
5.704,0.13321
5.708,0.13656
5.712,0.14985
5.716,0.15815
5.72,0.17815
5.724,0.17028
5.728,0.19185
5.732,0.18329
5.736,0.18598
5.74,0.20782
5.744,0.18233
5.748,0.15535
5.752,0.15613
5.756,0.16531
5.76,0.1778
5.764,0.1666
5.768,0.13522
5.772,0.14477
5.776,0.11965
5.78,0.13001
5.784,0.09144
5.788,0.05717
5.792,0.09271
5.796,0.07568
5.8,0.07598
5.804,0.03741
5.808,0.03511
5.812,0.03588
5.816,0.03865
5.82,-0.0027
5.824,0.0108
5.828,-0.00231
5.832,-0.01084
5.836,-0.01806
5.84,0.00764
5.844,-0.01969
5.848,-0.02363
5.852,-0.02739
5.856,0.01342
5.86,-0.03554
5.864,-0.03223
5.868,0.01068
5.872,-0.03479
5.876,-0.02008
5.88,0.01228
5.884,-0.01506
5.888,-0.04054
5.892,-0.03931
5.896,-0.03994
5.9,-0.02479
5.904,-0.04885
5.908,-0.04734
5.912,-0.05793
5.916,-0.0281
5.92,-0.02496
5.924,-0.01827
5.928,-0.01726
5.932,-0.00402
5.936,-0.03424
5.94,-0.06113
5.944,-0.05842
5.948,-0.04005
5.952,-0.05229
5.956,-0.02401
5.96,-0.02293
5.964,-0.03384
5.968,-0.01875
5.972,-0.02244
5.976,-0.01895
5.98,-0.00992
5.984,-0.04648
5.988,-0.02411
5.992,-0.00798
5.996,-0.01618
6.0,-0.02856
6.004,-0.01244
6.008,-0.04737
6.012,0.00717
6.016,-0.03681
6.02,-0.02084
6.024,-0.0287
6.028,-0.02935
6.032,-0.02356
6.036,0.00159
6.04,-0.01778
6.044,-0.03557
6.048,-0.02354
6.052,-0.03989
6.056,-0.04866
6.06,-0.01917
6.064,-0.01335
6.068,0.00098
6.072,-0.04411
6.076,-0.02565
6.08,-0.05918
6.084,-0.0245
6.088,-0.04533
6.092,0.00074
6.096,-0.02202
6.1,-0.04642
6.104,-0.04376
6.108,-0.06263
6.112,-0.01622
6.116,-0.02922
6.12,-0.028
6.124,-0.00294
6.128,-0.0489
6.132,0.00147
6.136,-0.02912
6.14,-0.03178
6.144,-0.03574
6.148,-0.0127
6.152,-0.04938
6.156,-0.02436
6.16,-0.01204
6.164,-0.04255
6.168,-0.01139
6.172,-0.01658
6.176,0.00592
6.18,-0.01348
6.184,-0.02412
6.188,-0.02031
6.192,-0.02857
6.196,-0.02312
6.2,-0.00759
6.204,-0.02398
6.208,-0.0089
6.212,-0.03624
6.216,-0.01932
6.22,-0.00666
6.224,-0.01406
6.228,0.03097
6.232,0.02854
6.236,0.05273
6.24,0.03426
6.244,0.0345
6.248,0.04184
6.252,0.06632
6.256,0.07419
6.26,0.06224
6.264,0.07114
6.268,0.06169
6.272,0.03323
6.276,0.04636
6.28,0.00832
6.284,0.01191
6.288,-0.02298
6.292,-0.0226
6.296,-0.01192
6.3,0.00186
6.304,-0.00689
6.308,-0.03702
6.312,-0.02923
6.316,-0.0276
6.32,-0.00877
6.324,-0.05239
6.328,-0.01121
6.332,-0.013
6.336,-0.01756
6.34,-0.0459
6.344,0.00864
6.348,-0.01688
6.352,0.0017
6.356,-0.01848
6.36,-0.03238
6.364,-0.02275
6.368,-0.05279
6.372,-0.05179
6.376,-0.11107
6.38,-0.10226
6.384,-0.14744
6.388,-0.08748
6.392,-0.00371
6.396,0.17568
6.4,0.36959
6.404,0.55836
6.408,0.77869
6.412,0.91938
6.416,0.97369
6.42,0.90521
6.424,0.80321
6.428,0.59512
6.432,0.31084
6.436,0.11655
6.44,-0.04709
6.444,-0.14117
6.448,-0.17884
6.452,-0.17667
6.456,-0.1508
6.46,-0.10802
6.464,-0.05963
6.468,-0.03688
6.472,-0.05564
6.476,-0.00587
6.48,-0.03074
6.484,-0.02471
6.488,0.00407
6.492,-0.00355
6.496,0.00069
6.5,-0.00947
6.504,-0.02671
6.508,-0.03208
6.512,-0.02066
6.516,-0.04735
6.52,-0.02274
6.524,0.00069
6.528,-0.02042
6.532,-0.00837
6.536,-0.00561
6.54,-0.01999
6.544,-0.02137
6.548,-0.02095
6.552,-0.0484
6.556,-0.02129
6.56,-0.01624
6.564,-0.0014
6.568,-0.01409
6.572,0.00771
6.576,0.00321
6.58,-0.0134
6.584,-0.02062
6.588,0.01702
6.592,-0.01413
6.596,-0.00571
6.6,-0.02174
6.604,-0.0088
6.608,0.019
6.612,0.03395
6.616,0.04324
6.62,0.05082
6.624,0.0454
6.628,0.04135
6.632,0.05227
6.636,0.08571
6.64,0.09128
6.644,0.08896
6.648,0.10924
6.652,0.13605
6.656,0.1125
6.66,0.16044
6.664,0.17996
6.668,0.17829
6.672,0.17927
6.676,0.16352
6.68,0.19692
6.684,0.18484
6.688,0.19598
6.692,0.22407
6.696,0.20792
6.7,0.18947
6.704,0.1815
6.708,0.19937
6.712,0.21519
6.716,0.189
6.72,0.14234
6.724,0.20212
6.728,0.15914
6.732,0.15015
6.736,0.142
6.74,0.13141
6.744,0.1173
6.748,0.09809
6.752,0.07867
6.756,0.09333
6.76,0.04622
6.764,0.07444
6.768,0.06419
6.772,0.03429
6.776,0.02577
6.78,0.03163
6.784,0.02991
6.788,0.00736
6.792,0.01315
6.796,-0.00956
6.8,0.00017
6.804,-0.0171
6.808,-0.0125
6.812,0.00437
6.816,0.00742
6.82,-0.02088
6.824,-0.00267
6.828,-0.01556
6.832,0.00607
6.836,-0.00885
6.84,-0.02198
6.844,0.00223
6.848,0.00644
6.852,-0.01734
6.856,-0.01398
6.86,-0.03659
6.864,-0.00954
6.868,-0.00635
6.872,-0.00078
6.876,-0.02084
6.88,0.00076
6.884,-0.01254
6.888,0.00011
6.892,-0.01462
6.896,-0.00177
6.9,-0.00265
6.904,-0.00961
6.908,-0.01008
6.912,0.00413
6.916,-0.02485
6.92,-0.00597
6.924,0.01748
6.928,-0.01243
6.932,-0.01612
6.936,-0.01512
6.94,-0.00934
6.944,0.00122
6.948,0.0085
6.952,0.02075
6.956,-0.0188
6.96,-0.02724
6.964,0.00807
6.968,0.00402
6.972,-0.03065
6.976,-0.0027
6.98,-0.02333
6.984,-0.0164
6.988,-0.01565
6.992,-0.00497
6.996,-0.01415
7.0,0.00966
7.004,-0.01647
7.008,0.00742
7.012,-0.00257
7.016,0.00434
7.02,-0.0295
7.024,-0.00814
7.028,-0.00486
7.032,0.01381
7.036,-0.00259
7.04,-0.00846
7.044,0.00703
7.048,-0.00805
7.052,-0.00826
7.056,-0.01943
7.06,0.01224
7.064,0.0124
7.068,-0.05346
7.072,-0.00888
7.076,0.00262
7.08,-0.00525
7.084,0.00753
7.088,0.01097
7.092,-0.00948
7.096,-0.01006
7.1,0.03402
7.104,0.00345
7.108,-0.03055
7.112,0.02511
7.116,0.0395
7.12,0.02228
7.124,0.02566
7.128,0.04156
7.132,0.01886
7.136,0.06432
7.14,0.08548
7.144,0.09604
7.148,0.09112
7.152,0.08043
7.156,0.11005
7.16,0.10289
7.164,0.09443
7.168,0.0792
7.172,0.05416
7.176,0.06452
7.18,0.06532
7.184,0.03341
7.188,0.00503
7.192,0.02697
7.196,0.01831
7.2,0.01746
7.204,-0.0091
7.208,-0.0032
7.212,0.02625
7.216,0.02323
7.22,-0.00649
7.224,-0.02404
7.228,0.02665
7.232,0.00378
7.236,0.01353
7.24,-0.02263
7.244,0.00816
7.248,0.00637
7.252,0.01019
7.256,-0.00912
7.26,-0.01708
7.264,-0.01942
7.268,-0.03294
7.272,-0.03672
7.276,-0.08707
7.28,-0.10393
7.284,-0.09676
7.288,-0.00163
7.292,0.1052
7.296,0.30802
7.3,0.50991
7.304,0.70928
7.308,0.91639
7.312,1.00835
7.316,0.97609
7.32,0.83748
7.324,0.67015
7.328,0.42102
7.332,0.18325
7.336,0.00304
7.34,-0.10468
7.344,-0.17278
7.348,-0.1681
7.352,-0.11876
7.356,-0.08155
7.36,-0.04448
7.364,-0.02946
7.368,-0.01311
7.372,-0.00318
7.376,0.0139
7.38,0.0042
7.384,-0.00872
7.388,0.00612
7.392,-0.00823
7.396,-0.01354
7.4,0.01399
7.404,-0.02158
7.408,0.02996
7.412,0.00651
7.416,0.0181
7.42,0.00174
7.424,0.00547
7.428,-0.00888
7.432,-0.02103
7.436,-0.01647
7.44,0.01828
7.444,0.01609
7.448,0.00958
7.452,-0.00859
7.456,-0.0068
7.46,0.02743
7.464,-0.00244
7.468,-0.01658
7.472,0.05163
7.476,0.01054
7.48,0.03636
7.484,0.04921
7.488,0.01539
7.492,0.02651
7.496,-0.01806
7.5,0.02785
7.504,0.06075
7.508,0.05513
7.512,0.08432
7.516,0.04524
7.52,0.03988
7.524,0.05213
7.528,0.08859
7.532,0.09037
7.536,0.10848
7.54,0.10301
7.544,0.13526
7.548,0.13555
7.552,0.1825
7.556,0.18349
7.56,0.17725
7.564,0.20681
7.568,0.21344
7.572,0.19483
7.576,0.20812
7.58,0.19881
7.584,0.25739
7.588,0.2359
7.592,0.25617
7.596,0.25035
7.6,0.22432
7.604,0.20605
7.608,0.22485
7.612,0.21467
7.616,0.20904
7.62,0.21084
7.624,0.16805
7.628,0.20276
7.632,0.17151
7.636,0.17337
7.64,0.11107
7.644,0.14621
7.648,0.13926
7.652,0.10091
7.656,0.0797
7.66,0.08474
7.664,0.05977
7.668,0.06602
7.672,0.05217
7.676,0.04234
7.68,0.05919
7.684,0.05257
7.688,0.03887
7.692,0.00508
7.696,0.03687
7.7,0.02759
7.704,0.0391
7.708,0.00472
7.712,0.01718
7.716,0.02448
7.72,0.02509
7.724,0.00157
7.728,-0.00242
7.732,-0.01649
7.736,-0.00091
7.74,0.03261
7.744,0.05365
7.748,0.0277
7.752,0.03452
7.756,0.01089
7.76,0.00123
7.764,0.00468
7.768,0.01216
7.772,0.0041
7.776,0.00796
7.78,0.00984
7.784,0.0188
7.788,0.00564
7.792,0.0356
7.796,-0.01209
7.8,0.01055
7.804,0.01312
7.808,0.0264
7.812,0.0001
7.816,-0.00508
7.82,-0.00186
7.824,0.00102
7.828,0.00434
7.832,0.03204
7.836,0.03707
7.84,0.03483
7.844,-0.00191
7.848,0.01719
7.852,0.03528
7.856,-0.00029
7.86,0.01587
7.864,0.01827
7.868,0.01554
7.872,0.0035
7.876,0.00541
7.88,0.01697
7.884,0.02863
7.888,0.01335
7.892,0.03131
7.896,-0.01941
7.9,0.01762
7.904,0.05049
7.908,0.02837
7.912,2e-05
7.916,0.00076
7.92,0.01701
7.924,0.03125
7.928,0.05008
7.932,-0.00166
7.936,0.00654
7.94,0.03471
7.944,0.00358
7.948,0.02812
7.952,0.00936
7.956,0.00581
7.96,0.04635
7.964,0.04121
7.968,0.02826
7.972,0.00885
7.976,0.02954
7.98,0.0243
7.984,0.05421
7.988,0.02713
7.992,0.07724
7.996,0.06418
8.0,0.11106
8.004,0.11282
8.008,0.08419
8.012,0.12766
8.016,0.13526
8.02,0.12568
8.024,0.13455
8.028,0.10947
8.032,0.1195
8.036,0.07295
8.04,0.09432
8.044,0.07634
8.048,0.04142
8.052,0.04569
8.056,0.02445
8.06,0.04552
8.064,0.02689
8.068,0.03504
8.072,0.01779
8.076,0.01641
8.08,0.00497
8.084,0.02537
8.088,0.0186
8.092,0.03091
8.096,0.03143
8.1,0.03118
8.104,0.02069
8.108,0.02037
8.112,0.02695
8.116,0.02817
8.12,-0.00573
8.124,0.00674
8.128,0.01333
8.132,0.01232
8.136,-0.03819
8.14,-0.05482
8.144,-0.08131
8.148,-0.10887
8.152,-0.04084
8.156,0.04328
8.16,0.1975
8.164,0.39955
8.168,0.63789
8.172,0.82497
8.176,0.98532
8.18,1.01048
8.184,0.9681
8.188,0.80649
8.192,0.57333
8.196,0.36964
8.2,0.16995
8.204,0.0072
8.208,-0.09328
8.212,-0.13502
8.216,-0.13276
8.22,-0.10396
8.224,-0.02486
8.228,-0.0257
8.232,-0.02482
8.236,0.01066
8.24,0.01563
8.244,0.01602
8.248,0.01308
8.252,0.04303
8.256,0.02185
8.26,0.0225
8.264,0.01336
8.268,0.02577
8.272,0.01634
8.276,0.03381
8.28,0.01592
8.284,0.05105
8.288,0.05111
8.292,0.0557
8.296,0.0128
8.3,0.04697
8.304,0.04418
8.308,0.00541
8.312,0.02918
8.316,0.01632
8.32,0.04701
8.324,0.03053
8.328,0.02969
8.332,0.04318
8.336,0.03753
8.34,0.01105
8.344,0.03072
8.348,0.04457
8.352,0.03957
8.356,0.05301
8.36,0.08413
8.364,0.05779
8.368,0.06037
8.372,0.05161
8.376,0.06759
8.38,0.08738
8.384,0.0983
8.388,0.09054
8.392,0.08458
8.396,0.11187
8.4,0.10328
8.404,0.09708
8.408,0.12954
8.412,0.13277
8.416,0.17671
8.42,0.19841
8.424,0.19685
8.428,0.16777
8.432,0.2085
8.436,0.2227
8.44,0.23153
8.444,0.24239
8.448,0.21954
8.452,0.24278
8.456,0.2426
8.46,0.24547
8.464,0.26555
8.468,0.23924
8.472,0.2222
8.476,0.22952
8.48,0.23387
8.484,0.1941
8.488,0.20249
8.492,0.19536
8.496,0.17685
8.5,0.16684
8.504,0.13802
8.508,0.14914
8.512,0.13317
8.516,0.1013
8.52,0.12187
8.524,0.10241
8.528,0.11237
8.532,0.09819
8.536,0.08735
8.54,0.06414
8.544,0.051
8.548,0.04229
8.552,0.06672
8.556,0.07006
8.56,0.04516
8.564,0.05572
8.568,0.0574
8.572,0.03838
8.576,0.05903
8.58,0.00221
8.584,0.0477
8.588,0.05168
8.592,0.01096
8.596,0.03012
8.6,0.03165
8.604,0.00491
8.608,0.03669
8.612,0.03356
8.616,0.02963
8.62,0.06107
8.624,0.02887
8.628,0.02718
8.632,0.01949
8.636,0.03485
8.64,0.02654
8.644,0.02236
8.648,0.00639
8.652,0.03904
8.656,0.02953
8.66,0.0404
8.664,0.027
8.668,0.0288
8.672,0.03999
8.676,0.02414
8.68,0.02891
8.684,0.01144
8.688,0.04105
8.692,0.03213
8.696,0.0008
8.7,0.04538
8.704,-0.00459
8.708,0.00123
8.712,0.05529
8.716,0.02197
8.72,0.03238
8.724,0.00898
8.728,0.05236
8.732,0.02149
8.736,0.04154
8.74,0.02271
8.744,0.01295
8.748,0.0506
8.752,0.01344
8.756,0.03931
8.76,0.01354
8.764,0.04754
8.768,0.03261
8.772,0.03962
8.776,0.00595
8.78,0.0356
8.784,0.01154
8.788,0.03157
8.792,0.03015
8.796,0.03125
8.8,0.03086
8.804,0.03671
8.808,0.02027
8.812,0.05181
8.816,0.03943
8.82,0.03136
8.824,0.05216
8.828,0.03082
8.832,0.02254
8.836,0.02237
8.84,0.02268
8.844,0.00875
8.848,0.02593
8.852,0.01724
8.856,0.04621
8.86,0.00881
8.864,0.03525
8.868,0.03312
8.872,0.0455
8.876,0.02528
8.88,0.00406
8.884,0.03037
8.888,0.04733
8.892,0.03306
8.896,0.03637
8.9,0.0267
8.904,0.00822
8.908,0.04228
8.912,0.0691
8.916,0.04195
8.92,0.07082
8.924,0.0471
8.928,0.05392
8.932,0.07977
8.936,0.07896
8.94,0.12949
8.944,0.1075
8.948,0.12151
8.952,0.13538
8.956,0.10348
8.96,0.10875
8.964,0.1388
8.968,0.08612
8.972,0.09749
8.976,0.0812
8.98,0.07205
8.984,0.03353
8.988,0.04083
8.992,0.02252
8.996,0.04399
9.0,0.03452
9.004,0.05232
9.008,0.04114
9.012,0.04619
9.016,0.02662
9.02,0.03735
9.024,0.05072
9.028,0.04314
9.032,0.01677
9.036,0.00515
9.04,0.02201
9.044,0.00188
9.048,0.03895
9.052,0.016
9.056,0.02501
9.06,0.04227
9.064,0.02165
9.068,0.01733
9.072,-0.01204
9.076,-0.04801
9.08,-0.05565
9.084,-0.07567
9.088,-0.05078
9.092,0.08895
9.096,0.20797
9.1,0.43019
9.104,0.6308
9.108,0.84283
9.112,0.96003
9.116,0.99734
9.12,0.9542
9.124,0.80508
9.128,0.5845
9.132,0.35335
9.136,0.14275
9.14,-0.02156
9.144,-0.10181
9.148,-0.15954
9.152,-0.10858
9.156,-0.08629
9.16,-0.04467
9.164,-0.0277
9.168,0.01556
9.172,0.0017
9.176,0.03263
9.18,0.05642
9.184,0.03595
9.188,0.00663
9.192,0.04689
9.196,0.05345
9.2,0.02174
9.204,-0.00347
9.208,0.01857
9.212,0.02301
9.216,0.02038
9.22,0.01571
9.224,0.01013
9.228,0.02351
9.232,0.03351
9.236,0.04556
9.24,0.03617
9.244,0.03922
9.248,0.03692
9.252,0.02103
9.256,0.03513
9.26,0.00753
9.264,0.01215
9.268,0.0219
9.272,0.03915
9.276,0.03255
9.28,0.03357
9.284,0.04367
9.288,0.05221
9.292,0.04404
9.296,0.08044
9.3,0.05068
9.304,0.04935
9.308,0.06003
9.312,0.06795
9.316,0.06532
9.32,0.08417
9.324,0.07775
9.328,0.12088
9.332,0.12727
9.336,0.11378
9.34,0.13963
9.344,0.12984
9.348,0.15318
9.352,0.18211
9.356,0.17075
9.36,0.1666
9.364,0.20296
9.368,0.22625
9.372,0.23688
9.376,0.19619
9.38,0.25492
9.384,0.22952
9.388,0.24585
9.392,0.26632
9.396,0.24477
9.4,0.26829
9.404,0.24198
9.408,0.23385
9.412,0.21945
9.416,0.20467
9.42,0.22167
9.424,0.20508
9.428,0.20893
9.432,0.1843
9.436,0.17494
9.44,0.16339
9.444,0.14332
9.448,0.15417
9.452,0.12042
9.456,0.10893
9.46,0.13002
9.464,0.09764
9.468,0.07128
9.472,0.07669
9.476,0.05051
9.48,0.0529
9.484,0.0471
9.488,0.03825
9.492,0.02702
9.496,0.05827
9.5,0.05059
9.504,0.02488
9.508,0.04582
9.512,0.04404
9.516,0.04219
9.52,0.0077
9.524,0.02507
9.528,0.02349
9.532,0.04327
9.536,0.03018
9.54,0.02434
9.544,0.0288
9.548,0.0389
9.552,-0.00561
9.556,0.05846
9.56,0.01324
9.564,0.02076
9.568,0.03084
9.572,0.03908
9.576,0.03836
9.58,0.02642
9.584,0.02912
9.588,0.01941
9.592,0.0506
9.596,0.04112
9.6,0.04017
9.604,0.01058
9.608,0.02928
9.612,0.02369
9.616,0.03431
9.62,0.00681
9.624,0.03288
9.628,0.018
9.632,0.03188
9.636,0.00599
9.64,0.01761
9.644,0.0084
9.648,0.01038
9.652,0.01691
9.656,0.02943
9.66,0.01752
9.664,0.01435
9.668,0.02755
9.672,-0.01372
9.676,0.03298
9.68,0.04007
9.684,0.00721
9.688,-0.00535
9.692,0.01191
9.696,0.01817
9.7,0.00529
9.704,0.01178
9.708,0.02879
9.712,0.02485
9.716,0.02744
9.72,0.03317
9.724,0.02941
9.728,0.0396
9.732,0.01074
9.736,0.03182
9.74,0.02863
9.744,0.00267
9.748,0.02794
9.752,-0.0077
9.756,0.02553
9.76,0.02555
9.764,0.01683
9.768,0.0428
9.772,0.01747
9.776,0.03373
9.78,-0.01179
9.784,0.03024
9.788,0.03357
9.792,0.03591
9.796,0.02194
9.8,0.04412
9.804,0.00627
9.808,-0.00606
9.812,-0.00211
9.816,0.02321
9.82,0.0308
9.824,0.02998
9.828,0.01562
9.832,-0.00247
9.836,0.03052
9.84,0.03527
9.844,0.03353
9.848,0.04522
9.852,0.05347
9.856,0.03427
9.86,0.02878
9.864,-0.00218
9.868,0.00581
9.872,0.02423
9.876,0.00097
9.88,0.03882
9.884,-0.00759
9.888,0.01327
9.892,-0.00159
9.896,0.02998
9.9,0.01873
9.904,0.02726
9.908,0.01657
9.912,0.03021
9.916,0.01337
9.92,0.03011
9.924,0.05332
9.928,0.01967
9.932,0.01818
9.936,0.0179
9.94,0.04371
9.944,0.02757
9.948,0.01123
9.952,0.02401
9.956,-0.00254
9.96,0.02312
9.964,0.0035
9.968,-0.00079
9.972,0.00985
9.976,0.01988
9.98,0.03383
9.984,0.02013
9.988,0.02836
9.992,0.00167
9.996,0.01752
