t_seg,ecg_mV
0.0,0.00464
0.004,-0.10586
0.008,-0.04521
0.012,-0.04232
0.016,-0.03097
0.02,-0.04389
0.024,-0.02505
0.028,-0.07924
0.032,-0.07718
0.036,0.00022
0.04,-0.03124
0.044,0.01476
0.048,-0.04099
0.052,-0.04189
0.056,-0.09416
0.06,-0.07472
0.064,-0.06764
0.068,-0.04097
0.072,-0.0369
0.076,-0.00093
0.08,-0.04127
0.084,-0.02147
0.088,-0.09662
0.092,-0.02094
0.096,0.00357
0.1,-0.02028
0.104,0.01104
0.108,-0.0115
0.112,-0.00044
0.116,-0.09303
0.12,0.00517
0.124,-0.05019
0.128,-0.06413
0.132,-0.00984
0.136,-0.02401
0.14,0.00443
0.144,-0.06105
0.148,0.01771
0.152,-0.02928
0.156,-0.04703
0.16,-0.06753
0.164,-0.02653
0.168,-0.04904
0.172,-0.03799
0.176,-0.1415
0.18,-0.04843
0.184,-0.03213
0.188,-0.0501
0.192,-0.02584
0.196,-0.00305
0.2,-0.01654
0.204,-0.06296
0.208,-0.03751
0.212,-0.01312
0.216,-0.06623
0.22,-0.00611
0.224,-0.05135
0.228,0.03489
0.232,-0.03795
0.236,-0.08571
0.24,-0.00826
0.244,-0.03946
0.248,-0.0273
0.252,-0.0099
0.256,-0.018
0.26,-0.07097
0.264,-0.03016
0.268,-0.0627
0.272,-0.06039
0.276,-0.08507
0.28,0.02897
0.284,-0.02404
0.288,-0.07054
0.292,-0.08113
0.296,-0.0589
0.3,-0.01796
0.304,-0.04227
0.308,-0.00249
0.312,-0.05783
0.316,-0.00514
0.32,-0.0449
0.324,0.01564
0.328,0.01322
0.332,-0.08088
0.336,-0.04928
0.34,-0.06721
0.344,-0.01909
0.348,-0.01084
0.352,0.03737
0.356,-0.01068
0.36,0.01229
0.364,0.00226
0.368,0.00249
0.372,0.01851
0.376,0.02775
0.38,0.05116
0.384,0.07401
0.388,0.12476
0.392,0.0433
0.396,0.09019
0.4,0.12018
0.404,0.0695
0.408,0.08754
0.412,0.05151
0.416,0.01578
0.42,0.00173
0.424,-0.00082
0.428,-0.00211
0.432,-0.03333
0.436,0.04543
0.44,-0.0602
0.444,-0.06481
0.448,-0.03088
0.452,0.04222
0.456,0.03776
0.46,0.0084
0.464,0.0115
0.468,-0.01968
0.472,-0.0263
0.476,0.01567
0.48,-0.03833
0.484,-0.03691
0.488,0.026
0.492,0.03601
0.496,-0.01292
0.5,-0.0461
0.504,-0.0158
0.508,0.03015
0.512,-0.06962
0.516,-0.09266
0.52,-0.10384
0.524,-0.14434
0.528,-0.05042
0.532,-0.01738
0.536,0.13365
0.54,0.41495
0.544,0.57415
0.548,0.75952
0.552,0.8959
0.556,0.97235
0.56,0.94101
0.564,0.75881
0.568,0.61177
0.572,0.34009
0.576,0.08472
0.58,-0.06303
0.584,-0.1363
0.588,-0.16974
0.592,-0.18077
0.596,-0.11504
0.6,-0.14311
0.604,-0.07224
0.608,-0.01641
0.612,-0.03639
0.616,-0.05886
0.62,0.01546
0.624,0.02079
0.628,0.02794
0.632,-0.04048
0.636,0.00576
0.64,0.01435
0.644,-0.04717
0.648,-0.09653
0.652,-0.0038
0.656,-0.04295
0.66,-0.06946
0.664,0.00439
0.668,0.01542
0.672,-0.02289
0.676,0.01228
0.68,-0.05013
0.684,-0.02443
0.688,-0.02939
0.692,-0.06147
0.696,0.01794
0.7,0.01803
0.704,-0.05378
0.708,0.01651
0.712,-0.00908
0.716,0.01125
0.72,0.00426
0.724,0.02015
0.728,0.00852
0.732,-0.01756
0.736,-0.01402
0.74,0.0813
0.744,-0.03347
0.748,-0.00324
0.752,-0.01812
0.756,-0.01181
0.76,0.01408
0.764,0.0531
0.768,0.04633
0.772,0.05655
0.776,0.05612
0.78,0.06949
0.784,0.09243
0.788,0.12965
0.792,0.10297
0.796,0.13931
0.8,0.08155
0.804,0.17745
0.808,0.11194
0.812,0.17628
0.816,0.17283
0.82,0.22537
0.824,0.16835
0.828,0.13317
0.832,0.18128
0.836,0.20492
0.84,0.25049
0.844,0.18552
0.848,0.15571
0.852,0.16089
0.856,0.17327
0.86,0.18477
0.864,0.17312
0.868,0.1827
0.872,0.15682
0.876,0.2129
0.88,0.09806
0.884,0.15881
0.888,0.09672
0.892,0.04515
0.896,0.06919
0.9,0.02349
0.904,0.06532
0.908,0.0631
0.912,0.08477
0.916,0.02492
0.92,-0.02945
0.924,0.03839
0.928,-0.02378
0.932,-0.02836
0.936,-0.05265
0.94,-0.01476
0.944,-0.01886
0.948,0.05878
0.952,0.01199
0.956,-0.00696
0.96,-0.04726
0.964,-0.00862
0.968,-0.00393
0.972,0.02594
0.976,0.02203
0.98,0.05386
0.984,-0.0183
0.988,-0.03421
0.992,-0.03451
0.996,0.00021
1.0,0.0114
1.004,0.00037
1.008,0.01184
1.012,-0.08649
1.016,-0.02205
1.02,0.00949
1.024,-0.05741
1.028,-0.03625
1.032,0.0009
1.036,-0.00788
1.04,-0.05051
1.044,0.042
1.048,0.1076
1.052,-0.04646
1.056,0.00377
1.06,-0.0503
1.064,0.00446
1.068,0.03555
1.072,-0.01212
1.076,0.01246
1.08,-0.05202
1.084,0.01526
1.088,-0.04227
1.092,0.00713
1.096,-0.06387
1.1,0.00203
1.104,0.00464
1.108,-0.01888
1.112,-0.04675
1.116,-0.01219
1.12,0.0583
1.124,-0.04368
1.128,0.01465
1.132,-0.03688
1.136,-0.00691
1.14,0.00295
1.144,-0.03265
1.148,-0.02359
1.152,0.00958
1.156,-0.03704
1.16,-0.01088
1.164,0.00477
1.168,-0.00946
1.172,-0.05399
1.176,-0.01405
1.18,-0.01788
1.184,0.02534
1.188,-0.01902
1.192,-0.03158
1.196,0.04953
1.2,-0.01354
1.204,-0.02201
1.208,-0.0147
1.212,-0.04641
1.216,-0.02358
1.22,0.05086
1.224,-0.00486
1.228,0.08515
1.232,0.01716
1.236,0.05592
1.24,0.03733
1.244,0.04824
1.248,0.02323
1.252,0.08791
1.256,0.0809
1.26,0.14994
1.264,0.06283
1.268,0.05572
1.272,0.14987
1.276,0.0432
1.28,0.06781
1.284,0.11608
1.288,0.06597
1.292,0.0019
1.296,0.07675
1.3,-0.00058
1.304,0.03802
1.308,-0.02413
1.312,-0.02903
1.316,0.03146
1.32,-0.00577
1.324,0.05054
1.328,0.03773
1.332,0.0197
1.336,0.01023
1.34,0.02646
1.344,-0.00388
1.348,0.02604
1.352,0.04992
1.356,-0.02671
1.36,0.0906
1.364,-0.01245
1.368,0.0173
1.372,0.01062
1.376,-0.0261
1.38,-0.04277
1.384,-0.0568
1.388,-0.09913
1.392,-0.13111
1.396,-0.07796
1.4,0.0281
1.404,0.13428
1.408,0.34097
1.412,0.55021
1.416,0.73997
1.42,0.93491
1.424,1.04109
1.428,0.99882
1.432,0.89781
1.436,0.59204
1.44,0.35349
1.444,0.20199
1.448,-0.05589
1.452,-0.14645
1.456,-0.12702
1.46,-0.14945
1.464,-0.14997
1.468,-0.14811
1.472,-0.05394
1.476,-0.00922
1.48,-0.05649
1.484,0.00751
1.488,-0.06414
1.492,-0.01889
1.496,0.08334
1.5,-0.08683
1.504,0.02048
1.508,0.00425
1.512,0.02428
1.516,-0.02062
1.52,0.01147
1.524,0.02779
1.528,-0.01087
1.532,-0.02962
1.536,0.02685
1.54,-0.00838
1.544,0.0361
1.548,0.0045
1.552,0.00821
1.556,-0.05791
1.56,0.0064
1.564,-0.0023
1.568,0.03465
1.572,0.03566
1.576,0.05167
1.58,0.03257
1.584,0.03403
1.588,0.01065
1.592,-0.00207
1.596,0.06027
1.6,0.04711
1.604,0.02285
1.608,-0.04995
1.612,0.03253
1.616,0.03127
1.62,0.03166
1.624,0.01856
1.628,0.09745
1.632,0.07146
1.636,0.075
1.64,0.0876
1.644,0.1057
1.648,0.09107
1.652,0.15121
1.656,0.15337
1.66,0.09268
1.664,0.18752
1.668,0.14873
1.672,0.18339
1.676,0.21219
1.68,0.1825
1.684,0.2066
1.688,0.26889
1.692,0.22502
1.696,0.26258
1.7,0.23746
1.704,0.2009
1.708,0.23641
1.712,0.28846
1.716,0.1828
1.72,0.18802
1.724,0.19743
1.728,0.19389
1.732,0.1839
1.736,0.20172
1.74,0.17108
1.744,0.09879
1.748,0.10651
1.752,0.0882
1.756,0.09171
1.76,0.07809
1.764,0.09341
1.768,0.09413
1.772,0.10067
1.776,0.06471
1.78,0.04057
1.784,0.08568
1.788,0.09577
1.792,0.06626
1.796,0.02312
1.8,0.03392
1.804,-0.01982
1.808,0.00163
1.812,0.03263
1.816,0.06586
1.82,0.02387
1.824,0.02305
1.828,0.04589
1.832,0.01733
1.836,-0.02772
1.84,0.03387
1.844,0.00813
1.848,-0.02053
1.852,0.03279
1.856,-0.01293
1.86,-0.07674
1.864,0.01032
1.868,0.06516
1.872,-0.00153
1.876,-0.05553
1.88,0.02483
1.884,-0.05258
1.888,0.03675
1.892,0.02473
1.896,-0.00279
1.9,0.00993
1.904,0.08569
1.908,-0.01842
1.912,0.01045
1.916,0.05985
1.92,0.008
1.924,-0.02906
1.928,0.03214
1.932,0.02903
1.936,0.02253
1.94,0.00146
1.944,-0.02357
1.948,-0.02833
1.952,0.07838
1.956,0.02154
1.96,-0.02359
1.964,-0.01754
1.968,0.04063
1.972,0.03543
1.976,0.01581
1.98,-0.00036
1.984,0.00384
1.988,0.03809
1.992,0.0511
1.996,-0.03092
2.0,0.00373
2.004,-0.00745
2.008,0.03553
2.012,0.02625
2.016,0.02781
2.02,-0.03927
2.024,0.02135
2.028,0.07405
2.032,0.04324
2.036,-0.01149
2.04,0.08611
2.044,0.06473
2.048,0.04362
2.052,0.13037
2.056,0.11963
2.06,0.07568
2.064,0.07466
2.068,0.15999
2.072,0.14237
2.076,0.08494
2.08,0.0576
2.084,0.0994
2.088,0.11062
2.092,0.05848
2.096,-0.00485
2.1,0.0245
2.104,0.02228
2.108,-0.07167
2.112,-0.01334
2.116,0.09055
2.12,0.04767
2.124,-0.00096
2.128,-0.01296
2.132,0.02971
2.136,0.01987
2.14,0.04276
2.144,0.05129
2.148,-0.00416
2.152,-0.00397
2.156,0.05978
2.16,0.02258
2.164,-0.00791
2.168,0.05667
2.172,0.00621
2.176,-0.04272
2.18,-0.00703
2.184,-0.04199
2.188,-0.09661
2.192,-0.07666
2.196,-0.10273
2.2,0.13261
2.204,0.23484
2.208,0.49195
2.212,0.71838
2.216,0.87909
2.22,1.026
2.224,1.06565
2.228,0.91207
2.232,0.70948
2.236,0.49146
2.24,0.34495
2.244,0.08449
2.248,-0.0226
2.252,-0.11078
2.256,-0.15437
2.26,-0.16999
2.264,-0.05999
2.268,-0.03125
2.272,0.00516
2.276,-0.02015
2.28,-0.00876
2.284,-0.00417
2.288,0.02362
2.292,-0.02503
2.296,0.04626
2.3,0.04491
2.304,0.04862
2.308,0.01747
2.312,0.03847
2.316,-0.036
2.32,0.05074
2.324,0.01344
2.328,-0.0334
2.332,0.0982
2.336,0.03795
2.34,0.03051
2.344,0.00576
2.348,-0.0161
2.352,0.04881
2.356,0.03528
2.36,-0.00129
2.364,0.02653
2.368,0.04471
2.372,0.02565
2.376,0.00284
2.38,0.00078
2.384,0.03461
2.388,0.04239
2.392,0.01536
2.396,-0.01387
2.4,0.01749
2.404,0.03185
2.408,0.05377
2.412,0.0432
2.416,0.04654
2.42,0.0649
2.424,0.05469
2.428,0.05159
2.432,0.08775
2.436,0.06191
2.44,0.08684
2.444,0.07797
2.448,0.13819
2.452,0.15888
2.456,0.1403
2.46,0.16191
2.464,0.19693
2.468,0.18236
2.472,0.20062
2.476,0.22678
2.48,0.24525
2.484,0.26259
2.488,0.25939
2.492,0.23191
2.496,0.2429
2.5,0.23934
2.504,0.29054
2.508,0.29988
2.512,0.24976
2.516,0.25017
2.52,0.25423
2.524,0.18228
2.528,0.20184
2.532,0.21553
2.536,0.17715
2.54,0.19531
2.544,0.15717
2.548,0.14238
2.552,0.18434
2.556,0.12167
2.56,0.09962
2.564,0.15286
2.568,0.11415
2.572,0.05706
2.576,0.02935
2.58,0.06628
2.584,0.09192
2.588,0.01849
2.592,0.04849
2.596,0.03474
2.6,0.03408
2.604,0.07907
2.608,0.00878
2.612,0.10759
2.616,0.05268
2.62,0.07188
2.624,0.01865
2.628,0.04219
2.632,0.00262
2.636,0.07688
2.64,0.05613
2.644,0.04898
2.648,0.02806
2.652,0.01561
2.656,0.03908
2.66,0.06171
2.664,0.03218
2.668,0.06799
2.672,-0.05965
2.676,0.03923
2.68,-0.01603
2.684,0.04377
2.688,0.06615
2.692,-0.0129
2.696,0.03349
2.7,0.02731
2.704,0.04855
2.708,-0.00096
2.712,-0.00873
2.716,0.01436
2.72,0.10491
2.724,0.01939
2.728,0.02777
2.732,0.04922
2.736,-0.03365
2.74,0.00709
2.744,0.00355
2.748,0.04704
2.752,0.08979
2.756,-0.02471
2.76,0.0153
2.764,0.02198
2.768,-0.01622
2.772,0.04966
2.776,0.04696
2.78,0.04875
2.784,0.03712
2.788,-0.00393
2.792,0.04507
2.796,0.02744
2.8,-0.00752
2.804,0.01846
2.808,0.03585
2.812,0.08234
2.816,0.02398
2.82,0.06024
2.824,-0.02929
2.828,-0.01307
2.832,0.03496
2.836,0.02478
2.84,0.01628
2.844,0.08349
2.848,0.00879
2.852,0.05717
2.856,0.03894
2.86,0.0138
2.864,-0.02119
2.868,0.11697
2.872,0.06836
2.876,0.07686
2.88,0.02823
2.884,0.00788
2.888,0.01795
2.892,0.00092
2.896,0.01911
2.9,0.06081
2.904,-0.00679
2.908,0.02455
2.912,0.03984
2.916,0.03853
2.92,0.03091
2.924,0.02733
2.928,0.00964
2.932,0.04948
2.936,0.01608
2.94,0.08034
2.944,0.04936
2.948,0.02374
2.952,0.05309
2.956,0.00529
2.96,0.05435
2.964,0.00294
2.968,0.04576
2.972,0.03107
2.976,0.07071
2.98,0.05666
2.984,0.0982
2.988,-0.00599
2.992,0.05188
2.996,0.07989
3.0,0.0356
3.004,0.08539
3.008,0.0109
3.012,0.01038
3.016,-0.03333
3.02,-0.0172
3.024,0.05801
3.028,0.08798
3.032,0.07837
3.036,0.01449
3.04,0.06814
3.044,0.08879
3.048,0.14642
3.052,0.09464
3.056,0.14097
3.06,0.12804
3.064,0.17816
3.068,0.18567
3.072,0.14048
3.076,0.07916
3.08,0.07162
3.084,0.14723
3.088,0.07139
3.092,-0.00663
3.096,-0.01248
3.1,0.0973
3.104,0.02892
3.108,0.0391
3.112,0.04084
3.116,0.06057
3.12,-0.0079
3.124,0.02671
3.128,0.02934
3.132,0.08399
3.136,-0.04702
3.14,0.0198
3.144,0.04111
3.148,0.08468
3.152,0.09596
3.156,0.03977
3.16,0.01057
3.164,0.00631
3.168,-0.0696
3.172,0.03915
3.176,0.00721
3.18,0.02787
3.184,-0.02671
3.188,-0.08519
3.192,-0.09271
3.196,-0.03109
3.2,0.06419
3.204,0.2773
3.208,0.42896
3.212,0.62594
3.216,0.79856
3.22,0.99277
3.224,1.02887
3.228,0.95246
3.232,0.80122
3.236,0.53307
3.24,0.30691
3.244,0.11322
3.248,-0.02221
3.252,-0.12815
3.256,-0.20773
3.26,-0.09288
3.264,-0.07005
3.268,-0.035
3.272,0.02986
3.276,0.03169
3.28,-0.00542
3.284,-0.01317
3.288,0.05679
3.292,0.09486
3.296,0.00344
3.3,-0.01889
3.304,0.06636
3.308,0.03905
3.312,0.02724
3.316,0.05698
3.32,0.03708
3.324,0.02727
3.328,-0.02611
3.332,0.02687
3.336,0.05385
3.34,-0.02377
3.344,0.06408
3.348,-0.00661
3.352,0.0323
3.356,0.03369
3.36,0.08249
3.364,0.02339
3.368,0.02692
3.372,0.01755
3.376,0.06882
3.38,-0.00147
3.384,0.08123
3.388,-0.02628
3.392,0.03627
3.396,0.07821
3.4,0.06048
3.404,-0.01433
3.408,-0.03241
3.412,0.0521
3.416,0.02603
3.42,0.06966
3.424,0.12097
3.428,0.13077
3.432,0.07643
3.436,0.0273
3.44,0.13648
3.444,0.13228
3.448,0.15792
3.452,0.10491
3.456,0.19604
3.46,0.18196
3.464,0.17593
3.468,0.18213
3.472,0.24535
3.476,0.21677
3.48,0.20434
3.484,0.26959
3.488,0.29561
3.492,0.33989
3.496,0.33463
3.5,0.33356
3.504,0.27728
3.508,0.31144
3.512,0.299
3.516,0.26381
3.52,0.30922
3.524,0.21727
3.528,0.25053
3.532,0.2378
3.536,0.20866
3.54,0.24124
3.544,0.19909
3.548,0.15582
3.552,0.15496
3.556,0.13164
3.56,0.08946
3.564,0.15439
3.568,0.06492
3.572,0.1114
3.576,0.14885
3.58,0.08178
3.584,0.05288
3.588,0.01448
3.592,0.11837
3.596,0.05913
3.6,0.03979
3.604,0.05381
3.608,0.02217
3.612,0.06818
3.616,0.02219
3.62,0.01801
3.624,-0.00621
3.628,-0.10949
3.632,-0.14721
3.636,-0.10566
3.64,-0.01196
3.644,0.15862
3.648,0.34789
3.652,0.53715
3.656,0.76119
3.66,0.9344
3.664,1.02757
3.668,0.99644
3.672,0.8216
3.676,0.6193
3.68,0.44957
3.684,0.18892
3.688,0.07152
3.692,-0.09128
3.696,-0.14123
3.7,-0.15839
3.704,-0.14706
3.708,-0.13122
3.712,-0.00088
3.716,-0.02003
3.72,-0.00091
3.724,0.04895
3.728,-0.03686
3.732,0.03185
3.736,-0.05468
3.74,0.04444
3.744,0.04789
3.748,-0.05697
3.752,0.00604
3.756,0.06739
3.76,0.05067
3.764,-0.05972
3.768,-0.04408
3.772,0.02927
3.776,-0.00441
3.78,0.08451
3.784,0.01509
3.788,0.04326
3.792,0.05743
3.796,-0.02739
3.8,0.05766
3.804,0.04708
3.808,-0.00479
3.812,-0.00751
3.816,0.01075
3.82,0.02038
3.824,-0.01737
3.828,0.05081
3.832,-0.02283
3.836,-0.00963
3.84,0.02258
3.844,0.0602
3.848,0.06187
3.852,0.0012
3.856,0.05788
3.86,0.07818
3.864,0.08539
3.868,0.11069
3.872,0.05425
3.876,0.09999
3.88,0.11349
3.884,0.10867
3.888,0.15028
3.892,0.13077
3.896,0.14654
3.9,0.08232
3.904,0.15527
3.908,0.2316
3.912,0.20846
3.916,0.14963
3.92,0.14569
3.924,0.16557
3.928,0.24494
3.932,0.21843
3.936,0.16351
3.94,0.2105
3.944,0.22875
3.948,0.22145
3.952,0.22508
3.956,0.16864
3.96,0.19915
3.964,0.2026
3.968,0.19098
3.972,0.20417
3.976,0.14637
3.98,0.22262
3.984,0.21675
3.988,0.16064
3.992,0.17763
3.996,0.15552
4.0,0.13223
4.004,0.1293
4.008,0.12711
4.012,0.09036
4.016,0.07871
4.02,0.1115
4.024,0.01933
4.028,0.08441
4.032,0.00662
4.036,0.05211
4.04,0.01633
4.044,0.02049
4.048,0.01628
4.052,0.02147
4.056,0.00857
4.06,0.06431
4.064,0.03674
4.068,-0.08076
4.072,0.06592
4.076,0.05136
4.08,0.09076
4.084,0.0289
4.088,0.02189
4.092,0.03697
4.096,-0.03662
4.1,0.04136
4.104,0.00436
4.108,0.02931
4.112,0.05277
4.116,-0.00595
4.12,0.02077
4.124,-0.01036
4.128,-0.0141
4.132,-0.00181
4.136,-0.00444
4.14,0.04617
4.144,0.00985
4.148,0.05786
4.152,-0.00841
4.156,0.00256
4.16,0.03748
4.164,-0.02782
4.168,0.04511
4.172,0.07647
4.176,-0.01105
4.18,0.03846
4.184,0.11185
4.188,0.01739
4.192,0.03502
4.196,0.01099
4.2,0.01546
4.204,-0.05507
4.208,0.00739
4.212,0.04563
4.216,0.04131
4.22,0.01473
4.224,0.07827
4.228,0.01779
4.232,0.01177
4.236,-0.00936
4.24,-0.05593
4.244,0.08328
4.248,-0.00871
4.252,0.05322
4.256,0.08555
4.26,0.01051
4.264,-0.0392
4.268,-0.02469
4.272,0.00983
4.276,0.0311
4.28,0.00538
4.284,-0.01728
4.288,0.05223
4.292,0.0224
4.296,0.08033
4.3,0.03914
4.304,-0.01872
4.308,0.00753
4.312,0.04356
4.316,0.02954
4.32,0.03079
4.324,0.02004
4.328,0.01923
4.332,-0.00482
4.336,0.03715
4.34,-0.01549
4.344,0.02543
4.348,0.02591
4.352,0.00856
4.356,-0.07044
4.36,0.05247
4.364,0.03601
4.368,0.03052
4.372,-0.07389
4.376,0.03929
4.38,0.05253
4.384,0.07297
4.388,0.00578
4.392,0.07679
4.396,0.05979
4.4,0.17381
4.404,0.14167
4.408,0.11344
4.412,0.1702
4.416,0.09057
4.42,0.09305
4.424,0.0823
4.428,0.03535
4.432,0.1735
4.436,0.08448
4.44,-0.0139
4.444,-0.02717
4.448,0.02924
4.452,-0.01843
4.456,-0.00868
4.46,0.02229
4.464,0.03789
4.468,0.04884
4.472,0.0022
4.476,0.05419
4.48,0.00867
4.484,0.00764
4.488,-0.00636
4.492,-0.03402
4.496,-0.05163
4.5,0.05548
4.504,0.05652
4.508,-0.0036
4.512,0.02399
4.516,0.00241
4.52,-0.01878
4.524,0.06583
4.528,-0.03403
4.532,0.01607
4.536,-0.12774
4.54,-0.07262
4.544,0.00055
4.548,0.12343
4.552,0.19643
4.556,0.4342
4.56,0.69221
4.564,0.88178
4.568,1.01072
4.572,1.02986
4.576,0.9419
4.58,0.62616
4.584,0.46136
4.588,0.26858
4.592,0.04447
4.596,-0.06267
4.6,-0.15047
4.604,-0.19784
4.608,-0.15613
4.612,-0.0103
4.616,-0.08723
4.62,0.01345
4.624,-0.05152
4.628,0.01417
4.632,0.05091
4.636,0.0407
4.64,-0.03872
4.644,-0.0107
4.648,0.03649
4.652,0.03081
4.656,0.05164
4.66,0.01929
4.664,-0.02794
4.668,0.0556
4.672,-0.01823
4.676,0.0234
4.68,-0.04022
4.684,-0.02546
4.688,0.01892
4.692,-0.027
4.696,0.01472
4.7,0.02489
4.704,-0.0588
4.708,0.05569
4.712,-0.02709
4.716,0.00095
4.72,-0.01262
4.724,0.03005
4.728,0.06098
4.732,-0.05177
4.736,-0.03294
4.74,0.0382
4.744,-0.02236
4.748,-0.0116
4.752,0.01462
4.756,-0.0085
4.76,-0.02053
4.764,0.10334
4.768,0.10541
4.772,0.12722
4.776,0.00157
4.78,0.13284
4.784,0.03079
4.788,0.06794
4.792,0.12881
4.796,0.11642
4.8,0.14864
4.804,0.13175
4.808,0.17413
4.812,0.19671
4.816,0.17977
4.82,0.15864
4.824,0.17467
4.828,0.2248
4.832,0.20802
4.836,0.22644
4.84,0.19713
4.844,0.19638
4.848,0.22163
4.852,0.21432
4.856,0.18789
4.86,0.20465
4.864,0.23603
4.868,0.15506
4.872,0.20959
4.876,0.23658
4.88,0.19762
4.884,0.18436
4.888,0.10097
4.892,0.13651
4.896,0.15205
4.9,0.09187
4.904,0.08722
4.908,0.11563
4.912,0.16884
4.916,0.05797
4.92,0.12049
4.924,0.08858
4.928,0.05645
4.932,0.03676
4.936,0.02608
4.94,0.08578
4.944,0.03229
4.948,0.05042
4.952,0.02832
4.956,0.07005
4.96,-0.01993
4.964,0.00541
4.968,0.00023
4.972,0.00719
4.976,-0.01983
4.98,-0.04572
4.984,-0.04027
4.988,-0.00625
4.992,-0.03128
4.996,-0.07153
5.0,-0.03732
5.004,0.08621
5.008,0.04897
5.012,0.02569
5.016,0.02954
5.02,0.11145
5.024,0.13458
5.028,0.10188
5.032,0.1088
5.036,0.13619
5.04,0.07757
5.044,0.07689
5.048,0.1431
5.052,0.09097
5.056,-0.04645
5.06,0.03022
5.064,0.05431
5.068,0.02472
5.072,0.0169
5.076,0.0223
5.08,0.00143
5.084,-0.04396
5.088,0.03536
5.092,0.01816
5.096,-0.03652
5.1,0.02253
5.104,-0.0301
5.108,-0.01978
5.112,-0.04873
5.116,-0.03342
5.12,-0.04847
5.124,0.01239
5.128,-0.03438
5.132,-0.01496
5.136,-0.01794
5.14,-0.00648
5.144,-0.0455
5.148,-0.07258
5.152,-0.03212
5.156,-0.10635
5.16,-0.15841
5.164,-0.13688
5.168,-0.12429
5.172,0.04691
5.176,0.17972
5.18,0.38947
5.184,0.59139
5.188,0.71722
5.192,0.92709
5.196,1.01867
5.2,0.95513
5.204,0.77147
5.208,0.60112
5.212,0.31597
5.216,0.10699
5.22,-0.03979
5.224,-0.1971
5.228,-0.1497
5.232,-0.15703
5.236,-0.13656
5.24,-0.0541
5.244,-0.06483
5.248,-0.04087
5.252,0.0288
5.256,0.00675
5.26,-0.02804
5.264,-0.01089
5.268,-0.05775
5.272,0.02459
5.276,-0.02224
5.28,-0.02688
5.284,-0.04921
5.288,0.05258
5.292,-0.05724
5.296,-0.06314
5.3,0.05663
5.304,-0.0122
5.308,0.0029
5.312,0.02086
5.316,-0.03243
5.32,-0.04698
5.324,0.00297
5.328,0.00936
5.332,0.00719
5.336,0.02165
5.34,-0.00657
5.344,-0.08391
5.348,-0.01774
5.352,0.02176
5.356,-0.14285
5.36,-0.02321
5.364,-0.03862
5.368,-0.00943
5.372,0.05252
5.376,0.03406
5.38,0.05323
5.384,-0.02277
5.388,-0.01368
5.392,0.05123
5.396,0.04457
5.4,0.03369
5.404,0.03363
5.408,0.02314
5.412,0.09997
5.416,0.04879
5.42,0.09623
5.424,0.04371
5.428,0.09282
5.432,0.10552
5.436,0.16371
5.44,0.12022
5.444,0.13561
5.448,0.20558
5.452,0.21514
5.456,0.19195
5.46,0.16746
5.464,0.15714
5.468,0.19266
5.472,0.2359
5.476,0.198
5.48,0.18247
5.484,0.16214
5.488,0.23613
5.492,0.19879
5.496,0.22733
5.5,0.21293
5.504,0.15853
5.508,0.14447
5.512,0.17195
5.516,0.15265
5.52,0.14015
5.524,0.04607
5.528,0.09165
5.532,0.061
5.536,0.05656
5.54,0.08166
5.544,0.08438
5.548,0.05562
5.552,0.03701
5.556,0.02856
5.56,0.06487
5.564,0.04462
5.568,-0.00748
5.572,0.00296
5.576,-0.01277
5.58,0.0449
5.584,-0.02182
5.588,-0.03126
5.592,-0.02747
5.596,-0.04652
5.6,-0.07618
5.604,-0.0629
5.608,-0.00711
5.612,0.00939
5.616,-0.0673
5.62,0.0303
5.624,-0.04395
5.628,-0.02177
5.632,-0.04072
5.636,-0.0523
5.64,-0.02798
5.644,-0.07893
5.648,0.00136
5.652,-0.02016
5.656,0.01055
5.66,0.01404
5.664,0.00757
5.668,-0.02957
5.672,-0.05241
5.676,-0.02881
5.68,-0.01392
5.684,0.02201
5.688,-0.01441
5.692,-0.05439
5.696,-0.01751
5.7,-0.03871
5.704,0.00945
5.708,-0.01429
5.712,0.00822
5.716,0.0046
5.72,-0.00337
5.724,-0.0164
5.728,0.01673
5.732,-0.02238
5.736,-0.07598
5.74,-0.062
5.744,-0.02761
5.748,-0.07457
5.752,0.05888
5.756,-0.05218
5.76,0.00219
5.764,-0.05633
5.768,-0.02992
5.772,-0.03708
5.776,-0.01029
5.78,-0.00384
5.784,-0.05484
5.788,0.01061
5.792,-0.03547
5.796,-0.00371
5.8,-0.02819
5.804,-0.08395
5.808,-0.01473
5.812,-0.07614
5.816,-0.01845
5.82,-0.01487
5.824,0.00404
5.828,-0.01108
5.832,-0.02642
5.836,-0.0313
5.84,-0.08057
5.844,-0.00974
5.848,0.00043
5.852,-0.05938
5.856,-0.02702
5.86,-0.06006
5.864,0.01268
5.868,0.00109
5.872,-0.01889
5.876,0.00695
5.88,-0.04531
5.884,-0.0071
5.888,0.00829
5.892,0.00563
5.896,0.07185
5.9,0.09527
5.904,0.06993
5.908,0.0346
5.912,0.05012
5.916,0.00332
5.92,0.11225
5.924,0.04012
5.928,0.0263
5.932,0.01679
5.936,0.04044
5.94,0.03431
5.944,0.02046
5.948,0.04724
5.952,-0.04444
5.956,-0.06406
5.96,-0.00451
5.964,-0.03953
5.968,-0.02023
5.972,0.02346
5.976,-0.03874
5.98,-0.00052
5.984,-0.02295
5.988,-0.05039
5.992,-0.01222
5.996,0.0261
6.0,-0.04472
6.004,0.02744
6.008,-0.05735
6.012,0.04002
6.016,-0.01494
6.02,0.03474
6.024,-0.05776
6.028,-0.0919
6.032,-0.09613
6.036,-0.05318
6.04,-0.20487
6.044,-0.13565
6.048,-0.03684
6.052,0.09924
6.056,0.29486
6.06,0.61348
6.064,0.78666
6.068,0.90047
6.072,0.93808
6.076,0.81957
6.08,0.75689
6.084,0.58243
6.088,0.28395
6.092,0.08692
6.096,-0.0291
6.1,-0.13945
6.104,-0.22084
6.108,-0.19563
6.112,-0.16675
6.116,-0.0763
6.12,-0.09881
6.124,-0.06742
6.128,-0.04745
6.132,-0.03961
6.136,-0.08577
6.14,-0.02575
6.144,-0.01041
6.148,-0.04283
6.152,-0.02107
6.156,0.0678
6.16,-0.01125
6.164,-0.04848
6.168,-0.04433
6.172,-0.04272
6.176,-0.04617
6.18,-0.07816
6.184,-0.04989
6.188,0.03492
6.192,-0.05582
6.196,-0.03355
6.2,-0.10928
6.204,-0.08134
6.208,-0.02097
6.212,0.05105
6.216,-0.02389
6.22,-0.0633
6.224,0.00785
6.228,-0.08385
6.232,-0.05809
6.236,-0.01483
6.24,-0.02944
6.244,-0.10813
6.248,-0.03774
6.252,-0.03159
6.256,0.09063
6.26,-0.0052
6.264,-0.00732
6.268,-0.01339
6.272,-0.03239
6.276,0.00878
6.28,0.09296
6.284,0.10386
6.288,-0.00132
6.292,0.01965
6.296,0.09263
6.3,0.01772
6.304,0.1469
6.308,0.12431
6.312,0.17558
6.316,0.15957
6.32,0.16394
6.324,0.13496
6.328,0.23309
6.332,0.14784
6.336,0.19308
6.34,0.18744
6.344,0.21879
6.348,0.18782
6.352,0.22095
6.356,0.18562
6.36,0.22258
6.364,0.13802
6.368,0.12958
6.372,0.19399
6.376,0.17355
6.38,0.1348
6.384,0.12568
6.388,0.16442
6.392,0.17052
6.396,0.11054
6.4,0.1169
6.404,0.10759
6.408,0.12053
6.412,0.07773
6.416,0.08959
6.42,0.02437
6.424,0.02853
6.428,-0.02496
6.432,0.02967
6.436,0.03286
6.44,0.01269
6.444,0.02342
6.448,0.01062
6.452,-0.02689
6.456,0.05028
6.46,-0.04545
6.464,-0.04316
6.468,-0.05336
6.472,-0.04781
6.476,-0.02211
6.48,-0.01018
6.484,-0.08072
6.488,-0.02107
6.492,-0.02063
6.496,0.04107
6.5,-0.02801
6.504,-0.02565
6.508,0.02121
6.512,-0.0589
6.516,-0.03709
6.52,0.01097
6.524,-0.04335
6.528,-0.01243
6.532,-0.06107
6.536,-0.00457
6.54,-0.02223
6.544,-0.0575
6.548,0.00738
6.552,0.07938
6.556,0.04725
6.56,0.12058
6.564,0.05483
6.568,0.11645
6.572,0.04519
6.576,0.06577
6.58,0.04023
6.584,0.00867
6.588,0.06726
6.592,-0.00977
6.596,0.02081
6.6,0.07119
6.604,0.00312
6.608,-0.03531
6.612,-0.04292
6.616,0.01073
6.62,0.00422
6.624,-0.05327
6.628,0.02304
6.632,-0.03567
6.636,-0.01753
6.64,0.05981
6.644,-0.04533
6.648,-0.02951
6.652,-0.02075
6.656,-0.004
6.66,-0.02785
6.664,-0.06962
6.668,0.00547
6.672,-0.0463
6.676,-0.03045
6.68,-0.08083
6.684,-0.07157
6.688,-0.05704
6.692,-0.10945
6.696,-0.09462
6.7,-0.14155
6.704,-0.0231
6.708,0.06154
6.712,0.25196
6.716,0.41618
6.72,0.67324
6.724,0.91266
6.728,1.00206
6.732,0.96562
6.736,0.84808
6.74,0.65597
6.744,0.46245
6.748,0.20123
6.752,0.06031
6.756,-0.10939
6.76,-0.21701
6.764,-0.22687
6.768,-0.21678
6.772,-0.15251
6.776,-0.08845
6.78,-0.02106
6.784,-0.06564
6.788,0.02599
6.792,0.03116
6.796,0.02278
6.8,-0.08059
6.804,-0.06088
6.808,0.01133
6.812,-0.02934
6.816,-0.0452
6.82,-0.04495
6.824,-0.01639
6.828,0.05493
6.832,0.03583
6.836,-0.04486
6.84,-0.04008
6.844,-0.10779
6.848,-0.02907
6.852,-0.01824
6.856,-0.03069
6.86,-0.04557
6.864,-0.06286
6.868,0.04225
6.872,0.02031
6.876,-0.07177
6.88,-0.01928
6.884,-0.11881
6.888,-0.0507
6.892,-0.0021
6.896,-0.04497
6.9,-0.03577
6.904,-0.01991
6.908,-0.06096
6.912,0.03729
6.916,-0.00181
6.92,-0.01628
6.924,0.02566
6.928,0.04091
6.932,0.01538
6.936,0.03364
6.94,-0.00991
6.944,0.02521
6.948,0.0578
6.952,0.04536
6.956,0.13572
6.96,0.053
6.964,0.09688
6.968,0.16917
6.972,0.14872
6.976,0.1948
6.98,0.13857
6.984,0.1151
6.988,0.15538
6.992,0.16249
6.996,0.14477
7.0,0.18219
7.004,0.20909
7.008,0.2072
7.012,0.16538
7.016,0.16689
7.02,0.1749
7.024,0.19377
7.028,0.16933
7.032,0.17677
7.036,0.13425
7.04,0.08897
7.044,0.18128
7.048,0.13333
7.052,0.10922
7.056,0.13348
7.06,0.13908
7.064,0.02827
7.068,0.08576
7.072,0.07479
7.076,0.10455
7.08,0.07417
7.084,-0.02277
7.088,0.03565
7.092,0.03399
7.096,0.05416
7.1,-0.04119
7.104,-0.118
7.108,-0.01899
7.112,-0.01603
7.116,0.00629
7.12,0.01244
7.124,-0.06001
7.128,0.03075
7.132,-0.047
7.136,0.04666
7.14,-0.00946
7.144,0.02878
7.148,0.02832
7.152,-0.01535
7.156,-0.05651
7.16,-0.02162
7.164,-0.03323
7.168,0.02001
7.172,0.01024
7.176,-0.02933
7.18,-0.04215
7.184,0.00681
7.188,0.02073
7.192,-0.03267
7.196,-0.01081
7.2,-0.00791
7.204,-0.05858
7.208,-0.07653
7.212,-0.07665
7.216,0.00569
7.22,-0.00967
7.224,-0.0594
7.228,0.02173
7.232,-0.02587
7.236,-0.00577
7.24,-0.03016
7.244,0.03534
7.248,-0.0167
7.252,-0.02841
7.256,0.02729
7.26,-0.03672
7.264,-0.02615
7.268,0.00209
7.272,-0.01113
7.276,-0.0463
7.28,-0.03907
7.284,0.0545
7.288,-0.04351
7.292,0.01213
7.296,-0.04038
7.3,-0.04401
7.304,-0.09564
7.308,-0.04861
7.312,0.00496
7.316,0.00972
7.32,-0.03596
7.324,-0.01922
7.328,-0.06579
7.332,0.01215
7.336,-0.00981
7.34,-0.0581
7.344,-0.05115
7.348,-0.0478
7.352,-0.03458
7.356,0.05482
7.36,-0.05082
7.364,0.05569
7.368,0.02296
7.372,0.01466
7.376,-0.05466
7.38,0.02656
7.384,-0.03557
7.388,-0.03702
7.392,-0.04107
7.396,-0.05893
7.4,0.03302
7.404,-0.04624
7.408,-0.00849
7.412,-0.03279
7.416,-0.04019
7.42,0.03372
7.424,-0.1102
7.428,-0.03422
7.432,0.06584
7.436,-0.01003
7.44,0.0009
7.444,0.08503
7.448,0.02093
7.452,0.00652
7.456,0.00205
7.46,0.04014
7.464,0.06553
7.468,0.1292
7.472,0.11402
7.476,0.07736
7.48,0.14438
7.484,0.10074
7.488,0.07863
7.492,0.06831
7.496,0.05748
7.5,0.03439
7.504,0.06855
7.508,-0.03435
7.512,0.03378
7.516,-0.00756
7.52,-0.00196
7.524,0.00965
7.528,-0.0316
7.532,0.05626
7.536,0.0125
7.54,0.03249
7.544,-0.04537
7.548,-0.05984
7.552,-0.05569
7.556,-0.03149
7.56,0.03037
7.564,-0.10594
7.568,-0.12254
7.572,-0.01717
7.576,-0.00032
7.58,-0.04142
7.584,0.00672
7.588,-0.08262
7.592,-0.02684
7.596,-0.05234
7.6,-0.11265
7.604,-0.09525
7.608,-0.17317
7.612,-0.09188
7.616,0.05454
7.62,0.27398
7.624,0.49196
7.628,0.73545
7.632,0.86416
7.636,0.979
7.64,1.00424
7.644,0.81242
7.648,0.64362
7.652,0.41215
7.656,0.17212
7.66,-0.01372
7.664,-0.13446
7.668,-0.14872
7.672,-0.19688
7.676,-0.09714
7.68,-0.10643
7.684,-0.04122
7.688,-0.01838
7.692,0.02876
7.696,-0.04086
7.7,-0.01465
7.704,0.02299
7.708,-0.01415
7.712,-0.00497
7.716,0.02607
7.72,-0.05798
7.724,-0.0057
7.728,-0.03896
7.732,0.0192
7.736,-0.03014
7.74,-0.0137
7.744,-0.06181
7.748,0.01254
7.752,0.00522
7.756,0.00453
7.76,0.01201
7.764,-0.01636
7.768,-0.04581
7.772,0.0398
7.776,0.04461
7.78,-0.02746
7.784,0.01277
7.788,-0.01357
7.792,0.01719
7.796,0.00842
7.8,-0.03552
7.804,-0.0403
7.808,0.00885
7.812,-0.01854
7.816,0.01
7.82,-0.05253
7.824,-0.02292
7.828,0.01588
7.832,0.01847
7.836,-0.00796
7.84,0.04302
7.844,0.03402
7.848,0.08728
7.852,0.02992
7.856,0.09791
7.86,0.06084
7.864,0.12346
7.868,0.14905
7.872,0.14237
7.876,0.15193
7.88,0.1479
7.884,0.1481
7.888,0.1589
7.892,0.18323
7.896,0.19414
7.9,0.17836
7.904,0.24906
7.908,0.22452
7.912,0.18952
7.916,0.21504
7.92,0.16671
7.924,0.22425
7.928,0.23341
7.932,0.25527
7.936,0.21971
7.94,0.24029
7.944,0.18113
7.948,0.19821
7.952,0.13655
7.956,0.1262
7.96,0.11675
7.964,0.10619
7.968,0.10232
7.972,0.10659
7.976,0.11693
7.98,0.07075
7.984,0.09899
7.988,0.05682
7.992,0.03513
7.996,-0.01175
8.0,0.08542
8.004,0.0127
8.008,0.04212
8.012,0.04029
8.016,0.01025
8.02,-0.01256
8.024,0.03849
8.028,-0.07887
8.032,-0.00568
8.036,-0.03192
8.04,0.00085
8.044,-0.02901
8.048,0.03198
8.052,-0.05967
8.056,-0.0725
8.06,0.03012
8.064,-0.05136
8.068,0.03452
8.072,-0.00226
8.076,0.03253
8.08,-0.05272
8.084,-0.03855
8.088,0.04663
8.092,0.0051
8.096,-0.00278
8.1,-0.01926
8.104,0.03437
8.108,-0.01679
8.112,-0.01092
8.116,-0.00605
8.12,-0.01676
8.124,0.00369
8.128,-0.00133
8.132,0.04157
8.136,-0.02022
8.14,0.01919
8.144,0.01034
8.148,-0.01114
8.152,-0.01866
8.156,0.0152
8.16,0.05302
8.164,0.00648
8.168,0.01331
8.172,-0.0358
8.176,-0.07377
8.18,-0.01068
8.184,-0.03303
8.188,-0.0473
8.192,0.0196
8.196,-0.05858
8.2,-0.00894
8.204,-0.04902
8.208,0.01155
8.212,-0.01997
8.216,0.00742
8.22,0.04181
8.224,-0.05158
8.228,-0.00662
8.232,0.02707
8.236,0.02274
8.24,0.00945
8.244,-0.04647
8.248,0.00508
8.252,-0.0366
8.256,-0.02427
8.26,0.05277
8.264,0.02135
8.268,0.01687
8.272,-0.01237
8.276,-0.01715
8.28,0.07315
8.284,-0.00452
8.288,0.00209
8.292,0.04667
8.296,0.00188
8.3,0.02112
8.304,-0.01027
8.308,-0.03439
8.312,0.04294
8.316,-0.0097
8.32,0.03958
8.324,-0.07204
8.328,0.00886
8.332,0.03333
8.336,0.06103
8.34,-0.00831
8.344,0.05814
8.348,0.0474
8.352,-0.00437
8.356,0.00555
8.36,0.0626
8.364,-0.06276
8.368,0.04123
8.372,0.09935
8.376,0.03222
8.38,0.01625
8.384,0.01019
8.388,0.05485
8.392,0.02057
8.396,0.04686
8.4,-0.01437
8.404,-0.04025
8.408,0.03872
8.412,0.01631
8.416,0.06626
8.42,0.06221
8.424,-0.00138
8.428,0.06776
8.432,-0.034
8.436,-0.01167
8.44,0.02628
8.444,-0.03694
8.448,-0.04235
8.452,0.00919
8.456,-0.0474
8.46,-0.04137
8.464,0.00638
8.468,0.05174
8.472,0.04455
8.476,-0.03938
8.48,0.02579
8.484,-0.027
8.488,0.05351
8.492,-0.02394
8.496,-0.00048
8.5,-0.01154
8.504,0.00917
8.508,0.0131
8.512,0.01443
8.516,0.03699
8.52,0.03541
8.524,-0.00991
8.528,0.03066
8.532,-0.01034
8.536,-0.04477
8.54,0.03333
8.544,-0.02801
8.548,-0.0204
8.552,0.03291
8.556,-0.00575
8.56,0.02877
8.564,0.03422
8.568,0.00338
8.572,0.02262
8.576,0.00086
8.58,-0.00095
8.584,-0.05567
8.588,0.06551
8.592,0.02231
8.596,0.03483
8.6,0.00687
8.604,0.08787
8.608,0.00444
8.612,-0.02401
8.616,-0.03544
8.62,0.04559
8.624,0.03576
8.628,0.03953
8.632,0.02589
8.636,0.10241
8.64,-0.01276
8.644,0.0339
8.648,0.04603
8.652,0.02327
8.656,0.04502
8.66,-0.04849
8.664,0.00178
8.668,-0.04074
8.672,-0.00508
8.676,-0.00123
8.68,-0.02398
8.684,-0.08377
8.688,0.01074
8.692,-0.00113
8.696,-0.00825
8.7,0.02515
8.704,0.04451
8.708,-0.02652
8.712,0.02951
8.716,0.06419
8.72,-0.02484
8.724,0.06535
8.728,-0.01371
8.732,-0.03354
8.736,0.02637
8.74,0.02811
8.744,-0.02594
8.748,-0.01264
8.752,0.06091
8.756,0.03016
8.76,0.00897
8.764,-0.01824
8.768,0.06239
8.772,0.01223
8.776,0.03379
8.78,0.02423
8.784,-0.00926
8.788,-0.01809
8.792,0.06041
8.796,0.0677
8.8,-0.00316
8.804,0.0658
8.808,0.00918
8.812,0.01532
8.816,0.02981
8.82,0.13225
8.824,0.08053
8.828,0.07107
8.832,0.09034
8.836,0.09264
8.84,0.07562
8.844,0.10254
8.848,0.05701
8.852,0.13753
8.856,0.15625
8.86,0.16822
8.864,0.08975
8.868,0.0435
8.872,0.06309
8.876,0.07193
8.88,0.01661
8.884,-0.01797
8.888,0.06448
8.892,0.05062
8.896,0.01027
8.9,0.00211
8.904,0.03477
8.908,0.02092
8.912,0.00272
8.916,0.03346
8.92,0.01337
8.924,-0.01047
8.928,0.03315
8.932,0.03075
8.936,-0.01598
8.94,-0.03222
8.944,0.06878
8.948,0.00117
8.952,0.01092
8.956,-0.03911
8.96,0.03161
8.964,-0.02918
8.968,-0.06511
8.972,-0.06509
8.976,-0.13101
8.98,0.01635
8.984,0.24306
8.988,0.38043
8.992,0.54067
8.996,0.81042
9.0,0.97249
9.004,1.04635
9.008,0.97084
9.012,0.89355
9.016,0.67426
9.02,0.34383
9.024,0.13517
9.028,-0.02316
9.032,-0.12891
9.036,-0.21101
9.04,-0.07462
9.044,-0.09825
9.048,-0.05446
9.052,0.05022
9.056,0.00119
9.06,0.04263
9.064,0.01399
9.068,0.00702
9.072,-0.00753
9.076,0.05648
9.08,0.01066
9.084,-0.03468
9.088,0.02079
9.092,-0.0015
9.096,0.02857
9.1,0.09233
9.104,-0.00361
9.108,0.05018
9.112,0.00066
9.116,0.05275
9.12,-0.00419
9.124,-0.04017
9.128,-0.02188
9.132,0.04951
9.136,-0.02236
9.14,0.05074
9.144,0.07772
9.148,-0.00675
9.152,0.05767
9.156,0.03923
9.16,0.06283
9.164,0.02462
9.168,0.03657
9.172,0.04006
9.176,0.05463
9.18,0.00236
9.184,0.00223
9.188,0.05383
9.192,0.09081
9.196,0.03673
9.2,0.06349
9.204,0.07968
9.208,0.12346
9.212,0.07618
9.216,0.10295
9.22,0.16142
9.224,0.12433
9.228,0.14347
9.232,0.15
9.236,0.10863
9.24,0.21356
9.244,0.17431
9.248,0.20666
9.252,0.11911
9.256,0.25169
9.26,0.26182
9.264,0.22877
9.268,0.16834
9.272,0.25519
9.276,0.2247
9.28,0.20488
9.284,0.25865
9.288,0.24371
9.292,0.29142
9.296,0.28369
9.3,0.21974
9.304,0.27975
9.308,0.22087
9.312,0.22639
9.316,0.19057
9.32,0.16304
9.324,0.18646
9.328,0.14968
9.332,0.08125
9.336,0.08186
9.34,0.12025
9.344,0.14187
9.348,0.1558
9.352,0.06012
9.356,0.09218
9.36,0.06217
9.364,0.12929
9.368,0.05228
9.372,0.0264
9.376,0.01183
9.38,0.06315
9.384,-0.01749
9.388,0.00546
9.392,0.05036
9.396,-0.01946
9.4,0.05792
9.404,0.00121
9.408,0.01551
9.412,0.02163
9.416,0.06624
9.42,0.00731
9.424,0.0852
9.428,0.09595
9.432,-0.00689
9.436,-0.0037
9.44,0.02367
9.444,0.04645
9.448,0.00353
9.452,0.01965
9.456,0.02021
9.46,0.0534
9.464,-0.0345
9.468,-0.00543
9.472,0.02732
9.476,-0.0202
9.48,0.01134
9.484,-0.00469
9.488,-0.00487
9.492,-0.03493
9.496,0.038
9.5,-0.02445
9.504,-0.00135
9.508,0.05549
9.512,-0.00194
9.516,0.0119
9.52,0.01816
9.524,0.09517
9.528,0.0336
9.532,0.05906
9.536,0.0013
9.54,0.08075
9.544,0.02061
9.548,0.00657
9.552,0.03422
9.556,0.14659
9.56,0.09153
9.564,0.05328
9.568,0.08108
9.572,0.07141
9.576,0.16192
9.58,0.09671
9.584,0.05888
9.588,0.12269
9.592,0.09241
9.596,0.07642
9.6,0.12796
9.604,0.10942
9.608,0.09558
9.612,0.09578
9.616,0.09719
9.62,-0.00204
9.624,0.03009
9.628,0.05763
9.632,0.05642
9.636,0.06194
9.64,0.01234
9.644,0.05039
9.648,-0.01298
9.652,0.01127
9.656,0.04797
9.66,0.02975
9.664,0.06731
9.668,-0.0023
9.672,-0.00281
9.676,0.01322
9.68,-0.00775
9.684,0.05968
9.688,0.0485
9.692,-0.0352
9.696,-0.02063
9.7,0.05226
9.704,-0.04852
9.708,-0.10484
9.712,-0.09811
9.716,-0.07959
9.72,-0.01944
9.724,0.18484
9.728,0.36408
9.732,0.61719
9.736,0.82231
9.74,0.95444
9.744,1.01047
9.748,1.02447
9.752,0.77071
9.756,0.69886
9.76,0.32643
9.764,0.17787
9.768,0.01269
9.772,-0.11655
9.776,-0.15277
9.78,-0.09254
9.784,-0.17615
9.788,-0.01022
9.792,0.02821
9.796,0.02108
9.8,0.10515
9.804,0.04698
9.808,0.00267
9.812,0.07529
9.816,0.06204
9.82,0.10553
9.824,0.03809
9.828,-0.01301
9.832,0.07642
9.836,0.01988
9.84,0.05674
9.844,0.02615
9.848,0.05274
9.852,0.01618
9.856,0.05032
9.86,-0.01473
9.864,0.03962
9.868,0.04082
9.872,0.02032
9.876,-0.03027
9.88,-0.03564
9.884,0.05262
9.888,0.04137
9.892,0.05928
9.896,0.01652
9.9,0.00953
9.904,0.01117
9.908,0.00747
9.912,0.02166
9.916,0.07196
9.92,0.0085
9.924,0.08995
9.928,0.08635
9.932,0.0351
9.936,0.05087
9.94,0.0643
9.944,0.10369
9.948,0.08396
9.952,0.11128
9.956,0.11187
9.96,0.12572
9.964,0.09599
9.968,0.08203
9.972,0.15714
9.976,0.1059
9.98,0.18653
9.984,0.12322
9.988,0.19984
9.992,0.18901
9.996,0.18759
