t_seg,ecg_mV
0.0,0.02734
0.004,0.00544
0.008,0.01798
0.012,0.04332
0.016,0.08262
0.02,0.04689
0.024,0.02681
0.028,0.02138
0.032,0.05047
0.036,-0.00145
0.04,0.05666
0.044,0.00759
0.048,-0.0086
0.052,0.08804
0.056,0.09215
0.06,0.06656
0.064,0.03241
0.068,-0.07684
0.072,-0.05296
0.076,0.01765
0.08,-0.00371
0.084,-0.01867
0.088,-0.02374
0.092,-0.04742
0.096,-0.03601
0.1,0.10752
0.104,0.21194
0.108,0.33891
0.112,0.63305
0.116,0.75634
0.12,0.91258
0.124,0.9898
0.128,0.95108
0.132,0.88439
0.136,0.66442
0.14,0.47309
0.144,0.17848
0.148,0.06773
0.152,-0.04964
0.156,-0.21119
0.16,-0.16229
0.164,-0.12262
0.168,-0.04625
0.172,0.01243
0.176,0.00252
0.18,0.05958
0.184,-0.01682
0.188,0.01554
0.192,0.00561
0.196,0.04068
0.2,0.0293
0.204,0.02946
0.208,0.03543
0.212,-0.04016
0.216,-0.00996
0.22,0.01359
0.224,0.02543
0.228,-0.0108
0.232,0.0604
0.236,0.00396
0.24,0.0322
0.244,0.04717
0.248,0.05246
0.252,0.01395
0.256,0.00185
0.26,0.00411
0.264,-0.01719
0.268,-0.01377
0.272,-0.04705
0.276,-0.00452
0.28,-0.00517
0.284,0.07903
0.288,0.02113
0.292,0.04919
0.296,0.13316
0.3,0.05896
0.304,-0.01289
0.308,-0.00508
0.312,0.01896
0.316,0.03273
0.32,0.02416
0.324,0.06862
0.328,0.08167
0.332,0.05558
0.336,0.06067
0.34,0.10023
0.344,0.18923
0.348,0.08979
0.352,0.14825
0.356,0.15173
0.36,0.11937
0.364,0.14744
0.368,0.16111
0.372,0.17719
0.376,0.26446
0.38,0.25756
0.384,0.23608
0.388,0.2516
0.392,0.26192
0.396,0.26439
0.4,0.30255
0.404,0.17303
0.408,0.29706
0.412,0.1983
0.416,0.20633
0.42,0.22117
0.424,0.26224
0.428,0.23593
0.432,0.15532
0.436,0.18128
0.44,0.16205
0.444,0.17606
0.448,0.2071
0.452,0.1565
0.456,0.14362
0.46,0.08471
0.464,0.10966
0.468,0.08638
0.472,0.16542
0.476,0.11206
0.48,0.05864
0.484,0.03931
0.488,0.10591
0.492,0.05044
0.496,0.01691
0.5,-0.00581
0.504,0.02361
0.508,0.01386
0.512,0.08689
0.516,0.00308
0.52,0.02156
0.524,-0.01584
0.528,0.00117
0.532,0.03763
0.536,0.04998
0.54,0.0658
0.544,0.0582
0.548,0.02356
0.552,-0.00375
0.556,-0.01246
0.56,-0.05028
0.564,-0.00572
0.568,0.0584
0.572,0.03579
0.576,0.02955
0.58,0.03505
0.584,0.05945
0.588,0.00881
0.592,0.03465
0.596,0.07085
0.6,-0.01871
0.604,0.00739
0.608,0.05978
0.612,0.02675
0.616,0.04017
0.62,-0.06679
0.624,0.09333
0.628,0.0025
0.632,0.01347
0.636,0.04145
0.64,-0.00325
0.644,0.03143
0.648,0.03511
0.652,0.09846
0.656,0.00305
0.66,0.0688
0.664,0.08036
0.668,0.00879
0.672,0.01311
0.676,0.03044
0.68,-0.01394
0.684,0.03836
0.688,-0.01255
0.692,-0.00743
0.696,-0.00758
0.7,-0.01522
0.704,-0.03409
0.708,-0.01767
0.712,-0.01733
0.716,0.05882
0.72,0.02625
0.724,0.01451
0.728,0.02056
0.732,0.0067
0.736,0.01603
0.74,0.0347
0.744,0.0476
0.748,-0.0033
0.752,0.02558
0.756,0.01454
0.76,0.00625
0.764,0.02907
0.768,-0.00523
0.772,0.04206
0.776,-0.01065
0.78,0.06286
0.784,0.04843
0.788,0.0167
0.792,0.00217
0.796,-0.04151
0.8,-0.07405
0.804,0.00125
0.808,-0.02695
0.812,0.03329
0.816,-0.0024
0.82,0.00617
0.824,-0.00148
0.828,-0.01438
0.832,0.01955
0.836,0.05531
0.84,-0.01129
0.844,0.00162
0.848,-0.02185
0.852,-0.02708
0.856,-0.04136
0.86,-0.01637
0.864,0.04251
0.868,0.01588
0.872,0.06532
0.876,0.04271
0.88,0.03428
0.884,0.00301
0.888,0.03716
0.892,0.02084
0.896,-0.03474
0.9,0.00863
0.904,0.02359
0.908,-0.00965
0.912,-0.02624
0.916,0.01907
0.92,-0.00729
0.924,-0.03693
0.928,-0.00779
0.932,0.02524
0.936,-0.03779
0.94,-0.01377
0.944,-0.02153
0.948,0.01977
0.952,-0.023
0.956,0.00413
0.96,0.01027
0.964,-0.0041
0.968,-0.03179
0.972,-0.00808
0.976,0.03333
0.98,0.03986
0.984,0.04724
0.988,-0.00949
0.992,0.03327
0.996,0.01656
1.0,0.02811
1.004,0.02141
1.008,-0.05227
1.012,0.04313
1.016,-0.05036
1.02,-0.01691
1.024,0.00927
1.028,-0.02613
1.032,0.00358
1.036,-0.00579
1.04,-0.01529
1.044,0.00547
1.048,-0.00635
1.052,0.04789
1.056,0.00549
1.06,0.04196
1.064,-0.01091
1.068,0.03415
1.072,-0.0021
1.076,0.00475
1.08,0.03366
1.084,0.08147
1.088,0.05203
1.092,-0.03548
1.096,0.00609
1.1,0.03999
1.104,0.06927
1.108,0.02823
1.112,-0.02615
1.116,0.06734
1.12,0.04388
1.124,-0.00394
1.128,0.01506
1.132,0.06187
1.136,0.02264
1.14,0.06671
1.144,0.10267
1.148,0.09939
1.152,0.09241
1.156,0.07565
1.16,0.10347
1.164,0.03878
1.168,0.14461
1.172,0.05583
1.176,0.09091
1.18,0.07371
1.184,0.06344
1.188,0.07343
1.192,0.07316
1.196,0.02307
1.2,0.02271
1.204,0.04523
1.208,-0.00532
1.212,0.04436
1.216,-0.04653
1.22,0.03729
1.224,0.0056
1.228,-0.07033
1.232,-0.01056
1.236,-0.00062
1.24,-0.01918
1.244,0.0096
1.248,-0.021
1.252,0.00912
1.256,-0.02582
1.26,-0.00463
1.264,-0.00831
1.268,-0.00751
1.272,0.03373
1.276,0.03773
1.28,-0.00856
1.284,-0.03329
1.288,-0.06106
1.292,-0.13954
1.296,-0.05409
1.3,-0.00676
1.304,0.11468
1.308,0.32602
1.312,0.55202
1.316,0.75788
1.32,0.95743
1.324,1.00758
1.328,1.0103
1.332,0.88019
1.336,0.64221
1.34,0.43536
1.344,0.2897
1.348,0.05366
1.352,-0.12329
1.356,-0.17883
1.36,-0.14668
1.364,-0.1329
1.368,-0.10472
1.372,0.02926
1.376,-0.02554
1.38,-0.05202
1.384,0.04509
1.388,0.02821
1.392,-0.04103
1.396,-0.00819
1.4,0.03445
1.404,-0.06536
1.408,0.01741
1.412,0.00927
1.416,0.04465
1.42,0.03339
1.424,-0.05531
1.428,0.00568
1.432,0.041
1.436,0.00428
1.44,0.0029
1.444,0.0469
1.448,-0.07206
1.452,0.03159
1.456,0.00478
1.46,-0.03205
1.464,0.02112
1.468,0.04019
1.472,-0.01132
1.476,-0.01552
1.48,-0.00515
1.484,0.00303
1.488,-0.04451
1.492,0.03719
1.496,-0.04412
1.5,-0.01795
1.504,0.00468
1.508,-0.01573
1.512,0.05717
1.516,0.03396
1.52,0.04278
1.524,0.08622
1.528,0.04434
1.532,0.02143
1.536,0.01273
1.54,0.09825
1.544,0.06453
1.548,0.09281
1.552,0.11752
1.556,0.13662
1.56,0.0898
1.564,0.09758
1.568,0.13827
1.572,0.16443
1.576,0.13012
1.58,0.20707
1.584,0.19188
1.588,0.17182
1.592,0.19128
1.596,0.25155
1.6,0.2527
1.604,0.20554
1.608,0.18923
1.612,0.18325
1.616,0.21942
1.62,0.2648
1.624,0.19597
1.628,0.20292
1.632,0.20534
1.636,0.16955
1.64,0.13165
1.644,0.1438
1.648,0.14061
1.652,0.13458
1.656,0.09086
1.66,0.1284
1.664,0.12403
1.668,0.08595
1.672,-0.0102
1.676,0.01646
1.68,0.04877
1.684,-0.00457
1.688,0.00996
1.692,0.0079
1.696,0.01032
1.7,0.03061
1.704,0.01123
1.708,-0.02764
1.712,-0.05785
1.716,0.04936
1.72,-0.01182
1.724,-0.03471
1.728,-0.02111
1.732,0.06176
1.736,-0.04107
1.74,-0.00322
1.744,-0.00864
1.748,0.04149
1.752,-0.04751
1.756,-0.08065
1.76,-0.01877
1.764,-0.01889
1.768,-0.03668
1.772,-0.03203
1.776,-0.0431
1.78,-0.01862
1.784,-0.01339
1.788,-0.0016
1.792,-0.02996
1.796,0.0046
1.8,-0.00275
1.804,0.00024
1.808,-0.0228
1.812,0.00214
1.816,0.01501
1.82,-0.04083
1.824,0.02068
1.828,-0.02377
1.832,-0.00964
1.836,0.05709
1.84,-0.01229
1.844,0.00154
1.848,-0.02144
1.852,-0.02056
1.856,0.0361
1.86,0.01524
1.864,-0.02133
1.868,0.02182
1.872,-0.11321
1.876,-0.06445
1.88,0.04112
1.884,0.02958
1.888,-0.01869
1.892,-0.04366
1.896,-0.00702
1.9,-0.06293
1.904,-0.02845
1.908,-0.00606
1.912,0.00933
1.916,0.02004
1.92,-0.04432
1.924,0.00041
1.928,-0.00515
1.932,-0.05299
1.936,-0.06838
1.94,0.00031
1.944,-0.03379
1.948,-0.07571
1.952,-0.07192
1.956,-0.01706
1.96,-0.02421
1.964,-0.00895
1.968,-0.05474
1.972,-0.01933
1.976,-0.03384
1.98,0.03177
1.984,5e-05
1.988,0.03112
1.992,0.0143
1.996,-0.08434
2.0,-0.0511
2.004,-0.05916
2.008,-0.06457
2.012,-0.02184
2.016,0.04617
2.02,-0.02452
2.024,-0.00841
2.028,0.03293
2.032,-0.01303
2.036,0.00174
2.04,-0.00402
2.044,0.011
2.048,-0.05035
2.052,0.0067
2.056,0.00472
2.06,-0.01066
2.064,0.00439
2.068,-0.07543
2.072,0.00553
2.076,-0.059
2.08,-0.0028
2.084,0.00428
2.088,-0.01475
2.092,0.00982
2.096,0.01767
2.1,0.04059
2.104,0.02215
2.108,-0.00443
2.112,-0.03039
2.116,-0.0338
2.12,-0.01621
2.124,-0.02829
2.128,-0.04598
2.132,-0.01257
2.136,-0.07789
2.14,-0.02268
2.144,-0.0369
2.148,-0.01247
2.152,-0.06556
2.156,-0.06153
2.16,-0.08112
2.164,-0.01125
2.168,-0.02783
2.172,-0.05514
2.176,0.00451
2.18,-0.13059
2.184,0.00347
2.188,-0.06858
2.192,-0.01161
2.196,-0.00854
2.2,-0.06929
2.204,-0.06422
2.208,-0.049
2.212,-0.01366
2.216,-0.01301
2.22,-0.06247
2.224,-0.03766
2.228,-0.00605
2.232,-0.07645
2.236,-0.05461
2.24,-0.05798
2.244,-0.0168
2.248,-0.02207
2.252,-0.02008
2.256,-0.03273
2.26,-0.02842
2.264,-0.04073
2.268,-0.00446
2.272,-0.08171
2.276,-0.06207
2.28,0.00987
2.284,-0.04837
2.288,-0.03645
2.292,-0.04938
2.296,-0.00201
2.3,0.01545
2.304,-0.02776
2.308,0.02101
2.312,-0.03589
2.316,-0.01754
2.32,-0.02363
2.324,-0.00696
2.328,-0.02384
2.332,-0.03175
2.336,0.04794
2.34,-0.03289
2.344,-0.02263
2.348,-0.06116
2.352,-0.02241
2.356,-0.02809
2.36,-0.00242
2.364,-0.02672
2.368,-0.05613
2.372,-0.00685
2.376,-0.04418
2.38,0.03337
2.384,-0.00466
2.388,0.01211
2.392,0.03979
2.396,-0.04857
2.4,-0.04912
2.404,-0.01581
2.408,-0.06913
2.412,-0.05294
2.416,-0.00866
2.42,-0.03417
2.424,-0.02693
2.428,-0.01874
2.432,-0.09175
2.436,-0.05632
2.44,-0.05479
2.444,0.01907
2.448,-0.04045
2.452,-0.02908
2.456,-0.03271
2.46,-0.0346
2.464,-0.05715
2.468,-0.00299
2.472,-0.05931
2.476,-0.05061
2.48,-0.11052
2.484,-0.0876
2.488,-0.04811
2.492,0.00911
2.496,0.08016
2.5,0.00244
2.504,0.01494
2.508,0.04903
2.512,-0.00203
2.516,0.05145
2.52,0.0931
2.524,0.02113
2.528,0.06575
2.532,0.05944
2.536,0.10173
2.54,0.05374
2.544,0.04717
2.548,0.04393
2.552,-0.04472
2.556,0.05829
2.56,0.0147
2.564,-0.05532
2.568,0.00711
2.572,-0.02988
2.576,-0.02964
2.58,0.01606
2.584,-0.04139
2.588,-0.05026
2.592,-0.06808
2.596,-0.00038
2.6,-0.03505
2.604,-0.03154
2.608,-0.073
2.612,-0.04893
2.616,-0.0554
2.62,-0.09156
2.624,0.0014
2.628,-0.00385
2.632,-0.02469
2.636,-0.0218
2.64,-0.0325
2.644,0.00549
2.648,-0.1338
2.652,-0.16129
2.656,-0.16135
2.66,-0.14738
2.664,-0.03803
2.668,0.06753
2.672,0.28556
2.676,0.47559
2.68,0.73668
2.684,0.87662
2.688,0.98162
2.692,0.89426
2.696,0.79698
2.7,0.5894
2.704,0.43853
2.708,0.14733
2.712,-0.01603
2.716,-0.14457
2.72,-0.24802
2.724,-0.14201
2.728,-0.15616
2.732,-0.17609
2.736,-0.08317
2.74,-0.03329
2.744,-0.02265
2.748,-0.04873
2.752,0.03291
2.756,-0.03807
2.76,-0.05662
2.764,-0.05341
2.768,-0.01519
2.772,-0.07106
2.776,0.02329
2.78,-0.06361
2.784,-0.0283
2.788,0.03457
2.792,-0.03493
2.796,-0.05001
2.8,0.04869
2.804,0.00016
2.808,-0.00506
2.812,-0.09426
2.816,0.00014
2.82,-0.0227
2.824,-0.00995
2.828,0.02622
2.832,0.03772
2.836,0.00623
2.84,-0.04871
2.844,0.02062
2.848,-0.02907
2.852,-0.01208
2.856,-0.01375
2.86,-0.03493
2.864,-0.07586
2.868,-0.01196
2.872,0.00283
2.876,-0.04889
2.88,0.03525
2.884,0.04111
2.888,0.11547
2.892,-0.00042
2.896,0.03212
2.9,0.06541
2.904,-0.04762
2.908,0.0792
2.912,0.0248
2.916,0.03678
2.92,0.11949
2.924,0.10722
2.928,0.14084
2.932,0.09744
2.936,0.21202
2.94,0.11669
2.944,0.1645
2.948,0.13699
2.952,0.14928
2.956,0.21471
2.96,0.22476
2.964,0.23076
2.968,0.23931
2.972,0.19924
2.976,0.17206
2.98,0.12128
2.984,0.18753
2.988,0.13088
2.992,0.17637
2.996,0.17501
3.0,0.1741
3.004,0.1584
3.008,0.16923
3.012,0.21849
3.016,0.15959
3.02,0.14774
3.024,0.1029
3.028,0.15251
3.032,0.15967
3.036,0.08498
3.04,0.16285
3.044,0.11529
3.048,0.11219
3.052,0.10626
3.056,0.05334
3.06,0.07652
3.064,0.07544
3.068,0.0195
3.072,-0.02635
3.076,-0.02392
3.08,-0.00376
3.084,0.01771
3.088,0.00253
3.092,-0.08402
3.096,-0.05066
3.1,-0.05623
3.104,-0.0474
3.108,-0.03517
3.112,-0.03097
3.116,-0.01165
3.12,-0.02039
3.124,-0.02085
3.128,-0.03837
3.132,-0.03752
3.136,-0.0266
3.14,-0.09885
3.144,-0.03927
3.148,0.04404
3.152,-0.05761
3.156,-0.0189
3.16,-0.11995
3.164,-0.07302
3.168,-0.14042
3.172,-0.18853
3.176,0.05403
3.18,0.22535
3.184,0.39756
3.188,0.61405
3.192,0.81861
3.196,0.89864
3.2,1.02534
3.204,0.90377
3.208,0.68879
3.212,0.45756
3.216,0.23208
3.22,0.0558
3.224,-0.0222
3.228,-0.20827
3.232,-0.16463
3.236,-0.18368
3.24,-0.17142
3.244,-0.06279
3.248,-0.06304
3.252,-0.03742
3.256,-0.03304
3.26,-0.03623
3.264,-0.01689
3.268,-0.01824
3.272,-0.06896
3.276,-0.03256
3.28,-0.04143
3.284,-0.04714
3.288,0.02204
3.292,-0.00952
3.296,-0.00144
3.3,-0.01846
3.304,-0.02894
3.308,-0.0337
3.312,0.01197
3.316,-0.08477
3.32,0.02421
3.324,-0.01329
3.328,-0.00625
3.332,0.01573
3.336,-0.03355
3.34,-0.03797
3.344,-0.0575
3.348,-0.054
3.352,0.0016
3.356,-0.02834
3.36,0.06746
3.364,0.05157
3.368,0.00523
3.372,0.05843
3.376,-0.00075
3.38,-0.01957
3.384,-0.04181
3.388,-0.05149
3.392,-0.03639
3.396,0.01492
3.4,-0.01017
3.404,-0.05001
3.408,0.03421
3.412,0.07369
3.416,0.07109
3.42,0.02848
3.424,0.12324
3.428,0.08261
3.432,0.06805
3.436,0.14885
3.44,0.13197
3.444,0.16834
3.448,0.15439
3.452,0.13181
3.456,0.23211
3.46,0.17255
3.464,0.11799
3.468,0.1658
3.472,0.24159
3.476,0.18592
3.48,0.24274
3.484,0.21466
3.488,0.20554
3.492,0.14306
3.496,0.15456
3.5,0.17721
3.504,0.15287
3.508,0.13857
3.512,0.13484
3.516,0.17201
3.52,0.05665
3.524,0.08475
3.528,0.04054
3.532,0.09801
3.536,0.09118
3.54,0.05608
3.544,-0.01568
3.548,-0.04361
3.552,-0.00428
3.556,-0.02076
3.56,0.02033
3.564,0.00795
3.568,-0.02803
3.572,0.00964
3.576,-0.04155
3.58,0.05853
3.584,-0.01608
3.588,0.02418
3.592,-0.00065
3.596,-0.03225
3.6,-0.02278
3.604,0.00379
3.608,-0.05352
3.612,-0.01267
3.616,-0.04942
3.62,-0.05848
3.624,-0.04978
3.628,0.01495
3.632,-0.02758
3.636,-0.00013
3.64,-0.03259
3.644,0.02764
3.648,0.01589
3.652,-0.0163
3.656,-0.03815
3.66,-0.02648
3.664,0.03296
3.668,0.0142
3.672,-0.03144
3.676,-0.04912
3.68,-0.02211
3.684,-0.06332
3.688,-0.0121
3.692,0.01423
3.696,-0.05869
3.7,-0.02704
3.704,0.00749
3.708,-0.06229
3.712,-0.07177
3.716,0.01339
3.72,0.06995
3.724,-0.01495
3.728,-0.03195
3.732,-0.04904
3.736,-0.00768
3.74,0.00422
3.744,-0.01451
3.748,0.03586
3.752,0.01196
3.756,0.00861
3.76,0.02959
3.764,-0.05434
3.768,-0.006
3.772,0.00857
3.776,0.0186
3.78,-0.00268
3.784,-0.02985
3.788,-0.09289
3.792,-0.05907
3.796,-0.0258
3.8,-0.0451
3.804,0.02046
3.808,-0.04626
3.812,-0.05396
3.816,-0.00358
3.82,-0.05991
3.824,-0.03478
3.828,-0.03358
3.832,0.04467
3.836,-0.01444
3.84,-0.02687
3.844,0.05259
3.848,-0.00765
3.852,-0.00385
3.856,-0.07538
3.86,-0.02738
3.864,0.09354
3.868,-0.03637
3.872,-0.02851
3.876,0.00698
3.88,-0.03027
3.884,-0.03759
3.888,-0.02741
3.892,0.01579
3.896,0.01722
3.9,0.03296
3.904,-0.039
3.908,-0.01176
3.912,0.0389
3.916,0.06292
3.92,0.07303
3.924,0.02713
3.928,0.05832
3.932,0.08583
3.936,0.0835
3.94,0.02836
3.944,0.03483
3.948,0.06902
3.952,0.06937
3.956,0.01848
3.96,0.04132
3.964,0.00332
3.968,0.03107
3.972,-0.0354
3.976,-0.04638
3.98,-0.03928
3.984,-0.09377
3.988,-0.01373
3.992,-0.07223
3.996,0.02243
4.0,-0.03326
4.004,-0.01019
4.008,-0.02613
4.012,-0.05433
4.016,-0.05282
4.02,0.02874
4.024,-0.06972
4.028,-0.02858
4.032,0.04577
4.036,-0.04869
4.04,-0.03423
4.044,-0.02014
4.048,-0.06369
4.052,-0.10644
4.056,-0.20935
4.06,-0.07326
4.064,-0.00809
4.068,0.14344
4.072,0.36472
4.076,0.56788
4.08,0.72383
4.084,0.95088
4.088,0.96794
4.092,0.93862
4.096,0.68638
4.1,0.49515
4.104,0.33361
4.108,0.04707
4.112,-0.10452
4.116,-0.10754
4.12,-0.15564
4.124,-0.1628
4.128,-0.09035
4.132,-0.03519
4.136,-0.09101
4.14,-0.01805
4.144,-0.01749
4.148,-0.00675
4.152,0.02004
4.156,0.02665
4.16,-0.05399
4.164,0.02444
4.168,-0.0097
4.172,-0.03613
4.176,0.0289
4.18,-0.04627
4.184,0.03658
4.188,0.01827
4.192,-0.06077
4.196,0.03784
4.2,0.03197
4.204,0.01731
4.208,-0.03717
4.212,-0.05184
4.216,0.01566
4.22,-0.00537
4.224,-0.04329
4.228,-0.02177
4.232,0.00275
4.236,0.03191
4.24,-0.02554
4.244,0.02569
4.248,-0.04582
4.252,-0.05676
4.256,0.01161
4.26,-0.01007
4.264,-0.01274
4.268,0.027
4.272,-0.01393
4.276,0.0321
4.28,0.06338
4.284,0.07307
4.288,0.08074
4.292,0.0567
4.296,0.01907
4.3,0.05802
4.304,0.08147
4.308,0.07432
4.312,0.12316
4.316,0.08757
4.32,0.11753
4.324,0.11887
4.328,0.14046
4.332,0.15036
4.336,0.16211
4.34,0.1918
4.344,0.1697
4.348,0.25394
4.352,0.18794
4.356,0.20679
4.36,0.25215
4.364,0.23265
4.368,0.20279
4.372,0.23131
4.376,0.25314
4.38,0.18951
4.384,0.11699
4.388,0.23257
4.392,0.1292
4.396,0.15495
4.4,0.15762
4.404,0.15762
4.408,0.13826
4.412,0.1187
4.416,0.10066
4.42,0.12066
4.424,-0.02769
4.428,0.11383
4.432,0.09029
4.436,0.05158
4.44,0.07762
4.444,0.08409
4.448,0.07442
4.452,0.06004
4.456,0.065
4.46,0.02824
4.464,0.08705
4.468,0.03163
4.472,0.04416
4.476,-0.00715
4.48,0.10132
4.484,-0.05108
4.488,-0.00372
4.492,-0.01877
4.496,-0.02572
4.5,-0.01828
4.504,-0.10242
4.508,-0.03526
4.512,-0.00739
4.516,0.03401
4.52,0.03072
4.524,0.01874
4.528,0.04221
4.532,-0.02664
4.536,-0.06415
4.54,0.02623
4.544,0.00492
4.548,0.02226
4.552,-0.00559
4.556,0.00484
4.56,-0.03805
4.564,0.02683
4.568,0.05879
4.572,0.01039
4.576,-0.06589
4.58,-0.00678
4.584,-0.01609
4.588,0.01395
4.592,-0.00248
4.596,0.01113
4.6,0.06086
4.604,0.01461
4.608,0.01298
4.612,-0.02409
4.616,0.00134
4.62,0.04624
4.624,0.01763
4.628,-0.02093
4.632,-0.0114
4.636,0.00887
4.64,-0.03268
4.644,0.02397
4.648,0.03859
4.652,0.02389
4.656,0.01381
4.66,-0.01597
4.664,0.03081
4.668,-0.01437
4.672,0.03683
4.676,-0.05105
4.68,-0.03144
4.684,0.00584
4.688,0.00185
4.692,0.08853
4.696,0.04903
4.7,-0.04284
4.704,0.00262
4.708,0.00631
4.712,0.02981
4.716,0.03035
4.72,-0.01876
4.724,0.00261
4.728,0.01315
4.732,0.01401
4.736,-0.01881
4.74,-0.03961
4.744,0.07388
4.748,0.00269
4.752,-0.03476
4.756,-0.00192
4.76,-0.04351
4.764,-0.02202
4.768,-0.04178
4.772,-0.05789
4.776,-0.00867
4.78,-0.02766
4.784,-0.02503
4.788,-0.03788
4.792,-0.03336
4.796,-0.00528
4.8,0.00786
4.804,0.00744
4.808,-0.00526
4.812,0.0386
4.816,-0.01015
4.82,0.00455
4.824,0.02925
4.828,-0.01926
4.832,0.06061
4.836,-0.04286
4.84,-0.00072
4.844,0.04238
4.848,0.02665
4.852,0.01748
4.856,0.02855
4.86,0.04092
4.864,0.07992
4.868,0.12749
4.872,0.09037
4.876,0.14578
4.88,0.05036
4.884,0.11993
4.888,0.1399
4.892,0.03256
4.896,0.07295
4.9,0.09561
4.904,0.09575
4.908,0.04229
4.912,0.0553
4.916,0.02245
4.92,0.02438
4.924,-0.01187
4.928,0.06919
4.932,-0.01316
4.936,0.05087
4.94,0.01535
4.944,0.01237
4.948,-0.02556
4.952,-0.03037
4.956,0.02718
4.96,-0.03076
4.964,0.02369
4.968,0.08876
4.972,0.03713
4.976,0.00689
4.98,-0.04163
4.984,0.01644
4.988,0.04297
4.992,0.03152
4.996,-0.00142
5.0,-0.00704
5.004,-0.16098
5.008,-0.08059
5.012,-0.1094
5.016,-0.10144
5.02,-0.04023
5.024,0.07769
5.028,0.08332
5.032,0.25857
5.036,0.29687
5.04,0.37914
5.044,0.46605
5.048,0.43185
5.052,0.3877
5.056,0.2313
5.06,0.17321
5.064,0.02598
5.068,-0.03646
5.072,-0.11591
5.076,-0.20693
5.08,-0.22504
5.084,-0.09791
5.088,-0.0427
5.092,-0.0001
5.096,-0.03454
5.1,0.01939
5.104,0.07688
5.108,0.02466
5.112,0.00383
5.116,0.0116
5.12,0.02486
5.124,0.08034
5.128,0.05692
5.132,0.01516
5.136,-0.02646
5.14,0.03103
5.144,0.03236
5.148,-0.01587
5.152,-0.02368
5.156,0.02465
5.16,-0.05042
5.164,0.01821
5.168,0.01754
5.172,0.04006
5.176,-0.0225
5.18,0.00319
5.184,0.00582
5.188,-0.03636
5.192,-0.01444
5.196,0.03587
5.2,-0.02163
5.204,0.03699
5.208,0.03816
5.212,-0.03416
5.216,0.00881
5.22,0.04343
5.224,0.14268
5.228,0.05195
5.232,0.04466
5.236,0.06202
5.24,0.10313
5.244,0.07471
5.248,0.0749
5.252,0.05832
5.256,0.04827
5.26,0.03621
5.264,0.07759
5.268,0.13737
5.272,0.16217
5.276,0.11454
5.28,0.18121
5.284,0.17446
5.288,0.21012
5.292,0.14563
5.296,0.23774
5.3,0.18542
5.304,0.21387
5.308,0.21549
5.312,0.30311
5.316,0.2341
5.32,0.21437
5.324,0.19454
5.328,0.2443
5.332,0.22826
5.336,0.19981
5.34,0.30218
5.344,0.22458
5.348,0.24322
5.352,0.17683
5.356,0.1593
5.36,0.2261
5.364,0.12897
5.368,0.19945
5.372,0.12052
5.376,0.123
5.38,0.14981
5.384,0.16463
5.388,0.04841
5.392,0.08127
5.396,0.06105
5.4,0.08425
5.404,0.01482
5.408,0.01229
5.412,0.07422
5.416,0.09534
5.42,0.06711
5.424,-0.00615
5.428,-0.02464
5.432,0.042
5.436,0.05736
5.44,0.04794
5.444,0.05424
5.448,0.00958
5.452,0.04773
5.456,-0.07133
5.46,0.0069
5.464,0.03384
5.468,0.11562
5.472,0.04687
5.476,0.06289
5.48,0.06092
5.484,-0.0248
5.488,0.0635
5.492,0.01383
5.496,0.01437
5.5,-0.02086
5.504,0.07193
5.508,0.00208
5.512,0.01131
5.516,0.04329
5.52,0.04084
5.524,-0.0009
5.528,-0.04437
5.532,0.03983
5.536,0.04884
5.54,0.01038
5.544,-0.02778
5.548,0.10877
5.552,0.03089
5.556,0.036
5.56,0.01753
5.564,-0.01311
5.568,0.03565
5.572,0.00398
5.576,0.05733
5.58,0.08635
5.584,0.02546
5.588,-0.05432
5.592,0.04405
5.596,0.01353
5.6,0.02896
5.604,0.04137
5.608,-0.04688
5.612,-0.03123
5.616,-0.02383
5.62,-0.07127
5.624,-0.01029
5.628,0.03736
5.632,0.00084
5.636,0.03395
5.64,0.0538
5.644,0.03597
5.648,-0.00603
5.652,0.05614
5.656,0.02124
5.66,0.02987
5.664,-0.04048
5.668,-0.00687
5.672,0.00607
5.676,0.06018
5.68,-0.02162
5.684,0.0746
5.688,0.00114
5.692,0.04779
5.696,0.026
5.7,-0.00151
5.704,0.06017
5.708,0.026
5.712,-0.01351
5.716,0.06426
5.72,0.08529
5.724,0.06887
5.728,0.03507
5.732,-0.00206
5.736,0.01688
5.74,0.02358
5.744,0.0748
5.748,0.01939
5.752,-0.01716
5.756,0.0634
5.76,0.00424
5.764,0.05654
5.768,0.00089
5.772,0.02063
5.776,0.03142
5.78,0.02448
5.784,-0.00242
5.788,0.03777
5.792,0.05656
5.796,0.00715
5.8,0.08612
5.804,0.0553
5.808,0.01324
5.812,0.02875
5.816,0.07068
5.82,0.04764
5.824,0.01716
5.828,-0.00279
5.832,0.02117
5.836,0.03147
5.84,0.05817
5.844,0.06156
5.848,0.01918
5.852,-0.01959
5.856,0.0978
5.86,-0.00925
5.864,-0.01928
5.868,-1e-05
5.872,0.0552
5.876,-0.01122
5.88,-0.05666
5.884,0.04456
5.888,0.0612
5.892,0.02588
5.896,0.03005
5.9,0.06935
5.904,0.0343
5.908,0.02411
5.912,0.01831
5.916,-0.05274
5.92,0.02394
5.924,0.05803
5.928,-0.01108
5.932,0.05107
5.936,-0.02137
5.94,-0.02019
5.944,0.00891
5.948,-0.00405
5.952,0.03032
5.956,-0.02058
5.96,0.03436
5.964,0.0752
5.968,0.01716
5.972,0.03736
5.976,-0.00893
5.98,-0.04611
5.984,-0.00162
5.988,0.01574
5.992,0.01205
5.996,0.03148
6.0,0.06027
6.004,0.0296
6.008,-0.00578
6.012,0.03139
6.016,0.06134
6.02,0.10059
6.024,0.02116
6.028,-0.01403
6.032,-0.0104
6.036,0.04427
6.04,0.04901
6.044,0.04611
6.048,0.01299
6.052,0.01172
6.056,0.0369
6.06,0.01515
6.064,0.04804
6.068,-0.01597
6.072,0.01185
6.076,0.0098
6.08,-0.00678
6.084,-0.03333
6.088,0.00175
6.092,0.0352
6.096,0.08316
6.1,0.03745
6.104,-0.01056
6.108,0.01401
6.112,0.0998
6.116,0.05817
6.12,-0.01585
6.124,0.01333
6.128,0.08204
6.132,-0.0259
6.136,0.02084
6.14,0.00701
6.144,0.05624
6.148,0.02904
6.152,0.05536
6.156,0.08034
6.16,0.00505
6.164,0.102
6.168,-0.03039
6.172,0.00057
6.176,0.00865
6.18,0.04667
6.184,-0.00868
6.188,0.0593
6.192,0.06243
6.196,0.09231
6.2,0.05587
6.204,0.02475
6.208,0.07542
6.212,0.02724
6.216,0.06094
6.22,0.0472
6.224,-0.00714
6.228,0.00414
6.232,0.06587
6.236,0.04398
6.24,0.05616
6.244,0.06629
6.248,0.00284
6.252,-0.03508
6.256,0.04921
6.26,0.02803
6.264,-0.0015
6.268,0.03696
6.272,0.04143
6.276,0.01849
6.28,0.07926
6.284,0.05404
6.288,0.08808
6.292,0.09958
6.296,0.10643
6.3,0.13827
6.304,0.09428
6.308,0.11176
6.312,0.14399
6.316,0.06834
6.32,0.13507
6.324,0.09224
6.328,0.08387
6.332,0.16072
6.336,0.07962
6.34,0.04969
6.344,0.03597
6.348,0.0015
6.352,-0.05935
6.356,0.05358
6.36,0.06465
6.364,0.11281
6.368,0.06252
6.372,-0.04577
6.376,0.11597
6.38,-0.00218
6.384,0.05004
6.388,0.03638
6.392,0.07547
6.396,-0.01325
6.4,-0.01151
6.404,0.02342
6.408,0.01589
6.412,0.07744
6.416,0.00168
6.42,0.05466
6.424,0.01683
6.428,-0.04238
6.432,-0.02856
6.436,0.00763
6.44,-0.02856
6.444,-0.13177
6.448,-0.0271
6.452,0.06021
6.456,0.21998
6.46,0.31196
6.464,0.53227
6.468,0.8215
6.472,0.94902
6.476,1.09115
6.48,1.01699
6.484,0.84888
6.488,0.66042
6.492,0.45572
6.496,0.22614
6.5,-0.01011
6.504,-0.09269
6.508,-0.16712
6.512,-0.11986
6.516,-0.16415
6.52,-0.0229
6.524,-0.01242
6.528,-0.06043
6.532,-0.0094
6.536,0.09437
6.54,0.00809
6.544,0.01014
6.548,0.08927
6.552,-0.01437
6.556,0.04934
6.56,0.00471
6.564,0.03372
6.568,0.04771
6.572,0.05744
6.576,0.06535
6.58,-0.0065
6.584,0.00672
6.588,0.05885
6.592,0.04599
6.596,0.02349
6.6,0.05587
6.604,0.07959
6.608,0.02465
6.612,-0.02688
6.616,0.02002
6.62,-0.0116
6.624,0.09924
6.628,0.02347
6.632,0.00824
6.636,0.03568
6.64,0.0388
6.644,-0.02099
6.648,0.03125
6.652,-0.01958
6.656,0.02946
6.66,0.04533
6.664,0.06805
6.668,0.07718
6.672,0.04215
6.676,0.00557
6.68,0.07807
6.684,0.03176
6.688,0.13181
6.692,0.1468
6.696,0.11618
6.7,0.1322
6.704,0.12075
6.708,0.12722
6.712,0.18233
6.716,0.17446
6.72,0.1803
6.724,0.1938
6.728,0.23478
6.732,0.18263
6.736,0.2205
6.74,0.18513
6.744,0.20047
6.748,0.20911
6.752,0.25083
6.756,0.28922
6.76,0.25125
6.764,0.18963
6.768,0.26941
6.772,0.27251
6.776,0.25007
6.78,0.13887
6.784,0.21196
6.788,0.15344
6.792,0.14857
6.796,0.13397
6.8,0.21095
6.804,0.12366
6.808,0.19166
6.812,0.1163
6.816,0.09063
6.82,0.09351
6.824,0.10619
6.828,0.1253
6.832,0.07773
6.836,0.21034
6.84,0.02431
6.844,0.09104
6.848,0.02981
6.852,0.03727
6.856,0.03039
6.86,0.02913
6.864,0.07239
6.868,0.02079
6.872,0.06123
6.876,0.02888
6.88,0.00696
6.884,0.05922
6.888,0.05538
6.892,0.08457
6.896,0.04146
6.9,0.03064
6.904,-0.0424
6.908,0.08092
6.912,0.06227
6.916,-0.05124
6.92,0.04939
6.924,0.05544
6.928,0.0797
6.932,0.02345
6.936,0.03237
6.94,0.04185
6.944,-0.0223
6.948,0.05548
6.952,0.05272
6.956,0.02139
6.96,0.11609
6.964,0.05535
6.968,0.01622
6.972,0.02089
6.976,0.04347
6.98,0.02777
6.984,0.0918
6.988,0.00899
6.992,-0.00745
6.996,0.01492
7.0,0.05251
7.004,0.09505
7.008,0.0464
7.012,0.06336
7.016,0.02026
7.02,0.02724
7.024,-0.00573
7.028,0.05555
7.032,0.0839
7.036,0.01502
7.04,0.02025
7.044,0.0033
7.048,0.05555
7.052,-0.01324
7.056,0.01601
7.06,0.0185
7.064,-0.00039
7.068,0.00843
7.072,0.05601
7.076,-0.03319
7.08,0.06993
7.084,0.02554
7.088,0.00182
7.092,0.01534
7.096,0.06668
7.1,0.07227
7.104,0.07313
7.108,0.02751
7.112,-0.0222
7.116,0.08694
7.12,0.00652
7.124,-0.02511
7.128,0.08338
7.132,0.03875
7.136,0.06045
7.14,0.08249
7.144,0.10634
7.148,0.10133
7.152,0.10803
7.156,0.12839
7.16,0.19287
7.164,0.12544
7.168,0.07888
7.172,0.15707
7.176,0.09728
7.18,0.0971
7.184,0.08114
7.188,0.06138
7.192,0.06383
7.196,0.0116
7.2,0.09104
7.204,-0.00221
7.208,0.02454
7.212,-0.044
7.216,0.00777
7.22,0.01507
7.224,-0.05098
7.228,0.01166
7.232,0.08832
7.236,0.02923
7.24,0.02804
7.244,-0.00183
7.248,0.07247
7.252,0.03182
7.256,0.06243
7.26,0.05255
7.264,-0.02133
7.268,0.00574
7.272,0.02136
7.276,0.00451
7.28,-0.00775
7.284,-0.08523
7.288,-0.12426
7.292,-0.03043
7.296,-0.0404
7.3,0.12069
7.304,0.33003
7.308,0.5123
7.312,0.73858
7.316,0.95197
7.32,0.99305
7.324,0.98166
7.328,0.89152
7.332,0.63672
7.336,0.41283
7.34,0.26266
7.344,0.04579
7.348,-0.06757
7.352,-0.21406
7.356,-0.13525
7.36,-0.12185
7.364,-0.11901
7.368,-0.04179
7.372,0.03876
7.376,-0.03671
7.38,0.06609
7.384,0.02634
7.388,0.02461
7.392,0.05021
7.396,-0.00536
7.4,0.0209
7.404,0.02404
7.408,0.06966
7.412,0.05383
7.416,0.02472
7.42,0.04151
7.424,0.02404
7.428,-0.02814
7.432,-0.00432
7.436,0.033
7.44,0.00891
7.444,-0.02118
7.448,-0.02283
7.452,0.05098
7.456,0.05315
7.46,0.03273
7.464,0.03559
7.468,0.01695
7.472,0.03623
7.476,0.06092
7.48,0.00751
7.484,-0.00945
7.488,0.02295
7.492,0.07371
7.496,0.07308
7.5,-0.00327
7.504,0.04033
7.508,0.0292
7.512,0.0533
7.516,4e-05
7.52,0.05763
7.524,0.03151
7.528,0.0781
7.532,0.07124
7.536,0.08008
7.54,0.17259
7.544,0.08925
7.548,0.13892
7.552,0.13369
7.556,0.11717
7.56,0.23243
7.564,0.09655
7.568,0.16582
7.572,0.2387
7.576,0.21663
7.58,0.11516
7.584,0.17221
7.588,0.198
7.592,0.27572
7.596,0.18862
7.6,0.25569
7.604,0.19847
7.608,0.23201
7.612,0.21935
7.616,0.26908
7.62,0.21658
7.624,0.2602
7.628,0.20013
7.632,0.11153
7.636,0.17568
7.64,0.08564
7.644,0.15851
7.648,0.17161
7.652,0.13638
7.656,0.0815
7.66,0.12547
7.664,0.08334
7.668,0.09353
7.672,0.06771
7.676,0.00464
7.68,0.09867
7.684,0.04051
7.688,0.02055
7.692,-0.00112
7.696,0.05362
7.7,0.05509
7.704,0.00989
7.708,-0.00173
7.712,0.01836
7.716,-0.01518
7.72,0.04494
7.724,0.01421
7.728,0.03731
7.732,0.05015
7.736,-0.03601
7.74,0.00695
7.744,-0.00807
7.748,0.0112
7.752,0.04293
7.756,0.01748
7.76,-0.03009
7.764,-0.00706
7.768,-0.02825
7.772,-0.02926
7.776,0.02351
7.78,0.02468
7.784,-0.01884
7.788,0.041
7.792,0.03884
7.796,0.0735
7.8,-0.06518
7.804,0.06706
7.808,0.06348
7.812,0.0437
7.816,0.04385
7.82,0.02825
7.824,-0.03942
7.828,0.06825
7.832,0.03467
7.836,0.01345
7.84,0.05727
7.844,0.05482
7.848,-0.00205
7.852,0.00958
7.856,0.01275
7.86,0.02125
7.864,0.03129
7.868,0.03958
7.872,-0.00371
7.876,-0.07294
7.88,0.05418
7.884,0.01941
7.888,-0.04154
7.892,-0.0185
7.896,0.00066
7.9,-0.02775
7.904,0.02944
7.908,0.03583
7.912,-0.05733
7.916,-0.01909
7.92,0.00878
7.924,0.02672
7.928,-0.00099
7.932,0.01359
7.936,0.00985
7.94,-0.01013
7.944,-0.02563
7.948,-0.00168
7.952,0.02215
7.956,0.01062
7.96,-0.01463
7.964,-0.02175
7.968,-0.00923
7.972,-0.01386
7.976,0.0186
7.98,-0.04599
7.984,-0.00992
7.988,0.01273
7.992,0.00725
7.996,0.00442
8.0,0.01607
8.004,0.04673
8.008,0.05665
8.012,0.0069
8.016,-0.01523
8.02,-0.00883
8.024,0.01649
8.028,-0.01822
8.032,0.02355
8.036,0.02325
8.04,0.0102
8.044,0.04898
8.048,-0.03306
8.052,-0.00841
8.056,-0.01208
8.06,0.01689
8.064,0.04859
8.068,0.06632
8.072,-0.00379
8.076,0.04607
8.08,0.13324
8.084,0.0435
8.088,0.12295
8.092,0.1818
8.096,0.21834
8.1,0.04928
8.104,0.16205
8.108,0.04343
8.112,0.11485
8.116,0.07426
8.12,0.00782
8.124,0.08987
8.128,0.0281
8.132,0.01299
8.136,-0.02601
8.14,0.00993
8.144,0.05275
8.148,0.0235
8.152,-0.02771
8.156,0.02165
8.16,-0.02964
8.164,-0.04662
8.168,-0.04293
8.172,-0.07758
8.176,-0.00745
8.18,0.01717
8.184,0.0295
8.188,-0.04242
8.192,0.06189
8.196,-0.00147
8.2,-0.01497
8.204,0.01294
8.208,-0.03178
8.212,-0.01485
8.216,-0.03786
8.22,-0.17277
8.224,-0.16921
8.228,-0.13714
8.232,-0.03525
8.236,0.17847
8.24,0.37431
8.244,0.61598
8.248,0.74212
8.252,0.93611
8.256,1.01801
8.26,0.94729
8.264,0.78649
8.268,0.57403
8.272,0.32846
8.276,0.08279
8.28,-0.02429
8.284,-0.11168
8.288,-0.18057
8.292,-0.23672
8.296,-0.20174
8.3,-0.05757
8.304,-0.00552
8.308,-0.00089
8.312,-0.04978
8.316,-0.00888
8.32,-0.01094
8.324,0.01976
8.328,0.00586
8.332,0.05163
8.336,-0.06702
8.34,-0.00742
8.344,0.00867
8.348,-0.05304
8.352,-0.01886
8.356,0.01574
8.36,0.02704
8.364,-0.0061
8.368,-0.05325
8.372,-0.01805
8.376,-0.04675
8.38,0.03535
8.384,-0.03485
8.388,-0.00156
8.392,-0.00546
8.396,0.01987
8.4,-0.05056
8.404,0.03849
8.408,0.0133
8.412,0.0206
8.416,-0.0048
8.42,0.02546
8.424,0.00555
8.428,0.01386
8.432,0.03281
8.436,-0.0434
8.44,0.04305
8.444,0.01284
8.448,0.00556
8.452,-0.02892
8.456,0.05431
8.46,0.07227
8.464,-0.00341
8.468,0.06639
8.472,0.06511
8.476,0.02206
8.48,0.10742
8.484,0.153
8.488,0.13226
8.492,0.07801
8.496,0.09556
8.5,0.1237
8.504,0.11322
8.508,0.25966
8.512,0.2029
8.516,0.17254
8.52,0.14564
8.524,0.23028
8.528,0.14742
8.532,0.21389
8.536,0.20691
8.54,0.23786
8.544,0.18436
8.548,0.22287
8.552,0.22749
8.556,0.22958
8.56,0.17096
8.564,0.17838
8.568,0.16153
8.572,0.12707
8.576,0.18865
8.58,0.13158
8.584,0.05748
8.588,0.11711
8.592,0.09187
8.596,-0.02261
8.6,0.04312
8.604,0.12543
8.608,0.1022
8.612,0.09877
8.616,0.05437
8.62,0.02291
8.624,0.04414
8.628,-0.03637
8.632,0.0226
8.636,0.04598
8.64,0.01082
8.644,0.00105
8.648,0.0401
8.652,0.01637
8.656,-0.02461
8.66,0.00865
8.664,0.04236
8.668,0.0004
8.672,0.05316
8.676,-0.03618
8.68,-0.06153
8.684,-0.02442
8.688,0.00279
8.692,0.04664
8.696,0.02062
8.7,-0.00507
8.704,0.01009
8.708,0.0265
8.712,-0.00144
8.716,-0.01732
8.72,-0.05133
8.724,-0.0184
8.728,-0.01571
8.732,0.02239
8.736,-0.03241
8.74,-0.03315
8.744,-0.00959
8.748,-0.05387
8.752,-0.03789
8.756,-0.03044
8.76,-0.01444
8.764,-0.03489
8.768,0.01312
8.772,-0.06725
8.776,0.08331
8.78,0.0345
8.784,0.00506
8.788,-0.04975
8.792,-0.06822
8.796,0.03694
8.8,-0.08077
8.804,-0.0913
8.808,0.01118
8.812,-0.00435
8.816,-0.06176
8.82,-0.00772
8.824,-0.03205
8.828,-0.00594
8.832,0.00151
8.836,-0.01244
8.84,0.03777
8.844,0.00627
8.848,-0.02238
8.852,0.10667
8.856,0.10453
8.86,0.03502
8.864,0.06671
8.868,0.03952
8.872,0.14909
8.876,0.11655
8.88,0.04569
8.884,0.01738
8.888,0.04098
8.892,0.06587
8.896,-0.02637
8.9,-0.06299
8.904,0.01616
8.908,0.01526
8.912,-0.04981
8.916,-0.01924
8.92,-0.01009
8.924,-0.06857
8.928,0.02484
8.932,-0.0754
8.936,-0.03732
8.94,-0.00477
8.944,-0.01273
8.948,-0.04129
8.952,-0.06101
8.956,-0.00169
8.96,-0.06808
8.964,0.024
8.968,-0.03958
8.972,-0.042
8.976,-0.07151
8.98,0.02589
8.984,-0.03527
8.988,-0.02533
8.992,-0.02472
8.996,-0.23711
9.0,-0.09758
9.004,-0.09145
9.008,0.10652
9.012,0.19726
9.016,0.36713
9.02,0.69475
9.024,0.79199
9.028,0.91851
9.032,1.00323
9.036,0.78042
9.04,0.64798
9.044,0.50976
9.048,0.33263
9.052,0.04804
9.056,-0.04471
9.06,-0.19757
9.064,-0.24602
9.068,-0.17698
9.072,-0.10379
9.076,-0.05884
9.08,-0.0698
9.084,-0.01913
9.088,-0.00433
9.092,0.00837
9.096,-0.01902
9.1,-0.04962
9.104,0.00759
9.108,-0.02548
9.112,-0.02139
9.116,-0.00728
9.12,-0.06566
9.124,0.01033
9.128,-0.10796
9.132,-0.0529
9.136,-0.03003
9.14,0.01356
9.144,-0.04756
9.148,-0.03113
9.152,-0.03595
9.156,0.00644
9.16,-0.0609
9.164,-0.0065
9.168,-0.02524
9.172,-0.04398
9.176,-0.03036
9.18,0.0378
9.184,0.04115
9.188,-0.04984
9.192,-0.0587
9.196,0.02659
9.2,-0.06077
9.204,-3e-05
9.208,-0.02089
9.212,-0.06448
9.216,0.00386
9.22,0.01399
9.224,-0.03603
9.228,0.01501
9.232,0.02145
9.236,0.10742
9.24,0.04899
9.244,0.04955
9.248,0.00806
9.252,0.05475
9.256,0.07216
9.26,0.07544
9.264,0.11469
9.268,0.09509
9.272,0.12789
9.276,0.18257
9.28,0.16154
9.284,0.18255
9.288,0.15361
9.292,0.16207
9.296,0.18304
9.3,0.21893
9.304,0.25752
9.308,0.19669
9.312,0.17083
9.316,0.19726
9.32,0.18681
9.324,0.17579
9.328,0.15485
9.332,0.17704
9.336,0.2009
9.34,0.06139
9.344,0.11094
9.348,0.12774
9.352,0.08861
9.356,0.10706
9.36,0.10134
9.364,0.10565
9.368,0.14698
9.372,0.10179
9.376,0.02631
9.38,0.06776
9.384,0.00157
9.388,0.05003
9.392,0.01876
9.396,0.03627
9.4,0.1081
9.404,0.05602
9.408,0.11995
9.412,0.10614
9.416,0.0806
9.42,0.04951
9.424,0.038
9.428,0.11401
9.432,0.1357
9.436,0.10175
9.44,0.03537
9.444,0.01703
9.448,0.01223
9.452,0.05545
9.456,0.01886
9.46,0.01766
9.464,-0.00585
9.468,-0.03511
9.472,-0.09149
9.476,-0.04369
9.48,-0.02848
9.484,-0.01042
9.488,-0.04665
9.492,-0.04207
9.496,-0.03348
9.5,-0.06254
9.504,-0.02265
9.508,-0.07122
9.512,-0.03986
9.516,-0.0616
9.52,-0.06153
9.524,0.00792
9.528,-0.01636
9.532,-0.06813
9.536,-0.00743
9.54,-0.14464
9.544,-0.08268
9.548,-0.15203
9.552,-0.11626
9.556,-0.06366
9.56,0.05419
9.564,0.25285
9.568,0.48782
9.572,0.69246
9.576,0.83836
9.58,0.93301
9.584,0.88778
9.588,0.85597
9.592,0.68483
9.596,0.45563
9.6,0.21002
9.604,0.02948
9.608,-0.15455
9.612,-0.2103
9.616,-0.22293
9.62,-0.1413
9.624,-0.07907
9.628,-0.09548
9.632,-0.02783
9.636,-0.04261
9.64,-0.01656
9.644,0.01515
9.648,-0.05666
9.652,-0.03732
9.656,-0.10365
9.66,-0.05559
9.664,0.01446
9.668,-0.06559
9.672,0.01591
9.676,-0.01382
9.68,-0.09006
9.684,-0.01733
9.688,-0.02309
9.692,-0.04106
9.696,-0.04471
9.7,-0.008
9.704,0.00332
9.708,-0.07612
9.712,-0.03354
9.716,0.00538
9.72,-0.07307
9.724,-0.0566
9.728,-0.01485
9.732,-0.02578
9.736,-0.04655
9.74,-0.07661
9.744,-0.00497
9.748,0.06523
9.752,-0.06028
9.756,-0.02659
9.76,0.0052
9.764,-0.04583
9.768,-0.01943
9.772,0.02627
9.776,-0.0009
9.78,-0.0004
9.784,0.00718
9.788,0.02616
9.792,0.07223
9.796,0.02523
9.8,0.04139
9.804,0.04435
9.808,0.04097
9.812,0.11904
9.816,0.07732
9.82,0.14392
9.824,0.07921
9.828,0.14876
9.832,0.09448
9.836,0.15431
9.84,0.16779
9.844,0.17503
9.848,0.25249
9.852,0.19023
9.856,0.18388
9.86,0.19723
9.864,0.16365
9.868,0.16364
9.872,0.16816
9.876,0.1425
9.88,0.13723
9.884,0.11053
9.888,0.15991
9.892,0.11376
9.896,0.16835
9.9,0.12083
9.904,0.12952
9.908,0.11114
9.912,0.10443
9.916,0.09935
9.92,0.10417
9.924,0.07099
9.928,0.03268
9.932,0.05329
9.936,0.08473
9.94,0.03072
9.944,0.03866
9.948,0.04352
9.952,0.01373
9.956,-0.03397
9.96,0.021
9.964,0.02942
9.968,0.03523
9.972,-0.03096
9.976,0.02466
9.98,-0.03969
9.984,-0.05733
9.988,0.01614
9.992,-0.07518
9.996,-0.04655
