t_seg,ecg_mV
0.0,0.01053
0.004,-0.01942
0.008,-0.04397
0.012,-0.09015
0.016,-0.12976
0.02,-0.12009
0.024,-0.05925
0.028,0.09918
0.032,0.29602
0.036,0.49758
0.04,0.65693
0.044,0.85191
0.048,0.99261
0.052,0.95056
0.056,0.88112
0.06,0.68274
0.064,0.46105
0.068,0.18366
0.072,0.02477
0.076,-0.15083
0.08,-0.16455
0.084,-0.13562
0.088,-0.16845
0.092,-0.06185
0.096,-0.04489
0.1,-0.01011
0.104,-0.03709
0.108,-0.01169
0.112,0.03846
0.116,-0.00542
0.12,-0.0301
0.124,0.02744
0.128,0.03163
0.132,0.00447
0.136,-0.03279
0.14,-0.02411
0.144,0.02152
0.148,-0.05162
0.152,-0.02264
0.156,0.00611
0.16,-0.02001
0.164,0.00859
0.168,-0.01138
0.172,-0.06708
0.176,-0.01698
0.18,-0.01943
0.184,0.03644
0.188,0.00618
0.192,0.039
0.196,0.01668
0.2,0.03743
0.204,0.02596
0.208,0.01551
0.212,-0.01083
0.216,-0.01002
0.22,0.02835
0.224,0.03841
0.228,-0.07858
0.232,-0.05215
0.236,0.03286
0.24,0.0417
0.244,0.02218
0.248,0.05957
0.252,-0.01814
0.256,0.0438
0.26,0.01828
0.264,0.08981
0.268,0.13692
0.272,0.11526
0.276,0.11481
0.28,0.11149
0.284,0.13419
0.288,0.14648
0.292,0.13148
0.296,0.21047
0.3,0.13419
0.304,0.1335
0.308,0.13095
0.312,0.18621
0.316,0.15918
0.32,0.22065
0.324,0.23794
0.328,0.19817
0.332,0.23512
0.336,0.2013
0.34,0.18241
0.344,0.24802
0.348,0.22832
0.352,0.19765
0.356,0.17588
0.36,0.22006
0.364,0.19503
0.368,0.19819
0.372,0.139
0.376,0.14384
0.38,0.15586
0.384,0.06851
0.388,0.09874
0.392,0.07023
0.396,0.11535
0.4,0.08826
0.404,0.03723
0.408,0.13418
0.412,0.0633
0.416,0.01794
0.42,-0.01134
0.424,0.03186
0.428,-0.02544
0.432,-0.00382
0.436,0.01636
0.44,0.00642
0.444,0.05203
0.448,0.00614
0.452,0.01893
0.456,0.07866
0.46,0.09362
0.464,0.09662
0.468,0.01872
0.472,0.11488
0.476,0.09088
0.48,0.09945
0.484,0.04213
0.488,0.1523
0.492,0.09676
0.496,0.05527
0.5,0.10346
0.504,0.07658
0.508,-0.01115
0.512,0.00048
0.516,0.06477
0.52,0.08401
0.524,0.00288
0.528,0.04666
0.532,0.05329
0.536,0.02128
0.54,0.0411
0.544,0.0219
0.548,-0.01577
0.552,-0.00422
0.556,0.00472
0.56,0.0002
0.564,0.02726
0.568,0.00211
0.572,0.0648
0.576,-0.02113
0.58,0.08087
0.584,0.00198
0.588,0.04013
0.592,0.02558
0.596,-0.03752
0.6,-0.0185
0.604,0.01224
0.608,-0.1028
0.612,-0.15238
0.616,-0.12188
0.62,-0.05276
0.624,0.05785
0.628,0.16233
0.632,0.41495
0.636,0.61545
0.64,0.80883
0.644,0.98832
0.648,1.00124
0.652,0.90217
0.656,0.73701
0.66,0.63033
0.664,0.30831
0.668,0.09347
0.672,-0.03959
0.676,-0.11786
0.68,-0.18012
0.684,-0.16873
0.688,-0.08084
0.692,-0.04264
0.696,-0.04048
0.7,-0.00075
0.704,0.04187
0.708,-0.04276
0.712,-0.05681
0.716,-0.03819
0.72,-0.05837
0.724,0.01093
0.728,-0.00182
0.732,0.0311
0.736,0.00058
0.74,0.06994
0.744,-0.0283
0.748,0.023
0.752,0.03969
0.756,-0.01887
0.76,-0.03672
0.764,0.02963
0.768,-0.0124
0.772,-0.02907
0.776,0.02177
0.78,-0.04121
0.784,-0.019
0.788,-0.0211
0.792,0.03532
0.796,-0.00446
0.8,-0.01436
0.804,0.0447
0.808,0.01412
0.812,-0.00993
0.816,-0.03877
0.82,0.05027
0.824,0.03329
0.828,0.05319
0.832,-0.05661
0.836,0.10411
0.84,0.03064
0.844,0.10069
0.848,-0.01924
0.852,0.07375
0.856,0.08262
0.86,0.15187
0.864,0.01415
0.868,0.09246
0.872,0.08856
0.876,0.18528
0.88,0.06035
0.884,0.22544
0.888,0.10211
0.892,0.10302
0.896,0.2369
0.9,0.20746
0.904,0.15152
0.908,0.24036
0.912,0.22594
0.916,0.28096
0.92,0.22033
0.924,0.20458
0.928,0.2456
0.932,0.24165
0.936,0.20694
0.94,0.20233
0.944,0.1709
0.948,0.21492
0.952,0.23458
0.956,0.22748
0.96,0.17711
0.964,0.22835
0.968,0.17236
0.972,0.18476
0.976,0.14793
0.98,0.14274
0.984,0.09912
0.988,0.16267
0.992,0.13483
0.996,0.11325
1.0,0.12607
1.004,0.08134
1.008,0.03531
1.012,0.08535
1.016,0.06924
1.02,-0.0114
1.024,0.08478
1.028,0.03655
1.032,-0.00015
1.036,0.03145
1.04,-0.01488
1.044,-0.01653
1.048,-0.01719
1.052,0.03001
1.056,-0.01142
1.06,0.00962
1.064,-0.04218
1.068,0.03043
1.072,0.00477
1.076,0.02144
1.08,0.04917
1.084,-0.01695
1.088,0.00538
1.092,-0.00246
1.096,0.00083
1.1,0.01981
1.104,-0.04389
1.108,0.0034
1.112,-0.00373
1.116,-0.01164
1.12,0.05387
1.124,0.00608
1.128,-0.02663
1.132,-0.00488
1.136,-0.01789
1.14,-0.01471
1.144,-0.00773
1.148,0.00626
1.152,0.00196
1.156,-0.00616
1.16,0.01674
1.164,-0.01131
1.168,0.05156
1.172,0.00612
1.176,-0.0179
1.18,0.01971
1.184,-0.01653
1.188,-0.00041
1.192,0.12572
1.196,0.0088
1.2,0.01739
1.204,0.02681
1.208,0.04614
1.212,0.03041
1.216,0.02359
1.22,-0.00586
1.224,0.02927
1.228,0.01365
1.232,0.01079
1.236,0.05313
1.24,-0.01025
1.244,-0.04241
1.248,0.03506
1.252,0.01375
1.256,-0.01314
1.26,0.02416
1.264,-0.03142
1.268,0.04077
1.272,0.00133
1.276,0.07049
1.28,0.00588
1.284,0.05768
1.288,0.03567
1.292,-0.0028
1.296,0.06621
1.3,0.0219
1.304,0.02807
1.308,0.01862
1.312,0.06961
1.316,0.07193
1.32,-0.01063
1.324,0.01936
1.328,0.04961
1.332,-0.01265
1.336,0.07602
1.34,0.02894
1.344,0.07405
1.348,0.09244
1.352,0.10167
1.356,0.10373
1.36,0.09617
1.364,0.06988
1.368,0.10593
1.372,0.12444
1.376,0.12138
1.38,0.08447
1.384,0.05689
1.388,0.0744
1.392,0.09322
1.396,0.10893
1.4,0.05371
1.404,0.07374
1.408,0.06056
1.412,0.0564
1.416,0.05425
1.42,-0.01713
1.424,-0.00554
1.428,0.08518
1.432,0.05008
1.436,-0.02432
1.44,0.04599
1.444,0.0289
1.448,0.02341
1.452,0.0828
1.456,0.05152
1.46,0.03334
1.464,0.01895
1.468,0.08581
1.472,-0.01502
1.476,-0.01326
1.48,0.07686
1.484,0.01496
1.488,-0.03949
1.492,-0.01461
1.496,-0.05525
1.5,-0.09417
1.504,-0.12448
1.508,0.11122
1.512,0.1688
1.516,0.28031
1.52,0.39259
1.524,0.43336
1.528,0.54001
1.532,0.53586
1.536,0.38722
1.54,0.31428
1.544,0.23657
1.548,0.06817
1.552,-0.07332
1.556,-0.14289
1.56,-0.09904
1.564,-0.15006
1.568,-0.17205
1.572,-0.08717
1.576,-0.01279
1.58,0.06394
1.584,0.00958
1.588,0.08031
1.592,0.07658
1.596,0.00964
1.6,-0.0004
1.604,0.07092
1.608,0.04243
1.612,-0.02135
1.616,0.00305
1.62,-0.02035
1.624,0.07642
1.628,-0.03021
1.632,0.06151
1.636,0.09985
1.64,0.00431
1.644,0.04529
1.648,0.02915
1.652,0.03801
1.656,0.02798
1.66,-0.01142
1.664,-0.00218
1.668,0.0618
1.672,0.01829
1.676,0.07961
1.68,0.0436
1.684,0.02811
1.688,-0.01445
1.692,0.0221
1.696,0.04954
1.7,0.05675
1.704,0.04063
1.708,0.05379
1.712,0.02388
1.716,0.05182
1.72,0.03133
1.724,0.07838
1.728,0.09394
1.732,0.10745
1.736,0.07612
1.74,0.03625
1.744,0.08895
1.748,0.03855
1.752,0.17158
1.756,0.15238
1.76,0.14803
1.764,0.17118
1.768,0.20103
1.772,0.14379
1.776,0.17866
1.78,0.23249
1.784,0.21837
1.788,0.24402
1.792,0.207
1.796,0.27509
1.8,0.20106
1.804,0.25285
1.808,0.16703
1.812,0.27022
1.816,0.28645
1.82,0.22563
1.824,0.251
1.828,0.22707
1.832,0.2575
1.836,0.19404
1.84,0.20332
1.844,0.19758
1.848,0.16827
1.852,0.13281
1.856,0.20221
1.86,0.15906
1.864,0.13489
1.868,0.11519
1.872,0.07237
1.876,0.10512
1.88,0.10061
1.884,0.09942
1.888,0.06181
1.892,0.08509
1.896,0.03164
1.9,0.08591
1.904,-0.01036
1.908,0.02735
1.912,0.06901
1.916,0.09016
1.92,0.01813
1.924,0.05858
1.928,0.08376
1.932,0.05318
1.936,0.08492
1.94,-0.00324
1.944,0.01547
1.948,0.02984
1.952,0.01203
1.956,0.06599
1.96,0.04844
1.964,0.02997
1.968,0.0103
1.972,-0.01158
1.976,0.08854
1.98,0.0186
1.984,0.08881
1.988,0.06088
1.992,0.06526
1.996,0.00088
2.0,0.017
2.004,0.02659
2.008,0.064
2.012,0.01359
2.016,0.05637
2.02,0.03275
2.024,0.05692
2.028,0.03714
2.032,-0.01547
2.036,-0.01965
2.04,0.04785
2.044,-0.0247
2.048,0.0169
2.052,0.04885
2.056,0.06756
2.06,0.08531
2.064,0.05927
2.068,0.07779
2.072,-0.01724
2.076,0.00523
2.08,-0.00631
2.084,0.04992
2.088,-0.01614
2.092,0.02678
2.096,-0.03635
2.1,-0.00126
2.104,-0.03355
2.108,0.01983
2.112,-0.00468
2.116,0.03588
2.12,0.00511
2.124,0.03429
2.128,0.05786
2.132,0.03226
2.136,0.02132
2.14,0.02857
2.144,0.00625
2.148,0.03542
2.152,0.0714
2.156,0.01938
2.16,-0.04325
2.164,0.028
2.168,0.04387
2.172,0.07469
2.176,0.02299
2.18,-0.01536
2.184,0.05209
2.188,0.06609
2.192,0.00178
2.196,0.05776
2.2,0.04679
2.204,0.03955
2.208,0.00531
2.212,0.04281
2.216,0.03374
2.22,0.0251
2.224,0.0596
2.228,0.02689
2.232,0.13694
2.236,0.02546
2.24,0.00062
2.244,0.00515
2.248,0.0419
2.252,-0.00512
2.256,0.01657
2.26,0.00383
2.264,0.0251
2.268,0.00855
2.272,0.06778
2.276,0.02568
2.28,-0.00067
2.284,0.0411
2.288,0.03078
2.292,0.09268
2.296,0.01212
2.3,-0.03805
2.304,-0.0523
2.308,-0.04136
2.312,0.01701
2.316,0.05989
2.32,0.03969
2.324,0.03213
2.328,0.03104
2.332,-0.01468
2.336,-0.00275
2.34,0.02918
2.344,0.07786
2.348,0.03341
2.352,0.04694
2.356,0.03566
2.36,0.08488
2.364,-0.02694
2.368,0.03447
2.372,-0.00452
2.376,0.03667
2.38,0.06959
2.384,0.0051
2.388,0.05403
2.392,0.04407
2.396,0.04888
2.4,0.01336
2.404,0.02732
2.408,0.0249
2.412,0.04073
2.416,-0.00359
2.42,0.04431
2.424,0.07575
2.428,0.03839
2.432,0.01541
2.436,0.0822
2.44,-0.02601
2.444,8e-05
2.448,0.07194
2.452,-0.02511
2.456,0.019
2.46,0.0166
2.464,0.03462
2.468,0.03347
2.472,0.07288
2.476,0.04665
2.48,-0.04475
2.484,0.02227
2.488,0.09862
2.492,0.02931
2.496,0.04546
2.5,0.04766
2.504,0.03547
2.508,0.01463
2.512,-0.02571
2.516,0.07399
2.52,-0.02825
2.524,0.07481
2.528,0.0524
2.532,0.03815
2.536,0.03914
2.54,-0.01355
2.544,0.01442
2.548,0.05244
2.552,0.0297
2.556,0.02167
2.56,0.0304
2.564,0.05396
2.568,0.01337
2.572,0.02144
2.576,0.05107
2.58,0.0634
2.584,0.08156
2.588,0.0775
2.592,0.05403
2.596,0.02408
2.6,0.0339
2.604,0.02984
2.608,0.05579
2.612,0.06515
2.616,0.00276
2.62,0.05443
2.624,0.01035
2.628,0.01383
2.632,0.02199
2.636,0.05548
2.64,0.01923
2.644,0.03837
2.648,-0.01268
2.652,0.00686
2.656,0.02605
2.66,-0.00876
2.664,-0.00738
2.668,0.01738
2.672,0.06105
2.676,0.03047
2.68,0.02086
2.684,0.05181
2.688,0.04909
2.692,0.01395
2.696,0.13291
2.7,0.07833
2.704,0.10096
2.708,0.12595
2.712,0.15321
2.716,0.14812
2.72,0.14724
2.724,0.05492
2.728,0.10354
2.732,0.12533
2.736,0.04061
2.74,0.07022
2.744,0.06638
2.748,0.01193
2.752,0.04082
2.756,0.04392
2.76,0.03509
2.764,0.08539
2.768,0.04375
2.772,0.04281
2.776,-0.03024
2.78,0.06501
2.784,0.07877
2.788,0.03805
2.792,0.07187
2.796,-0.02145
2.8,0.07826
2.804,-0.06835
2.808,0.04638
2.812,-0.07561
2.816,0.0154
2.82,-0.00916
2.824,0.05184
2.828,-0.04148
2.832,-0.08665
2.836,-0.06484
2.84,-0.07752
2.844,-0.06452
2.848,0.03029
2.852,0.31166
2.856,0.46075
2.86,0.72967
2.864,0.85327
2.868,1.00203
2.872,0.98599
2.876,0.90513
2.88,0.81475
2.884,0.52718
2.888,0.33197
2.892,0.10721
2.896,-0.02382
2.9,-0.1192
2.904,-0.17313
2.908,-0.11877
2.912,-0.05963
2.916,-0.07424
2.92,-0.00822
2.924,0.05282
2.928,0.0644
2.932,0.00909
2.936,0.07652
2.94,0.03214
2.944,0.09715
2.948,0.09177
2.952,0.02507
2.956,0.01598
2.96,0.08607
2.964,0.02946
2.968,-0.01049
2.972,0.05089
2.976,-0.0363
2.98,-0.00442
2.984,0.03274
2.988,0.04907
2.992,-0.04416
2.996,0.05365
3.0,0.03139
3.004,0.0713
3.008,0.02005
3.012,-0.0286
3.016,0.01479
3.02,0.03756
3.024,0.04707
3.028,0.02454
3.032,0.01523
3.036,-0.01708
3.04,0.02509
3.044,0.02007
3.048,0.0608
3.052,0.02031
3.056,-0.01595
3.06,0.05508
3.064,0.08017
3.068,0.04613
3.072,0.07419
3.076,0.12727
3.08,0.09613
3.084,0.11291
3.088,0.10364
3.092,0.07507
3.096,0.14808
3.1,0.16905
3.104,0.12158
3.108,0.20524
3.112,0.17511
3.116,0.17646
3.12,0.20592
3.124,0.20819
3.128,0.20906
3.132,0.26613
3.136,0.16901
3.14,0.26499
3.144,0.23128
3.148,0.25112
3.152,0.19655
3.156,0.25042
3.16,0.20995
3.164,0.17491
3.168,0.19698
3.172,0.25977
3.176,0.20807
3.18,0.21019
3.184,0.13062
3.188,0.1438
3.192,0.20553
3.196,0.12338
3.2,0.14853
3.204,0.08059
3.208,0.09201
3.212,0.10796
3.216,0.13192
3.22,0.16436
3.224,0.0945
3.228,0.0975
3.232,0.08796
3.236,0.0389
3.24,-0.03011
3.244,0.01899
3.248,0.0332
3.252,0.00826
3.256,-0.03921
3.26,0.01463
3.264,0.08881
3.268,0.04559
3.272,-0.00084
3.276,0.01693
3.28,-0.00922
3.284,0.05297
3.288,0.04702
3.292,-0.00099
3.296,-0.01207
3.3,-0.03533
3.304,0.0117
3.308,-0.03587
3.312,0.11968
3.316,0.0104
3.32,0.06257
3.324,0.00208
3.328,0.02964
3.332,-0.00656
3.336,-0.03391
3.34,-0.00354
3.344,0.00721
3.348,0.07955
3.352,-0.02137
3.356,-0.05329
3.36,-0.05824
3.364,-0.0173
3.368,0.04834
3.372,-0.00707
3.376,-0.00226
3.38,0.03142
3.384,-0.06767
3.388,0.01537
3.392,0.03161
3.396,0.06144
3.4,-0.01696
3.404,-0.00759
3.408,0.09291
3.412,0.0391
3.416,-0.01195
3.42,-0.09516
3.424,0.00047
3.428,-0.02393
3.432,0.01661
3.436,-0.00389
3.44,-0.00484
3.444,0.0226
3.448,0.0355
3.452,-0.01146
3.456,0.0311
3.46,-0.02448
3.464,0.00093
3.468,0.02052
3.472,0.05308
3.476,0.02081
3.48,-0.04272
3.484,-0.02444
3.488,-0.00246
3.492,0.01799
3.496,0.01827
3.5,0.0531
3.504,0.01749
3.508,-0.02688
3.512,0.03758
3.516,-0.06031
3.52,0.03659
3.524,0.00602
3.528,-0.02007
3.532,-0.01567
3.536,-0.0226
3.54,0.02272
3.544,-0.01743
3.548,-0.04603
3.552,-0.01235
3.556,0.01827
3.56,-0.00792
3.564,-0.03123
3.568,0.01735
3.572,0.05092
3.576,-0.01564
3.58,-0.05288
3.584,-0.03171
3.588,0.04505
3.592,-0.01141
3.596,0.02523
3.6,0.08246
3.604,0.03714
3.608,-0.02103
3.612,0.02397
3.616,0.03426
3.62,-0.04483
3.624,-0.00329
3.628,0.01349
3.632,0.00777
3.636,-0.0075
3.64,-0.05254
3.644,-0.05964
3.648,0.04448
3.652,-0.02491
3.656,-0.02637
3.66,-0.01694
3.664,0.01743
3.668,0.03961
3.672,-0.04584
3.676,0.0575
3.68,-0.0312
3.684,0.01703
3.688,-0.02592
3.692,0.00141
3.696,-0.00891
3.7,0.00605
3.704,0.00247
3.708,0.05697
3.712,0.02102
3.716,0.04894
3.72,-0.03713
3.724,0.01976
3.728,0.04915
3.732,0.08839
3.736,0.08942
3.74,0.15616
3.744,0.18132
3.748,0.05118
3.752,0.0987
3.756,0.09592
3.76,0.12263
3.764,0.0848
3.768,0.13634
3.772,0.06187
3.776,0.02152
3.78,0.07881
3.784,0.05899
3.788,-0.02993
3.792,0.01627
3.796,-0.02882
3.8,-0.04697
3.804,-0.0075
3.808,-0.0163
3.812,0.01543
3.816,-0.01467
3.82,-0.05071
3.824,0.04111
3.828,0.00206
3.832,0.01123
3.836,-0.02319
3.84,0.05183
3.844,-0.04191
3.848,-0.05656
3.852,0.01749
3.856,0.00766
3.86,-0.04743
3.864,-0.0111
3.868,-0.09202
3.872,-0.08374
3.876,-0.09933
3.88,-0.00858
3.884,-0.13508
3.888,0.0258
3.892,0.1671
3.896,0.29377
3.9,0.4643
3.904,0.70282
3.908,0.84745
3.912,1.01798
3.916,0.97133
3.92,0.80411
3.924,0.61166
3.928,0.3879
3.932,0.21553
3.936,-0.01198
3.94,-0.03358
3.944,-0.14861
3.948,-0.14268
3.952,-0.10881
3.956,-0.11845
3.96,-0.14494
3.964,0.00128
3.968,-0.04457
3.972,0.01944
3.976,-0.024
3.98,-0.00031
3.984,-0.01898
3.988,-0.02132
3.992,-0.00134
3.996,-0.0718
4.0,-0.09616
4.004,-0.00478
4.008,0.02134
4.012,0.03977
4.016,0.01842
4.02,0.031
4.024,0.02875
4.028,-0.04694
4.032,0.05179
4.036,0.04429
4.04,0.05371
4.044,-0.02895
4.048,-0.02779
4.052,0.03789
4.056,-0.00523
4.06,-0.0418
4.064,-0.03489
4.068,-0.04669
4.072,0.01467
4.076,0.01936
4.08,0.02976
4.084,0.03538
4.088,0.00759
4.092,0.03124
4.096,-0.0491
4.1,-0.00502
4.104,-0.00391
4.108,0.03359
4.112,0.09092
4.116,0.01025
4.12,0.0548
4.124,0.0859
4.128,0.06588
4.132,0.00013
4.136,0.10541
4.14,0.14899
4.144,0.1782
4.148,0.09078
4.152,0.15023
4.156,0.17139
4.16,0.15633
4.164,0.22214
4.168,0.16571
4.172,0.16592
4.176,0.21083
4.18,0.14953
4.184,0.14832
4.188,0.27621
4.192,0.26956
4.196,0.15246
4.2,0.21241
4.204,0.19534
4.208,0.24579
4.212,0.23056
4.216,0.19611
4.22,0.08637
4.224,0.09168
4.228,0.17512
4.232,0.15712
4.236,0.1466
4.24,0.12945
4.244,0.13272
4.248,0.07627
4.252,0.09139
4.256,0.08407
4.26,0.11466
4.264,0.07143
4.268,0.00405
4.272,0.06787
4.276,0.03283
4.28,0.00861
4.284,-0.03682
4.288,-0.01453
4.292,0.00065
4.296,0.03826
4.3,0.00496
4.304,-0.04644
4.308,-0.01957
4.312,-0.06364
4.316,-0.04931
4.32,-0.05142
4.324,-0.00384
4.328,-0.02108
4.332,-0.03673
4.336,-0.00343
4.34,0.00541
4.344,0.01691
4.348,-0.02489
4.352,0.06163
4.356,-0.01138
4.36,-0.00667
4.364,-0.02388
4.368,-0.02993
4.372,-0.04764
4.376,-0.01577
4.38,-0.03669
4.384,-0.0326
4.388,-0.07432
4.392,-0.0121
4.396,0.0287
4.4,-0.01215
4.404,0.0595
4.408,0.01383
4.412,-0.00438
4.416,-0.05336
4.42,0.00283
4.424,0.04123
4.428,-0.04878
4.432,-0.05212
4.436,0.03162
4.44,-0.03601
4.444,-0.02179
4.448,0.00789
4.452,-0.01956
4.456,-0.03099
4.46,-0.02166
4.464,0.04006
4.468,-0.01636
4.472,-0.05541
4.476,-0.06806
4.48,-0.04483
4.484,-0.05788
4.488,-0.02551
4.492,-0.054
4.496,-0.03388
4.5,-0.01711
4.504,0.03079
4.508,-0.01429
4.512,-0.06261
4.516,-0.00017
4.52,0.07227
4.524,0.02259
4.528,-0.03017
4.532,-0.02229
4.536,-0.03566
4.54,-0.02188
4.544,0.00262
4.548,0.05076
4.552,-0.01827
4.556,-0.04216
4.56,-0.07695
4.564,0.03099
4.568,0.02184
4.572,-0.05004
4.576,-0.07077
4.58,-0.00347
4.584,0.02475
4.588,-0.0153
4.592,-0.04565
4.596,-0.01234
4.6,0.00142
4.604,-0.04422
4.608,-0.04092
4.612,-0.02356
4.616,0.01257
4.62,-0.02376
4.624,-0.01769
4.628,-0.03978
4.632,0.01599
4.636,-0.02204
4.64,-0.03221
4.644,-0.02024
4.648,-0.07284
4.652,-0.03592
4.656,-0.01889
4.66,-0.0532
4.664,-0.0187
4.668,-0.00916
4.672,0.04453
4.676,0.02506
4.68,-0.09899
4.684,-0.07586
4.688,-0.02367
4.692,0.01886
4.696,-0.06305
4.7,-0.01972
4.704,0.04087
4.708,-0.03515
4.712,-0.02594
4.716,-0.01847
4.72,-0.03499
4.724,-0.08264
4.728,-0.01746
4.732,-0.00871
4.736,-0.05214
4.74,-0.00585
4.744,-0.0146
4.748,-0.00152
4.752,-0.03841
4.756,-0.02512
4.76,-0.03633
4.764,-0.03559
4.768,-0.03916
4.772,-0.0167
4.776,-0.07726
4.78,-0.00248
4.784,-0.01505
4.788,-0.01146
4.792,-0.00058
4.796,0.00048
4.8,-0.01033
4.804,-0.03829
4.808,-0.03395
4.812,-0.07735
4.816,-0.05873
4.82,-0.00718
4.824,-0.0214
4.828,-0.04332
4.832,-0.02245
4.836,0.01845
4.84,-0.02253
4.844,-0.03527
4.848,0.00168
4.852,0.0805
4.856,0.0497
4.86,0.0186
4.864,0.04889
4.868,0.07366
4.872,0.08922
4.876,0.03825
4.88,0.09992
4.884,0.03124
4.888,0.10342
4.892,-0.00332
4.896,0.01721
4.9,0.01697
4.904,0.0238
4.908,-0.00424
4.912,-0.00273
4.916,-0.03528
4.92,-0.03101
4.924,-0.06815
4.928,-0.04524
4.932,-0.01995
4.936,-0.02334
4.94,-0.06414
4.944,-0.06979
4.948,0.0454
4.952,-0.02037
4.956,-0.0111
4.96,0.0339
4.964,-0.03212
4.968,0.00096
4.972,-0.07557
4.976,-0.02117
4.98,-0.05528
4.984,-0.03633
4.988,-0.0578
4.992,-0.11558
4.996,-0.15616
5.0,-0.12991
5.004,-0.05556
5.008,0.16976
5.012,0.3598
5.016,0.55598
5.02,0.74832
5.024,0.9132
5.028,0.95623
5.032,0.94642
5.036,0.80306
5.04,0.56992
5.044,0.29117
5.048,0.1435
5.052,-0.05716
5.056,-0.09153
5.06,-0.14141
5.064,-0.16726
5.068,-0.12934
5.072,-0.12877
5.076,-0.05148
5.08,-0.05254
5.084,-0.01491
5.088,-0.05846
5.092,-0.01574
5.096,-0.01998
5.1,-0.02526
5.104,-0.02352
5.108,-0.03651
5.112,-0.03467
5.116,0.01595
5.12,-0.04181
5.124,-0.05773
5.128,-0.04231
5.132,-0.03696
5.136,-0.0392
5.14,-0.04937
5.144,0.00686
5.148,-0.04663
5.152,-0.02622
5.156,-0.04554
5.16,-0.03842
5.164,0.02242
5.168,0.00108
5.172,0.01423
5.176,-0.03922
5.18,-0.04372
5.184,-0.03178
5.188,0.00115
5.192,-0.03546
5.196,0.00468
5.2,-0.0255
5.204,0.00746
5.208,-0.0093
5.212,-0.0451
5.216,0.01931
5.22,-0.01973
5.224,0.00278
5.228,0.01627
5.232,0.04949
5.236,0.06222
5.24,0.00409
5.244,-0.02717
5.248,0.12953
5.252,0.03583
5.256,0.09198
5.26,0.00865
5.264,0.10633
5.268,0.10377
5.272,0.12367
5.276,0.14074
5.28,0.19434
5.284,0.17779
5.288,0.13694
5.292,0.19389
5.296,0.19351
5.3,0.1588
5.304,0.19407
5.308,0.15677
5.312,0.15933
5.316,0.15384
5.32,0.17772
5.324,0.19385
5.328,0.15725
5.332,0.12526
5.336,0.15984
5.34,0.1598
5.344,0.10184
5.348,0.11807
5.352,0.12684
5.356,0.09049
5.36,0.07628
5.364,0.0771
5.368,0.05233
5.372,0.06655
5.376,0.05714
5.38,0.03423
5.384,0.07381
5.388,0.0338
5.392,0.06529
5.396,0.08015
5.4,-0.00633
5.404,0.03173
5.408,-0.14437
5.412,0.01062
5.416,-0.01433
5.42,-0.02804
5.424,-0.05194
5.428,0.03581
5.432,-0.0159
5.436,0.00746
5.44,-0.00705
5.444,-0.01152
5.448,0.03637
5.452,-0.06013
5.456,-0.07524
5.46,-0.10646
5.464,-0.02763
5.468,-0.01683
5.472,-0.02784
5.476,-0.00847
5.48,-0.04583
5.484,0.02123
5.488,-0.05076
5.492,-0.03973
5.496,-0.04604
5.5,-0.05584
5.504,-0.02947
5.508,-0.02732
5.512,-0.01795
5.516,0.0146
5.52,0.01988
5.524,-0.01489
5.528,-0.03381
5.532,-0.08524
5.536,-0.06778
5.54,-0.01898
5.544,0.02285
5.548,-0.03621
5.552,-0.06318
5.556,-0.04492
5.56,0.02848
5.564,-0.02704
5.568,-0.03082
5.572,-0.00793
5.576,-0.0128
5.58,0.0177
5.584,0.08728
5.588,0.06337
5.592,0.07722
5.596,0.03626
5.6,0.02456
5.604,0.06569
5.608,0.06994
5.612,0.04061
5.616,0.0994
5.62,0.08176
5.624,0.06015
5.628,0.04183
5.632,0.04239
5.636,-0.00738
5.64,0.03801
5.644,0.02034
5.648,0.01102
5.652,0.00622
5.656,0.03151
5.66,-0.05925
5.664,-0.04169
5.668,-0.0072
5.672,-0.03528
5.676,-0.0096
5.68,-0.05733
5.684,-0.01948
5.688,-0.04541
5.692,-0.01855
5.696,-0.04803
5.7,0.01463
5.704,-0.0144
5.708,-0.01969
5.712,-0.01668
5.716,-0.07419
5.72,-0.02442
5.724,-0.09675
5.728,-0.15934
5.732,-0.1475
5.736,-0.1486
5.74,-0.11414
5.744,0.07336
5.748,0.24085
5.752,0.43437
5.756,0.61071
5.76,0.79059
5.764,0.93942
5.768,0.94314
5.772,0.85507
5.776,0.66279
5.78,0.46944
5.784,0.23124
5.788,0.03989
5.792,-0.0498
5.796,-0.15163
5.8,-0.2384
5.804,-0.20088
5.808,-0.1137
5.812,-0.1405
5.816,-0.05012
5.82,-0.01369
5.824,-0.01336
5.828,-0.11024
5.832,-0.09231
5.836,-0.06101
5.84,-0.01834
5.844,-0.03985
5.848,-0.06932
5.852,0.00116
5.856,0.00054
5.86,0.01122
5.864,-0.03814
5.868,-0.01805
5.872,0.02556
5.876,0.02779
5.88,-0.03989
5.884,0.00399
5.888,-0.01041
5.892,0.009
5.896,-0.03605
5.9,-0.02798
5.904,-0.05413
5.908,-0.01916
5.912,0.01768
5.916,0.02875
5.92,-0.00325
5.924,0.0558
5.928,0.00774
5.932,-0.01777
5.936,0.06193
5.94,0.05719
5.944,0.09361
5.948,0.08412
5.952,0.08973
5.956,0.16796
5.96,0.08512
5.964,0.08579
5.968,0.099
5.972,0.12287
5.976,0.14685
5.98,0.10317
5.984,0.08923
5.988,0.07607
5.992,0.09501
5.996,0.08576
6.0,0.10765
6.004,0.13402
6.008,0.14036
6.012,0.07188
6.016,0.11842
6.02,0.20079
6.024,0.20419
6.028,0.21781
6.032,0.14642
6.036,0.23389
6.04,0.22148
6.044,0.19299
6.048,0.18552
6.052,0.18784
6.056,0.22009
6.06,0.18192
6.064,0.1501
6.068,0.13033
6.072,0.10992
6.076,0.09845
6.08,0.02152
6.084,0.0275
6.088,-0.01964
6.092,0.03218
6.096,0.2746
6.1,0.4352
6.104,0.61414
6.108,0.83048
6.112,0.91403
6.116,1.05405
6.12,1.01383
6.124,0.88078
6.128,0.60128
6.132,0.45785
6.136,0.20005
6.14,-0.09375
6.144,-0.05333
6.148,-0.17595
6.152,-0.1639
6.156,-0.13967
6.16,-0.13752
6.164,0.01424
6.168,-0.071
6.172,0.04928
6.176,-0.01023
6.18,-0.00395
6.184,-0.01899
6.188,-0.01574
6.192,-0.03517
6.196,-0.04688
6.2,-0.0505
6.204,-0.11248
6.208,-0.03392
6.212,0.023
6.216,-0.06816
6.22,-0.02664
6.224,-0.00714
6.228,-0.01547
6.232,0.00882
6.236,-0.02855
6.24,-0.08848
6.244,0.03138
6.248,0.05131
6.252,-0.02802
6.256,-0.01777
6.26,-0.01604
6.264,0.00561
6.268,-0.07634
6.272,0.02228
6.276,0.03893
6.28,0.05922
6.284,0.00083
6.288,0.07401
6.292,-0.0222
6.296,-0.04128
6.3,-0.01614
6.304,0.05024
6.308,0.01279
6.312,0.05459
6.316,0.08305
6.32,0.02183
6.324,0.01246
6.328,0.04148
6.332,0.07828
6.336,0.04402
6.34,0.04351
6.344,0.0759
6.348,0.14334
6.352,0.12866
6.356,0.11015
6.36,0.1419
6.364,0.13202
6.368,0.11226
6.372,0.13777
6.376,0.15051
6.38,0.16382
6.384,0.17307
6.388,0.14946
6.392,0.23615
6.396,0.20918
6.4,0.18084
6.404,0.20751
6.408,0.18206
6.412,0.16619
6.416,0.15608
6.42,0.14882
6.424,0.15723
6.428,0.13926
6.432,0.13898
6.436,0.10238
6.44,0.10049
6.444,0.07884
6.448,0.06965
6.452,0.12047
6.456,0.09285
6.46,0.00292
6.464,0.09849
6.468,0.05539
6.472,0.02803
6.476,0.05966
6.48,0.05454
6.484,-0.04113
6.488,0.05269
6.492,0.05444
6.496,0.04277
6.5,-0.00345
6.504,-0.02629
6.508,0.04921
6.512,0.05108
6.516,-0.04866
6.52,0.00262
6.524,0.02811
6.528,-0.06937
6.532,-0.00632
6.536,0.01133
6.54,-0.00547
6.544,-0.01958
6.548,-0.02999
6.552,0.03647
6.556,-0.07996
6.56,-0.00987
6.564,-0.06061
6.568,-0.0325
6.572,-0.06752
6.576,-0.02192
6.58,0.01303
6.584,0.04241
6.588,-0.01837
6.592,-0.01706
6.596,-0.06333
6.6,-0.00693
6.604,-0.03957
6.608,-0.07635
6.612,-0.02654
6.616,-0.07448
6.62,0.0442
6.624,0.02986
6.628,-0.02703
6.632,0.03779
6.636,-0.00854
6.64,-0.02899
6.644,-0.0328
6.648,0.0799
6.652,0.04298
6.656,-0.02783
6.66,0.03047
6.664,-0.00625
6.668,-0.01207
6.672,-0.03331
6.676,-0.06528
6.68,0.00145
6.684,-0.02408
6.688,0.00212
6.692,0.03711
6.696,-0.01721
6.7,0.02907
6.704,0.06657
6.708,0.05517
6.712,0.08909
6.716,0.09914
6.72,0.13954
6.724,0.12436
6.728,0.13037
6.732,0.0829
6.736,0.14198
6.74,0.08468
6.744,0.05163
6.748,0.05385
6.752,-0.00056
6.756,0.06395
6.76,0.02451
6.764,-0.02464
6.768,-0.03966
6.772,0.02999
6.776,-0.0197
6.78,0.00448
6.784,-0.0348
6.788,0.0328
6.792,0.0137
6.796,-0.07264
6.8,-0.04717
6.804,-0.00597
6.808,0.01187
6.812,-0.00787
6.816,0.009
6.82,-0.02784
6.824,0.01377
6.828,-0.00739
6.832,-0.07256
6.836,0.05544
6.84,0.03814
6.844,-0.03801
6.848,-0.0473
6.852,-0.1542
6.856,-0.14355
6.86,-0.12877
6.864,0.09422
6.868,0.21116
6.872,0.42511
6.876,0.65181
6.88,0.82241
6.884,0.95451
6.888,1.00377
6.892,0.90319
6.896,0.69083
6.9,0.52073
6.904,0.30631
6.908,0.15951
6.912,-0.05089
6.916,-0.14192
6.92,-0.14377
6.924,-0.14069
6.928,-0.14462
6.932,-0.01359
6.936,-0.0492
6.94,-0.02389
6.944,-0.00553
6.948,-0.03886
6.952,-0.04224
6.956,0.02099
6.96,0.04615
6.964,-0.02786
6.968,-0.05105
6.972,-0.01043
6.976,-0.07059
6.98,-0.02643
6.984,0.00944
6.988,-0.00583
6.992,-0.00598
6.996,-0.01812
7.0,-0.00488
7.004,-0.05211
7.008,0.00177
7.012,-0.02262
7.016,-0.01467
7.02,-0.0088
7.024,0.00822
7.028,-0.07137
7.032,0.00041
7.036,0.03427
7.04,0.04382
7.044,0.01989
7.048,0.00187
7.052,0.02543
7.056,0.06093
7.06,0.03875
7.064,0.06698
7.068,-0.04164
7.072,0.074
7.076,-0.03857
7.08,0.02245
7.084,0.03112
7.088,0.02197
7.092,0.03089
7.096,0.07907
7.1,0.09069
7.104,0.09962
7.108,0.10565
7.112,0.12493
7.116,0.17164
7.12,0.18142
7.124,0.11761
7.128,0.12149
7.132,0.18598
7.136,0.15103
7.14,0.18503
7.144,0.15433
7.148,0.24905
7.152,0.25389
7.156,0.21409
7.16,0.26307
7.164,0.14619
7.168,0.22089
7.172,0.26064
7.176,0.21953
7.18,0.21171
7.184,0.22628
7.188,0.18736
7.192,0.21904
7.196,0.15951
7.2,0.185
7.204,0.09853
7.208,0.13596
7.212,0.08557
7.216,0.16508
7.22,0.06045
7.224,0.08453
7.228,0.04607
7.232,0.10461
7.236,0.04459
7.24,0.05366
7.244,0.05989
7.248,0.0001
7.252,0.13417
7.256,0.03365
7.26,0.02048
7.264,0.02211
7.268,0.01727
7.272,-0.0269
7.276,0.01396
7.28,0.04811
7.284,0.04913
7.288,0.03146
7.292,0.03326
7.296,0.06124
7.3,-0.01754
7.304,0.07012
7.308,-0.02775
7.312,0.00982
7.316,0.0539
7.32,-0.0196
7.324,-0.03421
7.328,0.03473
7.332,0.00663
7.336,-0.03906
7.34,0.01662
7.344,0.02057
7.348,0.06246
7.352,0.00536
7.356,-0.02061
7.36,-0.00234
7.364,-0.04309
7.368,-0.01537
7.372,-0.03189
7.376,0.00619
7.38,0.01502
7.384,-0.05651
7.388,0.00838
7.392,-0.00462
7.396,-0.02714
7.4,0.00689
7.404,-0.00591
7.408,-0.01962
7.412,0.02933
7.416,0.01187
7.42,0.0305
7.424,0.0148
7.428,0.0097
7.432,0.02209
7.436,-0.00957
7.44,0.04335
7.444,0.02781
7.448,0.03356
7.452,0.02614
7.456,0.01856
7.46,0.01499
7.464,0.01236
7.468,0.02031
7.472,-0.05481
7.476,0.03249
7.48,0.00033
7.484,0.08102
7.488,0.05643
7.492,0.01326
7.496,0.0373
7.5,0.02594
7.504,0.05933
7.508,-0.0233
7.512,0.03353
7.516,-0.02066
7.52,-0.03037
7.524,-0.024
7.528,0.01342
7.532,0.0633
7.536,0.02057
7.54,0.08976
7.544,-0.01948
7.548,0.02134
7.552,0.03382
7.556,0.06464
7.56,0.12886
7.564,0.06418
7.568,0.1602
7.572,0.09702
7.576,0.12163
7.58,0.08094
7.584,0.05113
7.588,0.03421
7.592,0.09549
7.596,0.034
7.6,0.09199
7.604,0.06947
7.608,0.01383
7.612,0.01244
7.616,-0.01467
7.62,-0.01939
7.624,-0.00681
7.628,-0.00806
7.632,0.01472
7.636,0.02725
7.64,0.00464
7.644,-0.0398
7.648,0.09983
7.652,0.01677
7.656,-0.07637
7.66,-0.03242
7.664,0.05191
7.668,-0.0002
7.672,0.03256
7.676,0.02719
7.68,0.03568
7.684,-0.00803
7.688,-0.07165
7.692,-0.0595
7.696,-0.09457
7.7,-0.01289
7.704,-0.06575
7.708,0.07228
7.712,0.24035
7.716,0.43563
7.72,0.59665
7.724,0.82686
7.728,0.97726
7.732,1.04033
7.736,0.90153
7.74,0.68268
7.744,0.59131
7.748,0.32776
7.752,0.1045
7.756,-0.11048
7.76,-0.13894
7.764,-0.11812
7.768,-0.15655
7.772,-0.08226
7.776,-0.03894
7.78,-0.07699
7.784,-0.02542
7.788,-0.07964
7.792,0.03261
7.796,0.00035
7.8,0.03636
7.804,0.02897
7.808,0.01025
7.812,-0.02199
7.816,0.05206
7.82,0.02279
7.824,0.02822
7.828,0.04827
7.832,0.06994
7.836,0.01742
7.84,0.047
7.844,-0.03946
7.848,0.07803
7.852,0.00041
7.856,-0.01629
7.86,0.12578
7.864,0.02175
7.868,-0.00062
7.872,0.02342
7.876,0.02522
7.88,-0.00951
7.884,-0.01794
7.888,0.00312
7.892,0.06483
7.896,0.03708
7.9,0.01365
7.904,0.03099
7.908,0.03766
7.912,-0.04694
7.916,0.04439
7.92,0.03207
7.924,0.01689
7.928,0.07725
7.932,0.0317
7.936,0.06276
7.94,0.09955
7.944,0.05964
7.948,0.09082
7.952,0.1062
7.956,0.10552
7.96,0.11415
7.964,0.13422
7.968,0.15548
7.972,0.17582
7.976,0.16224
7.98,0.20378
7.984,0.19443
7.988,0.18675
7.992,0.278
7.996,0.2137
8.0,0.27267
8.004,0.21994
8.008,0.30315
8.012,0.28169
8.016,0.23075
8.02,0.25721
8.024,0.17525
8.028,0.17073
8.032,0.18503
8.036,0.18504
8.04,0.18632
8.044,0.18644
8.048,0.19112
8.052,0.19743
8.056,0.10287
8.06,0.15768
8.064,0.15447
8.068,0.10717
8.072,0.09747
8.076,0.10862
8.08,0.13876
8.084,0.11791
8.088,0.0796
8.092,0.02658
8.096,-0.00389
8.1,-0.01046
8.104,0.01066
8.108,0.06205
8.112,0.06982
8.116,0.05458
8.12,0.07534
8.124,0.05045
8.128,0.02582
8.132,0.06286
8.136,0.10505
8.14,0.00095
8.144,0.03439
8.148,0.0285
8.152,0.05498
8.156,0.06149
8.16,0.04691
8.164,0.05476
8.168,-0.00886
8.172,0.00858
8.176,0.02083
8.18,0.06597
8.184,-0.00072
8.188,0.03836
8.192,0.06732
8.196,-0.00921
8.2,0.01929
8.204,0.0189
8.208,0.06968
8.212,0.03631
8.216,0.04992
8.22,0.03982
8.224,-3e-05
8.228,0.04736
8.232,0.02908
8.236,0.06935
8.24,0.05554
8.244,0.00605
8.248,0.11387
8.252,4e-05
8.256,0.03775
8.26,0.04678
8.264,0.01106
8.268,0.00502
8.272,0.01663
8.276,0.04536
8.28,0.06586
8.284,0.06961
8.288,0.05126
8.292,0.03677
8.296,-0.02788
8.3,0.02616
8.304,0.10331
8.308,0.00484
8.312,0.03325
8.316,0.00833
8.32,0.04615
8.324,-0.03333
8.328,0.04801
8.332,0.03261
8.336,0.00235
8.34,0.07108
8.344,0.04254
8.348,0.03906
8.352,-0.04789
8.356,0.07391
8.36,0.0531
8.364,0.09343
8.368,0.0633
8.372,0.113
8.376,0.00333
8.38,0.00106
8.384,0.0209
8.388,0.00632
8.392,0.0294
8.396,0.07216
8.4,0.03306
8.404,0.02678
8.408,0.01816
8.412,0.01995
8.416,0.07781
8.42,0.04366
8.424,0.04478
8.428,0.03303
8.432,-0.02436
8.436,0.03664
8.44,0.04884
8.444,0.02031
8.448,0.07819
8.452,0.03663
8.456,0.07312
8.46,-0.0184
8.464,0.07911
8.468,0.04968
8.472,0.12372
8.476,0.02135
8.48,0.10773
8.484,0.1016
8.488,0.13219
8.492,0.11762
8.496,0.14563
8.5,0.17937
8.504,0.15377
8.508,0.08695
8.512,0.07604
8.516,0.13567
8.52,0.04432
8.524,0.06779
8.528,-0.00377
8.532,0.12711
8.536,-0.01297
8.54,0.09122
8.544,-0.02781
8.548,0.00064
8.552,0.0217
8.556,0.01918
8.56,0.03583
8.564,0.07507
8.568,0.03677
8.572,0.05162
8.576,0.04158
8.58,0.04006
8.584,0.00291
8.588,-0.02611
8.592,0.00671
8.596,0.05098
8.6,0.01386
8.604,-0.02486
8.608,0.03373
8.612,0.01464
8.616,-0.00732
8.62,-0.07537
8.624,-0.13892
8.628,-0.00893
8.632,0.01303
8.636,0.21737
8.64,0.39839
8.644,0.61615
8.648,0.87011
8.652,1.00814
8.656,1.02428
8.66,0.933
8.664,0.81768
8.668,0.63192
8.672,0.34963
8.676,0.1677
8.68,-0.01422
8.684,-0.04926
8.688,-0.19836
8.692,-0.09949
8.696,-0.08859
8.7,-0.07877
8.704,0.01773
8.708,-0.01288
8.712,-0.01131
8.716,0.05997
8.72,0.0549
8.724,0.07253
8.728,0.02406
8.732,0.03955
8.736,0.03564
8.74,-0.03216
8.744,0.03462
8.748,0.05295
8.752,0.03377
8.756,0.1025
8.76,-0.01779
8.764,0.08585
8.768,0.00726
8.772,0.03203
8.776,0.03401
8.78,0.02263
8.784,0.08221
8.788,0.06491
8.792,-0.04547
8.796,0.07046
8.8,-0.01502
8.804,0.01529
8.808,0.02805
8.812,0.09468
8.816,0.00532
8.82,0.08277
8.824,0.00822
8.828,-0.01759
8.832,-0.04675
8.836,0.04998
8.84,0.03234
8.844,0.03618
8.848,0.10066
8.852,0.12925
8.856,0.02837
8.86,0.13602
8.864,0.12372
8.868,0.09946
8.872,0.09
8.876,0.18157
8.88,0.17299
8.884,0.14651
8.888,0.1047
8.892,0.12636
8.896,0.20275
8.9,0.23552
8.904,0.26091
8.908,0.23636
8.912,0.18484
8.916,0.28179
8.92,0.20877
8.924,0.21732
8.928,0.23469
8.932,0.21382
8.936,0.19926
8.94,0.25757
8.944,0.25195
8.948,0.27983
8.952,0.2759
8.956,0.21942
8.96,0.26366
8.964,0.27571
8.968,0.14938
8.972,0.17283
8.976,0.12112
8.98,0.13386
8.984,0.19619
8.988,0.18294
8.992,0.14317
8.996,0.12084
9.0,0.13813
9.004,0.12717
9.008,0.1102
9.012,0.07789
9.016,0.10509
9.02,0.11996
9.024,0.14768
9.028,0.03275
9.032,0.04365
9.036,0.11531
9.04,0.00851
9.044,0.07311
9.048,0.05298
9.052,0.02184
9.056,0.05353
9.06,0.01111
9.064,0.00836
9.068,0.03157
9.072,-0.01547
9.076,0.11499
9.08,0.01458
9.084,0.1435
9.088,0.113
9.092,0.08431
9.096,0.07613
9.1,0.04225
9.104,0.14359
9.108,0.12195
9.112,0.10953
9.116,0.12748
9.12,0.12052
9.124,0.13716
9.128,0.07731
9.132,0.08174
9.136,0.1271
9.14,0.08853
9.144,0.03659
9.148,0.07152
9.152,0.05709
9.156,0.03664
9.16,0.05665
9.164,0.01906
9.168,0.00968
9.172,0.07695
9.176,0.0114
9.18,0.0599
9.184,0.0686
9.188,-0.02637
9.192,0.03836
9.196,0.07563
9.2,0.0217
9.204,0.0981
9.208,0.06842
9.212,-0.01609
9.216,0.07181
9.22,0.03601
9.224,0.00341
9.228,0.02485
9.232,-0.02495
9.236,-0.00284
9.24,-0.0892
9.244,-0.14567
9.248,-0.07401
9.252,0.06703
9.256,0.25913
9.26,0.46419
9.264,0.63956
9.268,0.86075
9.272,0.95691
9.276,1.03393
9.28,0.90107
9.284,0.74214
9.288,0.5919
9.292,0.37371
9.296,0.13941
9.3,-0.06806
9.304,-0.10063
9.308,-0.16684
9.312,-0.12528
9.316,-0.05412
9.32,-0.05562
9.324,-0.0632
9.328,0.00041
9.332,-0.04149
9.336,0.05256
9.34,-0.01984
9.344,0.02151
9.348,0.0003
9.352,0.04467
9.356,0.0315
9.36,0.02804
9.364,0.04681
9.368,0.041
9.372,0.02832
9.376,0.04352
9.38,0.03109
9.384,-0.03824
9.388,0.02918
9.392,0.07562
9.396,0.01326
9.4,0.0546
9.404,0.00943
9.408,0.03063
9.412,0.06702
9.416,0.09052
9.42,0.0412
9.424,0.01053
9.428,0.0481
9.432,0.06813
9.436,-0.05611
9.44,0.01564
9.444,0.03108
9.448,0.03587
9.452,0.09105
9.456,0.04003
9.46,0.07352
9.464,0.08481
9.468,0.04034
9.472,0.08092
9.476,0.08492
9.48,0.05369
9.484,0.14472
9.488,0.07302
9.492,0.15085
9.496,0.1513
9.5,0.15687
9.504,0.18049
9.508,0.15135
9.512,0.17993
9.516,0.08701
9.52,0.15746
9.524,0.16438
9.528,0.22646
9.532,0.22063
9.536,0.17753
9.54,0.215
9.544,0.18507
9.548,0.23917
9.552,0.23516
9.556,0.15143
9.56,0.29087
9.564,0.27857
9.568,0.21633
9.572,0.18303
9.576,0.18139
9.58,0.23148
9.584,0.18289
9.588,0.15808
9.592,0.18468
9.596,0.14103
9.6,0.18612
9.604,0.14417
9.608,0.14502
9.612,0.07819
9.616,0.13666
9.62,0.05966
9.624,0.06246
9.628,0.08156
9.632,0.02356
9.636,0.06082
9.64,0.04133
9.644,0.06294
9.648,-0.01854
9.652,0.08537
9.656,0.0398
9.66,0.05374
9.664,0.02593
9.668,0.00162
9.672,-0.0126
9.676,-0.02669
9.68,0.00415
9.684,0.02219
9.688,0.08479
9.692,0.01059
9.696,0.03993
9.7,-0.01081
9.704,-0.01504
9.708,-0.00492
9.712,-0.01698
9.716,0.01529
9.72,0.05532
9.724,-0.00456
9.728,0.02752
9.732,0.0719
9.736,-0.014
9.74,0.05471
9.744,-0.01002
9.748,0.07664
9.752,-0.00314
9.756,0.02426
9.76,0.00943
9.764,0.01003
9.768,0.00926
9.772,-0.0592
9.776,-0.00226
9.78,0.01087
9.784,-0.01169
9.788,0.00952
9.792,-0.04527
9.796,0.02949
9.8,0.0754
9.804,0.04362
9.808,0.09422
9.812,0.02224
9.816,0.00418
9.82,0.03928
9.824,0.01691
9.828,0.04284
9.832,-0.03784
9.836,0.00613
9.84,-0.00311
9.844,-0.02451
9.848,-0.01059
9.852,0.02144
9.856,-0.01324
9.86,-0.00968
9.864,0.00193
9.868,-0.04657
9.872,0.02559
9.876,0.01241
9.88,0.00073
9.884,0.01164
9.888,0.00969
9.892,0.04863
9.896,0.02704
9.9,0.0025
9.904,0.02382
9.908,0.03022
9.912,0.03033
9.916,0.01492
9.92,-0.02184
9.924,-0.02897
9.928,0.03493
9.932,-0.00164
9.936,0.02383
9.94,0.02912
9.944,0.01223
9.948,0.06275
9.952,0.02136
9.956,-0.0444
9.96,0.02485
9.964,0.02146
9.968,0.05915
9.972,-0.00757
9.976,0.01773
9.98,0.0229
9.984,0.06173
9.988,0.04184
9.992,0.08163
9.996,0.0269
