t_seg,ecg_mV
0.0,0.03666
0.004,0.02198
0.008,0.01684
0.012,-0.00023
0.016,0.01104
0.02,0.03265
0.024,0.03705
0.028,0.01596
0.032,0.00015
0.036,0.01214
0.04,0.01047
0.044,-0.00616
0.048,0.02206
0.052,0.01249
0.056,-0.02014
0.06,0.01345
0.064,-0.00736
0.068,0.01591
0.072,0.02149
0.076,0.0247
0.08,-0.00582
0.084,0.00793
0.088,0.00106
0.092,0.01309
0.096,0.01294
0.1,0.00962
0.104,0.00617
0.108,0.02207
0.112,0.03122
0.116,0.0072
0.12,0.0112
0.124,0.01863
0.128,0.00674
0.132,-0.00858
0.136,0.03059
0.14,0.06286
0.144,0.04438
0.148,0.0484
0.152,0.0758
0.156,0.0758
0.16,0.06936
0.164,0.1088
0.168,0.10102
0.172,0.12461
0.176,0.10864
0.18,0.10261
0.184,0.10313
0.188,0.09511
0.192,0.08866
0.196,0.08061
0.2,0.05894
0.204,0.05437
0.208,0.03527
0.212,0.02529
0.216,0.01704
0.22,0.03839
0.224,0.03732
0.228,0.01189
0.232,-0.01305
0.236,0.00539
0.24,0.03877
0.244,0.01625
0.248,0.01066
0.252,0.01385
0.256,0.01303
0.26,0.02807
0.264,-0.02246
0.268,-0.0053
0.272,0.01397
0.276,0.0093
0.28,-0.02082
0.284,-0.0077
0.288,0.02484
0.292,-0.00907
0.296,-0.0523
0.3,-0.07695
0.304,-0.09056
0.308,-0.08586
0.312,-0.02714
0.316,0.12575
0.32,0.31896
0.324,0.51291
0.328,0.72671
0.332,0.90184
0.336,1.00164
0.34,1.02506
0.344,0.89002
0.348,0.68909
0.352,0.44793
0.356,0.21448
0.36,0.0662
0.364,-0.11599
0.368,-0.15651
0.372,-0.174
0.376,-0.10872
0.38,-0.0922
0.384,-0.05727
0.388,-0.02518
0.392,0.00541
0.396,0.01379
0.4,-0.0189
0.404,0.01579
0.408,-0.01184
0.412,-0.00558
0.416,0.02974
0.42,0.00415
0.424,0.01081
0.428,0.00237
0.432,0.02092
0.436,0.02074
0.44,-0.00638
0.444,0.02982
0.448,0.02405
0.452,0.03921
0.456,-0.01339
0.46,-0.00614
0.464,-0.02034
0.468,0.02177
0.472,0.02336
0.476,-0.0124
0.48,-0.01598
0.484,0.00311
0.488,0.00297
0.492,-0.02792
0.496,0.00205
0.5,-0.00358
0.504,0.03494
0.508,0.01739
0.512,0.01974
0.516,0.01654
0.52,0.03668
0.524,0.02918
0.528,0.01704
0.532,0.03785
0.536,0.04502
0.54,0.0488
0.544,0.07038
0.548,0.07034
0.552,0.09831
0.556,0.10101
0.56,0.103
0.564,0.12209
0.568,0.11285
0.572,0.13789
0.576,0.13544
0.58,0.15501
0.584,0.15362
0.588,0.17523
0.592,0.18639
0.596,0.18348
0.6,0.21402
0.604,0.20143
0.608,0.22595
0.612,0.2106
0.616,0.22849
0.62,0.2339
0.624,0.22145
0.628,0.20329
0.632,0.21362
0.636,0.21311
0.64,0.22834
0.644,0.18996
0.648,0.1765
0.652,0.15243
0.656,0.16733
0.66,0.16274
0.664,0.14007
0.668,0.13131
0.672,0.10056
0.676,0.09119
0.68,0.05207
0.684,0.06486
0.688,0.06311
0.692,0.0617
0.696,0.04725
0.7,0.0573
0.704,0.0202
0.708,0.02938
0.712,0.01436
0.716,0.02079
0.72,-0.0164
0.724,0.00863
0.728,0.02878
0.732,-0.00504
0.736,0.02847
0.74,0.00636
0.744,-0.00899
0.748,-0.00077
0.752,0.00208
0.756,-0.02632
0.76,0.00819
0.764,-0.03648
0.768,-0.03182
0.772,0.00278
0.776,-0.0098
0.78,-0.01024
0.784,-0.01128
0.788,-0.02244
0.792,0.04463
0.796,-0.00433
0.8,0.00434
0.804,0.00044
0.808,0.00323
0.812,-0.03202
0.816,-0.00673
0.82,0.00466
0.824,-0.00671
0.828,-0.04476
0.832,0.01117
0.836,-0.0323
0.84,-0.00712
0.844,0.00187
0.848,0.00208
0.852,-0.01169
0.856,-0.01262
0.86,-0.00115
0.864,-0.01051
0.868,-0.02178
0.872,0.01599
0.876,-0.0257
0.88,0.00648
0.884,-0.0075
0.888,-0.00356
0.892,-0.00524
0.896,-0.00284
0.9,-0.00771
0.904,0.00236
0.908,-0.00036
0.912,0.00309
0.916,-0.01199
0.92,2e-05
0.924,-0.01555
0.928,-0.01396
0.932,-0.01086
0.936,-0.02723
0.94,-0.03574
0.944,-0.02604
0.948,-0.00352
0.952,-0.04428
0.956,0.00066
0.96,-0.00238
0.964,0.0014
0.968,-0.03238
0.972,0.00585
0.976,-0.01611
0.98,-0.01429
0.984,-0.02123
0.988,-0.01431
0.992,-0.02179
0.996,-0.04539
1.0,0.00657
1.004,0.01388
1.008,-0.03025
1.012,-0.03884
1.016,-0.01379
1.02,-0.01836
1.024,-0.03177
1.028,-0.03111
1.032,-0.02659
1.036,-0.01283
1.04,0.014
1.044,-0.01754
1.048,-0.01773
1.052,0.01583
1.056,-0.03579
1.06,-0.00998
1.064,0.0132
1.068,0.00618
1.072,0.01226
1.076,0.00802
1.08,0.04432
1.084,0.03148
1.088,0.04279
1.092,0.06406
1.096,0.08125
1.1,0.07237
1.104,0.08231
1.108,0.08334
1.112,0.08382
1.116,0.0946
1.12,0.07498
1.124,0.06229
1.128,0.04305
1.132,0.02952
1.136,-0.01585
1.14,0.01129
1.144,-0.00294
1.148,0.00134
1.152,0.01443
1.156,-0.00741
1.16,-0.00905
1.164,0.00355
1.168,-0.0246
1.172,-0.02826
1.176,-0.01653
1.18,-0.03599
1.184,-0.01652
1.188,-0.00622
1.192,-0.00778
1.196,-0.00567
1.2,-0.01111
1.204,-0.0081
1.208,-0.0163
1.212,-0.03203
1.216,-0.01718
1.22,-0.0562
1.224,-0.0473
1.228,-0.08254
1.232,-0.10364
1.236,-0.14469
1.24,-0.11267
1.244,0.01465
1.248,0.1684
1.252,0.35732
1.256,0.55883
1.26,0.78123
1.264,0.9154
1.268,1.00297
1.272,0.92819
1.276,0.77413
1.28,0.57817
1.284,0.34223
1.288,0.13816
1.292,-0.01833
1.296,-0.15138
1.3,-0.18518
1.304,-0.17264
1.308,-0.14243
1.312,-0.10465
1.316,-0.07104
1.32,-0.04468
1.324,-0.00364
1.328,-0.03569
1.332,-0.00482
1.336,-0.01031
1.34,-0.0386
1.344,-0.0113
1.348,-0.03088
1.352,-0.02344
1.356,-0.02666
1.36,-0.02394
1.364,-0.01683
1.368,-0.00206
1.372,-0.02753
1.376,-0.03948
1.38,-0.05403
1.384,-0.00765
1.388,-0.03923
1.392,-0.01401
1.396,-0.02014
1.4,-0.00545
1.404,-0.01396
1.408,-0.04152
1.412,-0.00518
1.416,-0.0218
1.42,-0.02968
1.424,-0.03381
1.428,-0.02578
1.432,-0.03222
1.436,0.00202
1.44,0.01354
1.444,-0.00967
1.448,-0.01251
1.452,0.01959
1.456,0.01452
1.46,0.00255
1.464,0.01054
1.468,0.01151
1.472,0.00623
1.476,0.03489
1.48,0.06972
1.484,0.05754
1.488,0.08715
1.492,0.07395
1.496,0.07564
1.5,0.07722
1.504,0.12931
1.508,0.11643
1.512,0.13653
1.516,0.15533
1.52,0.16757
1.524,0.14375
1.528,0.18299
1.532,0.18739
1.536,0.16996
1.54,0.16427
1.544,0.18768
1.548,0.18374
1.552,0.18415
1.556,0.19962
1.56,0.16054
1.564,0.19843
1.568,0.18683
1.572,0.15699
1.576,0.16291
1.58,0.14818
1.584,0.1188
1.588,0.12618
1.592,0.11646
1.596,0.08379
1.6,0.0687
1.604,0.07243
1.608,0.04137
1.612,0.06404
1.616,0.05516
1.62,0.04351
1.624,0.02819
1.628,0.01561
1.632,-0.01711
1.636,0.01806
1.64,0.01726
1.644,-0.01704
1.648,-0.002
1.652,-0.0319
1.656,-0.0283
1.66,-0.02272
1.664,0.00688
1.668,-0.01499
1.672,-0.01926
1.676,-0.0322
1.68,-0.01104
1.684,-0.03375
1.688,-0.03479
1.692,-0.03566
1.696,-0.03756
1.7,-0.0382
1.704,-0.04139
1.708,-0.02189
1.712,-0.02338
1.716,-0.01004
1.72,-0.01474
1.724,-0.06713
1.728,-0.03312
1.732,-0.03556
1.736,-0.01307
1.74,0.00143
1.744,-0.03923
1.748,-0.05665
1.752,-0.04176
1.756,-0.01327
1.76,-0.03435
1.764,-0.03421
1.768,-0.019
1.772,-0.04821
1.776,-0.03059
1.78,0.00078
1.784,-0.01143
1.788,-0.04894
1.792,-0.03116
1.796,-0.00307
1.8,-0.05913
1.804,-0.01707
1.808,-0.02511
1.812,-0.03493
1.816,-0.03969
1.82,-0.04024
1.824,-0.02939
1.828,-0.02945
1.832,-0.00099
1.836,-0.00638
1.84,-0.06973
1.844,-0.01373
1.848,-0.02588
1.852,-0.02107
1.856,-0.02827
1.86,-0.02182
1.864,-0.03762
1.868,-0.00745
1.872,-0.0308
1.876,-0.03474
1.88,-0.03368
1.884,-0.04953
1.888,-0.01843
1.892,-0.0249
1.896,0.02368
1.9,0.00019
1.904,0.0307
1.908,0.04618
1.912,0.03443
1.916,0.04801
1.92,0.05211
1.924,0.06076
1.928,0.05952
1.932,0.08548
1.936,0.066
1.94,0.07727
1.944,0.0542
1.948,0.04115
1.952,0.00637
1.956,0.02662
1.96,0.03049
1.964,0.00641
1.968,-0.00351
1.972,0.00121
1.976,-0.04469
1.98,-0.0334
1.984,-0.04186
1.988,-0.02508
1.992,-0.00774
1.996,-0.02838
2.0,-0.02825
2.004,-0.0336
2.008,-0.03522
2.012,-0.01741
2.016,-0.01889
2.02,-0.02521
2.024,-0.014
2.028,0.00138
2.032,-0.01843
2.036,-0.04586
2.04,-0.02551
2.044,-0.06009
2.048,-0.04931
2.052,-0.11419
2.056,-0.13868
2.06,-0.14729
2.064,-0.11177
2.068,-0.03227
2.072,0.1345
2.076,0.35002
2.08,0.53852
2.084,0.77254
2.088,0.89901
2.092,0.96284
2.096,0.89748
2.1,0.74298
2.104,0.5346
2.108,0.33081
2.112,0.11719
2.116,-0.02683
2.12,-0.13936
2.124,-0.18274
2.128,-0.18798
2.132,-0.14146
2.136,-0.10534
2.14,-0.07444
2.144,-0.03839
2.148,-0.03551
2.152,-0.01214
2.156,-0.04265
2.16,-0.00723
2.164,-0.03735
2.168,-0.04087
2.172,-0.02967
2.176,-0.02414
2.18,-0.01014
2.184,-0.01568
2.188,-0.02472
2.192,-0.03648
2.196,-0.06012
2.2,-0.00493
2.204,-0.05865
2.208,-0.0447
2.212,-0.03973
2.216,-0.00676
2.22,-0.01754
2.224,-0.00161
2.228,-0.03651
2.232,-0.03496
2.236,-0.02433
2.24,-0.02857
2.244,-0.02617
2.248,-0.02901
2.252,-0.02342
2.256,-0.03718
2.26,-0.01765
2.264,0.01508
2.268,-0.03502
2.272,-0.02315
2.276,-0.01081
2.28,-0.0414
2.284,0.02489
2.288,0.01907
2.292,0.02632
2.296,0.03942
2.3,0.04144
2.304,0.04031
2.308,0.0317
2.312,0.05309
2.316,0.07823
2.32,0.07675
2.324,0.08406
2.328,0.1199
2.332,0.12866
2.336,0.12579
2.34,0.13246
2.344,0.16438
2.348,0.18731
2.352,0.16616
2.356,0.1717
2.36,0.1995
2.364,0.21065
2.368,0.2056
2.372,0.18218
2.376,0.17993
2.38,0.18747
2.384,0.20617
2.388,0.16655
2.392,0.16126
2.396,0.15123
2.4,0.16713
2.404,0.12885
2.408,0.11774
2.412,0.15454
2.416,0.11948
2.42,0.10223
2.424,0.07581
2.428,0.06684
2.432,0.0594
2.436,0.04964
2.44,0.0415
2.444,0.01146
2.448,0.0137
2.452,0.01965
2.456,0.03453
2.46,0.00284
2.464,0.00039
2.468,-0.02244
2.472,-0.03527
2.476,-0.02853
2.48,-0.02873
2.484,-0.00654
2.488,-0.01545
2.492,-0.02521
2.496,-0.03255
2.5,-0.02549
2.504,-0.02857
2.508,-0.01265
2.512,-0.03506
2.516,-0.04156
2.52,-0.05218
2.524,-0.02353
2.528,-0.01947
2.532,-0.01625
2.536,-0.03302
2.54,-0.02277
2.544,-0.02461
2.548,-0.02004
2.552,-0.0353
2.556,-0.03703
2.56,-0.00868
2.564,-0.0512
2.568,-0.05259
2.572,-0.04979
2.576,-0.0465
2.58,-0.02117
2.584,-0.00873
2.588,-0.01243
2.592,0.0036
2.596,-0.03638
2.6,-0.03248
2.604,-0.03931
2.608,-0.00657
2.612,-0.02787
2.616,0.00466
2.62,-0.04193
2.624,-0.07181
2.628,-0.01268
2.632,-0.00917
2.636,-0.03397
2.64,-0.00655
2.644,-0.02486
2.648,-0.04095
2.652,-0.03466
2.656,-0.04559
2.66,-0.03851
2.664,-0.0224
2.668,-0.02607
2.672,-0.04269
2.676,-0.00131
2.68,-0.02692
2.684,-0.02969
2.688,-0.04363
2.692,-0.03293
2.696,-0.03601
2.7,-0.01655
2.704,-0.02929
2.708,0.00383
2.712,-0.00933
2.716,-0.04245
2.72,0.00267
2.724,-0.02287
2.728,-0.03224
2.732,-0.00626
2.736,-0.03035
2.74,-0.02417
2.744,-0.01839
2.748,-0.02449
2.752,-0.0313
2.756,-0.04478
2.76,-0.03492
2.764,-0.01449
2.768,-0.01843
2.772,-0.0159
2.776,-0.02127
2.78,-0.02473
2.784,-0.05094
2.788,-0.02465
2.792,-0.03069
2.796,-0.0265
2.8,-0.04498
2.804,-0.02383
2.808,-0.0289
2.812,-0.02709
2.816,-0.04936
2.82,0.00989
2.824,-0.01436
2.828,-0.01691
2.832,-0.02574
2.836,-0.04465
2.84,-0.05217
2.844,-0.00358
2.848,-0.01008
2.852,-0.0415
2.856,-0.02184
2.86,-0.04413
2.864,0.00274
2.868,-0.04332
2.872,-0.06177
2.876,-0.02753
2.88,-0.01419
2.884,-0.01029
2.888,-0.03682
2.892,-0.02611
2.896,-0.02513
2.9,-0.01472
2.904,0.00174
2.908,-0.00138
2.912,0.00033
2.916,-0.00782
2.92,-0.0146
2.924,-0.02078
2.928,-0.01298
2.932,-0.0356
2.936,-0.0255
2.94,-0.01198
2.944,-0.03869
2.948,-0.03483
2.952,-0.01699
2.956,-0.01257
2.96,-0.0381
2.964,-0.00714
2.968,-0.01816
2.972,-0.02153
2.976,0.01078
2.98,-0.03511
2.984,0.02977
2.988,0.02259
2.992,0.01312
2.996,0.0523
3.0,0.04319
3.004,0.07196
3.008,0.08597
3.012,0.07648
3.016,0.02324
3.02,0.07945
3.024,0.04934
3.028,0.01908
3.032,0.02238
3.036,0.04461
3.04,-0.00671
3.044,0.00173
3.048,-0.03997
3.052,-0.00084
3.056,-0.00206
3.06,0.00033
3.064,-0.04029
3.068,-0.03744
3.072,-0.04044
3.076,-0.0461
3.08,-0.00838
3.084,-0.04178
3.088,-0.0288
3.092,-0.02697
3.096,-0.01465
3.1,-0.02638
3.104,-0.01979
3.108,-0.00994
3.112,-0.03018
3.116,-0.00866
3.12,-0.03361
3.124,-0.03416
3.128,-0.06642
3.132,-0.11376
3.136,-0.12495
3.14,-0.14033
3.144,-0.09782
3.148,0.02939
3.152,0.21495
3.156,0.41742
3.16,0.66265
3.164,0.81298
3.168,0.97484
3.172,0.98244
3.176,0.88088
3.18,0.70814
3.184,0.49148
3.188,0.23897
3.192,0.05946
3.196,-0.0595
3.2,-0.14127
3.204,-0.20321
3.208,-0.14379
3.212,-0.11544
3.216,-0.08893
3.22,-0.02018
3.224,-0.02035
3.228,-0.01211
3.232,-0.03756
3.236,0.00438
3.24,0.00724
3.244,-0.01044
3.248,-0.00781
3.252,-0.01534
3.256,-0.00996
3.26,-0.02058
3.264,-0.01248
3.268,-0.00586
3.272,-0.02366
3.276,-0.03372
3.28,-0.02861
3.284,-0.02773
3.288,-0.02616
3.292,-0.02774
3.296,-0.00794
3.3,-0.0237
3.304,-0.01681
3.308,-0.03226
3.312,0.01094
3.316,-0.00312
3.32,-0.02219
3.324,-0.02453
3.328,-0.01436
3.332,-0.0208
3.336,0.01241
3.34,0.01851
3.344,-0.01698
3.348,-0.00517
3.352,-0.03072
3.356,0.00505
3.36,0.01148
3.364,0.0261
3.368,0.021
3.372,0.03999
3.376,0.04687
3.38,0.04009
3.384,0.05828
3.388,0.05006
3.392,0.07922
3.396,0.07953
3.4,0.11495
3.404,0.10458
3.408,0.09719
3.412,0.12826
3.416,0.15768
3.42,0.1523
3.424,0.16737
3.428,0.2025
3.432,0.19632
3.436,0.20816
3.44,0.19811
3.444,0.20172
3.448,0.18454
3.452,0.1819
3.456,0.18964
3.46,0.22126
3.464,0.21586
3.468,0.16932
3.472,0.1977
3.476,0.16126
3.48,0.15812
3.484,0.15427
3.488,0.14256
3.492,0.13051
3.496,0.09439
3.5,0.11287
3.504,0.11299
3.508,0.08493
3.512,0.07633
3.516,0.06926
3.52,0.06077
3.524,0.04612
3.528,0.02278
3.532,0.04716
3.536,0.00301
3.54,0.02257
3.544,-0.00089
3.548,0.01365
3.552,0.0268
3.556,-0.00395
3.56,0.01443
3.564,-0.02307
3.568,-0.00396
3.572,-0.0347
3.576,-0.03662
3.58,-0.00276
3.584,-0.00597
3.588,0.01928
3.592,-0.0114
3.596,0.02434
3.6,-0.02314
3.604,-0.01788
3.608,-0.03532
3.612,0.00567
3.616,-0.01171
3.62,-0.01369
3.624,-0.00695
3.628,0.00212
3.632,-0.00622
3.636,0.00373
3.64,0.01001
3.644,-0.00045
3.648,0.01489
3.652,0.03426
3.656,0.03896
3.66,0.05884
3.664,0.06333
3.668,0.08431
3.672,0.06529
3.676,0.07524
3.68,0.09934
3.684,0.04275
3.688,0.09995
3.692,0.0903
3.696,0.08229
3.7,0.04804
3.704,0.03963
3.708,-0.00319
3.712,0.05908
3.716,0.00585
3.72,0.02444
3.724,0.01459
3.728,0.03822
3.732,-0.00178
3.736,-0.0119
3.74,-0.00209
3.744,-0.00443
3.748,-0.03021
3.752,-0.02953
3.756,-0.01496
3.76,-0.00902
3.764,-0.0322
3.768,-0.01802
3.772,-0.01869
3.776,-0.03345
3.78,0.02313
3.784,-0.00587
3.788,0.01974
3.792,-0.03887
3.796,-0.02951
3.8,-0.06242
3.804,-0.09732
3.808,-0.14018
3.812,-0.10507
3.816,0.01669
3.82,0.1831
3.824,0.35106
3.828,0.56977
3.832,0.76261
3.836,0.93385
3.84,0.9912
3.844,0.94886
3.848,0.80996
3.852,0.58782
3.856,0.38865
3.86,0.167
3.864,-0.01593
3.868,-0.13544
3.872,-0.14221
3.876,-0.14665
3.88,-0.13622
3.884,-0.10073
3.888,-0.04484
3.892,-0.00973
3.896,0.00949
3.9,-0.00165
3.904,0.00312
3.908,0.0027
3.912,0.00356
3.916,0.0167
3.92,-0.02114
3.924,0.00446
3.928,0.01764
3.932,0.02775
3.936,-0.00455
3.94,-0.00158
3.944,0.0212
3.948,-0.01163
3.952,-0.03043
3.956,-0.00022
3.96,-0.00022
3.964,0.00399
3.968,0.02372
3.972,0.0215
3.976,0.00291
3.98,-0.00139
3.984,0.01179
3.988,0.02796
3.992,0.01174
3.996,0.01354
4.0,0.00523
4.004,0.02318
4.008,0.02625
4.012,0.01393
4.016,0.01353
4.02,0.01265
4.024,0.03022
4.028,0.04327
4.032,0.03835
4.036,0.01151
4.04,0.03727
4.044,0.03515
4.048,0.07925
4.052,0.05256
4.056,0.08018
4.06,0.06964
4.064,0.12732
4.068,0.08902
4.072,0.12841
4.076,0.12836
4.08,0.13162
4.084,0.18296
4.088,0.15552
4.092,0.19682
4.096,0.18169
4.1,0.21114
4.104,0.22048
4.108,0.22034
4.112,0.21487
4.116,0.21451
4.12,0.22491
4.124,0.2482
4.128,0.21451
4.132,0.19494
4.136,0.2083
4.14,0.20724
4.144,0.18859
4.148,0.15327
4.152,0.19105
4.156,0.17586
4.16,0.16377
4.164,0.15434
4.168,0.11261
4.172,0.11484
4.176,0.10279
4.18,0.12422
4.184,0.08818
4.188,0.06755
4.192,0.05174
4.196,0.05461
4.2,0.06792
4.204,0.0725
4.208,0.04304
4.212,0.0375
4.216,0.02329
4.22,0.06252
4.224,0.01937
4.228,0.03352
4.232,0.00934
4.236,0.03607
4.24,0.01873
4.244,0.02776
4.248,-0.0048
4.252,0.01127
4.256,-0.01953
4.26,-0.00151
4.264,-0.00135
4.268,-0.00564
4.272,0.01541
4.276,0.01424
4.28,0.02497
4.284,0.02036
4.288,0.0056
4.292,0.01294
4.296,0.01018
4.3,0.01245
4.304,0.01452
4.308,0.01461
4.312,0.00096
4.316,0.01283
4.32,0.0081
4.324,0.01444
4.328,0.00932
4.332,0.00825
4.336,0.03862
4.34,-0.02237
4.344,0.01147
4.348,0.01554
4.352,0.00176
4.356,0.01363
4.36,0.01342
4.364,0.00042
4.368,0.01059
4.372,0.00452
4.376,0.01846
4.38,0.0167
4.384,0.0022
4.388,0.01514
4.392,0.03792
4.396,0.01316
4.4,0.0021
4.404,0.04714
4.408,0.02316
4.412,0.0476
4.416,0.03764
4.42,0.07384
4.424,0.06973
4.428,0.09275
4.432,0.07723
4.436,0.10289
4.44,0.12533
4.444,0.14526
4.448,0.1077
4.452,0.08018
4.456,0.05767
4.46,0.08511
4.464,0.07606
4.468,0.06581
4.472,0.06006
4.476,0.04539
4.48,0.03327
4.484,0.04761
4.488,0.01283
4.492,0.03955
4.496,0.022
4.5,0.02009
4.504,0.0508
4.508,-0.00425
4.512,0.00044
4.516,-0.00299
4.52,0.00703
4.524,-0.00495
4.528,0.02028
4.532,0.02576
4.536,0.01812
4.54,-0.00288
4.544,0.03019
4.548,0.02074
4.552,-0.02059
4.556,-0.01454
4.56,-0.0131
4.564,-0.042
4.568,-0.09298
4.572,-0.1122
4.576,-0.04805
4.58,0.04983
4.584,0.22998
4.588,0.41926
4.592,0.65242
4.596,0.83992
4.6,0.99677
4.604,1.00927
4.608,0.95858
4.612,0.7719
4.616,0.53744
4.62,0.30671
4.624,0.1201
4.628,-0.04411
4.632,-0.10826
4.636,-0.15826
4.64,-0.11337
4.644,-0.11235
4.648,-0.03619
4.652,-0.024
4.656,0.01027
4.66,-0.00405
4.664,0.02563
4.668,0.00929
4.672,-0.01037
4.676,0.02398
4.68,0.02606
4.684,0.03286
4.688,0.00466
4.692,0.01662
4.696,0.01495
4.7,0.01102
4.704,0.05114
4.708,-0.01056
4.712,0.04976
4.716,0.03516
4.72,0.02435
4.724,-0.03377
4.728,0.0148
4.732,0.03659
4.736,0.04036
4.74,0.03266
4.744,0.02255
4.748,0.0249
4.752,-0.00112
4.756,0.02617
4.76,0.03344
4.764,0.04855
4.768,0.03921
4.772,0.03924
4.776,0.03312
4.78,0.0418
4.784,0.04327
4.788,0.07601
4.792,0.05918
4.796,0.06798
4.8,0.08745
4.804,0.05614
4.808,0.07243
4.812,0.08461
4.816,0.09198
4.82,0.11521
4.824,0.10849
4.828,0.11547
4.832,0.12455
4.836,0.16315
4.84,0.1701
4.844,0.18816
4.848,0.16363
4.852,0.22036
4.856,0.21697
4.86,0.26138
4.864,0.2391
4.868,0.2212
4.872,0.2592
4.876,0.25614
4.88,0.25114
4.884,0.24156
4.888,0.21021
4.892,0.24682
4.896,0.22475
4.9,0.20373
4.904,0.21018
4.908,0.22304
4.912,0.21261
4.916,0.17433
4.92,0.20334
4.924,0.16411
4.928,0.14204
4.932,0.1437
4.936,0.11194
4.94,0.12827
4.944,0.09876
4.948,0.08483
4.952,0.08183
4.956,0.08778
4.96,0.09145
4.964,0.06649
4.968,0.08172
4.972,0.07289
4.976,0.04398
4.98,0.06208
4.984,0.07487
4.988,0.05044
4.992,0.04081
4.996,0.04817
5.0,0.00405
5.004,0.04957
5.008,0.01001
5.012,0.04524
5.016,0.02175
5.02,0.03064
5.024,0.05966
5.028,0.02727
5.032,0.00184
5.036,0.0365
5.04,0.0078
5.044,0.03226
5.048,0.04188
5.052,0.0252
5.056,0.05337
5.06,0.01766
5.064,0.03283
5.068,0.0404
5.072,0.00409
5.076,0.05214
5.08,0.03708
5.084,0.02105
5.088,-0.005
5.092,-0.00045
5.096,0.02175
5.1,0.02773
5.104,0.03292
5.108,0.0339
5.112,0.01811
5.116,0.02895
5.12,0.03064
5.124,0.02494
5.128,0.02956
5.132,0.04088
5.136,0.02183
5.14,0.03029
5.144,0.03443
5.148,0.03097
5.152,0.02239
5.156,0.02591
5.16,0.06062
5.164,0.0322
5.168,0.02463
5.172,0.017
5.176,0.04006
5.18,0.01796
5.184,0.01017
5.188,0.02955
5.192,0.02304
5.196,0.0163
5.2,0.0379
5.204,0.02971
5.208,0.02531
5.212,0.03641
5.216,0.03549
5.22,0.01787
5.224,0.03604
5.228,0.03033
5.232,0.014
5.236,0.02883
5.24,0.03157
5.244,0.00686
5.248,0.03108
5.252,0.05415
5.256,0.03097
5.26,-0.00296
5.264,0.00569
5.268,0.02285
5.272,0.02171
5.276,0.08188
5.28,0.02982
5.284,0.0321
5.288,0.03829
5.292,0.02914
5.296,0.03019
5.3,0.01934
5.304,0.03517
5.308,0.03734
5.312,0.02774
5.316,0.02455
5.32,0.04158
5.324,0.01945
5.328,0.02356
5.332,0.04217
5.336,0.01218
5.34,0.01143
5.344,0.02053
5.348,0.03086
5.352,0.06223
5.356,0.04413
5.36,0.00128
5.364,0.01014
5.368,0.06336
5.372,0.01414
5.376,0.03592
5.38,0.03719
5.384,0.02959
5.388,0.00527
5.392,0.0434
5.396,0.0325
5.4,0.03236
5.404,0.05166
5.408,0.06451
5.412,0.08822
5.416,0.10105
5.42,0.12171
5.424,0.10223
5.428,0.13594
5.432,0.14713
5.436,0.11657
5.44,0.13237
5.444,0.10314
5.448,0.11527
5.452,0.07522
5.456,0.06861
5.46,0.09198
5.464,0.04116
5.468,0.04215
5.472,0.05714
5.476,0.04548
5.48,0.02728
5.484,0.02058
5.488,0.01753
5.492,0.02282
5.496,0.03112
5.5,0.04983
5.504,0.03996
5.508,0.03579
5.512,0.02653
5.516,0.02236
5.52,0.00174
5.524,0.04312
5.528,0.03407
5.532,0.05287
5.536,0.0193
5.54,0.03492
5.544,0.01821
5.548,0.03582
5.552,-0.0613
5.556,-0.09026
5.56,-0.08955
5.564,-0.04212
5.568,0.08647
5.572,0.2357
5.576,0.42866
5.58,0.63343
5.584,0.83061
5.588,0.97636
5.592,1.02287
5.596,0.95387
5.6,0.7898
5.604,0.57847
5.608,0.35535
5.612,0.15317
5.616,0.00782
5.62,-0.10205
5.624,-0.10962
5.628,-0.14044
5.632,-0.08638
5.636,-0.06187
5.64,-0.02007
5.644,0.02254
5.648,0.01839
5.652,0.04813
5.656,0.05175
5.66,-0.00583
5.664,0.05037
5.668,0.01759
5.672,0.02477
5.676,0.03275
5.68,0.03769
5.684,-0.00816
5.688,0.05174
5.692,0.043
5.696,0.02725
5.7,0.03456
5.704,0.02834
5.708,0.00533
5.712,0.01629
5.716,0.0253
5.72,0.02354
5.724,0.03712
5.728,0.03862
5.732,0.02095
5.736,0.00072
5.74,0.0337
5.744,0.02144
5.748,0.02624
5.752,0.05055
5.756,0.03189
5.76,0.04384
5.764,0.03703
5.768,0.01995
5.772,0.00596
5.776,0.05612
5.78,0.04854
5.784,0.06236
5.788,0.08495
5.792,0.05316
5.796,0.09026
5.8,0.11023
5.804,0.12157
5.808,0.0932
5.812,0.11823
5.816,0.11572
5.82,0.1486
5.824,0.17622
5.828,0.14409
5.832,0.20082
5.836,0.19726
5.84,0.18644
5.844,0.21424
5.848,0.19959
5.852,0.23707
5.856,0.24725
5.86,0.2389
5.864,0.24719
5.868,0.24101
5.872,0.24216
5.876,0.2625
5.88,0.23123
5.884,0.24435
5.888,0.23595
5.892,0.22897
5.896,0.21473
5.9,0.19717
5.904,0.20615
5.908,0.18093
5.912,0.19351
5.916,0.16074
5.92,0.16029
5.924,0.1577
5.928,0.11767
5.932,0.11313
5.936,0.1096
5.94,0.05662
5.944,0.09723
5.948,0.06376
5.952,0.07171
5.956,0.06457
5.96,0.05393
5.964,0.06099
5.968,0.04507
5.972,0.07166
5.976,0.03446
5.98,0.05481
5.984,0.04312
5.988,0.02802
5.992,0.03044
5.996,0.03318
6.0,0.02397
6.004,0.04458
6.008,0.03142
6.012,0.01908
6.016,0.00842
6.02,0.00024
6.024,0.03298
6.028,0.018
6.032,0.02776
6.036,0.00607
6.04,0.03996
6.044,0.03601
6.048,0.00428
6.052,0.04251
6.056,0.03936
6.06,0.00842
6.064,0.03352
6.068,0.03997
6.072,0.01875
6.076,0.02188
6.08,0.01907
6.084,0.00377
6.088,-0.00343
6.092,0.01234
6.096,0.03749
6.1,0.03029
6.104,0.03508
6.108,0.02943
6.112,0.01976
6.116,0.01252
6.12,0.04611
6.124,0.05761
6.128,0.02655
6.132,0.02125
6.136,0.01993
6.14,0.03229
6.144,0.04714
6.148,0.03159
6.152,0.01467
6.156,0.01449
6.16,0.02981
6.164,0.01423
6.168,0.03134
6.172,0.02807
6.176,0.0151
6.18,0.02205
6.184,0.03153
6.188,0.02644
6.192,0.04236
6.196,0.0281
6.2,0.0269
6.204,0.00426
6.208,0.0306
6.212,0.01303
6.216,0.03898
6.22,0.01779
6.224,0.0271
6.228,0.05696
6.232,0.02725
6.236,0.00321
6.24,0.02203
6.244,0.03726
6.248,0.04185
6.252,0.04895
6.256,0.07256
6.26,0.06002
6.264,0.06424
6.268,0.12005
6.272,0.12284
6.276,0.10334
6.28,0.13709
6.284,0.13743
6.288,0.1259
6.292,0.13386
6.296,0.11373
6.3,0.10878
6.304,0.09506
6.308,0.08822
6.312,0.07821
6.316,0.06454
6.32,0.04855
6.324,0.02627
6.328,0.037
6.332,0.0333
6.336,0.00604
6.34,0.03607
6.344,0.03385
6.348,0.0316
6.352,0.03152
6.356,0.04119
6.36,0.00811
6.364,0.0308
6.368,0.04449
6.372,0.03045
6.376,0.0213
6.38,0.02095
6.384,0.01172
6.388,0.00466
6.392,0.00961
6.396,0.01224
6.4,0.02575
6.404,-0.01362
6.408,-0.07435
6.412,-0.09054
6.416,-0.11895
6.42,-0.06292
6.424,0.11599
6.428,0.26112
6.432,0.46898
6.436,0.71461
6.44,0.88823
6.444,0.9904
6.448,1.02463
6.452,0.91684
6.456,0.7321
6.46,0.5116
6.464,0.26674
6.468,0.09611
6.472,-0.05974
6.476,-0.14391
6.48,-0.16359
6.484,-0.10905
6.488,-0.07723
6.492,-0.03267
6.496,-0.02401
6.5,0.00803
6.504,0.01019
6.508,0.02735
6.512,-0.00559
6.516,0.0437
6.52,0.02025
6.524,0.01495
6.528,0.03395
6.532,0.0188
6.536,0.02206
6.54,0.01717
6.544,0.02953
6.548,0.01528
6.552,0.00744
6.556,0.03556
6.56,0.02221
6.564,0.00074
6.568,0.02839
6.572,0.03148
6.576,0.01064
6.58,-0.00206
6.584,-0.00508
6.588,0.00977
6.592,0.01828
6.596,0.01569
6.6,0.03312
6.604,0.02935
6.608,0.0288
6.612,0.02817
6.616,0.03079
6.62,0.04741
6.624,0.01904
6.628,0.0247
6.632,0.06622
6.636,0.0526
6.64,0.05243
6.644,0.03724
6.648,0.08244
6.652,0.10099
6.656,0.06856
6.66,0.06853
6.664,0.11247
6.668,0.11697
6.672,0.11225
6.676,0.12548
6.68,0.14633
6.684,0.16873
6.688,0.16515
6.692,0.17676
6.696,0.18981
6.7,0.18466
6.704,0.21125
6.708,0.21897
6.712,0.22571
6.716,0.21652
6.72,0.23758
6.724,0.19868
6.728,0.23321
6.732,0.25412
6.736,0.22387
6.74,0.22134
6.744,0.22233
6.748,0.1918
6.752,0.20652
6.756,0.19652
6.76,0.20642
6.764,0.19595
6.768,0.15382
6.772,0.15133
6.776,0.11358
6.78,0.13632
6.784,0.11559
6.788,0.10106
6.792,0.09467
6.796,0.06768
6.8,0.07955
6.804,0.08021
6.808,0.06323
6.812,0.03378
6.816,0.03168
6.82,0.04767
6.824,0.01478
6.828,0.03512
6.832,0.05801
6.836,0.04019
6.84,0.05613
6.844,0.01023
6.848,0.01392
6.852,0.01438
6.856,-0.00989
6.86,-0.00787
6.864,9e-05
6.868,0.01916
6.872,0.02149
6.876,-0.00044
6.88,-0.0167
6.884,0.00267
6.888,0.01035
6.892,-0.0194
6.896,-0.01147
6.9,0.00733
6.904,0.01547
6.908,-0.00775
6.912,0.00354
6.916,-0.01553
6.92,0.01482
6.924,0.01701
6.928,-0.00393
6.932,-0.00313
6.936,0.02529
6.94,0.03079
6.944,0.00955
6.948,-0.02245
6.952,0.00517
6.956,-0.00567
6.96,0.01652
6.964,0.00353
6.968,0.0206
6.972,-0.02027
6.976,0.03424
6.98,-0.00908
6.984,0.00104
6.988,-0.00894
6.992,-0.01497
6.996,0.03293
7.0,-0.01418
7.004,0.01658
7.008,0.0401
7.012,-0.00492
7.016,-0.00935
7.02,0.01975
7.024,0.00056
7.028,0.01981
7.032,0.00516
7.036,0.00113
7.04,0.0113
7.044,0.00634
7.048,0.01787
7.052,-0.02027
7.056,0.00681
7.06,0.00218
7.064,0.01472
7.068,-0.0121
7.072,-0.00434
7.076,-0.00524
7.08,0.01962
7.084,-0.00612
7.088,0.02499
7.092,0.00543
7.096,0.03896
7.1,0.02236
7.104,0.02214
7.108,0.01112
7.112,0.02738
7.116,0.01155
7.12,-0.00598
7.124,0.01954
7.128,0.01262
7.132,0.00017
7.136,0.01046
7.14,0.03133
7.144,0.0244
7.148,4e-05
7.152,0.02499
7.156,0.02984
7.16,0.03505
7.164,0.04728
7.168,0.01185
7.172,0.03081
7.176,0.06778
7.18,0.09723
7.184,0.09719
7.188,0.05849
7.192,0.12059
7.196,0.10276
7.2,0.10234
7.204,0.0967
7.208,0.11422
7.212,0.08277
7.216,0.06256
7.22,0.07876
7.224,0.03258
7.228,0.04078
7.232,0.04575
7.236,0.00087
7.24,-0.00961
7.244,-0.00178
7.248,-0.00759
7.252,-0.00389
7.256,-0.03021
7.26,-0.00645
7.264,0.0031
7.268,-0.0039
7.272,0.00038
7.276,0.01789
7.28,-0.01392
7.284,0.00463
7.288,-0.03086
7.292,-0.01116
7.296,-0.00186
7.3,-0.01131
7.304,-0.00357
7.308,0.00086
7.312,-0.0609
7.316,-0.05048
7.32,-0.0733
7.324,-0.11101
7.328,-0.08472
7.332,0.01324
7.336,0.20163
7.34,0.36205
7.344,0.58119
7.348,0.79579
7.352,0.92258
7.356,1.01187
7.36,0.90887
7.364,0.78172
7.368,0.54989
7.372,0.35465
7.376,0.12278
7.38,-0.04006
7.384,-0.15435
7.388,-0.17778
7.392,-0.14038
7.396,-0.15202
7.4,-0.09055
7.404,-0.03037
7.408,-0.01235
7.412,-0.02859
7.416,-0.002
7.42,-0.03182
7.424,-0.0038
7.428,-0.01181
7.432,-0.00012
7.436,-0.00692
7.44,-0.01854
7.444,0.00527
7.448,-0.0027
7.452,-0.00117
7.456,0.00555
7.46,-0.02224
7.464,0.00387
7.468,0.00349
7.472,0.01667
7.476,-0.00167
7.48,0.00186
7.484,-0.00487
7.488,-0.0163
7.492,-0.00183
7.496,0.0033
7.5,-0.00678
7.504,0.01333
7.508,0.00947
7.512,0.00907
7.516,-0.00154
7.52,0.03686
7.524,0.0121
7.528,-0.0038
7.532,0.01244
7.536,0.0162
7.54,0.00709
7.544,0.00016
7.548,0.043
7.552,-0.00943
7.556,0.06313
7.56,0.04631
7.564,0.04045
7.568,0.07643
7.572,0.06703
7.576,0.08035
7.58,0.08383
7.584,0.12219
7.588,0.10714
7.592,0.12453
7.596,0.13847
7.6,0.14823
7.604,0.14674
7.608,0.128
7.612,0.1797
7.616,0.20106
7.62,0.19524
7.624,0.16356
7.628,0.18357
7.632,0.21018
7.636,0.22634
7.64,0.20024
7.644,0.21753
7.648,0.18432
7.652,0.21269
7.656,0.19709
7.66,0.1681
7.664,0.18734
7.668,0.17916
7.672,0.13565
7.676,0.15288
7.68,0.13562
7.684,0.08011
7.688,0.08709
7.692,0.09234
7.696,0.0752
7.7,0.05536
7.704,0.02628
7.708,0.0422
7.712,0.02725
7.716,0.05961
7.72,0.01956
7.724,0.01505
7.728,0.03362
7.732,-0.00288
7.736,-0.00143
7.74,0.01993
7.744,0.01211
7.748,-0.02579
7.752,-0.02792
7.756,0.00211
7.76,-0.01426
7.764,-0.01515
7.768,0.00978
7.772,-0.04027
7.776,-0.00108
7.78,-0.00812
7.784,-0.01234
7.788,-0.02738
7.792,-0.03526
7.796,-0.01045
7.8,-0.01294
7.804,-0.03804
7.808,0.01998
7.812,-0.01811
7.816,0.0007
7.82,-0.0127
7.824,0.00737
7.828,-0.02802
7.832,-0.01868
7.836,-0.04666
7.84,0.00655
7.844,-0.0054
7.848,-0.0265
7.852,-0.01294
7.856,-0.01004
7.86,-0.02099
7.864,-0.03004
7.868,-0.03875
7.872,-0.03757
7.876,-0.01277
7.88,-0.01082
7.884,-0.00153
7.888,-0.00643
7.892,-0.03194
7.896,-0.01948
7.9,-0.00812
7.904,-0.01076
7.908,-0.01699
7.912,-0.01912
7.916,-0.0198
7.92,-0.03183
7.924,-0.01465
7.928,-0.0281
7.932,-0.02411
7.936,-0.01551
7.94,-0.0159
7.944,-0.03872
7.948,-0.05374
7.952,-0.02624
7.956,-0.0158
7.96,-0.01731
7.964,-0.02769
7.968,-0.00666
7.972,-0.02686
7.976,-0.01653
7.98,-0.01056
7.984,-0.05938
7.988,-0.04428
7.992,-0.01827
7.996,-0.03335
8.0,0.00967
8.004,0.00531
8.008,-0.01378
8.012,0.01788
8.016,0.02397
8.02,-0.01403
8.024,0.0155
8.028,0.04124
8.032,0.06134
8.036,0.0632
8.04,0.06021
8.044,0.08952
8.048,0.07838
8.052,0.08739
8.056,0.04922
8.06,0.05194
8.064,0.06061
8.068,0.04797
8.072,0.01269
8.076,0.01698
8.08,0.01078
8.084,0.00942
8.088,-0.01645
8.092,-0.01826
8.096,0.00396
8.1,-0.0105
8.104,-0.02381
8.108,-0.01401
8.112,-0.00283
8.116,-0.00657
8.12,-0.03904
8.124,-0.00881
8.128,-0.02805
8.132,-0.04835
8.136,-0.03452
8.14,-0.02157
8.144,-0.04501
8.148,-0.02199
8.152,-0.02368
8.156,-0.04382
8.16,-0.00342
8.164,-0.05767
8.168,-0.08795
8.172,-0.10087
8.176,-0.12078
8.18,-0.10266
8.184,0.02675
8.188,0.14431
8.192,0.37449
8.196,0.56008
8.2,0.75586
8.204,0.90784
8.208,0.97439
8.212,0.90957
8.216,0.74906
8.22,0.56286
8.224,0.31105
8.228,0.10011
8.232,-0.04816
8.236,-0.14147
8.24,-0.17528
8.244,-0.20747
8.248,-0.14976
8.252,-0.10454
8.256,-0.05431
8.26,-0.02804
8.264,-0.08106
8.268,-0.00631
8.272,-0.04431
8.276,-0.01929
8.28,-0.02125
8.284,-0.03946
8.288,-0.01024
8.292,-0.03079
8.296,-0.01894
8.3,-0.02859
8.304,-0.01547
8.308,-0.03105
8.312,-0.03326
8.316,-0.01651
8.32,-0.0312
8.324,-0.01937
8.328,-0.02658
8.332,-0.03169
8.336,-0.0366
8.34,-0.00226
8.344,-0.0542
8.348,-0.02117
8.352,0.00327
8.356,-0.02001
8.36,0.00834
8.364,-0.0389
8.368,-0.02421
8.372,-0.00389
8.376,-0.01895
8.38,-0.0286
8.384,-0.02778
8.388,-0.01268
8.392,0.00349
8.396,0.03422
8.4,-0.01784
8.404,-0.01714
8.408,0.00976
8.412,0.02177
8.416,0.04236
8.42,0.02855
8.424,0.05013
8.428,0.06614
8.432,0.08426
8.436,0.08953
8.44,0.11552
8.444,0.1395
8.448,0.12424
8.452,0.14065
8.456,0.13686
8.46,0.13159
8.464,0.18574
8.468,0.1624
8.472,0.16529
8.476,0.20403
8.48,0.1991
8.484,0.16853
8.488,0.18832
8.492,0.18718
8.496,0.20694
8.5,0.17061
8.504,0.1894
8.508,0.16225
8.512,0.15899
8.516,0.12764
8.52,0.15806
8.524,0.13411
8.528,0.10751
8.532,0.11126
8.536,0.09164
8.54,0.08691
8.544,0.09916
8.548,0.07365
8.552,0.0584
8.556,0.0409
8.56,0.02046
8.564,0.04506
8.568,0.01526
8.572,-0.01014
8.576,0.01096
8.58,0.00764
8.584,0.00412
8.588,-0.01179
8.592,-0.00487
8.596,-0.02216
8.6,0.00437
8.604,-0.0143
8.608,-0.02136
8.612,-0.02629
8.616,-0.03729
8.62,-0.06162
8.624,-0.02849
8.628,-0.0264
8.632,-0.01617
8.636,-0.03201
8.64,-0.02827
8.644,-0.03933
8.648,-0.05112
8.652,-0.01155
8.656,-0.02625
8.66,-0.00552
8.664,-0.05842
8.668,-0.04822
8.672,-0.02678
8.676,0.00198
8.68,-0.0188
8.684,-0.00898
8.688,-0.02988
8.692,-0.05155
8.696,-0.04376
8.7,-0.01725
8.704,-0.05443
8.708,-0.03638
8.712,-0.02286
8.716,-0.02638
8.72,-0.02767
8.724,-0.00093
8.728,-0.04207
8.732,-0.02495
8.736,-0.02642
8.74,-0.028
8.744,-0.01793
8.748,-0.01809
8.752,-0.02099
8.756,-0.02828
8.76,-0.02347
8.764,-0.03057
8.768,-0.03442
8.772,-0.02441
8.776,-0.01253
8.78,-0.06218
8.784,-0.00078
8.788,-0.03471
8.792,-0.02402
8.796,-0.02122
8.8,-0.03544
8.804,-0.01736
8.808,-0.05091
8.812,-0.04129
8.816,-0.02013
8.82,-0.02872
8.824,-0.02797
8.828,-0.03742
8.832,-0.03661
8.836,-0.05255
8.84,-0.02754
8.844,0.00446
8.848,0.00796
8.852,-0.0393
8.856,-0.04722
8.86,-0.0302
8.864,-0.02802
8.868,-0.04705
8.872,-0.00404
8.876,-0.04903
8.88,-0.03493
8.884,-0.05483
8.888,-0.00602
8.892,-0.02709
8.896,-0.0401
8.9,-0.03286
8.904,-0.03657
8.908,-0.03767
8.912,-0.03536
8.916,-0.01971
8.92,-0.0171
8.924,-0.01384
8.928,-0.07414
8.932,-0.04428
8.936,-0.04473
8.94,-0.01869
8.944,-0.012
8.948,-0.01522
8.952,-0.04243
8.956,-0.04687
8.96,-0.03355
8.964,-0.03363
8.968,-0.03542
8.972,-0.03031
8.976,0.00461
8.98,-0.02808
8.984,-0.05261
8.988,-0.00697
8.992,0.00272
8.996,0.01169
9.0,0.04666
9.004,0.04624
9.008,0.04394
9.012,0.07083
9.016,0.06053
9.02,0.0634
9.024,0.05428
9.028,0.07491
9.032,0.02806
9.036,0.04097
9.04,0.01117
9.044,0.01016
9.048,0.02617
9.052,0.00699
9.056,-0.01423
9.06,-0.03092
9.064,-0.02406
9.068,-0.01207
9.072,-0.03735
9.076,-0.03256
9.08,-0.00618
9.084,-0.01993
9.088,-0.03054
9.092,-0.04036
9.096,-0.00202
9.1,-0.03331
9.104,-0.04916
9.108,-0.04434
9.112,-0.0389
9.116,-0.0133
9.12,-0.02847
9.124,-0.02198
9.128,-0.04467
9.132,-0.04746
9.136,-0.07003
9.14,-0.141
9.144,-0.14377
9.148,-0.1363
9.152,-0.04806
9.156,0.07747
9.16,0.25133
9.164,0.48327
9.168,0.6979
9.172,0.87861
9.176,0.92466
9.18,0.94311
9.184,0.85756
9.188,0.61754
9.192,0.41677
9.196,0.19463
9.2,0.01925
9.204,-0.12005
9.208,-0.20448
9.212,-0.21802
9.216,-0.14462
9.22,-0.10513
9.224,-0.08806
9.228,-0.03749
9.232,-0.05127
9.236,-0.0328
9.24,-0.01635
9.244,-0.03118
9.248,-0.01268
9.252,-0.0274
9.256,-0.03077
9.26,-0.02273
9.264,-0.03885
9.268,-0.01533
9.272,-0.02
9.276,-0.02224
9.28,-0.04199
9.284,-0.03833
9.288,-0.00388
9.292,-0.01984
9.296,-0.02719
9.3,-0.03545
9.304,-0.04397
9.308,-0.02849
9.312,-0.01474
9.316,-0.01364
9.32,-0.03817
9.324,-0.033
9.328,-0.03265
9.332,-0.05036
9.336,-0.02132
9.34,-0.05082
9.344,-0.01494
9.348,-0.02534
9.352,-0.00952
9.356,-0.00643
9.36,-0.02459
9.364,0.01498
9.368,-0.00037
9.372,0.01907
9.376,0.00976
9.38,0.01221
9.384,0.06031
9.388,0.05417
9.392,0.03804
9.396,0.08283
9.4,0.0799
9.404,0.08695
9.408,0.09723
9.412,0.12337
9.416,0.11634
9.42,0.13698
9.424,0.15887
9.428,0.1418
9.432,0.16438
9.436,0.1505
9.44,0.17157
9.444,0.18327
9.448,0.18687
9.452,0.20515
9.456,0.19225
9.46,0.19342
9.464,0.18026
9.468,0.21427
9.472,0.15228
9.476,0.16375
9.48,0.17654
9.484,0.16023
9.488,0.15356
9.492,0.14837
9.496,0.11059
9.5,0.09499
9.504,0.10617
9.508,0.0675
9.512,0.09064
9.516,0.0794
9.52,0.04507
9.524,0.03438
9.528,0.06549
9.532,0.01156
9.536,0.01113
9.54,-0.01023
9.544,0.02039
9.548,-0.01744
9.552,-0.01351
9.556,0.00022
9.56,-0.01606
9.564,-0.00826
9.568,-0.02541
9.572,-0.03183
9.576,-0.00301
9.58,-0.00438
9.584,-0.00246
9.588,-0.01132
9.592,-0.00727
9.596,-0.03038
9.6,0.00781
9.604,-0.03929
9.608,0.02228
9.612,-0.01619
9.616,-0.00326
9.62,-0.03443
9.624,-0.03798
9.628,-0.01714
9.632,-0.04691
9.636,-0.04065
9.64,-0.02132
9.644,-0.0256
9.648,-0.02857
9.652,-0.02414
9.656,-0.01695
9.66,-0.03936
9.664,-0.03449
9.668,-0.05259
9.672,0.00078
9.676,-0.02811
9.68,-0.01072
9.684,-0.00523
9.688,-0.01161
9.692,-0.02118
9.696,-0.02928
9.7,-0.04604
9.704,0.00067
9.708,-0.00195
9.712,-0.01608
9.716,-0.02483
9.72,-0.03756
9.724,-0.03638
9.728,-0.03804
9.732,-0.03717
9.736,-0.02624
9.74,0.0029
9.744,-0.00879
9.748,-0.02941
9.752,-0.017
9.756,-0.01137
9.76,-0.02191
9.764,-0.00221
9.768,-0.03228
9.772,-0.02652
9.776,-0.00709
9.78,-0.01877
9.784,-0.05121
9.788,-0.01702
9.792,-0.03233
9.796,-0.02432
9.8,-0.01206
9.804,0.00333
9.808,-0.00942
9.812,-0.03026
9.816,-0.02255
9.82,-0.03342
9.824,0.00159
9.828,-0.0037
9.832,-0.05125
9.836,-0.02175
9.84,-0.01628
9.844,-0.02071
9.848,-0.04229
9.852,-0.03001
9.856,-0.00735
9.86,-0.03232
9.864,-0.01007
9.868,-0.02493
9.872,-0.02745
9.876,-0.00184
9.88,-0.03419
9.884,-0.02061
9.888,-0.03869
9.892,-0.03426
9.896,-0.0076
9.9,-0.0159
9.904,0.0158
9.908,-0.0075
9.912,-0.02246
9.916,-0.01299
9.92,-0.02081
9.924,-0.00104
9.928,-0.03362
9.932,-0.03105
9.936,-0.0277
9.94,-0.00212
9.944,-0.02641
9.948,-0.02473
9.952,0.02545
9.956,-0.01391
9.96,-0.01509
9.964,-0.02535
9.968,0.01058
9.972,-0.00563
9.976,-0.02384
9.98,-0.01895
9.984,-0.01286
9.988,-0.00399
9.992,-0.02756
9.996,-0.01057
