t_seg,ecg_mV
0.0,-0.00072
0.004,-0.00089
0.008,-0.03315
0.012,0.00433
0.016,-0.01968
0.02,-0.06091
0.024,0.01661
0.028,-0.01596
0.032,-0.05883
0.036,-0.01078
0.04,-0.06408
0.044,0.00131
0.048,0.00642
0.052,0.00206
0.056,-0.03323
0.06,0.0565
0.064,0.01055
0.068,-0.06781
0.072,-0.03921
0.076,0.05804
0.08,-0.0354
0.084,-0.01483
0.088,0.01278
0.092,0.05162
0.096,0.01294
0.1,-0.02652
0.104,-0.02327
0.108,0.02447
0.112,-0.02409
0.116,-0.00694
0.12,-0.03085
0.124,-0.01964
0.128,-0.00826
0.132,-0.01645
0.136,-0.00207
0.14,-0.01188
0.144,-0.02756
0.148,0.06441
0.152,0.01982
0.156,0.06417
0.16,0.11819
0.164,0.13554
0.168,0.06056
0.172,0.06006
0.176,0.09446
0.18,0.06405
0.184,0.02427
0.188,0.12395
0.192,0.03774
0.196,0.00745
0.2,0.00105
0.204,-0.01784
0.208,-0.02584
0.212,0.04768
0.216,-0.02378
0.22,-0.02259
0.224,-0.03317
0.228,0.01015
0.232,-0.01265
0.236,-0.03838
0.24,-0.03204
0.244,-0.00792
0.248,0.00409
0.252,-0.05833
0.256,-0.05781
0.26,-0.00763
0.264,-0.03941
0.268,-0.03535
0.272,-0.0326
0.276,-0.02446
0.28,-0.06477
0.284,-0.03356
0.288,-0.11993
0.292,-0.13224
0.296,-0.14558
0.3,-0.12183
0.304,-0.03268
0.308,0.19159
0.312,0.33659
0.316,0.47851
0.32,0.75429
0.324,0.94535
0.328,0.97365
0.332,0.89187
0.336,0.80028
0.34,0.51808
0.344,0.29578
0.348,0.05998
0.352,-0.1041
0.356,-0.17447
0.36,-0.22301
0.364,-0.2075
0.368,-0.16304
0.372,-0.07456
0.376,0.01228
0.38,-0.04461
0.384,-0.02873
0.388,-0.07428
0.392,0.00419
0.396,-0.03375
0.4,-0.06044
0.404,-0.02977
0.408,-0.0173
0.412,-0.06701
0.416,0.01393
0.42,0.04052
0.424,0.00965
0.428,-0.02945
0.432,-0.0395
0.436,0.01606
0.44,-0.01493
0.444,-0.02268
0.448,0.00507
0.452,-0.0484
0.456,-0.02453
0.46,-0.08048
0.464,0.01419
0.468,-0.06023
0.472,0.02189
0.476,0.01553
0.48,0.0178
0.484,-0.0293
0.488,-0.00554
0.492,-0.00782
0.496,0.04746
0.5,-0.05284
0.504,-0.06108
0.508,-0.04026
0.512,-0.0254
0.516,0.0292
0.52,0.01137
0.524,-0.05205
0.528,0.00355
0.532,0.03079
0.536,0.03376
0.54,0.04103
0.544,0.03449
0.548,0.05824
0.552,0.06987
0.556,0.14726
0.56,0.04444
0.564,0.09627
0.568,0.16247
0.572,0.12701
0.576,0.16748
0.58,0.16385
0.584,0.19762
0.588,0.19965
0.592,0.24644
0.596,0.19573
0.6,0.27307
0.604,0.33291
0.608,0.28357
0.612,0.34867
0.616,0.30061
0.62,0.29322
0.624,0.29177
0.628,0.23006
0.632,0.25004
0.636,0.26321
0.64,0.17984
0.644,0.12855
0.648,0.11961
0.652,0.21211
0.656,0.04487
0.66,0.08448
0.664,0.1498
0.668,0.09879
0.672,0.03184
0.676,-0.00354
0.68,0.01577
0.684,0.07207
0.688,0.09138
0.692,0.01444
0.696,-0.00445
0.7,0.00082
0.704,0.00351
0.708,-0.05983
0.712,0.01265
0.716,0.00394
0.72,-0.03418
0.724,-0.04972
0.728,-0.09874
0.732,-0.07373
0.736,-0.16655
0.74,-0.19103
0.744,-0.09292
0.748,-0.02248
0.752,0.16313
0.756,0.43314
0.76,0.57117
0.764,0.74618
0.768,0.93014
0.772,0.97386
0.776,0.86252
0.78,0.79358
0.784,0.49104
0.788,0.2911
0.792,0.07425
0.796,-0.05359
0.8,-0.15708
0.804,-0.15933
0.808,-0.17895
0.812,-0.1687
0.816,-0.09583
0.82,-0.0367
0.824,0.01451
0.828,-0.03821
0.832,-0.03661
0.836,-0.05672
0.84,-0.07802
0.844,-0.00408
0.848,-0.04546
0.852,-0.09166
0.856,-0.00147
0.86,-0.03477
0.864,-0.04703
0.868,-0.06657
0.872,-0.08113
0.876,-0.03126
0.88,0.00498
0.884,-0.03966
0.888,-0.05186
0.892,-0.08706
0.896,0.01635
0.9,-0.02177
0.904,-0.0382
0.908,-0.09675
0.912,0.00687
0.916,-0.07976
0.92,-0.06069
0.924,-0.0057
0.928,0.02243
0.932,-0.06648
0.936,-0.02461
0.94,-0.04089
0.944,-0.01285
0.948,0.01667
0.952,-0.00282
0.956,-0.0355
0.96,-0.04208
0.964,0.01027
0.968,0.00397
0.972,0.01401
0.976,0.01474
0.98,0.0698
0.984,0.04458
0.988,0.06906
0.992,0.07097
0.996,0.06718
1.0,0.16265
1.004,0.12836
1.008,0.14896
1.012,0.13238
1.016,0.15925
1.02,0.20885
1.024,0.19578
1.028,0.27562
1.032,0.29331
1.036,0.22558
1.04,0.23909
1.044,0.30841
1.048,0.24859
1.052,0.31972
1.056,0.23863
1.06,0.23081
1.064,0.21151
1.068,0.20105
1.072,0.19732
1.076,0.18795
1.08,0.21355
1.084,0.16361
1.088,0.14626
1.092,0.07713
1.096,0.06424
1.1,0.12739
1.104,0.08304
1.108,0.02591
1.112,0.04898
1.116,0.05577
1.12,0.00737
1.124,0.00499
1.128,0.02831
1.132,-0.00797
1.136,-0.00532
1.14,0.03129
1.144,-0.01819
1.148,-0.04247
1.152,-0.05929
1.156,-0.11655
1.16,-0.10357
1.164,-0.08893
1.168,-0.04855
1.172,0.02859
1.176,0.178
1.18,0.4367
1.184,0.62564
1.188,0.7497
1.192,0.85932
1.196,1.06403
1.2,0.89392
1.204,0.65003
1.208,0.51121
1.212,0.20223
1.216,0.02583
1.22,-0.05537
1.224,-0.18499
1.228,-0.24067
1.232,-0.1677
1.236,-0.12877
1.24,-0.12513
1.244,0.0121
1.248,0.02271
1.252,-0.0077
1.256,-0.06459
1.26,0.02178
1.264,-0.04356
1.268,-0.02748
1.272,-0.01876
1.276,-0.01245
1.28,-0.05277
1.284,-0.03596
1.288,-0.07388
1.292,-0.01526
1.296,-0.10364
1.3,-0.01123
1.304,-0.02658
1.308,-0.0642
1.312,-0.00159
1.316,-0.10045
1.32,-0.02543
1.324,0.00395
1.328,-0.07552
1.332,-0.02126
1.336,-0.03916
1.34,-0.00702
1.344,-0.03866
1.348,-0.03904
1.352,-0.06065
1.356,-6e-05
1.36,0.02612
1.364,-0.07478
1.368,-0.0087
1.372,-0.02467
1.376,0.02718
1.38,-0.05002
1.384,0.0062
1.388,0.00699
1.392,0.08555
1.396,0.01145
1.4,0.05193
1.404,0.07894
1.408,0.06958
1.412,0.08303
1.416,0.11931
1.42,0.12237
1.424,0.0543
1.428,0.11201
1.432,0.11302
1.436,0.11591
1.44,0.17189
1.444,0.19058
1.448,0.15509
1.452,0.10685
1.456,0.11625
1.46,0.18961
1.464,0.19096
1.468,0.1714
1.472,0.20792
1.476,0.2216
1.48,0.1642
1.484,0.21992
1.488,0.1837
1.492,0.16815
1.496,0.15972
1.5,0.19904
1.504,0.18907
1.508,0.16487
1.512,0.12594
1.516,0.0716
1.52,0.10748
1.524,0.14793
1.528,0.12832
1.532,0.10516
1.536,0.02403
1.54,0.04939
1.544,0.05839
1.548,-0.00775
1.552,0.02603
1.556,0.03082
1.56,0.03967
1.564,0.00653
1.568,0.00174
1.572,0.05626
1.576,-0.00672
1.58,0.04604
1.584,0.0626
1.588,0.06774
1.592,0.08585
1.596,0.03696
1.6,0.10133
1.604,0.08608
1.608,0.08082
1.612,0.06692
1.616,0.08819
1.62,0.06385
1.624,0.05191
1.628,0.02027
1.632,0.03569
1.636,0.04545
1.64,-0.04651
1.644,-0.02113
1.648,-0.0165
1.652,-0.04461
1.656,-0.05074
1.66,-0.00486
1.664,-0.09373
1.668,-0.02263
1.672,-0.01356
1.676,-0.02862
1.68,-0.04901
1.684,-0.05934
1.688,-0.02479
1.692,0.02304
1.696,0.01012
1.7,0.01638
1.704,-0.00678
1.708,-0.07131
1.712,-0.05503
1.716,0.01045
1.72,-0.06761
1.724,-0.10368
1.728,-0.12576
1.732,-0.12546
1.736,-0.09045
1.74,-0.01211
1.744,0.2003
1.748,0.36529
1.752,0.61853
1.756,0.82022
1.76,0.93274
1.764,0.93606
1.768,0.91029
1.772,0.69958
1.776,0.51404
1.78,0.28268
1.784,0.06094
1.788,-0.12618
1.792,-0.1856
1.796,-0.17695
1.8,-0.1303
1.804,-0.18834
1.808,-0.1162
1.812,-0.0289
1.816,-0.03584
1.82,0.00744
1.824,0.00587
1.828,-0.0052
1.832,-0.1016
1.836,-0.01387
1.84,-0.04413
1.844,0.01214
1.848,-0.03002
1.852,-0.06072
1.856,-0.00903
1.86,0.00169
1.864,-0.00058
1.868,-0.01288
1.872,-0.0546
1.876,-0.03312
1.88,0.01641
1.884,-0.00206
1.888,-0.09236
1.892,-0.02029
1.896,-0.01494
1.9,-0.02304
1.904,-0.02341
1.908,0.02893
1.912,0.02008
1.916,0.0462
1.92,0.05741
1.924,0.03256
1.928,0.05092
1.932,0.06137
1.936,0.14271
1.94,0.09998
1.944,0.11399
1.948,0.13396
1.952,0.08523
1.956,0.09824
1.96,0.06212
1.964,0.05209
1.968,0.13482
1.972,0.03081
1.976,0.06282
1.98,0.094
1.984,0.12722
1.988,0.16102
1.992,0.06783
1.996,0.14183
2.0,0.14146
2.004,0.1883
2.008,0.13652
2.012,0.14128
2.016,0.1829
2.02,0.21116
2.024,0.13742
2.028,0.20316
2.032,0.16207
2.036,0.20691
2.04,0.17191
2.044,0.221
2.048,0.23266
2.052,0.25301
2.056,0.17071
2.06,0.2105
2.064,0.1584
2.068,0.1262
2.072,0.06302
2.076,0.0637
2.08,0.11585
2.084,0.13422
2.088,0.40311
2.092,0.54688
2.096,0.81873
2.1,0.99147
2.104,1.04049
2.108,1.01816
2.112,0.95192
2.116,0.73146
2.12,0.52876
2.124,0.22013
2.128,0.05631
2.132,-0.0642
2.136,-0.12555
2.14,-0.16293
2.144,-0.11685
2.148,-0.06035
2.152,-0.08284
2.156,-0.09073
2.16,-0.02078
2.164,-0.04422
2.168,0.02174
2.172,0.039
2.176,-0.00442
2.18,0.03406
2.184,-0.03017
2.188,-0.04543
2.192,-0.04334
2.196,-0.06469
2.2,-0.00425
2.204,-0.03078
2.208,-0.04217
2.212,-0.01877
2.216,-0.036
2.22,-0.01001
2.224,-0.03888
2.228,-0.0614
2.232,0.00745
2.236,-0.00848
2.24,0.03503
2.244,-0.01418
2.248,0.02291
2.252,0.04631
2.256,0.02578
2.26,0.04233
2.264,-0.02526
2.268,0.0474
2.272,0.00791
2.276,-0.01444
2.28,0.05251
2.284,0.00514
2.288,0.05706
2.292,0.02419
2.296,0.11028
2.3,0.13337
2.304,0.1434
2.308,0.13481
2.312,0.13277
2.316,0.16938
2.32,0.18531
2.324,0.1767
2.328,0.16198
2.332,0.13828
2.336,0.13741
2.34,0.17303
2.344,0.16633
2.348,0.15944
2.352,0.15414
2.356,0.22788
2.36,0.17525
2.364,0.244
2.368,0.18945
2.372,0.20882
2.376,0.20232
2.38,0.20531
2.384,0.2021
2.388,0.21842
2.392,0.26334
2.396,0.24252
2.4,0.26692
2.404,0.15375
2.408,0.14665
2.412,0.16599
2.416,0.17071
2.42,0.19096
2.424,0.13144
2.428,0.15558
2.432,-7e-05
2.436,0.01122
2.44,-0.11187
2.444,0.02501
2.448,0.04118
2.452,0.32927
2.456,0.42068
2.46,0.6875
2.464,0.8335
2.468,1.02535
2.472,1.09275
2.476,0.94903
2.48,0.76795
2.484,0.59373
2.488,0.27461
2.492,0.14563
2.496,-0.00344
2.5,-0.14851
2.504,-0.15274
2.508,-0.13042
2.512,-0.14416
2.516,-0.06396
2.52,-0.05543
2.524,-0.01851
2.528,-0.02856
2.532,-0.02891
2.536,0.03256
2.54,0.02725
2.544,0.02366
2.548,0.03834
2.552,0.02391
2.556,-0.04092
2.56,-0.06909
2.564,-0.0192
2.568,0.04199
2.572,0.01375
2.576,0.00416
2.58,-0.04005
2.584,0.02121
2.588,-0.07825
2.592,0.02644
2.596,0.00526
2.6,-0.04019
2.604,-0.02019
2.608,-0.01782
2.612,-0.0026
2.616,0.04039
2.62,0.10231
2.624,0.07909
2.628,0.10291
2.632,0.04613
2.636,0.14246
2.64,0.09684
2.644,0.16413
2.648,0.15891
2.652,0.04478
2.656,0.09569
2.66,0.08676
2.664,0.07584
2.668,-0.02677
2.672,0.05838
2.676,0.04945
2.68,0.10649
2.684,0.11336
2.688,0.08149
2.692,0.04536
2.696,0.05996
2.7,0.11095
2.704,0.15698
2.708,0.06581
2.712,0.15059
2.716,0.2031
2.72,0.16035
2.724,0.19259
2.728,0.29068
2.732,0.20125
2.736,0.18941
2.74,0.1836
2.744,0.23413
2.748,0.21941
2.752,0.19728
2.756,0.21892
2.76,0.17773
2.764,0.12371
2.768,0.03769
2.772,0.14953
2.776,0.21118
2.78,0.40978
2.784,0.57202
2.788,0.81592
2.792,1.00513
2.796,1.04283
2.8,1.08603
2.804,1.05399
2.808,0.85477
2.812,0.61844
2.816,0.3315
2.82,0.10701
2.824,0.03614
2.828,-0.09184
2.832,-0.14497
2.836,-0.16974
2.84,-0.09781
2.844,-0.05392
2.848,0.01428
2.852,0.02443
2.856,-0.031
2.86,-0.00971
2.864,0.04854
2.868,0.02207
2.872,-0.0761
2.876,-0.01219
2.88,-0.01593
2.884,-0.02494
2.888,-0.02266
2.892,-0.02746
2.896,0.01744
2.9,-0.03495
2.904,0.04985
2.908,-0.00807
2.912,-0.04783
2.916,0.01408
2.92,0.06042
2.924,-0.02705
2.928,-0.05832
2.932,-0.03205
2.936,0.04844
2.94,-0.00991
2.944,0.02174
2.948,-0.04645
2.952,0.04593
2.956,0.01904
2.96,0.00092
2.964,0.0201
2.968,0.02557
2.972,0.00973
2.976,0.05551
2.98,0.01606
2.984,0.01565
2.988,-1e-05
2.992,-0.00323
2.996,0.06574
3.0,0.02965
3.004,0.01018
3.008,0.01649
3.012,0.10164
3.016,0.05487
3.02,0.07348
3.024,0.11147
3.028,0.22323
3.032,0.06366
3.036,0.19113
3.04,0.10537
3.044,0.15079
3.048,0.2142
3.052,0.1728
3.056,0.16977
3.06,0.22065
3.064,0.21221
3.068,0.15544
3.072,0.20984
3.076,0.22926
3.08,0.18848
3.084,0.21294
3.088,0.23901
3.092,0.2258
3.096,0.22874
3.1,0.24905
3.104,0.17479
3.108,0.18681
3.112,0.2093
3.116,0.16311
3.12,0.16373
3.124,0.14819
3.128,0.15125
3.132,0.09862
3.136,0.1675
3.14,0.12226
3.144,0.13873
3.148,0.17128
3.152,0.13323
3.156,0.13411
3.16,0.16668
3.164,0.2056
3.168,0.11422
3.172,0.0872
3.176,0.1333
3.18,0.11292
3.184,0.14474
3.188,0.0628
3.192,0.09477
3.196,-0.0198
3.2,0.07045
3.204,-0.00286
3.208,0.03423
3.212,0.03218
3.216,-0.02384
3.22,0.01508
3.224,0.04549
3.228,-0.02149
3.232,-0.00486
3.236,0.03461
3.24,0.02978
3.244,-0.00324
3.248,-0.0054
3.252,0.00726
3.256,0.06647
3.26,0.05058
3.264,0.06621
3.268,0.04399
3.272,0.05994
3.276,0.00617
3.28,-0.04289
3.284,-0.04089
3.288,-0.034
3.292,-0.13299
3.296,-0.05722
3.3,0.00865
3.304,0.2119
3.308,0.33344
3.312,0.51596
3.316,0.71636
3.32,0.87306
3.324,0.99802
3.328,1.00001
3.332,0.90399
3.336,0.66392
3.34,0.51953
3.344,0.25604
3.348,0.00598
3.352,-0.07127
3.356,-0.1354
3.36,-0.1253
3.364,-0.18745
3.368,-0.06099
3.372,-0.0423
3.376,0.01055
3.38,0.01663
3.384,0.0414
3.388,-0.0342
3.392,0.06531
3.396,0.07557
3.4,-0.02934
3.404,0.05751
3.408,0.03274
3.412,0.03146
3.416,0.04539
3.42,0.01413
3.424,0.02698
3.428,0.06074
3.432,0.00228
3.436,-0.00538
3.44,0.08675
3.444,0.04852
3.448,-0.00785
3.452,-0.06987
3.456,-0.0359
3.46,0.08144
3.464,0.12333
3.468,-0.01037
3.472,0.00058
3.476,-0.0782
3.48,-0.01469
3.484,0.02026
3.488,0.04269
3.492,0.02459
3.496,0.05878
3.5,0.05383
3.504,0.04424
3.508,0.05009
3.512,0.06661
3.516,0.05803
3.52,0.07406
3.524,0.02817
3.528,0.13487
3.532,0.07743
3.536,0.02594
3.54,0.13643
3.544,0.12784
3.548,0.05833
3.552,0.15558
3.556,0.16716
3.56,0.15122
3.564,0.14865
3.568,0.17722
3.572,0.22766
3.576,0.24149
3.58,0.20467
3.584,0.26899
3.588,0.29849
3.592,0.31382
3.596,0.29025
3.6,0.39359
3.604,0.32879
3.608,0.37711
3.612,0.32631
3.616,0.27915
3.62,0.28137
3.624,0.33375
3.628,0.31025
3.632,0.31976
3.636,0.2552
3.64,0.16257
3.644,0.20031
3.648,0.16132
3.652,0.17999
3.656,0.15173
3.66,0.20027
3.664,0.14336
3.668,0.10897
3.672,0.11557
3.676,0.12503
3.68,0.07791
3.684,0.07458
3.688,0.0544
3.692,0.09937
3.696,0.07663
3.7,0.01825
3.704,-0.03162
3.708,0.02116
3.712,0.00594
3.716,-0.01181
3.72,0.01208
3.724,0.06722
3.728,-0.04208
3.732,-0.05781
3.736,-0.09899
3.74,-0.10381
3.744,-0.03904
3.748,0.13336
3.752,0.37038
3.756,0.52683
3.76,0.74517
3.764,0.94744
3.768,0.99146
3.772,0.99529
3.776,0.80148
3.78,0.61333
3.784,0.39701
3.788,0.15244
3.792,0.0389
3.796,-0.09592
3.8,-0.10935
3.804,-0.16676
3.808,-0.06522
3.812,-0.06685
3.816,0.01869
3.82,0.02999
3.824,0.07755
3.828,0.04264
3.832,0.04656
3.836,0.04804
3.84,0.06494
3.844,0.08505
3.848,0.11133
3.852,0.11861
3.856,0.10082
3.86,0.14817
3.864,0.14298
3.868,0.11303
3.872,0.1512
3.876,0.1081
3.88,0.07302
3.884,0.07397
3.888,0.05676
3.892,0.02455
3.896,0.04586
3.9,0.04479
3.904,0.08717
3.908,0.06431
3.912,-0.05385
3.916,0.0771
3.92,-0.01505
3.924,-0.03319
3.928,0.03052
3.932,0.0217
3.936,0.02725
3.94,0.02114
3.944,0.03108
3.948,0.03916
3.952,0.08164
3.956,0.06719
3.96,0.04665
3.964,0.07667
3.968,0.15363
3.972,0.12773
3.976,0.10149
3.98,0.02929
3.984,-0.02779
3.988,-0.04213
3.992,0.10691
3.996,0.18526
4.0,0.41191
4.004,0.58528
4.008,0.82718
4.012,1.09493
4.016,1.11781
4.02,1.13826
4.024,1.15896
4.028,1.01417
4.032,0.79712
4.036,0.53246
4.04,0.33415
4.044,0.16753
4.048,0.13282
4.052,0.09097
4.056,0.03128
4.06,0.20036
4.064,0.22943
4.068,0.10118
4.072,0.23577
4.076,0.21137
4.08,0.23455
4.084,0.24724
4.088,0.21968
4.092,0.14595
4.096,0.20219
4.1,0.14452
4.104,0.11539
4.108,0.17495
4.112,0.05225
4.116,0.08011
4.12,0.08946
4.124,0.04476
4.128,0.14188
4.132,0.08477
4.136,0.06328
4.14,0.02277
4.144,0.06746
4.148,0.06117
4.152,0.01876
4.156,0.03156
4.16,0.02635
4.164,0.05416
4.168,0.12905
4.172,0.04793
4.176,0.02939
4.18,0.05377
4.184,0.04701
4.188,0.06004
4.192,0.03869
4.196,0.01056
4.2,0.08237
4.204,0.0385
4.208,0.00862
4.212,0.0574
4.216,0.05608
4.22,0.08643
4.224,0.07885
4.228,0.12557
4.232,0.05802
4.236,0.12081
4.24,0.15678
4.244,0.08431
4.248,0.11443
4.252,0.12947
4.256,0.15326
4.26,0.2294
4.264,0.16604
4.268,0.19825
4.272,0.19093
4.276,0.19383
4.28,0.241
4.284,0.21867
4.288,0.24416
4.292,0.23874
4.296,0.29154
4.3,0.26111
4.304,0.3384
4.308,0.19586
4.312,0.24979
4.316,0.19701
4.32,0.2372
4.324,0.19033
4.328,0.19574
4.332,0.2162
4.336,0.24173
4.34,0.24138
4.344,0.19948
4.348,0.21225
4.352,0.14896
4.356,0.19898
4.36,0.18956
4.364,0.18478
4.368,0.11931
4.372,0.20251
4.376,0.22172
4.38,0.12622
4.384,0.15913
4.388,0.1555
4.392,0.10776
4.396,0.14849
4.4,0.13119
4.404,0.08735
4.408,0.06317
4.412,0.13375
4.416,0.01502
4.42,0.06717
4.424,0.06752
4.428,0.09361
4.432,0.0326
4.436,0.05578
4.44,0.05827
4.444,0.07829
4.448,0.04334
4.452,-0.01886
4.456,0.0439
4.46,0.0617
4.464,-0.00887
4.468,0.05348
4.472,-0.0572
4.476,0.04543
4.48,0.0068
4.484,0.00129
4.488,0.03088
4.492,0.03221
4.496,-0.06865
4.5,-0.10285
4.504,-0.10131
4.508,-0.11583
4.512,-0.02232
4.516,0.18318
4.52,0.21647
4.524,0.45537
4.528,0.52286
4.532,0.65575
4.536,0.61217
4.54,0.66688
4.544,0.49479
4.548,0.35892
4.552,0.23981
4.556,0.01155
4.56,-0.13881
4.564,-0.11837
4.568,-0.15879
4.572,-0.13767
4.576,-0.07705
4.58,-0.06053
4.584,0.02339
4.588,0.01243
4.592,0.01999
4.596,0.01141
4.6,0.06379
4.604,0.09487
4.608,0.02145
4.612,0.04677
4.616,-0.01079
4.62,0.09164
4.624,0.0162
4.628,-0.01003
4.632,0.06641
4.636,-0.04046
4.64,0.08851
4.644,-0.00563
4.648,0.06624
4.652,0.06733
4.656,0.01602
4.66,0.01033
4.664,0.02608
4.668,-0.02027
4.672,0.00333
4.676,0.05144
4.68,0.00229
4.684,0.03203
4.688,0.03543
4.692,0.02519
4.696,0.05132
4.7,0.02651
4.704,0.0914
4.708,-0.02093
4.712,0.10205
4.716,0.10423
4.72,0.07139
4.724,0.0965
4.728,0.11769
4.732,0.12393
4.736,0.16692
4.74,0.15949
4.744,0.16908
4.748,0.28809
4.752,0.21772
4.756,0.19645
4.76,0.22869
4.764,0.18
4.768,0.24148
4.772,0.18451
4.776,0.22755
4.78,0.18416
4.784,0.17978
4.788,0.22863
4.792,0.25973
4.796,0.21682
4.8,0.23762
4.804,0.24182
4.808,0.27199
4.812,0.23871
4.816,0.22392
4.82,0.30447
4.824,0.2011
4.828,0.19528
4.832,0.2795
4.836,0.24355
4.84,0.26976
4.844,0.25487
4.848,0.15798
4.852,0.13199
4.856,0.195
4.86,0.1435
4.864,0.07767
4.868,0.06289
4.872,-0.0427
4.876,-0.01939
4.88,0.12905
4.884,0.25603
4.888,0.38278
4.892,0.60457
4.896,0.8252
4.9,1.00265
4.904,1.00244
4.908,0.97339
4.912,0.86105
4.916,0.62716
4.92,0.4146
4.924,0.12947
4.928,0.02946
4.932,-0.10208
4.936,-0.12459
4.94,-0.13835
4.944,-0.07269
4.948,-0.03589
4.952,-0.07054
4.956,-0.00526
4.96,-0.02637
4.964,0.10095
4.968,0.03175
4.972,0.06015
4.976,0.05288
4.98,-0.03693
4.984,-0.04507
4.988,0.02295
4.992,0.02715
4.996,0.01874
5.0,0.01857
5.004,0.03764
5.008,0.05235
5.012,0.04175
5.016,0.00479
5.02,-0.00767
5.024,-0.02727
5.028,0.01094
5.032,0.0428
5.036,0.06486
5.04,0.02518
5.044,0.01665
5.048,0.07293
5.052,0.04019
5.056,-0.01193
5.06,-0.00481
5.064,0.03202
5.068,0.06827
5.072,0.06556
5.076,0.05375
5.08,0.14218
5.084,0.17232
5.088,0.17795
5.092,0.09827
5.096,0.12762
5.1,0.14947
5.104,0.19085
5.108,0.23472
5.112,0.21469
5.116,0.20666
5.12,0.14457
5.124,0.14761
5.128,0.16865
5.132,0.23119
5.136,0.17515
5.14,0.22354
5.144,0.14722
5.148,0.19671
5.152,0.16839
5.156,0.22016
5.16,0.22974
5.164,0.26382
5.168,0.22145
5.172,0.24947
5.176,0.29199
5.18,0.18796
5.184,0.14819
5.188,0.25671
5.192,0.25734
5.196,0.22026
5.2,0.26972
5.204,0.24544
5.208,0.2361
5.212,0.20177
5.216,0.24011
5.22,0.21115
5.224,0.10405
5.228,0.04239
5.232,-0.03619
5.236,0.00848
5.24,0.11902
5.244,0.21027
5.248,0.44376
5.252,0.56003
5.256,0.83703
5.26,0.96321
5.264,1.07402
5.268,1.02384
5.272,0.83013
5.276,0.68129
5.28,0.39331
5.284,0.26705
5.288,0.06308
5.292,-0.04667
5.296,-0.18602
5.3,-0.16242
5.304,-0.10514
5.308,-0.06293
5.312,-0.05692
5.316,-0.0036
5.32,0.02478
5.324,0.01922
5.328,0.05547
5.332,0.03762
5.336,-0.01367
5.34,0.0206
5.344,0.06468
5.348,0.00964
5.352,0.00152
5.356,0.09575
5.36,0.05718
5.364,0.03032
5.368,0.01035
5.372,0.02296
5.376,-0.03229
5.38,0.09633
5.384,-0.04064
5.388,-0.00778
5.392,0.05914
5.396,-0.03496
5.4,-0.02513
5.404,-0.03075
5.408,0.05133
5.412,0.04777
5.416,-0.03037
5.42,0.01856
5.424,0.01927
5.428,0.0597
5.432,0.08525
5.436,0.11508
5.44,0.04863
5.444,0.11047
5.448,0.21386
5.452,0.11979
5.456,0.15209
5.46,0.15282
5.464,0.21666
5.468,0.21242
5.472,0.13235
5.476,0.13487
5.48,0.16945
5.484,0.14357
5.488,0.13969
5.492,0.1507
5.496,0.21128
5.5,0.19134
5.504,0.15518
5.508,0.199
5.512,0.21162
5.516,0.19473
5.52,0.2035
5.524,0.22876
5.528,0.26805
5.532,0.22988
5.536,0.26395
5.54,0.25556
5.544,0.27893
5.548,0.17091
5.552,0.1471
5.556,0.18825
5.56,0.22443
5.564,0.20113
5.568,0.13099
5.572,0.19371
5.576,0.24306
5.58,0.15092
5.584,0.04992
5.588,0.04176
5.592,0.03892
5.596,0.12768
5.6,0.3083
5.604,0.45761
5.608,0.64534
5.612,0.84665
5.616,0.98896
5.62,1.07493
5.624,1.00895
5.628,0.88863
5.632,0.60293
5.636,0.44847
5.64,0.18764
5.644,-0.02322
5.648,-0.07249
5.652,-0.16325
5.656,-0.15076
5.66,-0.12974
5.664,-0.06494
5.668,-0.09891
5.672,0.01108
5.676,0.06692
5.68,-0.00749
5.684,0.04337
5.688,0.04493
5.692,0.05443
5.696,0.0499
5.7,0.01439
5.704,-0.00643
5.708,0.03496
5.712,-0.03635
5.716,-0.00272
5.72,0.04574
5.724,0.04167
5.728,0.02548
5.732,-0.00762
5.736,0.03508
5.74,0.01544
5.744,0.10035
5.748,0.0784
5.752,0.10983
5.756,0.05222
5.76,0.05545
5.764,0.10054
5.768,0.09
5.772,0.09541
5.776,0.12168
5.78,0.11729
5.784,0.0959
5.788,0.0905
5.792,0.07077
5.796,0.05583
5.8,0.06936
5.804,0.05594
5.808,0.01326
5.812,0.10823
5.816,0.00928
5.82,0.01749
5.824,0.01141
5.828,0.05068
5.832,0.08881
5.836,0.11319
5.84,0.14702
5.844,0.05354
5.848,0.05077
5.852,0.16174
5.856,0.21866
5.86,0.15105
5.864,0.16884
5.868,0.16662
5.872,0.18074
5.876,0.22529
5.88,0.21573
5.884,0.12245
5.888,0.09693
5.892,0.1034
5.896,0.13408
5.9,0.21281
5.904,0.36732
5.908,0.57607
5.912,0.72053
5.916,0.9949
5.92,1.10725
5.924,1.21996
5.928,1.18768
5.932,0.95241
5.936,0.86239
5.94,0.55911
5.944,0.32761
5.948,0.17441
5.952,-0.00165
5.956,-0.03772
5.96,-0.08681
5.964,-0.032
5.968,-0.02496
5.972,0.01089
5.976,-0.00484
5.98,0.09951
5.984,-0.01362
5.988,-0.03293
5.992,0.06074
5.996,0.08359
6.0,0.06592
6.004,-0.00177
6.008,0.02193
6.012,-0.03645
6.016,0.0684
6.02,-0.08521
6.024,0.06923
6.028,0.031
6.032,0.01722
6.036,-0.02043
6.04,0.05963
6.044,0.05954
6.048,-0.07168
6.052,-0.00314
6.056,-0.03957
6.06,-0.03347
6.064,-0.11633
6.068,0.03822
6.072,-0.01661
6.076,-0.05006
6.08,-0.00958
6.084,-0.05003
6.088,0.03062
6.092,0.03891
6.096,0.0335
6.1,0.07079
6.104,0.02168
6.108,-0.00038
6.112,-0.05662
6.116,0.03162
6.12,0.08838
6.124,0.06078
6.128,0.05754
6.132,0.02815
6.136,0.04278
6.14,0.05983
6.144,0.07833
6.148,0.12434
6.152,0.11872
6.156,0.08994
6.16,0.15945
6.164,0.16973
6.168,0.18207
6.172,0.14166
6.176,0.19256
6.18,0.12803
6.184,0.16301
6.188,0.25334
6.192,0.25532
6.196,0.19681
6.2,0.23611
6.204,0.18288
6.208,0.23455
6.212,0.15441
6.216,0.20974
6.22,0.17395
6.224,0.21246
6.228,0.18026
6.232,0.17018
6.236,0.24424
6.24,0.13796
6.244,0.12609
6.248,0.11257
6.252,0.13433
6.256,0.08494
6.26,0.09203
6.264,0.11817
6.268,0.04459
6.272,0.02248
6.276,0.11573
6.28,0.00574
6.284,0.03674
6.288,0.0378
6.292,0.04741
6.296,0.01418
6.3,0.0235
6.304,0.00113
6.308,0.09495
6.312,0.04447
6.316,0.09854
6.32,0.07902
6.324,0.11121
6.328,0.1057
6.332,0.08937
6.336,0.08368
6.34,0.08573
6.344,0.12105
6.348,0.10637
6.352,0.07323
6.356,0.09467
6.36,0.07378
6.364,0.03536
6.368,0.02917
6.372,-0.03954
6.376,0.02053
6.38,0.02111
6.384,-0.03594
6.388,-0.01162
6.392,0.00869
6.396,-0.00527
6.4,0.0026
6.404,-0.0127
6.408,-0.08895
6.412,0.01546
6.416,-0.06137
6.42,-0.00895
6.424,0.03321
6.428,-0.07189
6.432,-0.05865
6.436,-0.02749
6.44,0.03189
6.444,0.00289
6.448,-0.03149
6.452,-0.01405
6.456,0.01287
6.46,-0.05854
6.464,-0.07162
6.468,-0.16049
6.472,-0.09024
6.476,-0.01566
6.48,0.05836
6.484,0.26109
6.488,0.46676
6.492,0.65668
6.496,0.80763
6.5,0.91433
6.504,0.97288
6.508,0.88987
6.512,0.6997
6.516,0.44824
6.52,0.20647
6.524,0.09139
6.528,-0.11583
6.532,-0.12597
6.536,-0.18553
6.54,-0.0898
6.544,-0.11426
6.548,-0.0481
6.552,-0.02224
6.556,-0.03671
6.56,-0.00896
6.564,-0.0117
6.568,-0.00702
6.572,-0.00259
6.576,-0.03967
6.58,0.00834
6.584,-0.00261
6.588,0.12394
6.592,0.06781
6.596,0.05873
6.6,0.11234
6.604,0.12503
6.608,0.05785
6.612,0.10167
6.616,0.05097
6.62,0.07041
6.624,-0.05633
6.628,0.04734
6.632,0.04122
6.636,0.03213
6.64,-0.01659
6.644,0.05946
6.648,0.02924
6.652,0.02868
6.656,-0.04463
6.66,-0.02419
6.664,0.02735
6.668,-0.05099
6.672,0.03678
6.676,0.03761
6.68,-0.05523
6.684,0.00504
6.688,0.02684
6.692,-0.04589
6.696,0.01097
6.7,0.04265
6.704,0.02271
6.708,0.01241
6.712,0.04081
6.716,0.07542
6.72,0.07039
6.724,0.01044
6.728,-0.02935
6.732,-0.01939
6.736,-0.04284
6.74,0.13805
6.744,0.28619
6.748,0.51337
6.752,0.7358
6.756,0.97465
6.76,1.16313
6.764,1.17096
6.768,1.14846
6.772,0.95065
6.776,0.75854
6.78,0.60685
6.784,0.37234
6.788,0.1734
6.792,0.08593
6.796,-0.01617
6.8,0.01125
6.804,0.05547
6.808,0.10265
6.812,0.10402
6.816,0.13997
6.82,0.12625
6.824,0.15301
6.828,0.13115
6.832,0.06587
6.836,0.02028
6.84,0.07147
6.844,0.05505
6.848,0.04581
6.852,0.12558
6.856,0.03677
6.86,0.05966
6.864,-0.00061
6.868,-0.00859
6.872,0.03288
6.876,-0.06494
6.88,-0.01103
6.884,0.03052
6.888,-0.01682
6.892,-0.04479
6.896,-0.01916
6.9,-0.00257
6.904,-0.05495
6.908,0.00984
6.912,-0.05987
6.916,0.01468
6.92,0.04141
6.924,0.03824
6.928,-0.04643
6.932,-0.02217
6.936,-0.041
6.94,0.03409
6.944,0.02079
6.948,0.00903
6.952,-0.01709
6.956,-0.03425
6.96,0.02101
6.964,0.04572
6.968,0.04991
6.972,0.03683
6.976,0.04858
6.98,0.06427
6.984,0.04165
6.988,0.06365
6.992,0.12898
6.996,0.14663
7.0,0.13046
7.004,0.18359
7.008,0.2458
7.012,0.19905
7.016,0.21168
7.02,0.274
7.024,0.24111
7.028,0.28822
7.032,0.2608
7.036,0.26564
7.04,0.25758
7.044,0.27615
7.048,0.25501
7.052,0.29609
7.056,0.28148
7.06,0.26536
7.064,0.15125
7.068,0.1568
7.072,0.14902
7.076,0.17987
7.08,0.14117
7.084,0.10521
7.088,0.15502
7.092,0.09637
7.096,0.10924
7.1,0.06991
7.104,0.13676
7.108,-0.00611
7.112,0.02449
7.116,0.02016
7.12,0.09462
7.124,0.04567
7.128,-0.05004
7.132,0.0445
7.136,-0.05278
7.14,0.0403
7.144,-0.0197
7.148,-0.11946
7.152,-0.05186
7.156,-0.22377
7.16,-0.08026
7.164,-0.05606
7.168,0.06069
7.172,0.28826
7.176,0.46284
7.18,0.68235
7.184,0.8531
7.188,0.93698
7.192,0.96008
7.196,0.86802
7.2,0.66817
7.204,0.48157
7.208,0.14318
7.212,0.0036
7.216,-0.14126
7.22,-0.18233
7.224,-0.10199
7.228,-0.23159
7.232,-0.1261
7.236,-0.05685
7.24,-0.06031
7.244,-0.03305
7.248,-0.04593
7.252,-0.07478
7.256,-0.01589
7.26,0.02941
7.264,-0.08888
7.268,-0.00793
7.272,-0.0329
7.276,-0.01303
7.28,-0.00737
7.284,-0.04122
7.288,-0.04759
7.292,0.00677
7.296,-0.04184
7.3,-0.04617
7.304,0.00489
7.308,-0.09628
7.312,-0.05014
7.316,-0.12297
7.32,-0.01024
7.324,-0.021
7.328,-0.06922
7.332,-0.00051
7.336,0.01846
7.34,0.03697
7.344,-0.0444
7.348,-0.03515
7.352,0.00032
7.356,-0.03296
7.36,-0.0015
7.364,-0.02056
7.368,0.00587
7.372,-0.01949
7.376,0.01875
7.38,0.00019
7.384,-0.03062
7.388,0.00061
7.392,0.02223
7.396,-0.01488
7.4,0.07111
7.404,0.01973
7.408,-0.00818
7.412,0.05623
7.416,0.09873
7.42,0.05247
7.424,0.17034
7.428,0.08157
7.432,0.10188
7.436,0.18944
7.44,0.17675
7.444,0.16442
7.448,0.15703
7.452,0.14031
7.456,0.17648
7.46,0.11897
7.464,0.22249
7.468,0.15997
7.472,0.20722
7.476,0.15556
7.48,0.19229
7.484,0.1672
7.488,0.11909
7.492,0.18124
7.496,0.20957
7.5,0.12649
7.504,0.08477
7.508,0.14714
7.512,0.11448
7.516,0.11721
7.52,0.08171
7.524,0.07962
7.528,0.06556
7.532,0.0272
7.536,0.04859
7.54,0.06294
7.544,0.07149
7.548,-0.0303
7.552,0.08746
7.556,0.03243
7.56,0.01713
7.564,0.1002
7.568,0.05406
7.572,0.0228
7.576,0.05632
7.58,0.08905
7.584,0.08516
7.588,0.13698
7.592,0.05687
7.596,0.06635
7.6,0.0686
7.604,0.07113
7.608,0.02102
7.612,-0.03987
7.616,-0.01817
7.62,-0.00433
7.624,-0.02394
7.628,-0.06079
7.632,-0.01564
7.636,-0.07417
7.64,-0.0226
7.644,-0.0394
7.648,-0.04835
7.652,0.0101
7.656,0.05867
7.66,-0.00627
7.664,-0.09247
7.668,-0.01483
7.672,-0.05033
7.676,-0.07802
7.68,0.01884
7.684,-0.01471
7.688,0.0054
7.692,-0.02608
7.696,-0.04475
7.7,-0.07679
7.704,-0.06261
7.708,-0.11895
7.712,-0.21303
7.716,-0.18248
7.72,-0.0306
7.724,0.11026
7.728,0.27181
7.732,0.50972
7.736,0.73979
7.74,0.95763
7.744,0.94211
7.748,0.97094
7.752,0.8286
7.756,0.56023
7.76,0.38558
7.764,0.14029
7.768,-0.03944
7.772,-0.16664
7.776,-0.1695
7.78,-0.13961
7.784,-0.2091
7.788,-0.09744
7.792,-0.0642
7.796,-0.07542
7.8,-0.05871
7.804,-0.02271
7.808,-0.01281
7.812,0.00508
7.816,-0.01083
7.82,-0.05874
7.824,0.0106
7.828,-0.02577
7.832,-0.03214
7.836,-0.04145
7.84,-0.06929
7.844,-0.00342
7.848,0.00832
7.852,-0.09743
7.856,0.07638
7.86,-0.05741
7.864,-0.00357
7.868,0.03371
7.872,0.01145
7.876,0.01158
7.88,-0.0451
7.884,-0.05399
7.888,-0.00472
7.892,-0.05393
7.896,0.04398
7.9,0.03557
7.904,-0.06791
7.908,-0.04433
7.912,-0.0335
7.916,-0.0159
7.92,-0.04574
7.924,-0.01875
7.928,-0.06127
7.932,0.00195
7.936,0.05089
7.94,0.0311
7.944,-0.04502
7.948,0.02052
7.952,0.04777
7.956,0.0548
7.96,0.08158
7.964,0.09363
7.968,0.09974
7.972,0.12083
7.976,0.07937
7.98,0.07238
7.984,0.13222
7.988,0.09536
7.992,0.16966
7.996,0.16012
8.0,0.14401
8.004,0.17636
8.008,0.26309
8.012,0.19585
8.016,0.2363
8.02,0.29853
8.024,0.19633
8.028,0.21601
8.032,0.26353
8.036,0.30293
8.04,0.21767
8.044,0.22929
8.048,0.3325
8.052,0.274
8.056,0.27811
8.06,0.23388
8.064,0.23268
8.068,0.23121
8.072,0.17442
8.076,0.13507
8.08,0.10546
8.084,0.13513
8.088,0.04003
8.092,0.07312
8.096,0.03303
8.1,-0.01366
8.104,0.02824
8.108,0.00605
8.112,-0.06818
8.116,0.01748
8.12,0.01958
8.124,-0.06398
8.128,-0.02526
8.132,-0.00577
8.136,0.0055
8.14,-0.03468
8.144,0.04389
8.148,-0.06269
8.152,0.04193
8.156,-0.03298
8.16,-0.00131
8.164,-0.04865
8.168,-0.06002
8.172,-0.11123
8.176,-0.11425
8.18,-0.17114
8.184,-0.12863
8.188,0.07867
8.192,0.19265
8.196,0.40455
8.2,0.61099
8.204,0.83042
8.208,0.93254
8.212,0.94212
8.216,0.84854
8.22,0.68537
8.224,0.39632
8.228,0.22057
8.232,-0.00985
8.236,-0.08112
8.24,-0.12596
8.244,-0.25955
8.248,-0.19174
8.252,-0.15011
8.256,-0.09382
8.26,-0.06196
8.264,-0.05057
8.268,-0.03283
8.272,0.01031
8.276,-0.02952
8.28,-0.0024
8.284,-0.06346
8.288,0.01425
8.292,-0.10416
8.296,0.02338
8.3,0.01372
8.304,-0.05669
8.308,-0.07622
8.312,0.00521
8.316,-0.0292
8.32,-0.03287
8.324,-0.06003
8.328,-0.00343
8.332,-0.05145
8.336,0.01802
8.34,0.03372
8.344,-0.00695
8.348,-0.03568
8.352,-0.03461
8.356,-0.05356
8.36,-0.02305
8.364,-0.08261
8.368,-0.02189
8.372,-0.05729
8.376,-0.02678
8.38,-0.01623
8.384,-0.01831
8.388,0.00316
8.392,-0.0272
8.396,0.01586
8.4,0.00694
8.404,-0.00724
8.408,0.07152
8.412,0.03353
8.416,0.04247
8.42,0.0142
8.424,0.0872
8.428,0.0691
8.432,0.13905
8.436,0.15257
8.44,0.17077
8.444,0.14903
8.448,0.1872
8.452,0.23747
8.456,0.23104
8.46,0.23117
8.464,0.23065
8.468,0.26879
8.472,0.22903
8.476,0.23738
8.48,0.18403
8.484,0.20182
8.488,0.28466
8.492,0.25624
8.496,0.22532
8.5,0.21759
8.504,0.2016
8.508,0.18346
8.512,0.21063
8.516,0.13316
8.52,0.16043
8.524,0.17433
8.528,0.11865
8.532,0.13469
8.536,0.13925
8.54,0.09272
8.544,0.0906
8.548,0.05991
8.552,0.09511
8.556,0.01653
8.56,0.04945
8.564,0.07207
8.568,0.01716
8.572,0.0081
8.576,-0.0848
8.58,-0.08134
8.584,-0.12449
8.588,-0.13231
8.592,0.03813
8.596,0.14564
8.6,0.34044
8.604,0.56639
8.608,0.78232
8.612,0.93527
8.616,0.95803
8.62,0.92817
8.624,0.79588
8.628,0.6117
8.632,0.34274
8.636,0.1711
8.64,-0.02547
8.644,-0.09899
8.648,-0.19842
8.652,-0.18384
8.656,-0.14703
8.66,-0.1525
8.664,-0.0537
8.668,0.03709
8.672,-0.00858
8.676,0.06005
8.68,-0.00838
8.684,0.02523
8.688,0.07296
8.692,0.00613
8.696,0.03671
8.7,0.05562
8.704,0.10561
8.708,0.02698
8.712,0.06876
8.716,0.06745
8.72,0.10114
8.724,0.05116
8.728,0.01363
8.732,0.00743
8.736,0.04247
8.74,-0.01243
8.744,0.02184
8.748,0.00594
8.752,-0.06565
8.756,-0.00857
8.76,-0.06988
8.764,-0.01147
8.768,0.01662
8.772,-0.03417
8.776,0.02612
8.78,0.00281
8.784,-0.00886
8.788,0.05004
8.792,-0.01686
8.796,0.00359
8.8,0.01143
8.804,-0.01426
8.808,-0.03119
8.812,0.04027
8.816,0.0843
8.82,0.00825
8.824,0.01361
8.828,-0.05672
8.832,-0.01046
8.836,-0.01002
8.84,0.02383
8.844,0.19085
8.848,0.39961
8.852,0.55908
8.856,0.7789
8.86,1.04953
8.864,1.11516
8.868,1.12182
8.872,1.0222
8.876,0.86908
8.88,0.66868
8.884,0.44564
8.888,0.22964
8.892,0.11989
8.896,0.06453
8.9,0.0703
8.904,0.16139
8.908,0.07456
8.912,0.13928
8.916,0.13827
8.92,0.16749
8.924,0.19193
8.928,0.21716
8.932,0.20824
8.936,0.25154
8.94,0.25735
8.944,0.24618
8.948,0.174
8.952,0.1874
8.956,0.22737
8.96,0.17772
8.964,0.14649
8.968,0.1157
8.972,0.11615
8.976,0.13216
8.98,0.08998
8.984,0.08924
8.988,0.06447
8.992,-0.01719
8.996,0.07842
9.0,0.0108
9.004,-0.00209
9.008,-0.03072
9.012,0.02327
9.016,0.01601
9.02,-0.06298
9.024,0.00397
9.028,-0.03513
9.032,-0.00616
9.036,-0.00554
9.04,0.00017
9.044,4e-05
9.048,-0.03461
9.052,-0.00952
9.056,-0.05245
9.06,0.01731
9.064,0.02161
9.068,0.03449
9.072,0.00162
9.076,-0.01398
9.08,-0.00864
9.084,-0.0567
9.088,-0.01458
9.092,0.14258
9.096,0.21632
9.1,0.35808
9.104,0.52824
9.108,0.70635
9.112,0.79886
9.116,0.8465
9.12,0.85306
9.124,0.76644
9.128,0.51383
9.132,0.44661
9.136,0.34241
9.14,0.13613
9.144,0.05461
9.148,0.05471
9.152,-0.06323
9.156,0.07772
9.16,0.14104
9.164,0.13353
9.168,0.20917
9.172,0.18047
9.176,0.18525
9.18,0.11375
9.184,0.2018
9.188,0.10623
9.192,0.09736
9.196,0.06556
9.2,0.10835
9.204,0.07363
9.208,0.13111
9.212,0.11959
9.216,0.08902
9.22,0.08154
9.224,0.05295
9.228,0.01652
9.232,0.06837
9.236,0.04175
9.24,-0.0324
9.244,0.05818
9.248,0.02776
9.252,0.03402
9.256,0.01829
9.26,0.02668
9.264,0.03461
9.268,-0.00109
9.272,-0.0274
9.276,0.07352
9.28,-0.01858
9.284,-0.04923
9.288,-0.02574
9.292,0.05392
9.296,-0.00209
9.3,0.07666
9.304,0.00847
9.308,0.03727
9.312,0.07489
9.316,0.0662
9.32,0.03769
9.324,0.05409
9.328,0.07858
9.332,0.04684
9.336,0.09705
9.34,0.09421
9.344,0.13452
9.348,0.10597
9.352,0.17773
9.356,0.18976
9.36,0.15867
9.364,0.17858
9.368,0.15524
9.372,0.17893
9.376,0.14256
9.38,0.24581
9.384,0.22931
9.388,0.24952
9.392,0.24811
9.396,0.24361
9.4,0.20631
9.404,0.20309
9.408,0.23366
9.412,0.16869
9.416,0.16038
9.42,0.24166
9.424,0.21028
9.428,0.19914
9.432,0.15402
9.436,0.129
9.44,0.07781
9.444,0.09194
9.448,0.14687
9.452,0.13559
9.456,0.10932
9.46,0.00122
9.464,0.04475
9.468,0.10971
9.472,0.08454
9.476,0.06374
9.48,0.02897
9.484,0.11456
9.488,0.08678
9.492,0.11553
9.496,0.14188
9.5,0.1356
9.504,0.1097
9.508,0.08372
9.512,0.14244
9.516,0.11385
9.52,0.13183
9.524,0.05943
9.528,0.05032
9.532,0.09161
9.536,-0.00139
9.54,-0.00802
9.544,0.00058
9.548,0.00288
9.552,0.06914
9.556,0.05212
9.56,0.05
9.564,0.00587
9.568,-0.00059
9.572,0.02612
9.576,0.02028
9.58,-0.05354
9.584,0.00057
9.588,0.03794
9.592,-0.03633
9.596,-0.02424
9.6,-0.01958
9.604,-0.10954
9.608,-0.02389
9.612,0.03995
9.616,0.02047
9.62,-0.01776
9.624,-0.0125
9.628,0.01777
9.632,-0.08299
9.636,-0.0638
9.64,-0.1291
9.644,-0.0215
9.648,0.03202
9.652,0.14911
9.656,0.34464
9.66,0.53079
9.664,0.72444
9.668,0.92416
9.672,1.04921
9.676,0.9215
9.68,0.82208
9.684,0.61205
9.688,0.41579
9.692,0.14005
9.696,0.00069
9.7,-0.07299
9.704,-0.15944
9.708,-0.13085
9.712,-0.10418
9.716,-0.05549
9.72,0.0165
9.724,0.01851
9.728,-0.00085
9.732,0.01414
9.736,0.06166
9.74,0.0111
9.744,-0.02836
9.748,0.01048
9.752,0.0226
9.756,-0.03019
9.76,-0.04793
9.764,-0.05044
9.768,0.00441
9.772,-0.03034
9.776,0.0462
9.78,-0.03493
9.784,0.07429
9.788,-0.02004
9.792,0.00023
9.796,0.00275
9.8,0.03283
9.804,0.01163
9.808,0.001
9.812,0.0141
9.816,0.00844
9.82,-0.00513
9.824,-0.02308
9.828,-0.00514
9.832,0.00443
9.836,-0.02127
9.84,0.07971
9.844,0.00958
9.848,0.05832
9.852,0.026
9.856,-0.03564
9.86,0.07905
9.864,0.05115
9.868,-0.02058
9.872,0.01688
9.876,0.06456
9.88,0.05875
9.884,0.05111
9.888,0.17072
9.892,0.09253
9.896,0.05605
9.9,0.10657
9.904,0.09419
9.908,0.15274
9.912,0.12994
9.916,0.20852
9.92,0.18956
9.924,0.20392
9.928,0.188
9.932,0.15738
9.936,0.22458
9.94,0.2183
9.944,0.2492
9.948,0.19805
9.952,0.27924
9.956,0.25139
9.96,0.2492
9.964,0.26742
9.968,0.23963
9.972,0.16972
9.976,0.20296
9.98,0.1996
9.984,0.15473
9.988,0.12119
9.992,0.13542
9.996,0.151
