t_seg,ecg_mV
0.0,0.01049
0.004,-0.00739
0.008,0.00241
0.012,0.00601
0.016,0.01938
0.02,-0.02166
0.024,0.00047
0.028,-0.03461
0.032,-0.02757
0.036,-0.0181
0.04,-0.005
0.044,-0.01312
0.048,-0.03525
0.052,0.02705
0.056,0.00081
0.06,0.00551
0.064,0.01346
0.068,-0.00853
0.072,-0.01291
0.076,0.00874
0.08,0.00531
0.084,0.02145
0.088,-0.00742
0.092,-0.02039
0.096,0.01535
0.1,-0.00743
0.104,0.00364
0.108,-0.01068
0.112,-0.01532
0.116,-0.00151
0.12,-0.0038
0.124,-0.02261
0.128,-0.01435
0.132,-0.02934
0.136,-0.01506
0.14,-0.011
0.144,-0.00455
0.148,0.00289
0.152,-0.02159
0.156,0.00849
0.16,0.00125
0.164,-0.0032
0.168,-0.00234
0.172,-0.03674
0.176,-0.04412
0.18,0.03513
0.184,-0.03258
0.188,-0.00945
0.192,0.00362
0.196,-0.00266
0.2,-0.03146
0.204,-0.01836
0.208,0.0086
0.212,-0.00124
0.216,0.00253
0.22,0.02067
0.224,0.00308
0.228,-0.02167
0.232,-0.00965
0.236,-0.01307
0.24,0.01199
0.244,0.02169
0.248,0.01536
0.252,0.00173
0.256,-0.01992
0.26,0.01954
0.264,-0.0215
0.268,-0.02986
0.272,-0.0053
0.276,0.00552
0.28,-0.02134
0.284,-0.00527
0.288,0.00881
0.292,-0.01292
0.296,-0.00179
0.3,-0.00853
0.304,-0.02654
0.308,-0.03554
0.312,-0.00508
0.316,-0.02684
0.32,-0.01199
0.324,-0.01416
0.328,-0.01898
0.332,-0.06583
0.336,0.00869
0.34,-0.0445
0.344,0.00804
0.348,-0.00384
0.352,0.01192
0.356,-0.00762
0.36,-0.01857
0.364,-0.02123
0.368,0.00664
0.372,-0.01686
0.376,-0.00933
0.38,-0.01553
0.384,-0.02857
0.388,0.0133
0.392,-0.02086
0.396,0.00949
0.4,-0.00298
0.404,-0.02703
0.408,-0.01218
0.412,-0.02763
0.416,-0.00944
0.42,-0.01101
0.424,-0.03183
0.428,-0.00761
0.432,-0.00439
0.436,-0.01525
0.44,-0.01005
0.444,0.00017
0.448,-0.01017
0.452,-0.01363
0.456,-0.00744
0.46,0.0046
0.464,-0.01449
0.468,-0.0291
0.472,-0.0183
0.476,-0.03267
0.48,-0.00924
0.484,-0.00664
0.488,-0.00073
0.492,-0.0169
0.496,-0.00809
0.5,0.00929
0.504,-0.04276
0.508,-0.03946
0.512,-0.02082
0.516,-0.03564
0.52,-0.00442
0.524,-0.00172
0.528,-0.04339
0.532,-0.02577
0.536,-0.02003
0.54,0.00248
0.544,0.00433
0.548,-0.01817
0.552,-0.03481
0.556,-0.00472
0.56,-0.0235
0.564,-0.01953
0.568,-0.03008
0.572,-0.01834
0.576,-0.03106
0.58,-0.01476
0.584,-0.01614
0.588,-0.02471
0.592,-0.0001
0.596,-0.01572
0.6,-0.0005
0.604,-0.0211
0.608,-0.02444
0.612,-0.02893
0.616,-0.01826
0.62,-0.03426
0.624,-0.01457
0.628,-0.01028
0.632,-0.01384
0.636,-0.00487
0.64,-0.01699
0.644,0.00022
0.648,-0.02527
0.652,-0.01795
0.656,-0.02548
0.66,-0.0097
0.664,-0.02076
0.668,-0.00496
0.672,0.00131
0.676,0.01858
0.68,0.02557
0.684,0.05427
0.688,0.04244
0.692,0.08089
0.696,0.05757
0.7,0.07598
0.704,0.06907
0.708,0.11569
0.712,0.05999
0.716,0.05459
0.72,0.06795
0.724,0.07115
0.728,0.04775
0.732,0.03283
0.736,0.0062
0.74,0.00117
0.744,0.00671
0.748,-0.01792
0.752,-0.00045
0.756,-0.02741
0.76,-0.03369
0.764,-0.02431
0.768,-0.02541
0.772,-0.02537
0.776,-0.04215
0.78,-0.02093
0.784,-0.04079
0.788,-0.03103
0.792,-0.0032
0.796,-0.0306
0.8,-0.00739
0.804,-0.01717
0.808,-0.02966
0.812,-0.01091
0.816,-0.03612
0.82,-0.01326
0.824,-0.09757
0.828,-0.08692
0.832,-0.13925
0.836,-0.12577
0.84,-0.05538
0.844,0.07227
0.848,0.29081
0.852,0.48607
0.856,0.67067
0.86,0.85228
0.864,0.95502
0.868,0.94523
0.872,0.84668
0.876,0.65855
0.88,0.42107
0.884,0.21256
0.888,0.01427
0.892,-0.08595
0.896,-0.17797
0.9,-0.1844
0.904,-0.16397
0.908,-0.13998
0.912,-0.08823
0.916,-0.03065
0.92,-0.02082
0.924,-0.02624
0.928,-0.02717
0.932,-0.04111
0.936,-0.0371
0.94,-0.00968
0.944,-0.0374
0.948,-0.0071
0.952,-0.01546
0.956,-0.00839
0.96,-0.03716
0.964,0.0037
0.968,-0.01656
0.972,-0.01788
0.976,-0.03968
0.98,-0.02853
0.984,-0.0365
0.988,-0.04463
0.992,-0.01221
0.996,-0.03232
1.0,-0.04174
1.004,-0.00802
1.008,-0.01369
1.012,-0.0316
1.016,-0.02109
1.02,-0.03081
1.024,-0.03289
1.028,-0.01045
1.032,-0.03945
1.036,-0.01749
1.04,0.00139
1.044,-0.00411
1.048,-0.02194
1.052,-0.02704
1.056,0.02748
1.06,0.00353
1.064,0.0023
1.068,0.01836
1.072,0.01796
1.076,0.04281
1.08,0.06394
1.084,0.06107
1.088,0.05899
1.092,0.08663
1.096,0.08137
1.1,0.09691
1.104,0.1178
1.108,0.11361
1.112,0.14671
1.116,0.1555
1.12,0.17096
1.124,0.18538
1.128,0.16875
1.132,0.20198
1.136,0.19686
1.14,0.22703
1.144,0.18261
1.148,0.18472
1.152,0.17807
1.156,0.18413
1.16,0.16825
1.164,0.17026
1.168,0.14277
1.172,0.14472
1.176,0.15487
1.18,0.1297
1.184,0.1241
1.188,0.10384
1.192,0.10497
1.196,0.09975
1.2,0.11693
1.204,0.06709
1.208,0.05481
1.212,0.04198
1.216,0.0312
1.22,0.04046
1.224,0.02521
1.228,0.01241
1.232,0.00707
1.236,0.01084
1.24,0.00776
1.244,-0.03152
1.248,-0.02458
1.252,-0.00913
1.256,-0.00738
1.26,-0.00717
1.264,-0.00808
1.268,-0.02343
1.272,-0.05149
1.276,-0.03681
1.28,-0.03258
1.284,-0.05254
1.288,-0.02975
1.292,-0.0201
1.296,-0.02624
1.3,-0.03799
1.304,0.00235
1.308,-0.01617
1.312,-0.02922
1.316,-0.05792
1.32,-0.05477
1.324,-0.02627
1.328,-0.02296
1.332,-0.00637
1.336,-0.03663
1.34,-0.04241
1.344,-0.01988
1.348,-0.02184
1.352,-0.03489
1.356,-0.04226
1.36,-0.02123
1.364,-0.02501
1.368,-0.02595
1.372,-0.05021
1.376,-0.03265
1.38,-0.0136
1.384,-0.03545
1.388,-0.03739
1.392,-0.04585
1.396,-0.01064
1.4,-0.00546
1.404,-0.02421
1.408,-0.01529
1.412,-0.02687
1.416,-0.02894
1.42,-0.02649
1.424,-0.03661
1.428,-0.02464
1.432,-0.02531
1.436,-0.0144
1.44,-0.04433
1.444,-0.0281
1.448,-0.02227
1.452,-0.03817
1.456,-0.02276
1.46,-0.04877
1.464,-0.05491
1.468,-0.06771
1.472,-0.02948
1.476,-0.02961
1.48,-0.01589
1.484,-0.05024
1.488,-0.02848
1.492,0.0006
1.496,-0.01009
1.5,-0.03337
1.504,-0.04525
1.508,-0.01503
1.512,-0.02552
1.516,-0.04763
1.52,-0.00698
1.524,-0.0279
1.528,-0.01492
1.532,-0.04042
1.536,-0.00798
1.54,-0.02544
1.544,0.00596
1.548,0.01941
1.552,0.02841
1.556,0.02779
1.56,0.05277
1.564,0.0694
1.568,0.04699
1.572,0.06515
1.576,0.04819
1.58,0.07439
1.584,0.0589
1.588,0.05234
1.592,0.02644
1.596,0.04563
1.6,0.02895
1.604,-0.00545
1.608,0.00774
1.612,-0.00949
1.616,-0.00805
1.62,-0.00344
1.624,-0.02669
1.628,-0.00638
1.632,0.00075
1.636,-0.03758
1.64,-0.04276
1.644,-0.02387
1.648,-0.04137
1.652,-0.03085
1.656,-0.02474
1.66,-0.03728
1.664,-0.00338
1.668,-0.01395
1.672,-0.03549
1.676,-0.02451
1.68,-0.04953
1.684,-0.03616
1.688,-0.04605
1.692,-0.08273
1.696,-0.11628
1.7,-0.12763
1.704,-0.15226
1.708,-0.06818
1.712,0.05153
1.716,0.25633
1.72,0.46227
1.724,0.6696
1.728,0.82176
1.732,0.98208
1.736,0.94022
1.74,0.83644
1.744,0.64214
1.748,0.39406
1.752,0.19369
1.756,-0.00118
1.76,-0.12233
1.764,-0.18381
1.768,-0.21006
1.772,-0.18206
1.776,-0.12801
1.78,-0.06289
1.784,-0.0651
1.788,-0.03635
1.792,-0.0459
1.796,-0.02183
1.8,-0.05672
1.804,-0.03549
1.808,-0.03009
1.812,-0.02168
1.816,-0.00962
1.82,-0.00197
1.824,-0.03289
1.828,-0.03167
1.832,-0.02989
1.836,-0.03173
1.84,-0.03593
1.844,-0.01652
1.848,-0.02443
1.852,-0.01
1.856,-0.01243
1.86,-0.02161
1.864,-0.04603
1.868,-0.02707
1.872,-0.03438
1.876,-0.01491
1.88,-0.02073
1.884,-0.03325
1.888,-0.0275
1.892,-0.01248
1.896,-0.05283
1.9,-0.0134
1.904,-0.01553
1.908,-0.01276
1.912,-0.02989
1.916,-0.0023
1.92,-0.01085
1.924,0.01136
1.928,-0.00269
1.932,0.04159
1.936,0.02521
1.94,0.03621
1.944,0.05413
1.948,0.04897
1.952,0.05951
1.956,0.0814
1.96,0.09526
1.964,0.10386
1.968,0.11114
1.972,0.10859
1.976,0.13728
1.98,0.15157
1.984,0.12535
1.988,0.16595
1.992,0.15226
1.996,0.20239
2.0,0.19819
2.004,0.19258
2.008,0.18244
2.012,0.1825
2.016,0.20292
2.02,0.19943
2.024,0.21727
2.028,0.17253
2.032,0.20669
2.036,0.16351
2.04,0.18895
2.044,0.12713
2.048,0.13491
2.052,0.12423
2.056,0.10855
2.06,0.10392
2.064,0.06587
2.068,0.09494
2.072,0.05736
2.076,0.07841
2.08,0.05936
2.084,0.06851
2.088,0.04162
2.092,0.02311
2.096,0.02703
2.1,0.00708
2.104,0.0247
2.108,-0.00045
2.112,-0.01496
2.116,-0.01276
2.12,-0.00382
2.124,-0.01974
2.128,-0.01872
2.132,-0.03887
2.136,-0.01774
2.14,-0.01049
2.144,-0.02243
2.148,0.00733
2.152,0.00415
2.156,-0.02833
2.16,-0.01097
2.164,-0.02814
2.168,-0.04432
2.172,-0.0513
2.176,-0.0303
2.18,-0.03616
2.184,-0.04975
2.188,-0.0237
2.192,-0.01488
2.196,-0.03869
2.2,-0.06262
2.204,-0.02077
2.208,-0.0614
2.212,-0.02853
2.216,-0.02442
2.22,-0.00362
2.224,-0.03926
2.228,-0.01825
2.232,-0.01543
2.236,-0.00872
2.24,-0.01937
2.244,0.00022
2.248,-0.0096
2.252,-0.03106
2.256,-0.06546
2.26,-0.01486
2.264,-0.03384
2.268,-0.04181
2.272,0.00184
2.276,-0.02303
2.28,-0.01409
2.284,-0.02601
2.288,-0.03464
2.292,-0.04048
2.296,-0.01799
2.3,-0.03687
2.304,-0.0218
2.308,-0.01315
2.312,-0.03174
2.316,-0.06293
2.32,-0.00332
2.324,-0.03626
2.328,-0.02771
2.332,-0.04528
2.336,-0.04984
2.34,-0.01957
2.344,-0.02227
2.348,-0.02914
2.352,-0.0246
2.356,0.01064
2.36,-0.00695
2.364,-0.01963
2.368,0.02115
2.372,0.00481
2.376,0.00181
2.38,0.03998
2.384,0.04703
2.388,0.06149
2.392,0.07244
2.396,0.06271
2.4,0.06917
2.404,0.0899
2.408,0.07057
2.412,0.05793
2.416,0.05847
2.42,0.01935
2.424,-0.00519
2.428,0.01441
2.432,0.00683
2.436,0.01343
2.44,0.00102
2.444,-0.03951
2.448,-0.03261
2.452,-0.03149
2.456,-0.02166
2.46,0.00634
2.464,-0.03659
2.468,-0.0336
2.472,-0.06806
2.476,-0.03972
2.48,-0.02357
2.484,-0.05348
2.488,-0.03363
2.492,-0.01472
2.496,-0.00654
2.5,-0.01232
2.504,-0.01512
2.508,-0.04547
2.512,-0.03443
2.516,-0.02908
2.52,-0.06865
2.524,-0.12092
2.528,-0.15117
2.532,-0.07229
2.536,0.04754
2.54,0.17925
2.544,0.37107
2.548,0.61158
2.552,0.79269
2.556,0.97313
2.56,0.96934
2.564,0.89462
2.568,0.72751
2.572,0.52999
2.576,0.29008
2.58,0.08894
2.584,-0.05101
2.588,-0.16877
2.592,-0.19102
2.596,-0.17052
2.6,-0.11738
2.604,-0.08044
2.608,-0.05793
2.612,-0.04245
2.616,-0.01507
2.62,-0.00636
2.624,-0.04178
2.628,-0.01044
2.632,-0.00586
2.636,-0.02803
2.64,-0.00161
2.644,0.02012
2.648,-0.01867
2.652,-0.00453
2.656,-0.01854
2.66,-0.01959
2.664,-0.01725
2.668,-0.00963
2.672,-0.02285
2.676,-0.03743
2.68,-0.03875
2.684,-0.00633
2.688,-0.03333
2.692,-0.028
2.696,-0.01194
2.7,-0.0118
2.704,-0.00608
2.708,-0.00584
2.712,-0.00076
2.716,0.0081
2.72,-0.00486
2.724,0.0042
2.728,-0.01316
2.732,-0.00451
2.736,-0.02332
2.74,-0.00433
2.744,0.00131
2.748,0.01497
2.752,0.03235
2.756,-0.00926
2.76,0.05088
2.764,0.04307
2.768,0.01895
2.772,0.04666
2.776,0.09125
2.78,0.08575
2.784,0.09024
2.788,0.12209
2.792,0.09906
2.796,0.13638
2.8,0.13029
2.804,0.17002
2.808,0.16354
2.812,0.15537
2.816,0.16168
2.82,0.19851
2.824,0.19772
2.828,0.19457
2.832,0.21056
2.836,0.22871
2.84,0.2279
2.844,0.22178
2.848,0.2017
2.852,0.2132
2.856,0.18932
2.86,0.16237
2.864,0.16433
2.868,0.16222
2.872,0.14875
2.876,0.15134
2.88,0.14926
2.884,0.11901
2.888,0.10877
2.892,0.07939
2.896,0.09073
2.9,0.08077
2.904,0.07487
2.908,0.05777
2.912,0.04462
2.916,0.05836
2.92,0.01962
2.924,0.0388
2.928,0.02969
2.932,0.03526
2.936,0.02968
2.94,-0.00806
2.944,-0.0036
2.948,0.00289
2.952,-0.01842
2.956,0.01407
2.96,-0.00309
2.964,0.01322
2.968,0.02385
2.972,-0.01209
2.976,-0.03226
2.98,0.02639
2.984,-0.01091
2.988,-0.01691
2.992,-0.0152
2.996,-0.00331
3.0,-0.01238
3.004,0.0105
3.008,0.01754
3.012,-0.00138
3.016,0.01906
3.02,-0.0154
3.024,-0.0259
3.028,-0.02708
3.032,-0.01821
3.036,-0.03247
3.04,-0.00798
3.044,-0.00898
3.048,-0.00304
3.052,-0.0233
3.056,-0.00803
3.06,-0.00753
3.064,0.01191
3.068,0.01352
3.072,0.00212
3.076,0.01584
3.08,-0.01486
3.084,-0.00946
3.088,0.00249
3.092,0.00284
3.096,0.00325
3.1,-0.00752
3.104,-0.01224
3.108,0.01234
3.112,-0.01235
3.116,-0.00222
3.12,-0.01458
3.124,-0.00067
3.128,-0.0115
3.132,-0.02508
3.136,0.02651
3.14,-0.00337
3.144,-0.00286
3.148,-0.02799
3.152,-0.00061
3.156,-0.0145
3.16,0.01701
3.164,0.02191
3.168,0.01733
3.172,-0.00429
3.176,0.0223
3.18,0.00214
3.184,0.03422
3.188,0.04338
3.192,0.05889
3.196,0.08578
3.2,0.06471
3.204,0.0574
3.208,0.09611
3.212,0.1108
3.216,0.10323
3.22,0.10837
3.224,0.06908
3.228,0.06001
3.232,0.06359
3.236,0.05189
3.24,0.05686
3.244,0.00015
3.248,0.02245
3.252,0.02047
3.256,0.00365
3.26,-0.01063
3.264,-0.00076
3.268,-0.00322
3.272,0.00164
3.276,0.00756
3.28,0.00741
3.284,-0.00239
3.288,0.01024
3.292,0.00287
3.296,-0.007
3.3,0.00135
3.304,-0.00382
3.308,-0.02753
3.312,-0.03259
3.316,-0.00783
3.32,0.01233
3.324,-0.00677
3.328,-0.0307
3.332,-0.02049
3.336,-0.08027
3.34,-0.12097
3.344,-0.1249
3.348,-0.02897
3.352,0.10544
3.356,0.27376
3.36,0.46908
3.364,0.68251
3.368,0.87237
3.372,0.95665
3.376,1.00519
3.38,0.88814
3.384,0.69346
3.388,0.4607
3.392,0.26484
3.396,0.06916
3.4,-0.07164
3.404,-0.14045
3.408,-0.17994
3.412,-0.13995
3.416,-0.06943
3.42,-0.06097
3.424,-0.02145
3.428,-0.01083
3.432,-0.00516
3.436,-0.00373
3.44,-0.00775
3.444,-0.01049
3.448,0.01806
3.452,0.01981
3.456,0.03216
3.46,-0.02479
3.464,0.00284
3.468,0.03471
3.472,-0.00195
3.476,-0.02488
3.48,0.00932
3.484,0.01202
3.488,-0.01428
3.492,-0.01471
3.496,-0.00175
3.5,-0.00635
3.504,0.00541
3.508,-0.0032
3.512,0.03291
3.516,0.011
3.52,0.00048
3.524,0.01219
3.528,-0.00525
3.532,0.02299
3.536,0.00954
3.54,0.05105
3.544,0.02443
3.548,0.02897
3.552,0.0337
3.556,0.03282
3.56,0.02063
3.564,0.03134
3.568,0.03734
3.572,0.05386
3.576,0.05908
3.58,0.04534
3.584,0.10624
3.588,0.07462
3.592,0.08368
3.596,0.09963
3.6,0.13229
3.604,0.14213
3.608,0.1365
3.612,0.15683
3.616,0.17239
3.62,0.176
3.624,0.18886
3.628,0.20878
3.632,0.20814
3.636,0.21944
3.64,0.23714
3.644,0.24039
3.648,0.23427
3.652,0.21774
3.656,0.24633
3.66,0.24726
3.664,0.21476
3.668,0.21946
3.672,0.19397
3.676,0.18995
3.68,0.18922
3.684,0.19886
3.688,0.15432
3.692,0.14245
3.696,0.1405
3.7,0.16393
3.704,0.11501
3.708,0.10973
3.712,0.12169
3.716,0.1143
3.72,0.08029
3.724,0.07333
3.728,0.06384
3.732,0.06289
3.736,0.04666
3.74,0.03133
3.744,0.03547
3.748,0.00087
3.752,0.01753
3.756,0.02989
3.76,-0.0007
3.764,-0.00158
3.768,0.00901
3.772,0.01718
3.776,0.01967
3.78,0.01636
3.784,0.02085
3.788,-0.0063
3.792,-0.00196
3.796,0.01886
3.8,-0.00701
3.804,0.01287
3.808,-0.00373
3.812,0.01419
3.816,0.03326
3.82,0.04381
3.824,0.03684
3.828,0.04374
3.832,0.0153
3.836,0.02045
3.84,0.02574
3.844,0.04166
3.848,0.03819
3.852,0.00285
3.856,0.00904
3.86,0.03159
3.864,0.04673
3.868,0.0371
3.872,0.01991
3.876,0.05277
3.88,0.04035
3.884,0.05703
3.888,0.06231
3.892,0.08823
3.896,0.09587
3.9,0.12292
3.904,0.13429
3.908,0.13175
3.912,0.12636
3.916,0.09506
3.92,0.10078
3.924,0.09196
3.928,0.09205
3.932,0.04924
3.936,0.04783
3.94,0.03802
3.944,0.00939
3.948,0.03317
3.952,0.02573
3.956,0.02687
3.96,0.03528
3.964,-0.00167
3.968,0.02531
3.972,0.01255
3.976,0.03107
3.98,0.01887
3.984,-0.00614
3.988,0.01783
3.992,0.01307
3.996,0.01174
4.0,0.02169
4.004,0.02248
4.008,0.03116
4.012,0.01688
4.016,0.02809
4.02,0.02587
4.024,0.00457
4.028,-0.02057
4.032,-0.06126
4.036,-0.07731
4.04,-0.04734
4.044,0.03087
4.048,0.22157
4.052,0.39619
4.056,0.59602
4.06,0.814
4.064,0.97537
4.068,1.02241
4.072,0.96342
4.076,0.80506
4.08,0.58803
4.084,0.3584
4.088,0.15365
4.092,-0.0226
4.096,-0.11991
4.1,-0.1434
4.104,-0.15914
4.108,-0.10102
4.112,-0.01453
4.116,-0.00826
4.12,-0.03321
4.124,-0.00942
4.128,0.01953
4.132,0.02836
4.136,0.01593
4.14,0.03174
4.144,0.01449
4.148,0.02372
4.152,0.01586
4.156,0.02279
4.16,0.04127
4.164,0.05841
4.168,0.03219
4.172,0.00967
4.176,0.02526
4.18,-0.00598
4.184,0.0262
4.188,0.04119
4.192,0.06578
4.196,0.0128
4.2,0.04888
4.204,0.00359
4.208,0.05581
4.212,0.01192
4.216,0.04244
4.22,0.05489
4.224,0.01389
4.228,0.02705
4.232,0.01948
4.236,0.03759
4.24,0.03114
4.244,0.03289
4.248,0.033
4.252,0.0462
4.256,0.02823
4.26,0.05689
4.264,0.07093
4.268,0.08302
4.272,0.09843
4.276,0.08492
4.28,0.09573
4.284,0.11186
4.288,0.12835
4.292,0.135
4.296,0.09511
4.3,0.13626
4.304,0.15876
4.308,0.19831
4.312,0.19442
4.316,0.18808
4.32,0.22013
4.324,0.20281
4.328,0.2302
4.332,0.25896
4.336,0.25016
4.34,0.23998
4.344,0.22998
4.348,0.22353
4.352,0.23623
4.356,0.25079
4.36,0.23013
4.364,0.21953
4.368,0.21949
4.372,0.22117
4.376,0.23303
4.38,0.18038
4.384,0.15262
4.388,0.18087
4.392,0.18204
4.396,0.14833
4.4,0.13813
4.404,0.11457
4.408,0.13219
4.412,0.1052
4.416,0.05379
4.42,0.0889
4.424,0.10042
4.428,0.07273
4.432,0.07404
4.436,0.07093
4.44,0.03859
4.444,0.06786
4.448,0.05349
4.452,0.02691
4.456,0.02318
4.46,0.01749
4.464,0.03447
4.468,0.0327
4.472,0.04039
4.476,0.01353
4.48,0.01112
4.484,0.00968
4.488,0.00649
4.492,0.0379
4.496,0.04186
4.5,0.00924
4.504,0.01167
4.508,0.03497
4.512,0.05012
4.516,0.0077
4.52,0.02886
4.524,0.01019
4.528,0.03747
4.532,0.02559
4.536,0.03791
4.54,0.0303
4.544,0.0438
4.548,0.04497
4.552,0.0459
4.556,0.02198
4.56,-0.00343
4.564,0.04806
4.568,0.02674
4.572,0.05043
4.576,0.03756
4.58,0.01204
4.584,0.05389
4.588,0.02623
4.592,0.02372
4.596,0.03068
4.6,0.03052
4.604,0.04097
4.608,0.0567
4.612,0.01999
4.616,0.00157
4.62,0.02054
4.624,0.05702
4.628,0.01826
4.632,0.03613
4.636,0.05243
4.64,0.02385
4.644,0.04805
4.648,0.05621
4.652,0.02017
4.656,0.03486
4.66,0.0221
4.664,0.01923
4.668,0.02858
4.672,0.04528
4.676,0.0061
4.68,0.01807
4.684,0.03089
4.688,0.03483
4.692,0.03306
4.696,0.03388
4.7,0.02108
4.704,0.0118
4.708,0.03886
4.712,0.00582
4.716,0.03375
4.72,0.01574
4.724,0.02109
4.728,0.07087
4.732,0.01835
4.736,0.02714
4.74,0.05327
4.744,0.05266
4.748,0.05641
4.752,0.05723
4.756,0.04314
4.76,0.05365
4.764,0.05436
4.768,0.05996
4.772,0.08466
4.776,0.09885
4.78,0.0792
4.784,0.12662
4.788,0.13212
4.792,0.13151
4.796,0.12811
4.8,0.1294
4.804,0.11389
4.808,0.11548
4.812,0.13056
4.816,0.08355
4.82,0.07838
4.824,0.06112
4.828,0.04987
4.832,0.03958
4.836,0.06306
4.84,0.04996
4.844,0.04255
4.848,0.01711
4.852,0.0402
4.856,0.03352
4.86,0.04975
4.864,0.01327
4.868,0.01188
4.872,0.0204
4.876,0.01947
4.88,0.03933
4.884,0.04163
4.888,0.03265
4.892,0.01945
4.896,0.04813
4.9,0.03575
4.904,0.0355
4.908,0.02277
4.912,0.00991
4.916,-0.05081
4.92,-0.05506
4.924,-0.12471
4.928,-0.08278
4.932,0.02525
4.936,0.15234
4.94,0.34607
4.944,0.55338
4.948,0.7845
4.952,0.98511
4.956,1.00654
4.96,1.01027
4.964,0.84274
4.968,0.66589
4.972,0.42021
4.976,0.21449
4.98,0.03705
4.984,-0.0697
4.988,-0.12512
4.992,-0.10522
4.996,-0.12118
5.0,-0.06357
5.004,0.00245
5.008,0.01234
5.012,0.00967
5.016,0.03642
5.02,0.04434
5.024,0.00775
5.028,0.02719
5.032,0.05412
5.036,0.01566
5.04,0.03278
5.044,0.03224
5.048,0.01252
5.052,0.02774
5.056,0.02265
5.06,0.0239
5.064,0.05119
5.068,0.04202
5.072,0.04423
5.076,0.02835
5.08,0.03043
5.084,0.01273
5.088,0.04177
5.092,0.0381
5.096,0.02674
5.1,0.04379
5.104,0.02884
5.108,0.01804
5.112,0.00934
5.116,0.02778
5.12,0.02564
5.124,0.03476
5.128,0.0543
5.132,0.04464
5.136,0.02503
5.14,0.03978
5.144,0.07296
5.148,0.06369
5.152,0.04767
5.156,0.07772
5.16,0.07213
5.164,0.09147
5.168,0.09877
5.172,0.12281
5.176,0.12866
5.18,0.12013
5.184,0.13736
5.188,0.13405
5.192,0.13422
5.196,0.21882
5.2,0.18822
5.204,0.19678
5.208,0.19297
5.212,0.20344
5.216,0.22443
5.22,0.24022
5.224,0.22682
5.228,0.24904
5.232,0.24342
5.236,0.25035
5.24,0.24225
5.244,0.23741
5.248,0.24877
5.252,0.23782
5.256,0.23453
5.26,0.21768
5.264,0.2212
5.268,0.22525
5.272,0.20006
5.276,0.19187
5.28,0.1806
5.284,0.13975
5.288,0.13771
5.292,0.13786
5.296,0.10724
5.3,0.11722
5.304,0.12695
5.308,0.12271
5.312,0.08797
5.316,0.07177
5.32,0.03596
5.324,0.10979
5.328,0.04683
5.332,0.05768
5.336,0.05737
5.34,0.03722
5.344,0.03854
5.348,0.04899
5.352,0.04927
5.356,0.05479
5.36,0.03295
5.364,0.02629
5.368,0.01649
5.372,0.0638
5.376,0.04047
5.38,0.02348
5.384,0.02963
5.388,0.03791
5.392,0.04208
5.396,0.02906
5.4,0.04789
5.404,0.02089
5.408,0.03231
5.412,0.00257
5.416,0.02853
5.42,0.03306
5.424,0.04051
5.428,-0.00416
5.432,0.0468
5.436,-0.00974
5.44,0.03097
5.444,0.04476
5.448,0.01622
5.452,0.03016
5.456,0.02449
5.46,0.01104
5.464,0.01942
5.468,0.0514
5.472,0.02734
5.476,0.0293
5.48,0.02235
5.484,0.01681
5.488,0.02337
5.492,0.03887
5.496,-0.0006
5.5,0.00503
5.504,0.04508
5.508,0.05035
5.512,0.00056
5.516,0.03198
5.52,0.05952
5.524,0.0027
5.528,0.03181
5.532,0.01756
5.536,0.03433
5.54,0.04363
5.544,0.02722
5.548,0.0255
5.552,0.00115
5.556,0.02832
5.56,0.03646
5.564,0.0342
5.568,0.01313
5.572,0.03429
5.576,0.03511
5.58,0.04081
5.584,0.00557
5.588,0.0318
5.592,0.03822
5.596,0.03113
5.6,0.05065
5.604,0.01542
5.608,0.00524
5.612,0.02456
5.616,-0.01436
5.62,0.01885
5.624,0.03196
5.628,0.01959
5.632,0.04222
5.636,0.00091
5.64,0.02178
5.644,0.01606
5.648,0.01586
5.652,0.02529
5.656,0.0207
5.66,0.00749
5.664,0.02664
5.668,0.02926
5.672,-0.00516
5.676,0.03206
5.68,0.0267
5.684,0.0159
5.688,0.00888
5.692,0.02038
5.696,-0.01267
5.7,0.00194
5.704,0.02278
5.708,0.02531
5.712,0.0179
5.716,0.01509
5.72,0.03909
5.724,0.03918
5.728,0.04201
5.732,0.02632
5.736,0.01876
5.74,0.03889
5.744,0.02363
5.748,0.01717
5.752,0.02522
5.756,0.02359
5.76,0.01985
5.764,0.02306
5.768,0.02521
5.772,0.01017
5.776,0.03521
5.78,0.02985
5.784,0.01875
5.788,-0.00614
5.792,0.04289
5.796,0.01796
5.8,-0.0025
5.804,0.04114
5.808,0.02501
5.812,0.00429
5.816,0.00302
5.82,0.00155
5.824,0.01921
5.828,0.03014
5.832,0.00523
5.836,0.04187
5.84,0.03191
5.844,0.04496
5.848,0.01081
5.852,0.02287
5.856,0.01236
5.86,0.03551
5.864,0.03535
5.868,0.02441
5.872,0.02367
5.876,0.05352
5.88,0.03865
5.884,0.0342
5.888,0.0183
5.892,0.02904
5.896,0.03417
5.9,0.01792
5.904,0.04411
5.908,0.05016
5.912,0.04022
5.916,0.05622
5.92,0.06917
5.924,0.08494
5.928,0.09105
5.932,0.07846
5.936,0.13545
5.94,0.11714
5.944,0.12441
5.948,0.1182
5.952,0.09899
5.956,0.09464
5.96,0.09746
5.964,0.06922
5.968,0.06715
5.972,0.0337
5.976,0.03207
5.98,0.01647
5.984,0.04241
5.988,0.02891
5.992,0.01691
5.996,0.02004
6.0,0.02349
6.004,0.00653
6.008,0.01967
6.012,-0.02766
6.016,0.02664
6.02,0.00345
6.024,-0.00307
6.028,-0.0041
6.032,0.02884
6.036,0.00181
6.04,0.01637
6.044,0.01501
6.048,0.02985
6.052,0.00557
6.056,-0.02494
6.06,-0.01004
6.064,-0.0427
6.068,-0.11675
6.072,-0.12764
6.076,-0.03146
6.08,0.09539
6.084,0.28303
6.088,0.493
6.092,0.71615
6.096,0.87183
6.1,0.99145
6.104,0.96983
6.108,0.88213
6.112,0.73417
6.116,0.49887
6.12,0.24168
6.124,0.07216
6.128,-0.04419
6.132,-0.15947
6.136,-0.18026
6.14,-0.13191
6.144,-0.0876
6.148,-0.04169
6.152,-0.01675
6.156,-0.00542
6.16,-0.00794
6.164,0.02551
6.168,0.02849
6.172,0.02056
6.176,0.01824
6.18,0.02575
6.184,0.00023
6.188,-0.005
6.192,0.02364
6.196,0.0107
6.2,0.01838
6.204,0.03515
6.208,0.01408
6.212,0.0099
6.216,0.01996
6.22,0.02861
6.224,-0.00499
6.228,0.02815
6.232,0.01507
6.236,0.00828
6.24,0.0159
6.244,0.02843
6.248,0.00943
6.252,0.02571
6.256,0.02448
6.26,0.00948
6.264,0.01099
6.268,-0.00623
6.272,0.02361
6.276,0.00743
6.28,0.04592
6.284,0.05009
6.288,0.01302
6.292,0.02641
6.296,0.05098
6.3,0.04674
6.304,0.06426
6.308,0.06938
6.312,0.06137
6.316,0.08371
6.32,0.10728
6.324,0.07075
6.328,0.13627
6.332,0.11265
6.336,0.11776
6.34,0.15768
6.344,0.13625
6.348,0.15419
6.352,0.161
6.356,0.18595
6.36,0.1915
6.364,0.22812
6.368,0.20455
6.372,0.23722
6.376,0.22867
6.38,0.23477
6.384,0.2103
6.388,0.24433
6.392,0.22228
6.396,0.2019
6.4,0.21802
6.404,0.19057
6.408,0.19032
6.412,0.17649
6.416,0.19485
6.42,0.15242
6.424,0.14391
6.428,0.13605
6.432,0.11253
6.436,0.11991
6.44,0.09783
6.444,0.05914
6.448,0.07387
6.452,0.04682
6.456,0.04979
6.46,0.04227
6.464,0.04416
6.468,0.04709
6.472,0.04317
6.476,0.04101
6.48,0.02458
6.484,0.01447
6.488,0.0132
6.492,0.01755
6.496,-7e-05
6.5,0.01259
6.504,0.01729
6.508,-0.03773
6.512,0.04261
6.516,0.00799
6.52,-0.00057
6.524,-0.01471
6.528,0.0285
6.532,-0.03881
6.536,-0.02301
6.54,0.01092
6.544,-0.00414
6.548,0.00954
6.552,-0.00736
6.556,0.00115
6.56,-0.0041
6.564,0.01132
6.568,-0.00098
6.572,0.01192
6.576,0.01965
6.58,-0.00797
6.584,-0.04261
6.588,0.00514
6.592,-0.0211
6.596,0.013
6.6,0.00943
6.604,0.02874
6.608,-0.00679
6.612,-0.00461
6.616,0.03094
6.62,0.01437
6.624,0.0039
6.628,0.00568
6.632,-0.01283
6.636,-0.01253
6.64,0.02286
6.644,0.02164
6.648,-0.01137
6.652,0.01473
6.656,0.01343
6.66,0.03915
6.664,0.00683
6.668,0.01261
6.672,-0.00677
6.676,-0.02458
6.68,-0.00667
6.684,0.0008
6.688,-0.02107
6.692,-0.0028
6.696,-0.0181
6.7,-0.01957
6.704,-0.00406
6.708,0.02983
6.712,0.01618
6.716,0.03268
6.72,0.01443
6.724,-0.01281
6.728,-0.00781
6.732,0.00645
6.736,0.0028
6.74,-0.01065
6.744,0.01001
6.748,0.00401
6.752,0.00177
6.756,-0.00451
6.76,-0.0039
6.764,-0.01806
6.768,-0.02185
6.772,-0.02984
6.776,0.01676
6.78,-0.02534
6.784,0.00302
6.788,0.00583
6.792,-0.015
6.796,-0.02463
6.8,0.0015
6.804,0.01392
6.808,-0.00746
6.812,-0.01997
6.816,-0.01955
6.82,-0.00518
6.824,-0.00587
6.828,-0.03175
6.832,0.02074
6.836,0.00672
6.84,0.0093
6.844,-0.00862
6.848,-0.0097
6.852,0.03273
6.856,0.05996
6.86,0.06155
6.864,0.04577
6.868,0.07342
6.872,0.05742
6.876,0.09095
6.88,0.06732
6.884,0.07687
6.888,0.08159
6.892,0.08281
6.896,0.05701
6.9,0.05577
6.904,0.06546
6.908,0.04941
6.912,0.02095
6.916,0.02529
6.92,0.02195
6.924,0.00536
6.928,0.00766
6.932,-0.02239
6.936,0.01517
6.94,0.00473
6.944,-0.00536
6.948,-0.00171
6.952,0.00049
6.956,0.02003
6.96,0.0124
6.964,-0.01625
6.968,-0.00169
6.972,-0.01776
6.976,-0.01386
6.98,-0.00992
6.984,0.00809
6.988,-0.01143
6.992,-0.02276
6.996,-0.02769
7.0,-0.03762
7.004,-0.10607
7.008,-0.12185
7.012,-0.11125
7.016,-0.05816
7.02,0.06442
7.024,0.25622
7.028,0.45199
7.032,0.69982
7.036,0.85336
7.04,0.98533
7.044,0.98027
7.048,0.83528
7.052,0.64093
7.056,0.45584
7.06,0.23135
7.064,0.04515
7.068,-0.0994
7.072,-0.18167
7.076,-0.17413
7.08,-0.14448
7.084,-0.10482
7.088,-0.10034
7.092,-0.04126
7.096,-0.00935
7.1,-0.01235
7.104,-0.01987
7.108,-0.02409
7.112,-0.01819
7.116,-0.02742
7.12,-0.00273
7.124,-0.01578
7.128,-0.02676
7.132,-0.00501
7.136,-0.03249
7.14,0.00523
7.144,-0.04406
7.148,-0.00646
7.152,0.00948
7.156,-0.01871
7.16,-0.03552
7.164,-0.01334
7.168,-0.02044
7.172,-0.00353
7.176,0.01968
7.18,-0.00413
7.184,0.00154
7.188,-0.01863
7.192,-0.01188
7.196,-0.00489
7.2,-0.03366
7.204,0.00585
7.208,-0.00344
7.212,0.00666
7.216,-0.00707
7.22,0.00889
7.224,0.01516
7.228,0.02213
7.232,0.00477
7.236,-0.00222
7.24,0.00347
7.244,0.04772
7.248,0.04017
7.252,0.04465
7.256,0.05507
7.26,0.086
7.264,0.06278
7.268,0.11177
7.272,0.07124
7.276,0.12631
7.28,0.14744
7.284,0.133
7.288,0.12251
7.292,0.14024
7.296,0.153
7.3,0.20342
7.304,0.17676
7.308,0.20546
7.312,0.20415
7.316,0.19246
7.32,0.20745
7.324,0.20043
7.328,0.18674
7.332,0.18254
7.336,0.19242
7.34,0.20439
7.344,0.14879
7.348,0.16294
7.352,0.15683
7.356,0.16622
7.36,0.11219
7.364,0.12346
7.368,0.12045
7.372,0.09483
7.376,0.07016
7.38,0.07386
7.384,0.07529
7.388,0.03362
7.392,0.0425
7.396,0.04241
7.4,0.02603
7.404,0.02402
7.408,0.02223
7.412,0.00145
7.416,-0.00731
7.42,-0.01573
7.424,-0.00034
7.428,0.00295
7.432,-0.0164
7.436,0.01451
7.44,-0.01835
7.444,-0.01324
7.448,-0.04574
7.452,-0.02002
7.456,-0.03657
7.46,-0.03098
7.464,-0.00715
7.468,-0.00835
7.472,-0.02371
7.476,-0.026
7.48,-0.00991
7.484,-0.00554
7.488,-0.02842
7.492,-0.01433
7.496,-0.01532
7.5,-0.02658
7.504,-0.00425
7.508,-0.03297
7.512,-0.03643
7.516,-0.02942
7.52,-0.02309
7.524,-0.00143
7.528,-0.03047
7.532,-0.01654
7.536,-0.02658
7.54,-0.0238
7.544,0.00293
7.548,-0.03296
7.552,0.00366
7.556,-0.02646
7.56,-0.03006
7.564,-0.04479
7.568,-0.03145
7.572,-0.02274
7.576,-0.01913
7.58,-0.03671
7.584,-0.02932
7.588,-0.00334
7.592,-0.03811
7.596,-0.02978
7.6,-0.00604
7.604,-0.00189
7.608,-0.04539
7.612,-0.03046
7.616,-0.03757
7.62,-0.02567
7.624,-0.02182
7.628,-0.02981
7.632,-0.01238
7.636,-0.02071
7.64,-0.00483
7.644,-0.04136
7.648,-0.03481
7.652,-0.01133
7.656,-0.02678
7.66,0.00338
7.664,-0.02234
7.668,-0.02271
7.672,-0.02585
7.676,-0.00544
7.68,-0.00621
7.684,-0.02036
7.688,-0.04511
7.692,-0.03443
7.696,-0.00405
7.7,-0.03108
7.704,-0.03996
7.708,-0.01984
7.712,-0.03038
7.716,-0.0164
7.72,-0.04415
7.724,-0.04813
7.728,-0.03583
7.732,-0.01966
7.736,-0.02147
7.74,-0.01922
7.744,-0.01003
7.748,-0.02818
7.752,-0.02337
7.756,-0.01617
7.76,-0.01138
7.764,-0.00569
7.768,-0.04257
7.772,-0.01221
7.776,-0.02816
7.78,-0.0264
7.784,0.00588
7.788,-0.02823
7.792,-0.02406
7.796,0.01641
7.8,0.02359
7.804,0.00944
7.808,-0.01367
7.812,-0.00836
7.816,0.03652
7.82,0.0571
7.824,0.06353
7.828,0.06737
7.832,0.08744
7.836,0.05622
7.84,0.07422
7.844,0.05079
7.848,0.07628
7.852,0.03767
7.856,0.00826
7.86,0.02335
7.864,-0.01611
7.868,0.00312
7.872,-0.00456
7.876,0.00602
7.88,-0.01739
7.884,-0.02317
7.888,-0.02725
7.892,-0.04939
7.896,-0.04678
7.9,-0.01336
7.904,-0.02276
7.908,-0.03159
7.912,-0.002
7.916,-0.0264
7.92,-0.04795
7.924,-0.02967
7.928,-0.03851
7.932,-0.0508
7.936,-0.05524
7.94,-0.01477
7.944,-0.02757
7.948,-0.04393
7.952,-0.08383
7.956,-0.08345
7.96,-0.13508
7.964,-0.14646
7.968,-0.06762
7.972,0.03742
7.976,0.22872
7.98,0.44249
7.984,0.6586
7.988,0.83697
7.992,0.96236
7.996,0.95378
8.0,0.85927
8.004,0.68003
8.008,0.43399
8.012,0.22458
8.016,0.04579
8.02,-0.10379
8.024,-0.17841
8.028,-0.17317
8.032,-0.18047
8.036,-0.12727
8.04,-0.09291
8.044,-0.09622
8.048,-0.04826
8.052,-0.05213
8.056,-0.02388
8.06,-0.02711
8.064,-0.05314
8.068,-0.02173
8.072,-0.03997
8.076,-0.03729
8.08,-0.00529
8.084,-0.03814
8.088,-0.04678
8.092,-0.05054
8.096,-0.03322
8.1,-0.04487
8.104,-0.00757
8.108,-0.03973
8.112,-0.02485
8.116,-0.03423
8.12,-0.0354
8.124,0.00074
8.128,-0.03629
8.132,0.00101
8.136,-0.01131
8.14,-0.05004
8.144,-0.03758
8.148,-0.0309
8.152,-0.02223
8.156,-0.00091
8.16,-0.0319
8.164,0.00258
8.168,-0.00047
8.172,-0.00646
8.176,-0.00072
8.18,-0.03684
8.184,-0.01137
8.188,-0.00863
8.192,-0.00677
8.196,0.03925
8.2,0.05157
8.204,0.03127
8.208,0.05908
8.212,0.02347
8.216,0.05878
8.22,0.05659
8.224,0.07437
8.228,0.07953
8.232,0.1356
8.236,0.10517
8.24,0.11213
8.244,0.15765
8.248,0.15763
8.252,0.18045
8.256,0.17029
8.26,0.17871
8.264,0.18213
8.268,0.17002
8.272,0.1868
8.276,0.21456
8.28,0.1965
8.284,0.18558
8.288,0.17774
8.292,0.15729
8.296,0.17586
8.3,0.11838
8.304,0.16583
8.308,0.17138
8.312,0.11537
8.316,0.1033
8.32,0.11108
8.324,0.11063
8.328,0.08313
8.332,0.06741
8.336,0.08352
8.34,0.05575
8.344,0.04562
8.348,0.0446
8.352,0.00584
8.356,0.00946
8.36,-0.00544
8.364,0.00967
8.368,-0.00761
8.372,-0.02621
8.376,-0.01832
8.38,-0.04284
8.384,-0.01721
8.388,-0.02476
8.392,-0.01005
8.396,-0.04661
8.4,-0.01847
8.404,-0.01469
8.408,-0.01426
8.412,-0.03183
8.416,-0.01834
8.42,-0.02787
8.424,-0.03674
8.428,-0.04216
8.432,-0.02347
8.436,-0.03638
8.44,-0.04167
8.444,-0.02886
8.448,-0.00516
8.452,-0.00559
8.456,-0.02888
8.46,-0.0146
8.464,-0.03017
8.468,0.0016
8.472,-0.02592
8.476,-0.04046
8.48,0.00384
8.484,-0.03786
8.488,-0.00356
8.492,-0.06003
8.496,-0.04325
8.5,-0.01831
8.504,-0.04848
8.508,-0.02905
8.512,-0.03547
8.516,-0.00967
8.52,-0.04222
8.524,-0.01982
8.528,-0.04182
8.532,-0.03013
8.536,-0.04375
8.54,-0.03898
8.544,-0.04722
8.548,-0.01133
8.552,-0.02039
8.556,-0.01829
8.56,-0.02479
8.564,-0.05215
8.568,-0.0034
8.572,-0.03683
8.576,-0.01047
8.58,-0.05918
8.584,-0.04576
8.588,-0.00936
8.592,-0.01267
8.596,0.00108
8.6,-0.01556
8.604,-0.00334
8.608,-0.02955
8.612,-0.02377
8.616,-0.01884
8.62,-0.0452
8.624,-0.00453
8.628,-0.03444
8.632,-0.01318
8.636,-0.0092
8.64,-0.02067
8.644,-0.04598
8.648,-0.04352
8.652,-0.00543
8.656,-0.01988
8.66,-0.04807
8.664,-0.01735
8.668,-0.02261
8.672,-0.0336
8.676,-0.02648
8.68,-0.04241
8.684,-0.04702
8.688,-0.0187
8.692,-0.03328
8.696,-0.02135
8.7,-0.03124
8.704,-0.01391
8.708,-0.01215
8.712,-0.0101
8.716,-0.00518
8.72,0.02762
8.724,0.01904
8.728,0.03351
8.732,0.02571
8.736,0.03851
8.74,0.0477
8.744,0.085
8.748,0.08432
8.752,0.05437
8.756,0.06459
8.76,0.04739
8.764,0.04317
8.768,0.03007
8.772,0.02709
8.776,0.00887
8.78,-0.00943
8.784,-0.00205
8.788,-0.01932
8.792,-0.01355
8.796,-0.02689
8.8,-0.00218
8.804,0.00457
8.808,-0.02516
8.812,-0.0392
8.816,-0.0182
8.82,-0.03361
8.824,-0.01498
8.828,-0.00337
8.832,-0.03909
8.836,-0.00809
8.84,-0.03489
8.844,-0.01844
8.848,-0.0219
8.852,-0.02745
8.856,-0.02728
8.86,-0.03946
8.864,-0.06994
8.868,-0.08562
8.872,-0.11612
8.876,-0.14954
8.88,-0.12907
8.884,-0.04417
8.888,0.08484
8.892,0.30184
8.896,0.50867
8.9,0.74303
8.904,0.89521
8.908,0.96905
8.912,0.9409
8.916,0.83522
8.92,0.61171
8.924,0.40095
8.928,0.17885
8.932,-0.03167
8.936,-0.12352
8.94,-0.17571
8.944,-0.20446
8.948,-0.14156
8.952,-0.10142
8.956,-0.04936
8.96,-0.02422
8.964,-0.05393
8.968,-0.0221
8.972,-0.02717
8.976,-0.03963
8.98,-0.01602
8.984,-0.02369
8.988,-0.03479
8.992,-0.03207
8.996,-0.05314
9.0,-0.0142
9.004,-0.03782
9.008,-0.02931
9.012,-0.02899
9.016,0.00416
9.02,-0.00518
9.024,-0.03821
9.028,-0.03434
9.032,-0.01308
9.036,-0.00753
9.04,-0.03864
9.044,-0.0022
9.048,-0.02694
9.052,0.01308
9.056,-0.0216
9.06,-0.03887
9.064,-0.02532
9.068,-0.02925
9.072,-0.01978
9.076,-0.00992
9.08,-0.02525
9.084,-0.03383
9.088,0.00789
9.092,-0.00761
9.096,0.01329
9.1,0.01052
9.104,0.00399
9.108,0.02725
9.112,-0.0006
9.116,0.02986
9.12,0.04327
9.124,0.06922
9.128,0.08647
9.132,0.08074
9.136,0.09485
9.14,0.10172
9.144,0.08813
9.148,0.12824
9.152,0.14815
9.156,0.14767
9.16,0.16746
9.164,0.17632
9.168,0.17542
9.172,0.19073
9.176,0.1716
9.18,0.19644
9.184,0.18901
9.188,0.20252
9.192,0.20464
9.196,0.20247
9.2,0.20664
9.204,0.19842
9.208,0.19179
9.212,0.17727
9.216,0.14367
9.22,0.12504
9.224,0.17736
9.228,0.11495
9.232,0.10531
9.236,0.11131
9.24,0.08124
9.244,0.06535
9.248,0.07163
9.252,0.0761
9.256,0.05116
9.26,0.06939
9.264,0.0458
9.268,0.0217
9.272,0.01162
9.276,0.01425
9.28,0.00335
9.284,-0.01225
9.288,0.01218
9.292,0.00506
9.296,0.01577
9.3,-0.00924
9.304,0.00125
9.308,0.00525
9.312,-0.00151
9.316,-0.02688
9.32,-0.02122
9.324,-0.01437
9.328,-0.00491
9.332,-0.0189
9.336,-0.02473
9.34,-0.0315
9.344,-0.00604
9.348,-0.01112
9.352,0.01197
9.356,-0.00213
9.36,-0.03332
9.364,-0.02443
9.368,-0.02011
9.372,-0.01994
9.376,-0.0057
9.38,-0.04142
9.384,0.00565
9.388,-0.00335
9.392,-0.00025
9.396,-0.03318
9.4,0.00728
9.404,-0.01585
9.408,0.00031
9.412,-0.02557
9.416,-0.00684
9.42,-0.02442
9.424,-0.01309
9.428,0.00335
9.432,0.02166
9.436,-0.01994
9.44,-0.0113
9.444,-0.03591
9.448,-0.0348
9.452,-0.00555
9.456,-0.03622
9.46,-0.02323
9.464,-0.00336
9.468,-0.02584
9.472,-0.02556
9.476,0.01037
9.48,0.00721
9.484,-0.03891
9.488,-0.00286
9.492,0.00785
9.496,-0.02593
9.5,-0.01529
9.504,0.00448
9.508,-0.00291
9.512,0.00405
9.516,-0.0206
9.52,-0.04297
9.524,-0.01997
9.528,-0.03061
9.532,-0.00786
9.536,-0.01843
9.54,0.01114
9.544,0.00251
9.548,0.00057
9.552,0.02124
9.556,-0.03104
9.56,0.01304
9.564,0.00063
9.568,-0.0227
9.572,-0.01537
9.576,0.02191
9.58,-0.0242
9.584,-0.01835
9.588,0.00246
9.592,0.00581
9.596,-0.00708
9.6,-0.00879
9.604,0.00864
9.608,-0.01741
9.612,-0.02945
9.616,-0.00494
9.62,-0.0097
9.624,-0.02429
9.628,-0.00728
9.632,0.00442
9.636,0.02746
9.64,-0.02071
9.644,0.00049
9.648,-0.01123
9.652,-0.00165
9.656,-0.00371
9.66,0.00409
9.664,0.00045
9.668,0.03008
9.672,-0.00335
9.676,-0.00312
9.68,-0.02686
9.684,-0.00536
9.688,-0.02537
9.692,-0.00521
9.696,-0.02595
9.7,-0.01773
9.704,-0.0226
9.708,8e-05
9.712,-0.01385
9.716,0.0297
9.72,0.02252
9.724,0.03837
9.728,0.05637
9.732,0.05791
9.736,0.06549
9.74,0.04919
9.744,0.08025
9.748,0.09464
9.752,0.09744
9.756,0.05817
9.76,0.08637
9.764,0.07053
9.768,0.0683
9.772,0.05971
9.776,0.05779
9.78,0.0592
9.784,0.00824
9.788,0.03171
9.792,0.00656
9.796,-0.02026
9.8,-0.00769
9.804,0.01142
9.808,0.01074
9.812,0.00343
9.816,0.00875
9.82,0.04454
9.824,-0.02217
9.828,-0.03571
9.832,-0.00922
9.836,-0.0099
9.84,-0.00251
9.844,0.01795
9.848,-0.0188
9.852,-0.01805
9.856,0.03125
9.86,-0.01551
9.864,-0.0159
9.868,-0.02623
9.872,-0.05297
9.876,-0.08076
9.88,-0.12719
9.884,-0.10843
9.888,-0.01989
9.892,0.12782
9.896,0.32507
9.9,0.50945
9.904,0.72383
9.908,0.91186
9.912,0.9953
9.916,0.94827
9.92,0.85292
9.924,0.65338
9.928,0.44732
9.932,0.19473
9.936,0.03924
9.94,-0.09426
9.944,-0.16015
9.948,-0.16483
9.952,-0.11307
9.956,-0.09779
9.96,-0.05973
9.964,-0.02458
9.968,0.00175
9.972,-0.03261
9.976,0.01078
9.98,0.00387
9.984,0.02134
9.988,-0.012
9.992,-0.01627
9.996,-0.00544
