t_seg,ecg_mV
0.0,0.00966
0.004,0.02805
0.008,0.03199
0.012,0.03842
0.016,0.00635
0.02,0.04323
0.024,0.02845
0.028,0.02524
0.032,0.03656
0.036,0.05492
0.04,0.02368
0.044,0.02447
0.048,0.04443
0.052,0.01616
0.056,0.03033
0.06,0.02325
0.064,0.03854
0.068,0.01093
0.072,0.03668
0.076,0.03693
0.08,0.00382
0.084,0.02694
0.088,0.02463
0.092,0.01895
0.096,0.03868
0.1,0.01774
0.104,0.02749
0.108,0.02055
0.112,0.02428
0.116,0.02341
0.12,0.03519
0.124,0.02194
0.128,0.0231
0.132,0.06345
0.136,0.03663
0.14,0.02013
0.144,0.02728
0.148,0.0175
0.152,0.03101
0.156,0.00915
0.16,0.0215
0.164,0.03951
0.168,0.02671
0.172,0.02646
0.176,0.03396
0.18,0.03605
0.184,0.05967
0.188,0.00442
0.192,0.01071
0.196,0.01058
0.2,0.03279
0.204,0.03876
0.208,0.04293
0.212,-0.00084
0.216,0.02789
0.22,0.05685
0.224,0.02878
0.228,0.00603
0.232,0.0274
0.236,0.02593
0.24,0.02012
0.244,0.03883
0.248,-0.00097
0.252,0.01606
0.256,0.06369
0.26,0.06805
0.264,0.08494
0.268,0.09288
0.272,0.08876
0.276,0.09924
0.28,0.11025
0.284,0.11161
0.288,0.13902
0.292,0.11697
0.296,0.11356
0.3,0.14947
0.304,0.10144
0.308,0.08333
0.312,0.06052
0.316,0.04615
0.32,0.05945
0.324,0.06289
0.328,0.04688
0.332,0.04654
0.336,0.03482
0.34,0.01306
0.344,0.03717
0.348,0.00557
0.352,0.03823
0.356,0.0203
0.36,0.01979
0.364,0.03497
0.368,0.01933
0.372,0.05195
0.376,0.04569
0.38,0.05111
0.384,0.04602
0.388,0.01992
0.392,0.0381
0.396,0.05518
0.4,0.03442
0.404,0.00212
0.408,-0.03964
0.412,-0.05278
0.416,-0.08937
0.42,-0.03648
0.424,-0.00565
0.428,0.12047
0.432,0.31714
0.436,0.50947
0.44,0.72175
0.444,0.94044
0.448,1.02558
0.452,1.00851
0.456,0.86974
0.46,0.69732
0.464,0.46515
0.468,0.24965
0.472,0.03568
0.476,-0.07548
0.48,-0.13602
0.484,-0.15616
0.488,-0.09293
0.492,-0.06845
0.496,-0.0107
0.5,0.02111
0.504,0.03143
0.508,0.02765
0.512,0.03861
0.516,0.0364
0.52,0.02093
0.524,0.00804
0.528,0.04339
0.532,0.05092
0.536,0.0171
0.54,0.02457
0.544,0.01323
0.548,0.01781
0.552,0.01214
0.556,0.04272
0.56,0.03265
0.564,0.0157
0.568,0.02581
0.572,0.03637
0.576,0.02566
0.58,0.01508
0.584,0.05495
0.588,0.00677
0.592,0.02719
0.596,0.02451
0.6,0.02162
0.604,0.02532
0.608,0.0112
0.612,0.06378
0.616,0.03292
0.62,0.02836
0.624,0.03426
0.628,0.04134
0.632,0.0456
0.636,0.04603
0.64,0.07906
0.644,0.05711
0.648,0.07805
0.652,0.07744
0.656,0.10823
0.66,0.07569
0.664,0.11209
0.668,0.14395
0.672,0.14001
0.676,0.16331
0.68,0.15285
0.684,0.16931
0.688,0.16151
0.692,0.19543
0.696,0.20749
0.7,0.21224
0.704,0.20361
0.708,0.20974
0.712,0.246
0.716,0.23326
0.72,0.25952
0.724,0.23226
0.728,0.25331
0.732,0.25103
0.736,0.25637
0.74,0.2342
0.744,0.23087
0.748,0.24512
0.752,0.20812
0.756,0.22621
0.76,0.20175
0.764,0.20491
0.768,0.17738
0.772,0.1787
0.776,0.13644
0.78,0.16188
0.784,0.14877
0.788,0.11224
0.792,0.13072
0.796,0.12664
0.8,0.10372
0.804,0.06646
0.808,0.04138
0.812,0.06525
0.816,0.07955
0.82,0.08354
0.824,0.07128
0.828,0.04208
0.832,0.05085
0.836,0.0502
0.84,0.02911
0.844,0.03981
0.848,0.0212
0.852,0.02191
0.856,0.03778
0.86,0.04349
0.864,0.02409
0.868,0.04228
0.872,0.02825
0.876,0.02112
0.88,0.03093
0.884,0.04892
0.888,0.00213
0.892,0.04254
0.896,0.05578
0.9,0.02251
0.904,0.04261
0.908,0.04506
0.912,0.01213
0.916,0.00187
0.92,0.03607
0.924,0.02083
0.928,0.04668
0.932,0.02614
0.936,0.04849
0.94,0.02128
0.944,0.02119
0.948,0.02119
0.952,0.03684
0.956,0.04647
0.96,0.04325
0.964,0.00856
0.968,0.03532
0.972,0.01849
0.976,0.02939
0.98,0.02717
0.984,0.0361
0.988,0.01015
0.992,-0.00093
0.996,0.02819
1.0,0.04155
1.004,0.01042
1.008,0.01795
1.012,0.01979
1.016,0.02211
1.02,0.02559
1.024,0.04899
1.028,0.02107
1.032,0.02098
1.036,0.05074
1.04,0.01983
1.044,0.03872
1.048,0.06197
1.052,0.06034
1.056,0.08065
1.06,0.10661
1.064,0.09125
1.068,0.09591
1.072,0.10539
1.076,0.12965
1.08,0.14712
1.084,0.11256
1.088,0.11826
1.092,0.08983
1.096,0.08495
1.1,0.09991
1.104,0.08478
1.108,0.03983
1.112,0.05243
1.116,0.02598
1.12,0.04303
1.124,0.04433
1.128,0.00991
1.132,0.01525
1.136,0.04277
1.14,-0.00261
1.144,0.03569
1.148,0.03416
1.152,0.02472
1.156,0.00631
1.16,0.02968
1.164,0.02034
1.168,0.05076
1.172,0.02027
1.176,0.01944
1.18,0.06046
1.184,0.00764
1.188,0.02931
1.192,-0.00132
1.196,0.01281
1.2,-0.03944
1.204,-0.04977
1.208,-0.08769
1.212,-0.06352
1.216,0.05729
1.22,0.20016
1.224,0.38886
1.228,0.61394
1.232,0.81075
1.236,0.98451
1.24,0.99295
1.244,0.94139
1.248,0.79264
1.252,0.58861
1.256,0.3482
1.26,0.12912
1.264,-0.03032
1.268,-0.12124
1.272,-0.13622
1.276,-0.15433
1.28,-0.10057
1.284,-0.04058
1.288,0.0036
1.292,-0.00855
1.296,0.04089
1.3,0.03047
1.304,0.01698
1.308,0.02854
1.312,0.02409
1.316,0.0146
1.32,0.01411
1.324,0.01062
1.328,0.01075
1.332,0.02144
1.336,0.02645
1.34,0.00603
1.344,0.00752
1.348,0.04353
1.352,0.00198
1.356,0.03571
1.36,0.04696
1.364,0.03332
1.368,0.01062
1.372,0.03783
1.376,0.03297
1.38,0.03585
1.384,0.02419
1.388,0.03682
1.392,0.03995
1.396,0.01825
1.4,-0.00687
1.404,0.03735
1.408,0.02109
1.412,0.04897
1.416,0.02949
1.42,0.03779
1.424,0.04706
1.428,0.06419
1.432,0.07533
1.436,0.05103
1.44,0.07819
1.444,0.05521
1.448,0.06283
1.452,0.1024
1.456,0.11867
1.46,0.12642
1.464,0.12024
1.468,0.1414
1.472,0.1402
1.476,0.14784
1.48,0.15625
1.484,0.16983
1.488,0.18983
1.492,0.20604
1.496,0.20629
1.5,0.23919
1.504,0.24183
1.508,0.26482
1.512,0.20762
1.516,0.26899
1.52,0.2457
1.524,0.23459
1.528,0.22555
1.532,0.22477
1.536,0.23947
1.54,0.20472
1.544,0.2408
1.548,0.19985
1.552,0.19473
1.556,0.17592
1.56,0.16545
1.564,0.15937
1.568,0.17173
1.572,0.15215
1.576,0.12732
1.58,0.1093
1.584,0.09962
1.588,0.11943
1.592,0.09708
1.596,0.11716
1.6,0.07366
1.604,0.0654
1.608,0.03222
1.612,0.07158
1.616,0.04521
1.62,0.0464
1.624,0.00513
1.628,0.03653
1.632,0.04175
1.636,0.036
1.64,0.05323
1.644,0.0071
1.648,0.03274
1.652,0.03184
1.656,0.04383
1.66,0.02254
1.664,-0.00181
1.668,0.02135
1.672,0.00232
1.676,0.01654
1.68,0.0122
1.684,-0.00569
1.688,0.02502
1.692,0.04691
1.696,0.00758
1.7,0.0034
1.704,0.01707
1.708,-0.01152
1.712,0.01575
1.716,0.0218
1.72,0.02966
1.724,-0.00496
1.728,0.02037
1.732,0.02898
1.736,0.01259
1.74,0.03681
1.744,0.00689
1.748,0.00836
1.752,0.01846
1.756,0.03035
1.76,0.02002
1.764,0.02344
1.768,0.02996
1.772,0.00629
1.776,0.00923
1.78,0.02876
1.784,0.03297
1.788,0.03931
1.792,0.02002
1.796,0.01967
1.8,0.01986
1.804,-0.00428
1.808,-0.01258
1.812,0.00405
1.816,0.02363
1.82,-0.00612
1.824,-0.00616
1.828,0.01561
1.832,0.00596
1.836,-0.00496
1.84,0.02507
1.844,0.03437
1.848,0.04034
1.852,-0.01136
1.856,0.06538
1.86,0.05812
1.864,0.06291
1.868,0.08334
1.872,0.09098
1.876,0.11428
1.88,0.13955
1.884,0.10658
1.888,0.08494
1.892,0.12308
1.896,0.10196
1.9,0.09351
1.904,0.11416
1.908,0.06918
1.912,0.06074
1.916,0.04823
1.92,0.01428
1.924,0.01545
1.928,0.00268
1.932,0.01614
1.936,0.0349
1.94,0.01536
1.944,0.01228
1.948,-0.00394
1.952,0.03287
1.956,0.02119
1.96,0.00846
1.964,0.02487
1.968,-0.00277
1.972,0.01059
1.976,-0.01184
1.98,0.01095
1.984,-0.01967
1.988,0.02081
1.992,0.04808
1.996,0.01427
2.0,-0.01121
2.004,-0.05135
2.008,-0.07347
2.012,-0.10998
2.016,-0.10362
2.02,-0.00364
2.024,0.15292
2.028,0.3561
2.032,0.59108
2.036,0.77177
2.04,0.93967
2.044,1.01584
2.048,0.97513
2.052,0.83003
2.056,0.60652
2.06,0.40206
2.064,0.16936
2.068,0.00121
2.072,-0.11212
2.076,-0.13693
2.08,-0.15261
2.084,-0.13912
2.088,-0.07223
2.092,-0.04911
2.096,0.00014
2.1,-0.00801
2.104,0.00936
2.108,0.00753
2.112,-0.01787
2.116,-0.022
2.12,0.00426
2.124,0.00349
2.128,0.01655
2.132,0.00128
2.136,0.00132
2.14,-0.00487
2.144,-0.01659
2.148,0.04116
2.152,0.01672
2.156,0.01671
2.16,0.00628
2.164,0.00366
2.168,0.00937
2.172,-0.00481
2.176,0.00381
2.18,-0.0022
2.184,-0.01423
2.188,-0.01076
2.192,0.02494
2.196,0.02195
2.2,0.00945
2.204,0.00242
2.208,-0.007
2.212,0.02327
2.216,0.02162
2.22,0.02203
2.224,0.00351
2.228,0.02963
2.232,0.055
2.236,0.01213
2.24,0.05432
2.244,0.04812
2.248,0.07944
2.252,0.05787
2.256,0.08836
2.26,0.06771
2.264,0.09135
2.268,0.13027
2.272,0.10513
2.276,0.11923
2.28,0.14837
2.284,0.15393
2.288,0.14583
2.292,0.1674
2.296,0.1551
2.3,0.19144
2.304,0.19382
2.308,0.20187
2.312,0.21462
2.316,0.22387
2.32,0.22664
2.324,0.20387
2.328,0.21662
2.332,0.21159
2.336,0.21084
2.34,0.18452
2.344,0.17097
2.348,0.19253
2.352,0.1972
2.356,0.18791
2.36,0.15882
2.364,0.15141
2.368,0.14891
2.372,0.13323
2.376,0.10484
2.38,0.1111
2.384,0.07729
2.388,0.07841
2.392,0.07378
2.396,0.07715
2.4,0.04894
2.404,0.02848
2.408,0.02016
2.412,0.03951
2.416,0.01597
2.42,0.01992
2.424,0.02843
2.428,-0.01221
2.432,0.03089
2.436,0.01066
2.44,0.02956
2.444,0.01831
2.448,-0.02467
2.452,0.00511
2.456,-0.01675
2.46,-0.02003
2.464,-0.01004
2.468,-0.00989
2.472,-0.01076
2.476,-0.01232
2.48,0.01034
2.484,0.00617
2.488,0.00716
2.492,-0.01031
2.496,-0.00041
2.5,-0.01377
2.504,-0.01202
2.508,0.02811
2.512,-0.04069
2.516,0.00919
2.52,0.00122
2.524,-0.00292
2.528,-0.01512
2.532,-6e-05
2.536,-0.01312
2.54,-0.00875
2.544,-0.00105
2.548,-0.02148
2.552,-0.00814
2.556,0.00448
2.56,-0.02859
2.564,-0.00314
2.568,-0.01002
2.572,0.00765
2.576,0.01901
2.58,-0.01114
2.584,-0.01473
2.588,0.0061
2.592,-0.01863
2.596,0.02273
2.6,-0.0273
2.604,-0.00073
2.608,-0.02089
2.612,-0.01111
2.616,-0.0152
2.62,-0.01064
2.624,-0.00295
2.628,0.01033
2.632,0.01747
2.636,0.0318
2.64,0.02386
2.644,0.05437
2.648,0.04359
2.652,0.05193
2.656,0.0573
2.66,0.06014
2.664,0.07617
2.668,0.10356
2.672,0.09255
2.676,0.08098
2.68,0.08418
2.684,0.07285
2.688,0.0649
2.692,0.06608
2.696,0.02482
2.7,0.03505
2.704,0.02719
2.708,-0.00998
2.712,0.02524
2.716,-0.01789
2.72,-0.01426
2.724,-0.00835
2.728,-0.00973
2.732,-0.00699
2.736,-0.01506
2.74,-0.00384
2.744,0.02133
2.748,-0.01463
2.752,0.00546
2.756,-0.01916
2.76,-0.03133
2.764,-0.00136
2.768,-0.02761
2.772,-0.02214
2.776,-0.01779
2.78,-0.02144
2.784,-0.03671
2.788,-0.08361
2.792,-0.10097
2.796,-0.14571
2.8,-0.07062
2.804,-0.01165
2.808,0.11112
2.812,0.3378
2.816,0.56288
2.82,0.75032
2.824,0.90114
2.828,0.96673
2.832,0.9446
2.836,0.78522
2.84,0.5687
2.844,0.32886
2.848,0.12074
2.852,-0.01352
2.856,-0.13844
2.86,-0.17191
2.864,-0.18512
2.868,-0.15308
2.872,-0.07129
2.876,-0.06815
2.88,-0.03909
2.884,-0.04997
2.888,-0.01618
2.892,-0.0147
2.896,-0.03146
2.9,-0.03151
2.904,-0.01868
2.908,-0.04409
2.912,-0.03794
2.916,-0.02014
2.92,0.0008
2.924,0.0073
2.928,-0.02789
2.932,-0.03008
2.936,-0.05246
2.94,-0.05582
2.944,-0.03808
2.948,-0.02606
2.952,-0.02124
2.956,-0.03039
2.96,-0.02292
2.964,-0.02643
2.968,-0.02472
2.972,-0.02399
2.976,0.00805
2.98,-0.00344
2.984,-0.00834
2.988,-0.0087
2.992,-0.00533
2.996,-0.02275
3.0,-0.02504
3.004,-0.03798
3.008,0.0393
3.012,0.01052
3.016,0.00623
3.02,0.01865
3.024,0.03676
3.028,0.02142
3.032,0.0424
3.036,0.06601
3.04,0.03063
3.044,0.08336
3.048,0.07651
3.052,0.09475
3.056,0.11408
3.06,0.10662
3.064,0.13244
3.068,0.10939
3.072,0.15684
3.076,0.13438
3.08,0.16386
3.084,0.16284
3.088,0.18227
3.092,0.16865
3.096,0.16759
3.1,0.22714
3.104,0.16739
3.108,0.20053
3.112,0.20016
3.116,0.17256
3.12,0.18964
3.124,0.17381
3.128,0.18639
3.132,0.1568
3.136,0.16179
3.14,0.17301
3.144,0.14695
3.148,0.14657
3.152,0.10611
3.156,0.09247
3.16,0.10303
3.164,0.07296
3.168,0.06801
3.172,0.0518
3.176,0.06281
3.18,0.05236
3.184,0.02364
3.188,0.057
3.192,0.005
3.196,-0.00442
3.2,0.01721
3.204,0.00488
3.208,-0.00854
3.212,-0.01853
3.216,-0.00601
3.22,-0.01751
3.224,0.00107
3.228,-0.02698
3.232,0.00243
3.236,-0.02139
3.24,-0.04034
3.244,-0.02915
3.248,-0.04465
3.252,-0.00978
3.256,0.00107
3.26,-0.05353
3.264,-0.0068
3.268,-0.02323
3.272,-0.01135
3.276,-0.02879
3.28,-0.02364
3.284,-0.03364
3.288,-0.04585
3.292,-0.01473
3.296,-0.05666
3.3,-0.0297
3.304,-0.01655
3.308,0.00744
3.312,-0.01321
3.316,-0.01717
3.32,-0.03493
3.324,-0.00706
3.328,-0.004
3.332,-0.03609
3.336,0.00264
3.34,-0.03372
3.344,-0.05134
3.348,-0.01578
3.352,-0.02566
3.356,-0.03155
3.36,-0.04507
3.364,-0.01893
3.368,-0.01873
3.372,-0.02648
3.376,0.00606
3.38,-0.04157
3.384,-0.03573
3.388,-0.04654
3.392,-0.00855
3.396,-0.02804
3.4,-0.04721
3.404,-0.0321
3.408,-0.03968
3.412,-0.00521
3.416,-0.03019
3.42,-0.05268
3.424,-0.02962
3.428,-0.00433
3.432,-0.04701
3.436,-0.02805
3.44,0.00614
3.444,-0.03574
3.448,-0.03093
3.452,-0.02754
3.456,-0.04521
3.46,-0.02171
3.464,-0.02732
3.468,-0.05019
3.472,-0.0299
3.476,-0.01483
3.48,-0.02195
3.484,-0.0358
3.488,-0.05352
3.492,-0.05204
3.496,-0.02245
3.5,-0.02636
3.504,-0.00401
3.508,-0.03438
3.512,-0.02622
3.516,-0.01153
3.52,-0.04551
3.524,-0.04842
3.528,-0.04259
3.532,0.00255
3.536,-0.00859
3.54,-0.04635
3.544,-0.03016
3.548,-0.02653
3.552,-0.02261
3.556,-0.05036
3.56,0.00865
3.564,-0.02623
3.568,-0.02264
3.572,-0.01624
3.576,-0.01737
3.58,-0.02188
3.584,-0.01994
3.588,-0.0289
3.592,0.01417
3.596,0.04683
3.6,0.05265
3.604,0.05507
3.608,0.04241
3.612,0.04994
3.616,0.06608
3.62,0.07333
3.624,0.03066
3.628,0.04711
3.632,0.05606
3.636,0.01979
3.64,0.03073
3.644,0.02531
3.648,6e-05
3.652,0.02032
3.656,0.02644
3.66,-0.02399
3.664,-0.02961
3.668,-0.03373
3.672,-0.01153
3.676,-0.0444
3.68,-0.01739
3.684,-0.01904
3.688,-0.02855
3.692,-0.0191
3.696,-0.05179
3.7,-0.01165
3.704,-0.03893
3.708,-0.01157
3.712,-0.04648
3.716,-0.02137
3.72,-0.0646
3.724,-0.02515
3.728,-0.04276
3.732,-0.0481
3.736,-0.06521
3.74,-0.07395
3.744,-0.13263
3.748,-0.13394
3.752,-0.08857
3.756,0.0312
3.76,0.19509
3.764,0.39627
3.768,0.63924
3.772,0.81451
3.776,0.93605
3.78,0.96796
3.784,0.85129
3.788,0.69185
3.792,0.4507
3.796,0.24788
3.8,0.06732
3.804,-0.07611
3.808,-0.1963
3.812,-0.21897
3.816,-0.19166
3.82,-0.10584
3.824,-0.09418
3.828,-0.03958
3.832,-0.06249
3.836,-0.06421
3.84,-0.02217
3.844,-0.05197
3.848,-0.03811
3.852,-0.02066
3.856,-0.0191
3.86,-0.00994
3.864,-0.0405
3.868,-0.02865
3.872,-0.05648
3.876,-0.06052
3.88,-0.05169
3.884,-0.03495
3.888,-0.03639
3.892,-0.03237
3.896,-0.02806
3.9,-0.01831
3.904,-0.03652
3.908,-0.0418
3.912,-0.03536
3.916,-0.04968
3.92,-0.03741
3.924,-0.00298
3.928,-0.00803
3.932,0.00731
3.936,-0.05034
3.94,-0.01478
3.944,-0.03131
3.948,-0.00635
3.952,-0.00506
3.956,-0.02225
3.96,-0.01689
3.964,-0.03372
3.968,-0.00909
3.972,0.00633
3.976,0.02648
3.98,0.00537
3.984,0.03326
3.988,0.01691
3.992,0.03587
3.996,0.0653
4.0,0.09312
4.004,0.05989
4.008,0.07917
4.012,0.07633
4.016,0.09711
4.02,0.12754
4.024,0.14259
4.028,0.15948
4.032,0.15015
4.036,0.14388
4.04,0.17412
4.044,0.15246
4.048,0.18708
4.052,0.1679
4.056,0.1789
4.06,0.21361
4.064,0.2156
4.068,0.18802
4.072,0.17872
4.076,0.19468
4.08,0.16724
4.084,0.15911
4.088,0.16757
4.092,0.16228
4.096,0.11427
4.1,0.10745
4.104,0.10575
4.108,0.09252
4.112,0.09649
4.116,0.0665
4.12,0.03889
4.124,0.03717
4.128,0.03978
4.132,0.04937
4.136,-0.01019
4.14,0.02407
4.144,0.01989
4.148,0.0042
4.152,0.00336
4.156,0.02481
4.16,0.00969
4.164,-0.03342
4.168,0.00074
4.172,-0.0129
4.176,-0.04978
4.18,-0.02695
4.184,-0.01671
4.188,-0.02827
4.192,-0.0151
4.196,-0.04072
4.2,-0.02058
4.204,-0.03023
4.208,-0.02301
4.212,-0.02966
4.216,-0.03363
4.22,-0.01175
4.224,-0.04779
4.228,-0.03027
4.232,-0.04005
4.236,-0.03198
4.24,-0.02591
4.244,-0.02171
4.248,-0.04844
4.252,-0.00814
4.256,-0.03955
4.26,-0.0242
4.264,-0.01353
4.268,-0.02534
4.272,-0.00938
4.276,-0.04349
4.28,-0.01771
4.284,-0.0264
4.288,-0.02828
4.292,-0.00171
4.296,0.02313
4.3,0.03242
4.304,0.07323
4.308,0.06224
4.312,0.07628
4.316,0.08664
4.32,0.05772
4.324,0.10302
4.328,0.0799
4.332,0.06794
4.336,0.0669
4.34,0.05688
4.344,0.02022
4.348,-0.01075
4.352,0.01542
4.356,-0.01155
4.36,-0.02026
4.364,-0.02659
4.368,-0.04035
4.372,-0.01772
4.376,-0.02821
4.38,-0.02891
4.384,-0.03047
4.388,-0.04048
4.392,-0.02608
4.396,-0.03474
4.4,-0.00383
4.404,-0.01101
4.408,-0.01048
4.412,-0.04611
4.416,-0.02488
4.42,-0.01388
4.424,-0.0582
4.428,-0.0325
4.432,-0.04432
4.436,-0.06205
4.44,-0.08235
4.444,-0.12908
4.448,-0.18626
4.452,-0.09565
4.456,-0.03155
4.46,0.1595
4.464,0.33824
4.468,0.57847
4.472,0.75088
4.476,0.91551
4.48,0.9749
4.484,0.91862
4.488,0.75242
4.492,0.52914
4.496,0.32068
4.5,0.07995
4.504,-0.07913
4.508,-0.13875
4.512,-0.17587
4.516,-0.17026
4.52,-0.18179
4.524,-0.09917
4.528,-0.07438
4.532,-0.04308
4.536,-0.03216
4.54,-0.0139
4.544,-0.00217
4.548,-0.04433
4.552,-0.0412
4.556,-0.05472
4.56,-0.02958
4.564,-0.01536
4.568,-0.02292
4.572,-0.01411
4.576,0.00486
4.58,-0.03196
4.584,-0.04232
4.588,-0.01895
4.592,-0.0444
4.596,-0.02233
4.6,-0.03027
4.604,-0.02405
4.608,-0.02137
4.612,-0.0431
4.616,-0.04422
4.62,-0.0312
4.624,-0.01162
4.628,-0.01944
4.632,-0.01459
4.636,-0.01606
4.64,0.0159
4.644,-0.01114
4.648,-0.028
4.652,-0.01122
4.656,-0.00946
4.66,0.00266
4.664,0.00373
4.668,0.01448
4.672,-0.01124
4.676,0.01166
4.68,0.04279
4.684,0.05339
4.688,0.04318
4.692,0.04534
4.696,0.01768
4.7,0.06324
4.704,0.0802
4.708,0.11076
4.712,0.07035
4.716,0.13632
4.72,0.13129
4.724,0.14155
4.728,0.13615
4.732,0.16835
4.736,0.1847
4.74,0.17093
4.744,0.18851
4.748,0.18529
4.752,0.19472
4.756,0.18559
4.76,0.19447
4.764,0.19689
4.768,0.21025
4.772,0.1922
4.776,0.14693
4.78,0.18326
4.784,0.15781
4.788,0.19209
4.792,0.11102
4.796,0.15108
4.8,0.12998
4.804,0.11692
4.808,0.11176
4.812,0.10958
4.816,0.09715
4.82,0.07094
4.824,0.0317
4.828,0.04693
4.832,0.01092
4.836,0.0236
4.84,0.0276
4.844,0.01486
4.848,-0.01718
4.852,0.02005
4.856,0.02502
4.86,-0.0167
4.864,-0.02484
4.868,-0.0167
4.872,-0.03174
4.876,-0.02485
4.88,-0.02067
4.884,0.0018
4.888,-0.00999
4.892,-0.03977
4.896,0.01318
4.9,-0.0132
4.904,-0.01228
4.908,-0.01111
4.912,-0.01685
4.916,-1e-05
4.92,-0.0085
4.924,-0.01749
4.928,-0.02075
4.932,-0.00799
4.936,-0.02728
4.94,0.01424
4.944,0.01043
4.948,0.03303
4.952,0.06566
4.956,0.06507
4.96,0.07351
4.964,0.07891
4.968,0.094
4.972,0.08752
4.976,0.05526
4.98,0.10243
4.984,0.0537
4.988,0.05087
4.992,0.04355
4.996,0.01876
5.0,0.0377
5.004,0.00582
5.008,-0.01027
5.012,-0.00511
5.016,-0.03574
5.02,-0.00702
5.024,0.00852
5.028,-0.00904
5.032,-0.02381
5.036,-0.05021
5.04,-0.0388
5.044,-0.04002
5.048,-0.02159
5.052,-0.01596
5.056,-0.03281
5.06,-0.02583
5.064,-0.00669
5.068,0.00578
5.072,-0.02812
5.076,-0.02519
5.08,-0.04416
5.084,-0.03991
5.088,-0.04108
5.092,-0.06424
5.096,-0.10117
5.1,-0.12935
5.104,-0.09623
5.108,0.00249
5.112,0.14809
5.116,0.32239
5.12,0.54306
5.124,0.73469
5.128,0.92185
5.132,0.99627
5.136,0.935
5.14,0.78434
5.144,0.61325
5.148,0.36836
5.152,0.13047
5.156,-0.00778
5.16,-0.12118
5.164,-0.16764
5.168,-0.17505
5.172,-0.12864
5.176,-0.07806
5.18,-0.072
5.184,-0.02007
5.188,-0.03795
5.192,0.00639
5.196,-0.01752
5.2,-0.00464
5.204,-0.00345
5.208,-0.0183
5.212,-0.01567
5.216,-0.00093
5.22,-0.01654
5.224,-0.01505
5.228,0.00233
5.232,-0.00592
5.236,0.01035
5.24,-0.01571
5.244,-0.00253
5.248,-0.0135
5.252,0.0104
5.256,0.00017
5.26,-0.02013
5.264,-0.02996
5.268,-0.0106
5.272,0.00536
5.276,0.00927
5.28,0.0113
5.284,0.00987
5.288,-0.03487
5.292,-0.02094
5.296,0.0388
5.3,-0.00288
5.304,0.02617
5.308,0.00682
5.312,-0.00609
5.316,0.03741
5.32,0.00738
5.324,0.04509
5.328,0.02933
5.332,0.0143
5.336,0.05212
5.34,0.0444
5.344,0.073
5.348,0.11137
5.352,0.08705
5.356,0.09261
5.36,0.11599
5.364,0.12885
5.368,0.12202
5.372,0.15065
5.376,0.14198
5.38,0.15574
5.384,0.188
5.388,0.19409
5.392,0.18809
5.396,0.22048
5.4,0.20111
5.404,0.20714
5.408,0.21884
5.412,0.20594
5.416,0.20159
5.42,0.22785
5.424,0.22195
5.428,0.17727
5.432,0.18606
5.436,0.19098
5.44,0.18498
5.444,0.15827
5.448,0.15707
5.452,0.1346
5.456,0.12183
5.46,0.14095
5.464,0.10396
5.468,0.08931
5.472,0.09169
5.476,0.07696
5.48,0.04064
5.484,0.07901
5.488,0.04188
5.492,0.05848
5.496,0.03673
5.5,0.025
5.504,-0.00758
5.508,0.01366
5.512,0.03618
5.516,-0.01386
5.52,0.01095
5.524,-0.01325
5.528,0.00481
5.532,-0.01823
5.536,-0.00555
5.54,-0.02141
5.544,0.01807
5.548,0.00097
5.552,0.00542
5.556,-0.02953
5.56,-0.00114
5.564,-0.01741
5.568,-0.02656
5.572,-0.0319
5.576,-0.04449
5.58,-0.01713
5.584,0.03415
5.588,0.00132
5.592,-0.00053
5.596,-0.00168
5.6,0.0018
5.604,-0.01715
5.608,-0.00834
5.612,0.00129
5.616,0.03994
5.62,0.02933
5.624,0.0271
5.628,-0.00517
5.632,0.03343
5.636,0.01422
5.64,0.04854
5.644,0.0308
5.648,0.06195
5.652,0.04543
5.656,0.08527
5.66,0.06311
5.664,0.08455
5.668,0.09048
5.672,0.09042
5.676,0.11849
5.68,0.07852
5.684,0.09111
5.688,0.08526
5.692,0.05705
5.696,0.05864
5.7,0.01737
5.704,0.03426
5.708,0.01091
5.712,0.00162
5.716,-0.0014
5.72,-0.00386
5.724,0.02605
5.728,0.01217
5.732,-0.00491
5.736,-0.03163
5.74,0.02231
5.744,0.01311
5.748,0.00619
5.752,0.00707
5.756,0.01428
5.76,0.00114
5.764,-0.01006
5.768,0.00526
5.772,0.02079
5.776,0.00949
5.78,0.01212
5.784,-0.02514
5.788,-0.02226
5.792,-0.08469
5.796,-0.09142
5.8,-0.11902
5.804,-0.01218
5.808,0.05238
5.812,0.27261
5.816,0.48525
5.82,0.69755
5.824,0.866
5.828,0.96714
5.832,0.99924
5.836,0.90721
5.84,0.69778
5.844,0.47172
5.848,0.24059
5.852,0.0821
5.856,-0.07559
5.86,-0.14237
5.864,-0.16362
5.868,-0.14784
5.872,-0.08896
5.876,-0.04155
5.88,-0.0331
5.884,-0.00489
5.888,-0.01412
5.892,0.00579
5.896,0.02057
5.9,-0.00293
5.904,-0.00084
5.908,0.0386
5.912,0.01576
5.916,0.0298
5.92,0.01415
5.924,0.02103
5.928,0.00592
5.932,-0.00477
5.936,0.01808
5.94,0.01652
5.944,0.00827
5.948,0.01344
5.952,0.05002
5.956,0.00366
5.96,0.01892
5.964,0.00838
5.968,0.00865
5.972,0.01302
5.976,0.00611
5.98,0.02877
5.984,0.0319
5.988,0.01235
5.992,0.02315
5.996,0.02909
6.0,0.01882
6.004,0.02815
6.008,0.02376
6.012,0.01908
6.016,0.03594
6.02,0.05211
6.024,0.05522
6.028,0.03509
6.032,0.07638
6.036,0.06986
6.04,0.0549
6.044,0.1035
6.048,0.09636
6.052,0.11478
6.056,0.13578
6.06,0.12363
6.064,0.14706
6.068,0.16319
6.072,0.15353
6.076,0.12854
6.08,0.20017
6.084,0.21084
6.088,0.22324
6.092,0.2035
6.096,0.23751
6.1,0.25267
6.104,0.22633
6.108,0.24838
6.112,0.22236
6.116,0.25884
6.12,0.18541
6.124,0.23842
6.128,0.23284
6.132,0.19957
6.136,0.21208
6.14,0.17782
6.144,0.17869
6.148,0.17428
6.152,0.15518
6.156,0.14448
6.16,0.13874
6.164,0.10636
6.168,0.11606
6.172,0.09823
6.176,0.109
6.18,0.06947
6.184,0.07037
6.188,0.09832
6.192,0.08488
6.196,0.05174
6.2,0.06451
6.204,0.01694
6.208,0.03734
6.212,0.02768
6.216,0.0105
6.22,0.03417
6.224,0.01692
6.228,0.03632
6.232,0.03162
6.236,0.04089
6.24,0.02148
6.244,0.00097
6.248,-0.00568
6.252,0.02957
6.256,0.01163
6.26,0.0308
6.264,0.02129
6.268,0.02844
6.272,0.03282
6.276,0.01278
6.28,-0.00689
6.284,-0.01304
6.288,0.02073
6.292,0.01087
6.296,0.01702
6.3,0.04803
6.304,0.03074
6.308,0.01384
6.312,0.01246
6.316,0.02573
6.32,0.01167
6.324,0.01828
6.328,-0.00471
6.332,0.02304
6.336,0.01445
6.34,0.03291
6.344,-0.00412
6.348,-0.01767
6.352,-0.00763
6.356,0.00888
6.36,-0.00597
6.364,0.01794
6.368,0.01961
6.372,0.01577
6.376,0.01681
6.38,0.04089
6.384,0.0194
6.388,0.03435
6.392,0.0377
6.396,0.01829
6.4,0.02664
6.404,0.01584
6.408,0.01332
6.412,0.01193
6.416,0.01823
6.42,0.00393
6.424,0.04352
6.428,0.03823
6.432,0.06065
6.436,0.03491
6.44,0.0516
6.444,0.07582
6.448,0.08558
6.452,0.11902
6.456,0.11322
6.46,0.11177
6.464,0.11797
6.468,0.13253
6.472,0.11244
6.476,0.08663
6.48,0.09809
6.484,0.08349
6.488,0.07257
6.492,0.07687
6.496,0.05581
6.5,0.03334
6.504,0.05144
6.508,0.01561
6.512,0.03059
6.516,-0.0093
6.52,0.00871
6.524,0.01538
6.528,0.01924
6.532,0.04283
6.536,0.03885
6.54,0.00192
6.544,0.03055
6.548,0.03522
6.552,0.05094
6.556,0.02074
6.56,-0.00964
6.564,0.02677
6.568,0.01168
6.572,0.03348
6.576,0.02133
6.58,0.00051
6.584,-0.07474
6.588,-0.06295
6.592,-0.0947
6.596,-0.02908
6.6,0.08806
6.604,0.26094
6.608,0.50152
6.612,0.71478
6.616,0.90238
6.62,0.96314
6.624,0.98434
6.628,0.89114
6.632,0.73519
6.636,0.49506
6.64,0.25451
6.644,0.0982
6.648,-0.05398
6.652,-0.15915
6.656,-0.16469
6.66,-0.11408
6.664,-0.04545
6.668,-0.00424
6.672,-0.00316
6.676,-0.01994
6.68,0.01159
6.684,0.0248
6.688,0.00964
6.692,-0.00468
6.696,0.026
6.7,0.01773
6.704,0.03047
6.708,0.03605
6.712,0.0242
6.716,0.01338
6.72,0.02257
6.724,0.01267
6.728,0.01561
6.732,0.01142
6.736,-0.00464
6.74,0.01009
6.744,0.05287
6.748,0.03103
6.752,0.01623
6.756,0.01366
6.76,0.01124
6.764,0.05973
6.768,0.02162
6.772,0.03364
6.776,0.04025
6.78,0.02502
6.784,0.02046
6.788,0.04409
6.792,0.05219
6.796,0.06473
6.8,0.03912
6.804,0.06975
6.808,0.05266
6.812,0.04502
6.816,0.0545
6.82,0.06578
6.824,0.0801
6.828,0.0819
6.832,0.10306
6.836,0.0919
6.84,0.11467
6.844,0.11869
6.848,0.13188
6.852,0.14744
6.856,0.14447
6.86,0.16339
6.864,0.17946
6.868,0.19149
6.872,0.19351
6.876,0.2199
6.88,0.23063
6.884,0.2494
6.888,0.24612
6.892,0.24653
6.896,0.23488
6.9,0.21428
6.904,0.25742
6.908,0.2508
6.912,0.23621
6.916,0.22647
6.92,0.23834
6.924,0.22679
6.928,0.20855
6.932,0.19123
6.936,0.20415
6.94,0.17499
6.944,0.17552
6.948,0.17259
6.952,0.15553
6.956,0.14077
6.96,0.13701
6.964,0.10604
6.968,0.10572
6.972,0.1054
6.976,0.09334
6.98,0.09609
6.984,0.07603
6.988,0.05083
6.992,0.06768
6.996,0.0594
7.0,0.05305
7.004,0.06142
7.008,0.06225
7.012,0.04025
7.016,0.05665
7.02,-0.00022
7.024,0.01637
7.028,0.03025
7.032,0.03657
7.036,0.03069
7.04,0.05554
7.044,0.02845
7.048,0.06491
7.052,0.04519
7.056,0.05042
7.06,0.04136
7.064,0.05286
7.068,0.06707
7.072,0.06102
7.076,0.06477
7.08,0.08228
7.084,0.06986
7.088,0.09921
7.092,0.14652
7.096,0.13791
7.1,0.13882
7.104,0.1136
7.108,0.11235
7.112,0.14021
7.116,0.09812
7.12,0.09909
7.124,0.06959
7.128,0.07051
7.132,0.0494
7.136,0.06322
7.14,0.06876
7.144,0.0197
7.148,0.03265
7.152,0.0291
7.156,0.03531
7.16,0.02175
7.164,0.02307
7.168,0.02715
7.172,0.01988
7.176,0.04511
7.18,0.0009
7.184,0.01586
7.188,0.00497
7.192,0.02603
7.196,0.03002
7.2,0.02813
7.204,0.06505
7.208,0.02179
7.212,0.01941
7.216,-0.01437
7.22,-0.03134
7.224,-0.0786
7.228,-0.07541
7.232,-0.02694
7.236,0.07231
7.24,0.23644
7.244,0.46117
7.248,0.66177
7.252,0.83301
7.256,0.9734
7.26,1.03112
7.264,0.96032
7.268,0.7896
7.272,0.53577
7.276,0.32478
7.28,0.13166
7.284,-0.03907
7.288,-0.10729
7.292,-0.14954
7.296,-0.13778
7.3,-0.0808
7.304,-0.03738
7.308,-0.0048
7.312,0.00841
7.316,0.02957
7.32,0.01421
7.324,0.01673
7.328,0.02877
7.332,0.03218
7.336,0.04666
7.34,0.04463
7.344,0.04739
7.348,0.02564
7.352,0.04238
7.356,0.03942
7.36,0.0138
7.364,0.02389
7.368,0.00605
7.372,0.07295
7.376,0.01712
7.38,0.0256
7.384,0.04261
7.388,0.02113
7.392,0.02752
7.396,0.0294
7.4,0.03619
7.404,0.00443
7.408,0.0146
7.412,0.03553
7.416,0.02552
7.42,0.04092
7.424,0.05365
7.428,0.01776
7.432,0.07043
7.436,0.04758
7.44,0.03003
7.444,0.05037
7.448,0.08675
7.452,0.07822
7.456,0.05058
7.46,0.04688
7.464,0.09568
7.468,0.11054
7.472,0.07539
7.476,0.11845
7.48,0.10633
7.484,0.12066
7.488,0.15084
7.492,0.16142
7.496,0.19507
7.5,0.18391
7.504,0.19385
7.508,0.20906
7.512,0.19727
7.516,0.23968
7.52,0.23311
7.524,0.25821
7.528,0.24146
7.532,0.24781
7.536,0.25156
7.54,0.25904
7.544,0.25957
7.548,0.23134
7.552,0.24689
7.556,0.20722
7.56,0.25
7.564,0.24246
7.568,0.21587
7.572,0.19408
7.576,0.17973
7.58,0.17828
7.584,0.15112
7.588,0.13995
7.592,0.10108
7.596,0.11152
7.6,0.13688
7.604,0.10164
7.608,0.07202
7.612,0.08896
7.616,0.06126
7.62,0.094
7.624,0.06421
7.628,0.04683
7.632,0.05194
7.636,0.05629
7.64,0.03822
7.644,0.05249
7.648,0.04145
7.652,0.06512
7.656,0.02255
7.66,0.05189
7.664,0.01845
7.668,0.02588
7.672,0.04581
7.676,0.03441
7.68,0.0374
7.684,0.02286
7.688,0.03942
7.692,0.01612
7.696,0.03402
7.7,0.03224
7.704,0.01013
7.708,0.03114
7.712,0.04972
7.716,0.0288
7.72,0.02478
7.724,0.01952
7.728,0.03041
7.732,-0.02494
7.736,0.02436
7.74,0.03446
7.744,0.00798
7.748,0.00549
7.752,0.01817
7.756,0.01605
7.76,0.03308
7.764,0.05828
7.768,0.04088
7.772,0.04056
7.776,0.03167
7.78,0.03175
7.784,0.03312
7.788,0.01179
7.792,0.0284
7.796,0.03234
7.8,0.01812
7.804,0.02134
7.808,0.00466
7.812,0.03161
7.816,0.03065
7.82,0.03335
7.824,0.03029
7.828,0.03931
7.832,0.02226
7.836,0.00971
7.84,0.01192
7.844,0.0342
7.848,0.03104
7.852,0.00983
7.856,0.0238
7.86,0.01365
7.864,0.02615
7.868,0.06614
7.872,0.01748
7.876,0.00961
7.88,0.01981
7.884,0.04391
7.888,0.0472
7.892,0.02101
7.896,0.06398
7.9,0.06843
7.904,0.06742
7.908,0.08476
7.912,0.07742
7.916,0.12563
7.92,0.10868
7.924,0.12026
7.928,0.11527
7.932,0.12508
7.936,0.10925
7.94,0.08784
7.944,0.12273
7.948,0.06854
7.952,0.08061
7.956,0.05332
7.96,0.03834
7.964,0.03232
7.968,0.05747
7.972,0.05809
7.976,0.03309
7.98,0.00998
7.984,0.02074
7.988,0.03157
7.992,0.01083
7.996,0.03052
8.0,0.01096
8.004,0.01399
8.008,0.01011
8.012,0.01422
8.016,0.03866
8.02,0.03765
8.024,0.03291
8.028,0.03085
8.032,0.03235
8.036,0.02046
8.04,-0.00473
8.044,-0.00818
8.048,-0.04466
8.052,-0.0806
8.056,-0.07051
8.06,-0.02165
8.064,0.07838
8.068,0.26266
8.072,0.46874
8.076,0.67038
8.08,0.87638
8.084,1.01866
8.088,1.0302
8.092,0.9183
8.096,0.73457
8.1,0.51503
8.104,0.27796
8.108,0.1046
8.112,-0.06527
8.116,-0.12711
8.12,-0.14544
8.124,-0.12868
8.128,-0.0809
8.132,-0.05633
8.136,-0.00692
8.14,0.02009
8.144,0.01965
8.148,0.02579
8.152,0.02708
8.156,0.01145
8.16,0.00588
8.164,0.0555
8.168,0.01436
8.172,0.01489
8.176,0.02549
8.18,-0.00161
8.184,0.01975
8.188,0.03524
8.192,0.01999
8.196,0.02868
8.2,0.01243
8.204,0.01842
8.208,0.02831
8.212,0.0307
8.216,0.00932
8.22,0.00541
8.224,0.01361
8.228,0.00415
8.232,0.01138
8.236,-0.01999
8.24,-0.0089
8.244,0.01267
8.248,0.00883
8.252,0.03854
8.256,0.02898
8.26,0.05352
8.264,0.02952
8.268,0.03867
8.272,0.03063
8.276,0.04852
8.28,0.08506
8.284,0.03835
8.288,0.07108
8.292,0.09782
8.296,0.09102
8.3,0.108
8.304,0.12892
8.308,0.10339
8.312,0.11758
8.316,0.13448
8.32,0.12634
8.324,0.15307
8.328,0.15752
8.332,0.16381
8.336,0.20465
8.34,0.23142
8.344,0.22056
8.348,0.21065
8.352,0.24714
8.356,0.25115
8.36,0.24075
8.364,0.23703
8.368,0.24121
8.372,0.23967
8.376,0.21902
8.38,0.2198
8.384,0.23196
8.388,0.20156
8.392,0.22088
8.396,0.19404
8.4,0.1859
8.404,0.19218
8.408,0.13377
8.412,0.12833
8.416,0.161
8.42,0.11046
8.424,0.0667
8.428,0.09587
8.432,0.10052
8.436,0.11916
8.44,0.08436
8.444,0.06745
8.448,0.04367
8.452,0.0533
8.456,0.02507
8.46,0.02851
8.464,0.01729
8.468,0.03321
8.472,0.01152
8.476,0.01752
8.48,0.02313
8.484,0.05971
8.488,0.01409
8.492,0.03484
8.496,0.00608
8.5,0.03665
8.504,0.02368
8.508,0.00714
8.512,0.015
8.516,0.03802
8.52,0.04071
8.524,0.0629
8.528,0.07651
8.532,0.09627
8.536,0.0936
8.54,0.09151
8.544,0.10729
8.548,0.10074
8.552,0.11814
8.556,0.11985
8.56,0.08635
8.564,0.09392
8.568,0.07452
8.572,0.07932
8.576,0.04946
8.58,-0.00198
8.584,0.05461
8.588,0.04058
8.592,-0.00336
8.596,0.01078
8.6,-0.00262
8.604,0.00025
8.608,0.00129
8.612,0.01043
8.616,-0.01133
8.62,0.0048
8.624,-0.00045
8.628,0.02536
8.632,0.02175
8.636,0.01557
8.64,0.0189
8.644,0.01502
8.648,0.03257
8.652,0.01231
8.656,0.00513
8.66,0.01848
8.664,-0.01557
8.668,-0.04643
8.672,-0.10875
8.676,-0.10165
8.68,-0.09694
8.684,-0.04574
8.688,0.11164
8.692,0.31487
8.696,0.51891
8.7,0.73322
8.704,0.89164
8.708,0.9918
8.712,0.95605
8.716,0.87387
8.72,0.6699
8.724,0.42865
8.728,0.20743
8.732,0.02238
8.736,-0.09544
8.74,-0.15509
8.744,-0.15623
8.748,-0.11706
8.752,-0.07749
8.756,-0.04102
8.76,-0.02784
8.764,0.01477
8.768,-0.01067
8.772,-0.02868
8.776,0.0042
8.78,-0.00228
8.784,0.0208
8.788,0.00931
8.792,-0.02593
8.796,0.01526
8.8,0.02607
8.804,0.01609
8.808,0.01388
8.812,-0.00351
8.816,0.00668
8.82,0.02953
8.824,-0.01799
8.828,-0.01336
8.832,0.01844
8.836,-0.01706
8.84,-0.01345
8.844,0.01397
8.848,-0.00011
8.852,-0.01953
8.856,0.01829
8.86,0.01796
8.864,0.02397
8.868,0.0361
8.872,0.0247
8.876,0.01314
8.88,0.02554
8.884,0.02281
8.888,-0.00196
8.892,0.04789
8.896,0.02507
8.9,0.06496
8.904,0.03277
8.908,0.05626
8.912,0.04453
8.916,0.06502
8.92,0.07029
8.924,0.061
8.928,0.06988
8.932,0.09998
8.936,0.11232
8.94,0.10891
8.944,0.17082
8.948,0.11756
8.952,0.16895
8.956,0.17811
8.96,0.17261
8.964,0.17281
8.968,0.2243
8.972,0.21141
8.976,0.22637
8.98,0.21464
8.984,0.20559
8.988,0.21321
8.992,0.22602
8.996,0.22451
9.0,0.2004
9.004,0.21518
9.008,0.18
9.012,0.17872
9.016,0.18626
9.02,0.15789
9.024,0.16789
9.028,0.15262
9.032,0.14061
9.036,0.12835
9.04,0.11659
9.044,0.05488
9.048,0.10239
9.052,0.08569
9.056,0.04991
9.06,0.0508
9.064,0.06875
9.068,0.04425
9.072,0.04501
9.076,0.0333
9.08,0.04672
9.084,0.0182
9.088,0.02137
9.092,0.02487
9.096,0.01078
9.1,0.00867
9.104,-0.00863
9.108,-0.00125
9.112,-0.01236
9.116,-0.00978
9.12,0.00478
9.124,-0.00152
9.128,0.02237
9.132,0.01037
9.136,-0.0234
9.14,-0.00314
9.144,-0.00582
9.148,-0.01638
9.152,-0.00464
9.156,-0.00391
9.16,-0.01722
9.164,0.01564
9.168,0.00227
9.172,0.01524
9.176,-0.02192
9.18,-0.04343
9.184,0.00282
9.188,-0.02614
9.192,-0.00138
9.196,-0.02352
9.2,-0.02182
9.204,-0.02594
9.208,0.00148
9.212,-0.01195
9.216,-0.0059
9.22,-0.02362
9.224,-0.0105
9.228,-0.02265
9.232,-0.02387
9.236,-0.01948
9.24,-0.00738
9.244,-0.0058
9.248,-0.00632
9.252,0.00485
9.256,0.01094
9.26,-0.01647
9.264,0.00429
9.268,-0.02625
9.272,0.01766
9.276,-0.0175
9.28,0.01844
9.284,0.00101
9.288,-0.0135
9.292,0.00853
9.296,-0.0159
9.3,0.01465
9.304,0.01815
9.308,-0.00045
9.312,0.00913
9.316,0.01703
9.32,0.05573
9.324,0.04697
9.328,0.06414
9.332,0.07499
9.336,0.07299
9.34,0.10143
9.344,0.06524
9.348,0.10225
9.352,0.0944
9.356,0.07756
9.36,0.0875
9.364,0.06155
9.368,0.02839
9.372,0.03954
9.376,0.04189
9.38,-0.00375
9.384,0.02725
9.388,-0.04419
9.392,-0.02133
9.396,0.00397
9.4,-0.02539
9.404,0.00304
9.408,0.00434
9.412,-0.02939
9.416,-0.03426
9.42,0.0009
9.424,-0.01385
9.428,-0.0087
9.432,-0.01274
9.436,-0.00848
9.44,-0.03543
9.444,-0.0256
9.448,-0.03662
9.452,-0.01239
9.456,-0.05543
9.46,-0.05557
9.464,-0.09256
9.468,-0.15416
9.472,-0.15815
9.476,-0.10824
9.48,0.04524
9.484,0.21625
9.488,0.43529
9.492,0.6441
9.496,0.85985
9.5,0.94637
9.504,1.00131
9.508,0.87525
9.512,0.71018
9.516,0.45865
9.52,0.26592
9.524,0.07395
9.528,-0.08575
9.532,-0.173
9.536,-0.18519
9.54,-0.15935
9.544,-0.10895
9.548,-0.11253
9.552,-0.06236
9.556,0.00808
9.56,-0.03937
9.564,-0.02628
9.568,-0.02495
9.572,-0.02433
9.576,-0.01166
9.58,-0.0166
9.584,-0.02752
9.588,-0.03898
9.592,-0.00331
9.596,-0.00595
9.6,0.00399
9.604,0.00061
9.608,-0.0256
9.612,-0.01926
9.616,-0.01458
9.62,-0.00722
9.624,-0.0373
9.628,-0.00582
9.632,-0.02115
9.636,-0.00486
9.64,-0.03118
9.644,-0.01647
9.648,-0.01261
9.652,-0.0319
9.656,0.00181
9.66,-0.04481
9.664,-0.01398
9.668,0.00351
9.672,0.00332
9.676,-0.02165
9.68,0.02388
9.684,0.00277
9.688,0.0149
9.692,-0.00215
9.696,0.02157
9.7,0.02653
9.704,0.00385
9.708,0.03172
9.712,0.03325
9.716,0.06349
9.72,0.07221
9.724,0.08904
9.728,0.10774
9.732,0.08284
9.736,0.09708
9.74,0.1236
9.744,0.12693
9.748,0.15819
9.752,0.16587
9.756,0.1642
9.76,0.15976
9.764,0.16307
9.768,0.17061
9.772,0.20504
9.776,0.19465
9.78,0.20203
9.784,0.18237
9.788,0.20078
9.792,0.19031
9.796,0.20448
9.8,0.16817
9.804,0.18617
9.808,0.14468
9.812,0.15023
9.816,0.13735
9.82,0.13454
9.824,0.13246
9.828,0.12268
9.832,0.0849
9.836,0.0811
9.84,0.06928
9.844,0.05187
9.848,0.06478
9.852,0.03325
9.856,0.05419
9.86,0.01581
9.864,0.03619
9.868,-0.00778
9.872,-0.00501
9.876,-0.00485
9.88,0.0081
9.884,-0.01228
9.888,-0.01413
9.892,-0.00881
9.896,-0.0129
9.9,0.00452
9.904,0.01173
9.908,-0.0614
9.912,-0.02207
9.916,-0.01138
9.92,-0.02372
9.924,-0.04114
9.928,-0.00427
9.932,-0.01278
9.936,-0.06
9.94,-0.026
9.944,-0.01658
9.948,-0.00477
9.952,-0.00069
9.956,-0.017
9.96,0.00629
9.964,-0.05438
9.968,-0.04412
9.972,-0.04299
9.976,-0.03903
9.98,-0.0405
9.984,-0.04315
9.988,-0.0281
9.992,-0.03652
9.996,-0.0419
