t_seg,ecg_mV
0.0,0.01633
0.004,0.00186
0.008,-0.02748
0.012,-0.00027
0.016,-0.04466
0.02,0.00092
0.024,0.02788
0.028,0.01654
0.032,0.03589
0.036,0.01372
0.04,0.02543
0.044,-0.04027
0.048,0.04457
0.052,0.04771
0.056,0.01625
0.06,-0.06191
0.064,0.06523
0.068,0.11448
0.072,0.05721
0.076,0.07295
0.08,0.02535
0.084,0.04677
0.088,0.08492
0.092,0.02439
0.096,-0.0044
0.1,0.02423
0.104,0.02689
0.108,0.02806
0.112,-0.02922
0.116,-0.04946
0.12,-0.00026
0.124,-0.03311
0.128,-0.00643
0.132,-0.00554
0.136,-0.03637
0.14,-0.06081
0.144,0.04043
0.148,-0.04309
0.152,-0.00403
0.156,-0.06769
0.16,-0.02156
0.164,-0.04375
0.168,-0.02636
0.172,-0.09059
0.176,-0.06367
0.18,-0.02616
0.184,-0.08331
0.188,-0.11799
0.192,-0.1036
0.196,-0.12868
0.2,-0.07906
0.204,0.00053
0.208,0.16739
0.212,0.42166
0.216,0.60848
0.22,0.76004
0.224,0.92796
0.228,0.99082
0.232,0.88904
0.236,0.74108
0.24,0.50154
0.244,0.26872
0.248,0.05911
0.252,-0.03304
0.256,-0.15327
0.26,-0.16678
0.264,-0.15755
0.268,-0.07227
0.272,-0.05852
0.276,-0.05255
0.28,-0.09681
0.284,-0.05115
0.288,0.03437
0.292,-0.07068
0.296,-0.01536
0.3,-0.02456
0.304,-0.02752
0.308,-0.005
0.312,-0.06044
0.316,-0.06924
0.32,-0.04443
0.324,-0.02945
0.328,0.00706
0.332,-0.00854
0.336,-0.00651
0.34,0.04094
0.344,-0.02085
0.348,-0.03496
0.352,0.0033
0.356,-0.08121
0.36,0.00394
0.364,-0.00626
0.368,-0.03145
0.372,-0.03877
0.376,-0.01336
0.38,-0.06214
0.384,-0.03017
0.388,-0.02342
0.392,-0.02821
0.396,-0.05585
0.4,0.01643
0.404,-0.02135
0.408,-0.01519
0.412,-0.02254
0.416,0.00132
0.42,0.05766
0.424,-0.01924
0.428,0.03177
0.432,0.00337
0.436,0.04538
0.44,0.05036
0.444,0.06469
0.448,0.04699
0.452,0.14302
0.456,0.11479
0.46,0.13504
0.464,0.05836
0.468,0.11003
0.472,0.10599
0.476,0.16204
0.48,0.20251
0.484,0.08405
0.488,0.16281
0.492,0.13524
0.496,0.25604
0.5,0.14294
0.504,0.21613
0.508,0.2276
0.512,0.13916
0.516,0.17786
0.52,0.15106
0.524,0.11773
0.528,0.15801
0.532,0.1742
0.536,0.18042
0.54,0.13604
0.544,0.10749
0.548,0.02886
0.552,0.1044
0.556,0.09619
0.56,0.09757
0.564,0.06795
0.568,0.09472
0.572,0.05692
0.576,0.09981
0.58,0.05836
0.584,0.08063
0.588,0.02306
0.592,0.1109
0.596,0.06196
0.6,0.07172
0.604,0.08855
0.608,0.11697
0.612,0.0807
0.616,0.09662
0.62,0.07555
0.624,0.03895
0.628,0.0905
0.632,0.04996
0.636,0.01145
0.64,0.04221
0.644,0.00988
0.648,0.01068
0.652,-0.06728
0.656,0.02985
0.66,0.00061
0.664,0.0087
0.668,-0.00455
0.672,-0.01739
0.676,-0.04357
0.68,0.00398
0.684,0.01188
0.688,0.01158
0.692,-0.05028
0.696,0.0095
0.7,-0.02313
0.704,-0.05755
0.708,-0.04477
0.712,-0.04509
0.716,-0.04292
0.72,-0.01497
0.724,-0.05966
0.728,-0.13591
0.732,-0.08517
0.736,-0.1108
0.74,-0.1268
0.744,-0.02308
0.748,0.26865
0.752,0.39388
0.756,0.62914
0.76,0.77226
0.764,0.8791
0.768,0.95823
0.772,0.86364
0.776,0.69131
0.78,0.43085
0.784,0.26201
0.788,0.07318
0.792,-0.11164
0.796,-0.16933
0.8,-0.26153
0.804,-0.22828
0.808,-0.157
0.812,-0.12982
0.816,-0.03683
0.82,-0.01885
0.824,-0.07676
0.828,-0.03059
0.832,-0.11733
0.836,-0.04726
0.84,-0.081
0.844,-0.02992
0.848,-0.07034
0.852,-0.00825
0.856,0.00156
0.86,-0.07039
0.864,-0.07299
0.868,-0.02183
0.872,-0.03188
0.876,0.00235
0.88,-0.09457
0.884,-0.01641
0.888,-0.02239
0.892,0.00655
0.896,0.0016
0.9,-0.01163
0.904,-0.03849
0.908,0.0501
0.912,0.00768
0.916,0.02476
0.92,-0.07232
0.924,-0.01712
0.928,-0.03884
0.932,-0.01401
0.936,-0.03767
0.94,-0.04329
0.944,-0.00028
0.948,-0.00538
0.952,0.00081
0.956,0.01619
0.96,0.03352
0.964,-0.02966
0.968,0.00067
0.972,0.05635
0.976,0.06618
0.98,0.09346
0.984,0.00383
0.988,0.03931
0.992,0.11712
0.996,0.09544
1.0,0.0959
1.004,0.07007
1.008,0.14481
1.012,0.08923
1.016,0.14296
1.02,0.22711
1.024,0.17
1.028,0.1219
1.032,0.18886
1.036,0.16682
1.04,0.22366
1.044,0.22409
1.048,0.16475
1.052,0.22421
1.056,0.20996
1.06,0.17342
1.064,0.21547
1.068,0.14142
1.072,0.08855
1.076,0.17274
1.08,0.13021
1.084,0.07756
1.088,0.13884
1.092,0.11307
1.096,0.06139
1.1,0.0566
1.104,0.04641
1.108,0.05651
1.112,0.02212
1.116,-0.01653
1.12,-0.03329
1.124,-0.00995
1.128,0.04938
1.132,0.02293
1.136,-0.01099
1.14,0.0211
1.144,0.02149
1.148,0.04382
1.152,-0.00213
1.156,-0.06309
1.16,-0.03362
1.164,-0.05958
1.168,-0.05917
1.172,-0.02279
1.176,-0.00076
1.18,-0.01663
1.184,0.00106
1.188,-0.00442
1.192,-0.0097
1.196,-0.12389
1.2,-0.0598
1.204,-0.01153
1.208,-0.04165
1.212,-0.03251
1.216,-0.07264
1.22,-0.03192
1.224,-0.03475
1.228,-0.05088
1.232,0.00273
1.236,-0.00433
1.24,-0.077
1.244,-0.00843
1.248,-0.01707
1.252,0.02244
1.256,-0.00699
1.26,-0.0297
1.264,-0.0423
1.268,-0.07651
1.272,-0.01491
1.276,-0.01945
1.28,-0.02044
1.284,-0.03158
1.288,-0.09794
1.292,-0.00793
1.296,-0.05044
1.3,-0.02076
1.304,-0.06469
1.308,-0.00264
1.312,-0.01928
1.316,-0.04294
1.32,0.03164
1.324,-0.01707
1.328,-0.01358
1.332,-0.07498
1.336,0.01248
1.34,-0.03046
1.344,0.01739
1.348,-0.00133
1.352,-0.06873
1.356,-0.04448
1.36,-0.03841
1.364,-0.08386
1.368,-0.01917
1.372,0.02894
1.376,-0.02243
1.38,-0.03856
1.384,-0.0943
1.388,-0.00548
1.392,0.04745
1.396,-0.00748
1.4,-0.00096
1.404,-0.05976
1.408,-0.05558
1.412,-0.01948
1.416,0.01619
1.42,0.07859
1.424,0.01724
1.428,-0.05092
1.432,-0.01288
1.436,-0.05707
1.44,-0.01014
1.444,0.02385
1.448,0.01113
1.452,0.01806
1.456,-0.03655
1.46,-0.03232
1.464,-0.0159
1.468,0.02001
1.472,-0.10239
1.476,-0.06203
1.48,-0.01079
1.484,-0.00483
1.488,0.03082
1.492,-0.05018
1.496,-0.05347
1.5,0.02196
1.504,-0.08069
1.508,-0.06883
1.512,-0.07625
1.516,-0.00978
1.52,-0.06229
1.524,0.02668
1.528,0.0193
1.532,-0.00131
1.536,0.00069
1.54,0.04781
1.544,0.06246
1.548,0.10006
1.552,0.12078
1.556,0.12889
1.56,0.04349
1.564,0.14116
1.568,0.01474
1.572,0.0142
1.576,0.07757
1.58,0.06118
1.584,0.06753
1.588,0.05697
1.592,0.00035
1.596,0.03034
1.6,-0.0493
1.604,-0.03077
1.608,-0.05206
1.612,0.06502
1.616,-0.08009
1.62,-0.08527
1.624,-0.04548
1.628,8e-05
1.632,-0.02532
1.636,-0.00318
1.64,-0.06769
1.644,-0.11755
1.648,0.00883
1.652,0.07218
1.656,0.00454
1.66,0.01495
1.664,-0.0425
1.668,-0.08387
1.672,-0.07647
1.676,-0.14849
1.68,-0.13506
1.684,-0.10578
1.688,-0.09496
1.692,-0.0158
1.696,0.14106
1.7,0.27148
1.704,0.47239
1.708,0.80617
1.712,0.924
1.716,0.95711
1.72,0.94162
1.724,0.78097
1.728,0.61584
1.732,0.35785
1.736,0.11722
1.74,0.02177
1.744,-0.1702
1.748,-0.21885
1.752,-0.14747
1.756,-0.13127
1.76,-0.09426
1.764,-0.02678
1.768,-0.0595
1.772,-0.0724
1.776,-0.03311
1.78,-0.04021
1.784,0.0338
1.788,-0.03989
1.792,0.0401
1.796,-0.03058
1.8,-0.01415
1.804,-0.02516
1.808,-0.02859
1.812,-0.03686
1.816,0.0174
1.82,0.03541
1.824,-0.01937
1.828,-0.0221
1.832,-0.01175
1.836,0.01897
1.84,-0.12599
1.844,0.04253
1.848,0.04171
1.852,-0.00542
1.856,0.02591
1.86,-0.02657
1.864,0.00632
1.868,-0.01485
1.872,-0.04396
1.876,-0.01005
1.88,-0.07246
1.884,-0.03998
1.888,0.04782
1.892,-0.03791
1.896,-0.00831
1.9,0.00407
1.904,-0.06342
1.908,-0.0274
1.912,0.05254
1.916,0.08457
1.92,-0.00669
1.924,0.04858
1.928,0.07917
1.932,0.0411
1.936,0.0711
1.94,-0.01251
1.944,0.06346
1.948,0.20173
1.952,0.13058
1.956,0.11311
1.96,0.18219
1.964,0.14398
1.968,0.25162
1.972,0.19252
1.976,0.17948
1.98,0.19993
1.984,0.22074
1.988,0.22981
1.992,0.26904
1.996,0.23068
2.0,0.22443
2.004,0.1946
2.008,0.21076
2.012,0.2057
2.016,0.17907
2.02,0.19559
2.024,0.15155
2.028,0.17394
2.032,0.12736
2.036,0.0941
2.04,0.10062
2.044,0.09409
2.048,0.16428
2.052,0.12063
2.056,0.10731
2.06,0.04938
2.064,0.03948
2.068,0.04631
2.072,0.01269
2.076,-0.0113
2.08,0.051
2.084,0.02439
2.088,-0.0137
2.092,0.01968
2.096,0.00427
2.1,0.00229
2.104,0.06081
2.108,-0.04204
2.112,0.02675
2.116,0.02923
2.12,0.00096
2.124,0.03208
2.128,0.04129
2.132,-0.02424
2.136,-0.04293
2.14,-0.01297
2.144,-0.03469
2.148,-0.03842
2.152,-0.04466
2.156,0.03695
2.16,-0.07258
2.164,-0.04604
2.168,0.06362
2.172,-0.08892
2.176,-0.03108
2.18,-0.10523
2.184,0.01528
2.188,0.00194
2.192,-0.04328
2.196,-0.02607
2.2,-0.03807
2.204,0.0575
2.208,-0.01143
2.212,-0.02629
2.216,0.00516
2.22,-0.04038
2.224,0.01325
2.228,-0.04177
2.232,-0.00882
2.236,0.04188
2.24,0.02778
2.244,0.04907
2.248,-0.0486
2.252,-0.01781
2.256,0.04693
2.26,0.03292
2.264,0.02289
2.268,0.02787
2.272,-0.01385
2.276,0.04083
2.28,0.07001
2.284,-0.02399
2.288,0.02848
2.292,0.05712
2.296,-0.02701
2.3,0.04049
2.304,0.0239
2.308,0.04612
2.312,-0.01321
2.316,-0.00014
2.32,0.01192
2.324,-0.00253
2.328,0.02719
2.332,0.03493
2.336,0.0447
2.34,-0.0183
2.344,-0.00493
2.348,-0.02483
2.352,0.01502
2.356,0.00534
2.36,0.08453
2.364,-0.0004
2.368,-0.04215
2.372,-0.00993
2.376,0.01205
2.38,-0.01069
2.384,0.01865
2.388,-0.04037
2.392,-0.00114
2.396,0.04934
2.4,0.05193
2.404,0.04428
2.408,-0.00231
2.412,0.01426
2.416,-0.03227
2.42,0.03557
2.424,-0.0184
2.428,-0.01022
2.432,-0.02421
2.436,0.04353
2.44,0.06162
2.444,0.13785
2.448,0.06222
2.452,0.04956
2.456,0.06164
2.46,0.14665
2.464,0.10357
2.468,0.04185
2.472,0.10955
2.476,0.06394
2.48,0.00793
2.484,0.01956
2.488,0.05735
2.492,0.00132
2.496,0.0177
2.5,0.01585
2.504,-0.02259
2.508,0.02289
2.512,-0.01687
2.516,-0.01994
2.52,-0.02695
2.524,0.01501
2.528,-0.00203
2.532,-0.01707
2.536,0.02096
2.54,0.04038
2.544,-0.02743
2.548,0.00837
2.552,-0.06782
2.556,0.02531
2.56,0.05249
2.564,-0.05471
2.568,-0.07006
2.572,-0.07639
2.576,-0.12803
2.58,-0.04067
2.584,-0.09214
2.588,-0.00462
2.592,0.07197
2.596,0.31358
2.6,0.48128
2.604,0.71163
2.608,0.83674
2.612,1.00121
2.616,0.96618
2.62,0.88271
2.624,0.68959
2.628,0.4136
2.632,0.25212
2.636,0.04898
2.64,-0.10603
2.644,-0.20098
2.648,-0.12211
2.652,-0.0961
2.656,-0.07417
2.66,-0.05846
2.664,-0.0169
2.668,-0.07363
2.672,0.01749
2.676,-0.01554
2.68,-0.01602
2.684,0.04935
2.688,0.00707
2.692,0.00439
2.696,0.05234
2.7,0.0116
2.704,0.01354
2.708,0.00406
2.712,0.01974
2.716,-0.01147
2.72,0.03116
2.724,0.02738
2.728,-0.0165
2.732,-0.05179
2.736,0.01245
2.74,0.06387
2.744,0.00363
2.748,0.07077
2.752,0.00673
2.756,0.00148
2.76,0.01122
2.764,-0.0383
2.768,-0.00512
2.772,0.00269
2.776,0.0481
2.78,0.04784
2.784,0.00193
2.788,0.01617
2.792,0.0365
2.796,0.08221
2.8,-0.00705
2.804,-0.04217
2.808,0.04748
2.812,0.00343
2.816,0.01005
2.82,0.00655
2.824,0.06177
2.828,0.07959
2.832,0.0722
2.836,0.13424
2.84,0.11722
2.844,0.17021
2.848,0.11009
2.852,0.14916
2.856,0.14273
2.86,0.16244
2.864,0.18858
2.868,0.2132
2.872,0.2142
2.876,0.16703
2.88,0.21855
2.884,0.21969
2.888,0.22499
2.892,0.22036
2.896,0.20309
2.9,0.21205
2.904,0.19346
2.908,0.25442
2.912,0.23809
2.916,0.14861
2.92,0.14633
2.924,0.1716
2.928,0.1091
2.932,0.15106
2.936,0.14673
2.94,0.16865
2.944,0.12507
2.948,0.10183
2.952,0.18864
2.956,0.16447
2.96,0.08677
2.964,0.12011
2.968,0.04946
2.972,0.05607
2.976,0.05093
2.98,0.08373
2.984,0.08361
2.988,0.07038
2.992,0.0436
2.996,0.09761
3.0,0.11153
3.004,0.07211
3.008,0.05889
3.012,0.12951
3.016,0.09377
3.02,0.1177
3.024,0.1642
3.028,0.14451
3.032,0.10521
3.036,0.07894
3.04,0.17042
3.044,0.08149
3.048,0.04675
3.052,0.06889
3.056,0.08541
3.06,0.07169
3.064,-0.00378
3.068,0.04023
3.072,0.01281
3.076,-0.02715
3.08,0.05328
3.084,0.01288
3.088,-0.00771
3.092,-0.00546
3.096,-0.04687
3.1,0.02421
3.104,-0.01643
3.108,0.03432
3.112,0.08483
3.116,-0.00129
3.12,-0.02814
3.124,0.04759
3.128,-0.00581
3.132,-0.0259
3.136,0.07791
3.14,0.01224
3.144,-0.04133
3.148,-0.06995
3.152,-0.13112
3.156,-0.07894
3.16,-0.09513
3.164,0.06837
3.168,0.282
3.172,0.38535
3.176,0.65914
3.18,0.86672
3.184,0.92559
3.188,1.07333
3.192,0.8538
3.196,0.7495
3.2,0.5867
3.204,0.35029
3.208,0.1379
3.212,0.01275
3.216,-0.14849
3.22,-0.1183
3.224,-0.12204
3.228,-0.01838
3.232,-0.04532
3.236,-0.02182
3.24,-0.01811
3.244,0.06478
3.248,-0.02068
3.252,0.0106
3.256,0.0048
3.26,0.00216
3.264,0.01898
3.268,-0.03377
3.272,0.0106
3.276,0.02416
3.28,0.0983
3.284,0.02217
3.288,0.08271
3.292,-0.02668
3.296,-0.01845
3.3,-0.02936
3.304,0.08575
3.308,0.0663
3.312,0.0489
3.316,0.03587
3.32,0.02786
3.324,0.06063
3.328,-0.03693
3.332,0.03649
3.336,0.03512
3.34,0.07335
3.344,-0.02345
3.348,0.00233
3.352,-0.01005
3.356,0.0209
3.36,0.10416
3.364,-0.0382
3.368,0.00977
3.372,-0.06467
3.376,0.06027
3.38,0.04072
3.384,0.08164
3.388,0.072
3.392,0.07524
3.396,0.0565
3.4,0.08142
3.404,0.06204
3.408,0.0925
3.412,0.14226
3.416,0.1486
3.42,0.15157
3.424,0.16507
3.428,0.17045
3.432,0.20588
3.436,0.15443
3.44,0.23362
3.444,0.18507
3.448,0.19164
3.452,0.30043
3.456,0.25873
3.46,0.16944
3.464,0.23074
3.468,0.2884
3.472,0.26782
3.476,0.23811
3.48,0.27554
3.484,0.25388
3.488,0.1887
3.492,0.22495
3.496,0.17293
3.5,0.17917
3.504,0.16292
3.508,0.17777
3.512,0.16902
3.516,0.20806
3.52,0.1247
3.524,0.19936
3.528,0.1255
3.532,0.16065
3.536,0.07412
3.54,0.09655
3.544,0.16105
3.548,0.04646
3.552,0.11623
3.556,0.07102
3.56,0.05583
3.564,0.16721
3.568,0.09646
3.572,0.06404
3.576,0.18294
3.58,0.0891
3.584,0.06502
3.588,0.18531
3.592,0.1405
3.596,0.06421
3.6,0.10209
3.604,0.10302
3.608,0.10482
3.612,0.07364
3.616,-0.04542
3.62,-0.00321
3.624,0.01753
3.628,0.037
3.632,0.07506
3.636,0.03158
3.64,0.06128
3.644,0.03609
3.648,0.01067
3.652,0.03742
3.656,0.04269
3.66,-0.04072
3.664,0.05359
3.668,0.08048
3.672,0.03684
3.676,0.06153
3.68,0.05128
3.684,0.04304
3.688,-0.00703
3.692,0.02665
3.696,0.02348
3.7,-0.07442
3.704,-0.10969
3.708,-0.08072
3.712,-0.02177
3.716,0.13045
3.72,0.26278
3.724,0.42695
3.728,0.62582
3.732,0.85932
3.736,0.94731
3.74,1.00494
3.744,0.94869
3.748,0.79124
3.752,0.58363
3.756,0.35249
3.76,0.16801
3.764,-0.04911
3.768,-0.1275
3.772,-0.11974
3.776,-0.11002
3.78,-0.04218
3.784,0.01853
3.788,0.03111
3.792,-0.02847
3.796,0.03684
3.8,0.04636
3.804,0.03411
3.808,0.05767
3.812,0.02736
3.816,0.01101
3.82,-0.00051
3.824,0.01383
3.828,0.02009
3.832,0.05149
3.836,-0.00118
3.84,-0.01432
3.844,0.05704
3.848,0.05625
3.852,0.06847
3.856,-0.03964
3.86,0.04184
3.864,0.02671
3.868,0.02108
3.872,0.08932
3.876,0.05967
3.88,0.01029
3.884,0.02338
3.888,0.03107
3.892,0.04276
3.896,0.07725
3.9,0.0383
3.904,0.05897
3.908,0.04492
3.912,0.05613
3.916,0.00058
3.92,0.05343
3.924,-0.02728
3.928,0.06283
3.932,0.03898
3.936,0.05112
3.94,0.14384
3.944,0.04944
3.948,0.091
3.952,0.10773
3.956,0.11923
3.96,0.12845
3.964,0.14582
3.968,0.20953
3.972,0.15246
3.976,0.14589
3.98,0.23662
3.984,0.23239
3.988,0.17666
3.992,0.22975
3.996,0.20362
4.0,0.22206
4.004,0.25572
4.008,0.25666
4.012,0.20896
4.016,0.23691
4.02,0.26696
4.024,0.26874
4.028,0.23011
4.032,0.23157
4.036,0.25398
4.04,0.2394
4.044,0.21609
4.048,0.24054
4.052,0.24221
4.056,0.25781
4.06,0.1499
4.064,0.16974
4.068,0.16807
4.072,0.10919
4.076,0.07373
4.08,0.09046
4.084,0.07766
4.088,0.06212
4.092,0.12329
4.096,0.14604
4.1,0.07537
4.104,0.06358
4.108,0.03896
4.112,0.09073
4.116,0.02244
4.12,0.11097
4.124,0.05871
4.128,0.01786
4.132,-0.03082
4.136,0.08569
4.14,0.09642
4.144,0.02779
4.148,0.06515
4.152,0.06892
4.156,0.07035
4.16,-0.03205
4.164,0.02216
4.168,0.01802
4.172,0.08935
4.176,-0.02278
4.18,0.0451
4.184,0.05863
4.188,0.08999
4.192,0.01462
4.196,0.01503
4.2,0.05682
4.204,0.11121
4.208,0.09131
4.212,0.11447
4.216,0.1408
4.22,0.12639
4.224,0.132
4.228,0.15947
4.232,0.18818
4.236,0.1631
4.24,0.14988
4.244,0.08348
4.248,0.10571
4.252,0.12929
4.256,0.05375
4.26,0.05521
4.264,0.03978
4.268,0.01781
4.272,-0.03233
4.276,0.0458
4.28,0.0374
4.284,0.04916
4.288,-0.01763
4.292,0.0227
4.296,0.00837
4.3,-0.00161
4.304,0.01661
4.308,0.01648
4.312,0.0555
4.316,0.07067
4.32,0.02363
4.324,0.05839
4.328,0.01042
4.332,0.03223
4.336,0.01533
4.34,0.03749
4.344,0.00738
4.348,0.01334
4.352,-0.01949
4.356,-0.10214
4.36,-0.10443
4.364,-0.12887
4.368,0.01335
4.372,0.18126
4.376,0.34481
4.38,0.50934
4.384,0.77072
4.388,0.91959
4.392,1.03536
4.396,0.97255
4.4,0.87941
4.404,0.71123
4.408,0.47457
4.412,0.23023
4.416,0.03099
4.42,-0.15133
4.424,-0.14542
4.428,-0.13709
4.432,-0.07453
4.436,-0.06496
4.44,-0.05604
4.444,-0.01078
4.448,0.01285
4.452,-0.02188
4.456,0.06783
4.46,0.09979
4.464,0.06213
4.468,-0.00173
4.472,0.08196
4.476,0.05
4.48,0.05202
4.484,0.04769
4.488,-0.05229
4.492,-0.04267
4.496,0.03514
4.5,0.03047
4.504,0.04837
4.508,0.07455
4.512,0.03066
4.516,-0.00733
4.52,0.00558
4.524,0.00393
4.528,-0.03292
4.532,-0.00856
4.536,0.01719
4.54,-0.00677
4.544,0.05934
4.548,-0.02724
4.552,0.00665
4.556,0.04404
4.56,0.01165
4.564,-0.00529
4.568,0.01238
4.572,0.04954
4.576,0.10178
4.58,-0.01665
4.584,0.01567
4.588,0.05685
4.592,0.11021
4.596,0.0382
4.6,0.08347
4.604,0.15898
4.608,0.04556
4.612,0.08109
4.616,0.12188
4.62,0.14706
4.624,0.12043
4.628,0.11171
4.632,0.14086
4.636,0.30737
4.64,0.24488
4.644,0.2114
4.648,0.23843
4.652,0.20149
4.656,0.26088
4.66,0.20884
4.664,0.22054
4.668,0.19857
4.672,0.33101
4.676,0.27102
4.68,0.29066
4.684,0.26665
4.688,0.28809
4.692,0.34932
4.696,0.28054
4.7,0.32389
4.704,0.37435
4.708,0.30455
4.712,0.23394
4.716,0.22576
4.72,0.15802
4.724,0.22213
4.728,0.17676
4.732,0.19608
4.736,0.1473
4.74,0.05217
4.744,0.13107
4.748,0.01501
4.752,0.10006
4.756,0.0824
4.76,0.06631
4.764,0.04743
4.768,0.06232
4.772,0.05215
4.776,0.06943
4.78,-0.04162
4.784,-0.0011
4.788,-0.02261
4.792,0.05688
4.796,-0.0231
4.8,0.02429
4.804,-0.00048
4.808,0.02524
4.812,-0.01069
4.816,0.01944
4.82,0.01195
4.824,0.02973
4.828,0.01854
4.832,-0.07094
4.836,-0.10567
4.84,-0.06997
4.844,-0.00743
4.848,0.17808
4.852,0.37535
4.856,0.58898
4.86,0.77558
4.864,0.89669
4.868,0.97601
4.872,0.9708
4.876,0.84918
4.88,0.62411
4.884,0.36736
4.888,0.16357
4.892,-0.02392
4.896,-0.10238
4.9,-0.13999
4.904,-0.09878
4.908,-0.08216
4.912,-0.06176
4.916,-0.03435
4.92,-0.01613
4.924,-0.01733
4.928,0.10215
4.932,0.03783
4.936,0.04243
4.94,0.01007
4.944,0.03848
4.948,0.02615
4.952,-0.01934
4.956,0.05563
4.96,-0.00329
4.964,0.06852
4.968,0.08504
4.972,-0.05124
4.976,0.04992
4.98,-0.04335
4.984,0.07445
4.988,0.02681
4.992,-0.00479
4.996,0.02888
5.0,0.00767
5.004,0.06862
5.008,-0.01928
5.012,-0.0136
5.016,0.07764
5.02,0.01774
5.024,0.0402
5.028,-0.03066
5.032,0.03462
5.036,0.08768
5.04,0.02601
5.044,0.03787
5.048,0.01847
5.052,0.04579
5.056,0.06661
5.06,0.02351
5.064,0.07515
5.068,0.0351
5.072,0.0783
5.076,0.10219
5.08,0.06297
5.084,0.08324
5.088,0.06376
5.092,0.13684
5.096,0.10332
5.1,0.12354
5.104,0.15742
5.108,0.19597
5.112,0.16685
5.116,0.19324
5.12,0.21122
5.124,0.14518
5.128,0.24758
5.132,0.13627
5.136,0.26954
5.14,0.24326
5.144,0.24008
5.148,0.24693
5.152,0.24394
5.156,0.25229
5.16,0.17621
5.164,0.26632
5.168,0.12459
5.172,0.16437
5.176,0.26183
5.18,0.21747
5.184,0.17877
5.188,0.17993
5.192,0.13939
5.196,0.16172
5.2,0.05726
5.204,0.18245
5.208,0.09602
5.212,0.12348
5.216,0.06522
5.22,0.0873
5.224,0.02565
5.228,0.02299
5.232,0.07582
5.236,-0.00359
5.24,0.07529
5.244,0.00547
5.248,-0.02414
5.252,0.00904
5.256,0.0204
5.26,0.05338
5.264,0.01543
5.268,0.02143
5.272,0.03898
5.276,0.04558
5.28,0.05082
5.284,0.083
5.288,0.00585
5.292,0.0232
5.296,0.0398
5.3,0.01782
5.304,0.02614
5.308,0.01794
5.312,0.00643
5.316,0.01706
5.32,0.02198
5.324,0.01684
5.328,0.01108
5.332,0.00521
5.336,-0.00307
5.34,-0.02055
5.344,-0.04789
5.348,-0.0033
5.352,0.04622
5.356,0.02276
5.36,-0.0103
5.364,-0.01732
5.368,-0.07778
5.372,0.0468
5.376,0.01306
5.38,-0.00445
5.384,-0.02632
5.388,0.05564
5.392,-0.00054
5.396,2e-05
5.4,0.02441
5.404,0.01164
5.408,0.06873
5.412,-0.02894
5.416,0.00099
5.42,-0.02013
5.424,-0.02051
5.428,0.08535
5.432,0.02304
5.436,-0.05624
5.44,0.0218
5.444,0.0301
5.448,0.00166
5.452,-0.04367
5.456,0.03394
5.46,0.00159
5.464,0.05658
5.468,-0.02759
5.472,-0.00525
5.476,0.00475
5.48,-0.02598
5.484,-0.02126
5.488,-0.00768
5.492,0.0001
5.496,0.01514
5.5,-0.01198
5.504,0.01634
5.508,0.07066
5.512,0.02423
5.516,0.0562
5.52,-0.01325
5.524,-0.0438
5.528,-0.03579
5.532,-0.00469
5.536,0.01148
5.54,-0.05568
5.544,0.03155
5.548,0.03661
5.552,-0.03984
5.556,-0.02705
5.56,0.03735
5.564,0.03226
5.568,-0.00344
5.572,-0.02311
5.576,-0.01164
5.58,0.03008
5.584,-0.01281
5.588,0.06391
5.592,0.02143
5.596,0.02851
5.6,-0.00912
5.604,0.00856
5.608,0.06259
5.612,0.03568
5.616,0.01338
5.62,0.03332
5.624,-0.03841
5.628,-0.01024
5.632,-0.05313
5.636,-0.01378
5.64,0.04651
5.644,0.02641
5.648,0.01058
5.652,-0.02013
5.656,-0.0061
5.66,-0.03809
5.664,-0.05945
5.668,0.05947
5.672,0.04188
5.676,-0.02952
5.68,-0.0236
5.684,0.03957
5.688,-0.02084
5.692,0.03079
5.696,0.03076
5.7,0.06137
5.704,0.02877
5.708,0.07631
5.712,-0.0771
5.716,-0.07882
5.72,0.0134
5.724,0.03347
5.728,-0.02096
5.732,0.02404
5.736,0.00792
5.74,-0.01588
5.744,0.027
5.748,0.04528
5.752,0.06721
5.756,0.09695
5.76,0.07846
5.764,0.08321
5.768,0.07663
5.772,0.1678
5.776,0.05428
5.78,0.11503
5.784,0.02056
5.788,0.03754
5.792,0.05414
5.796,0.06864
5.8,0.07445
5.804,0.05001
5.808,0.02394
5.812,0.10372
5.816,0.02489
5.82,0.02055
5.824,0.01299
5.828,-0.00493
5.832,0.01476
5.836,-0.01819
5.84,0.00429
5.844,-0.01072
5.848,0.01044
5.852,-0.01836
5.856,-0.05433
5.86,-0.06419
5.864,-0.0095
5.868,0.03429
5.872,0.0195
5.876,0.08192
5.88,-0.00534
5.884,0.02147
5.888,-0.07988
5.892,-0.00758
5.896,-0.01106
5.9,0.00051
5.904,-0.08377
5.908,-0.11378
5.912,-0.09348
5.916,0.02619
5.92,0.19554
5.924,0.40507
5.928,0.63415
5.932,0.85816
5.936,0.93139
5.94,0.99885
5.944,0.93013
5.948,0.80639
5.952,0.54313
5.956,0.26739
5.96,0.08797
5.964,-0.12699
5.968,-0.18037
5.972,-0.13188
5.976,-0.1141
5.98,-0.08
5.984,-0.04154
5.988,-0.05421
5.992,-0.07996
5.996,-0.06376
6.0,-0.03295
6.004,-0.02341
6.008,-0.06991
6.012,0.00547
6.016,-0.02064
6.02,-0.06729
6.024,-0.03008
6.028,0.0384
6.032,0.01426
6.036,-0.00592
6.04,0.00832
6.044,-0.02739
6.048,-0.03081
6.052,-0.03207
6.056,-0.03584
6.06,0.00355
6.064,-0.01273
6.068,0.03842
6.072,0.00406
6.076,-0.08127
6.08,-0.01558
6.084,0.06151
6.088,0.02244
6.092,-0.02829
6.096,0.00257
6.1,0.05713
6.104,-0.0225
6.108,0.06376
6.112,0.00367
6.116,-0.05052
6.12,-0.03786
6.124,-0.02093
6.128,0.00112
6.132,0.08262
6.136,0.02965
6.14,0.05182
6.144,0.07891
6.148,0.02125
6.152,0.02484
6.156,0.01384
6.16,0.07123
6.164,0.12166
6.168,0.15277
6.172,0.11683
6.176,0.14919
6.18,0.0632
6.184,0.20063
6.188,0.1669
6.192,0.19457
6.196,0.20933
6.2,0.16382
6.204,0.21196
6.208,0.22098
6.212,0.29588
6.216,0.20787
6.22,0.20952
6.224,0.25188
6.228,0.22702
6.232,0.23822
6.236,0.18725
6.24,0.19687
6.244,0.16896
6.248,0.12309
6.252,0.16784
6.256,0.11011
6.26,0.11595
6.264,0.10391
6.268,0.08783
6.272,0.12059
6.276,0.09102
6.28,0.06535
6.284,0.08721
6.288,0.05865
6.292,0.06369
6.296,0.03958
6.3,0.05936
6.304,0.04681
6.308,0.01994
6.312,0.02534
6.316,-0.00471
6.32,0.01734
6.324,0.03056
6.328,-0.00747
6.332,-0.02119
6.336,-0.08942
6.34,-0.02893
6.344,-0.04188
6.348,-0.06646
6.352,-0.03473
6.356,0.00699
6.36,-0.03365
6.364,0.01872
6.368,0.0201
6.372,-0.01432
6.376,-0.06088
6.38,-0.00395
6.384,-0.03181
6.388,-0.05305
6.392,-0.05764
6.396,0.02239
6.4,-0.05901
6.404,0.01459
6.408,0.01868
6.412,-0.0337
6.416,0.04079
6.42,-0.07864
6.424,0.01319
6.428,-0.02676
6.432,0.00446
6.436,0.00843
6.44,-0.08101
6.444,-0.00816
6.448,0.02287
6.452,-0.06679
6.456,0.00146
6.46,0.00339
6.464,-0.06783
6.468,-0.0296
6.472,-0.01317
6.476,-0.02064
6.48,-0.02914
6.484,-0.03192
6.488,0.03683
6.492,-0.01205
6.496,-0.02068
6.5,-0.02633
6.504,0.04668
6.508,-0.02055
6.512,0.0264
6.516,-0.0293
6.52,0.01285
6.524,-0.03222
6.528,-0.02142
6.532,0.04168
6.536,-0.02924
6.54,-0.04702
6.544,-0.04723
6.548,-0.07295
6.552,-0.06518
6.556,0.00152
6.56,-0.02608
6.564,0.01318
6.568,-0.04208
6.572,-0.05983
6.576,-0.03715
6.58,0.04963
6.584,-0.03766
6.588,-0.00765
6.592,-0.00527
6.596,-0.00835
6.6,0.0222
6.604,-0.04763
6.608,-0.05065
6.612,-0.0197
6.616,0.016
6.62,-0.02248
6.624,0.00519
6.628,-0.02524
6.632,0.03597
6.636,-0.0744
6.64,-0.03358
6.644,-0.02874
6.648,0.00127
6.652,-0.05243
6.656,-0.01086
6.66,-0.06959
6.664,0.00339
6.668,-0.06162
6.672,0.02275
6.676,-0.01071
6.68,-0.02242
6.684,-0.03675
6.688,0.02524
6.692,0.00688
6.696,0.01475
6.7,-0.04265
6.704,-0.01744
6.708,0.03539
6.712,-0.02263
6.716,0.00888
6.72,-0.06973
6.724,-0.03652
6.728,-0.0212
6.732,0.03519
6.736,0.01558
6.74,0.06567
6.744,0.02991
6.748,0.04498
6.752,0.07986
6.756,0.09287
6.76,0.06321
6.764,0.02927
6.768,0.11935
6.772,0.03666
6.776,0.00407
6.78,0.05255
6.784,0.03683
6.788,0.07857
6.792,0.03413
6.796,0.00026
6.8,0.02489
6.804,0.03076
6.808,0.01195
6.812,-0.04187
6.816,0.01689
6.82,-0.00313
6.824,-0.06494
6.828,-0.01892
6.832,-0.07476
6.836,-0.0271
6.84,-0.01933
6.844,-0.02245
6.848,-0.00172
6.852,-0.08994
6.856,-0.0584
6.86,-0.02142
6.864,-0.06941
6.868,0.00314
6.872,-0.05935
6.876,-0.01006
6.88,-0.02053
6.884,-0.05948
6.888,-0.0584
6.892,-0.07968
6.896,-0.22608
6.9,-0.11058
6.904,-0.06839
6.908,0.02397
6.912,0.20153
6.916,0.4185
6.92,0.65721
6.924,0.8532
6.928,0.93912
6.932,1.01079
6.936,0.8319
6.94,0.63835
6.944,0.40513
6.948,0.23235
6.952,0.07925
6.956,-0.11658
6.96,-0.17311
6.964,-0.13936
6.968,-0.13588
6.972,-0.08964
6.976,-0.0666
6.98,-0.09827
6.984,-0.02976
6.988,0.00402
6.992,-0.01414
6.996,-0.00167
7.0,-0.03534
7.004,0.00238
7.008,-0.08098
7.012,-0.02615
7.016,0.01642
7.02,0.00033
7.024,-0.00644
7.028,-0.05533
7.032,-0.01756
7.036,-0.01037
7.04,-0.04678
7.044,-0.08265
7.048,0.0013
7.052,-0.00091
7.056,0.00219
7.06,-0.0039
7.064,0.04742
7.068,-0.0008
7.072,-0.00663
7.076,0.03816
7.08,0.11041
7.084,0.10517
7.088,0.08705
7.092,0.07023
7.096,0.07748
7.1,0.03973
7.104,0.13237
7.108,0.0379
7.112,0.05111
7.116,-0.02311
7.12,0.03856
7.124,-0.01453
7.128,0.02045
7.132,-0.00412
7.136,0.04447
7.14,0.02889
7.144,0.06981
7.148,-0.00606
7.152,0.05648
7.156,0.12594
7.16,0.13718
7.164,0.04909
7.168,0.09041
7.172,0.08773
7.176,0.19783
7.18,0.15462
7.184,0.1829
7.188,0.12369
7.192,0.19334
7.196,0.2168
7.2,0.1279
7.204,0.21628
7.208,0.24172
7.212,0.108
7.216,0.15128
7.22,0.07288
7.224,0.11886
7.228,0.09637
7.232,0.17889
7.236,0.33317
7.24,0.56624
7.244,0.74073
7.248,0.91221
7.252,1.04072
7.256,1.07548
7.26,1.02124
7.264,0.92075
7.268,0.68558
7.272,0.47009
7.276,0.15699
7.28,0.07095
7.284,-0.12879
7.288,-0.12634
7.292,-0.10387
7.296,-0.08377
7.3,-0.07667
7.304,-0.03451
7.308,0.03391
7.312,-0.0595
7.316,0.04217
7.32,0.02039
7.324,-0.01705
7.328,0.04312
7.332,-0.05777
7.336,0.00167
7.34,-0.0405
7.344,-8e-05
7.348,-0.06365
7.352,-0.03705
7.356,-0.05443
7.36,-0.0336
7.364,0.02582
7.368,-0.03856
7.372,0.01184
7.376,-0.01223
7.38,-0.04101
7.384,-0.0122
7.388,-0.02997
7.392,0.00921
7.396,-0.10898
7.4,0.00534
7.404,-0.06828
7.408,-0.02584
7.412,-0.01395
7.416,0.03826
7.42,-0.03707
7.424,-0.00947
7.428,0.01003
7.432,0.01391
7.436,-0.02845
7.44,-0.04378
7.444,-0.00974
7.448,0.0048
7.452,0.06432
7.456,-0.00917
7.46,0.00692
7.464,0.0061
7.468,0.02962
7.472,0.07046
7.476,0.08965
7.48,0.03162
7.484,0.02495
7.488,0.05755
7.492,0.07064
7.496,0.11884
7.5,0.1406
7.504,0.13848
7.508,0.15731
7.512,0.1278
7.516,0.19471
7.52,0.1707
7.524,0.15521
7.528,0.23537
7.532,0.2069
7.536,0.19511
7.54,0.20344
7.544,0.09015
7.548,0.15033
7.552,0.13118
7.556,0.13437
7.56,0.12032
7.564,0.06725
7.568,0.11625
7.572,0.14216
7.576,0.12009
7.58,0.13061
7.584,0.09167
7.588,0.15917
7.592,0.08469
7.596,0.03835
7.6,-0.00345
7.604,0.00977
7.608,0.02459
7.612,0.09678
7.616,-0.04504
7.62,0.02641
7.624,0.0333
7.628,-0.01706
7.632,-0.07395
7.636,-0.02971
7.64,-0.0449
7.644,-0.0792
7.648,-0.04561
7.652,-0.04815
7.656,-0.07665
7.66,0.02864
7.664,-0.02676
7.668,-0.0775
7.672,-0.05245
7.676,0.0173
7.68,-0.02696
7.684,-0.03272
7.688,-0.03533
7.692,0.0659
7.696,-0.03405
7.7,-0.12109
7.704,-0.03068
7.708,-0.05828
7.712,-0.00178
7.716,-0.047
7.72,0.01155
7.724,-0.02066
7.728,-0.05286
7.732,-0.03393
7.736,-0.06132
7.74,-0.0524
7.744,-0.01778
7.748,-0.05807
7.752,-0.00044
7.756,-0.03591
7.76,-0.07799
7.764,-0.05579
7.768,-0.03508
7.772,-0.05196
7.776,-0.05611
7.78,-0.03131
7.784,0.016
7.788,-0.02039
7.792,0.01702
7.796,-0.0638
7.8,-0.07554
7.804,0.02092
7.808,-0.0133
7.812,-0.00034
7.816,-0.05868
7.82,-0.02003
7.824,-0.04016
7.828,-0.06261
7.832,-0.02989
7.836,0.01351
7.84,0.02074
7.844,-0.04855
7.848,0.00922
7.852,-0.0195
7.856,-0.08472
7.86,0.00174
7.864,0.01932
7.868,-0.07497
7.872,-0.03349
7.876,-0.10135
7.88,-0.05543
7.884,-0.03931
7.888,-0.02061
7.892,-0.04079
7.896,0.07494
7.9,-0.08249
7.904,0.01732
7.908,-0.0052
7.912,0.00033
7.916,-0.05332
7.92,-0.04501
7.924,-0.02726
7.928,-0.01351
7.932,-0.02716
7.936,-0.02436
7.94,-0.00188
7.944,-0.02876
7.948,-0.02048
7.952,-0.03739
7.956,-0.00995
7.96,-0.00995
7.964,-0.03918
7.968,-0.01612
7.972,-0.05181
7.976,-0.02095
7.98,0.04337
7.984,-0.07743
7.988,-0.04547
7.992,-0.0035
7.996,-0.00025
8.0,-0.02084
8.004,-0.03701
8.008,-0.04817
8.012,-0.06149
8.016,0.01049
8.02,0.01282
8.024,0.05611
8.028,-0.09551
8.032,0.04253
8.036,-0.01856
8.04,0.02671
8.044,-0.04258
8.048,-0.06888
8.052,-0.01163
8.056,-0.07353
8.06,-0.03756
8.064,0.00794
8.068,-0.00263
8.072,-0.04123
8.076,-0.04278
8.08,0.04125
8.084,-0.04142
8.088,-0.00114
8.092,0.04012
8.096,-0.01296
8.1,-0.02666
8.104,-0.01146
8.108,-0.03692
8.112,-0.03467
8.116,0.01281
8.12,-0.00086
8.124,0.00773
8.128,0.03699
8.132,0.00067
8.136,-0.00129
8.14,-0.04473
8.144,0.07078
8.148,0.09513
8.152,-0.04041
8.156,0.07717
8.16,0.101
8.164,0.02628
8.168,0.05202
8.172,0.04099
8.176,0.04605
8.18,0.11458
8.184,0.02577
8.188,-0.02772
8.192,0.04555
8.196,-0.02605
8.2,-0.03082
8.204,0.00537
8.208,-0.06134
8.212,-0.02114
8.216,0.01964
8.22,-0.05051
8.224,0.01876
8.228,0.00612
8.232,0.00887
8.236,0.01059
8.24,-0.01069
8.244,-0.06618
8.248,-0.02069
8.252,-0.01057
8.256,0.03519
8.26,0.01134
8.264,-0.0766
8.268,-0.06415
8.272,-0.04366
8.276,-0.02615
8.28,-0.09756
8.284,-0.13765
8.288,-0.10979
8.292,-0.18491
8.296,0.06269
8.3,0.13522
8.304,0.29846
8.308,0.60349
8.312,0.78504
8.316,1.00326
8.32,0.99219
8.324,0.9504
8.328,0.72622
8.332,0.58513
8.336,0.3462
8.34,0.10981
8.344,-0.10855
8.348,-0.14295
8.352,-0.13788
8.356,-0.17803
8.36,-0.13737
8.364,-0.07941
8.368,-0.10851
8.372,-0.04626
8.376,-0.04209
8.38,-0.06447
8.384,0.04718
8.388,-0.01955
8.392,-0.06282
8.396,0.00215
8.4,0.04971
8.404,0.00526
8.408,-0.02593
8.412,-0.06996
8.416,0.03644
8.42,0.0137
8.424,0.00654
8.428,-0.0312
8.432,-0.03612
8.436,0.02536
8.44,-0.00457
8.444,-0.0429
8.448,-0.00871
8.452,0.01757
8.456,-0.06251
8.46,-0.03107
8.464,-0.00356
8.468,0.00024
8.472,-0.0036
8.476,-0.00131
8.48,-0.05526
8.484,-0.01509
8.488,0.02655
8.492,0.04242
8.496,-0.00366
8.5,0.05717
8.504,0.00222
8.508,0.04779
8.512,0.04863
8.516,0.05628
8.52,0.00185
8.524,0.05838
8.528,0.00906
8.532,0.04719
8.536,0.05642
8.54,0.11423
8.544,0.11987
8.548,0.09127
8.552,0.10927
8.556,0.06738
8.56,0.13164
8.564,0.14062
8.568,0.11246
8.572,0.10966
8.576,0.23122
8.58,0.19898
8.584,0.18616
8.588,0.18246
8.592,0.17598
8.596,0.16654
8.6,0.18247
8.604,0.14808
8.608,0.26872
8.612,0.19508
8.616,0.20123
8.62,0.22162
8.624,0.20461
8.628,0.1541
8.632,0.14616
8.636,0.14358
8.64,0.15946
8.644,0.15708
8.648,0.1179
8.652,0.03906
8.656,0.03874
8.66,0.09245
8.664,0.08455
8.668,0.07445
8.672,0.04195
8.676,-0.01276
8.68,0.07307
8.684,0.01442
8.688,0.00534
8.692,0.06994
8.696,0.10104
8.7,0.06506
8.704,-0.07187
8.708,0.00642
8.712,-0.03395
8.716,-0.01099
8.72,0.04823
8.724,0.0019
8.728,0.03182
8.732,-0.00154
8.736,0.01695
8.74,-0.05673
8.744,-0.0036
8.748,-0.01497
8.752,-0.11491
8.756,-0.08145
8.76,-0.00941
8.764,-0.06634
8.768,-0.04006
8.772,0.03454
8.776,0.0012
8.78,-0.0279
8.784,-0.04451
8.788,0.0837
8.792,-0.03172
8.796,0.00606
8.8,-0.02665
8.804,-0.01869
8.808,-0.0279
8.812,0.00847
8.816,0.06129
8.82,-0.04172
8.824,-0.02229
8.828,0.00435
8.832,-0.02002
8.836,-0.03712
8.84,-0.02042
8.844,0.02578
8.848,-0.01475
8.852,-5e-05
8.856,-0.01598
8.86,-0.0058
8.864,0.04865
8.868,-0.05625
8.872,0.0244
8.876,-0.01095
8.88,-0.00107
8.884,0.01144
8.888,0.01156
8.892,0.07977
8.896,0.07725
8.9,-0.0016
8.904,0.04081
8.908,0.02409
8.912,-0.0223
8.916,-0.02379
8.92,0.04813
8.924,0.02399
8.928,-0.01936
8.932,0.05409
8.936,0.00415
8.94,-0.03003
8.944,0.04199
8.948,-0.04371
8.952,0.02107
8.956,-0.00714
8.96,-0.02074
8.964,-0.02013
8.968,-0.0094
8.972,-0.03167
8.976,0.03342
8.98,-0.00917
8.984,0.01035
8.988,0.05751
8.992,-0.02578
8.996,-0.02728
9.0,0.02614
9.004,-0.026
9.008,-0.02671
9.012,0.0358
9.016,0.0057
9.02,-0.00389
9.024,-0.07794
9.028,0.01449
9.032,0.05792
9.036,-0.0031
9.04,0.02181
9.044,-0.00493
9.048,-0.00128
9.052,0.03412
9.056,0.00742
9.06,0.00258
9.064,0.05031
9.068,0.01125
9.072,0.03707
9.076,-0.01597
9.08,-0.02295
9.084,-0.07202
9.088,0.00086
9.092,-0.0379
9.096,-0.06334
9.1,-0.0204
9.104,0.04103
9.108,-0.06809
9.112,0.05288
9.116,0.00756
9.12,0.02821
9.124,0.06176
9.128,0.05119
9.132,0.08732
9.136,0.09112
9.14,0.07615
9.144,0.06406
9.148,0.14214
9.152,0.09824
9.156,0.07474
9.16,0.07599
9.164,0.06046
9.168,0.16064
9.172,0.00516
9.176,0.05441
9.18,0.08646
9.184,0.03422
9.188,-0.0055
9.192,-0.01793
9.196,-0.00941
9.2,-0.01458
9.204,0.01195
9.208,0.04478
9.212,-0.0351
9.216,-0.00929
9.22,0.0521
9.224,0.02271
9.228,-0.02541
9.232,0.03461
9.236,-0.0087
9.24,-0.06681
9.244,0.00437
9.248,-0.0092
9.252,-0.0227
9.256,0.02465
9.26,-0.02358
9.264,0.02617
9.268,-0.06668
9.272,-0.07603
9.276,-0.121
9.28,-0.13705
9.284,-0.08345
9.288,0.05541
9.292,0.33237
9.296,0.53733
9.3,0.71695
9.304,0.85204
9.308,0.97917
9.312,0.93454
9.316,0.8157
9.32,0.69821
9.324,0.49406
9.328,0.23346
9.332,0.11155
9.336,-0.05396
9.34,-0.17588
9.344,-0.14191
9.348,-0.13526
9.352,-0.10118
9.356,-0.05976
9.36,-0.03816
9.364,0.03284
9.368,-0.00757
9.372,-0.06464
9.376,-0.01551
9.38,0.04183
9.384,0.02776
9.388,0.02881
9.392,0.01932
9.396,-0.06573
9.4,-0.0322
9.404,0.01185
9.408,0.02082
9.412,0.00262
9.416,0.02931
9.42,-0.00777
9.424,-0.02547
9.428,0.0261
9.432,-0.01811
9.436,0.03037
9.44,-0.00558
9.444,0.02292
9.448,0.0346
9.452,0.01246
9.456,0.00362
9.46,-0.00918
9.464,-0.04179
9.468,-0.00066
9.472,0.03872
9.476,0.01798
9.48,0.0356
9.484,0.06413
9.488,0.03258
9.492,-0.03757
9.496,0.00611
9.5,0.03261
9.504,0.10223
9.508,0.08398
9.512,0.02308
9.516,-0.02041
9.52,0.07222
9.524,0.06627
9.528,0.07306
9.532,0.07897
9.536,0.15591
9.54,0.17784
9.544,0.12152
9.548,0.14051
9.552,0.148
9.556,0.16806
9.56,0.1449
9.564,0.22829
9.568,0.22652
9.572,0.25161
9.576,0.20017
9.58,0.303
9.584,0.22326
9.588,0.20484
9.592,0.22606
9.596,0.21038
9.6,0.21261
9.604,0.15838
9.608,0.21628
9.612,0.20225
9.616,0.16358
9.62,0.21149
9.624,0.19274
9.628,0.14886
9.632,0.19712
9.636,0.13972
9.64,0.15008
9.644,0.14291
9.648,0.14088
9.652,0.13677
9.656,0.01322
9.66,0.10428
9.664,0.10438
9.668,0.05464
9.672,0.04311
9.676,0.03281
9.68,0.01498
9.684,-0.00114
9.688,0.04996
9.692,0.02196
9.696,0.06232
9.7,0.02578
9.704,0.05483
9.708,0.02986
9.712,0.03587
9.716,-0.02309
9.72,-0.02255
9.724,0.02233
9.728,0.04718
9.732,0.04326
9.736,0.04877
9.74,-0.02166
9.744,0.05751
9.748,0.11025
9.752,0.09832
9.756,0.05041
9.76,0.01879
9.764,0.0189
9.768,0.02047
9.772,-0.02876
9.776,-0.00677
9.78,-0.00252
9.784,0.05768
9.788,-0.00493
9.792,0.06704
9.796,-0.01016
9.8,-0.02523
9.804,-0.03376
9.808,0.03892
9.812,0.07029
9.816,0.00911
9.82,0.02602
9.824,-0.04362
9.828,-0.01644
9.832,0.02233
9.836,0.0218
9.84,0.01789
9.844,0.00976
9.848,0.01766
9.852,0.04882
9.856,0.01769
9.86,0.02031
9.864,-0.01708
9.868,0.07293
9.872,0.10264
9.876,0.05937
9.88,0.04928
9.884,0.03276
9.888,-0.01889
9.892,0.031
9.896,0.11284
9.9,0.01888
9.904,0.04251
9.908,0.02749
9.912,0.03213
9.916,0.07994
9.92,0.0587
9.924,-0.03081
9.928,0.0605
9.932,-0.00314
9.936,0.03132
9.94,0.06885
9.944,-0.01059
9.948,-0.00602
9.952,0.00788
9.956,0.07132
9.96,0.154
9.964,0.05723
9.968,0.02584
9.972,0.04173
9.976,0.07435
9.98,0.06511
9.984,0.07245
9.988,-0.00458
9.992,0.03599
9.996,0.04826
