t_seg,ecg_mV
0.0,0.07405
0.004,0.04545
0.008,0.0578
0.012,0.01405
0.016,0.04373
0.02,0.01644
0.024,0.03317
0.028,0.02049
0.032,-0.00419
0.036,-0.03886
0.04,-0.00984
0.044,-0.02906
0.048,-0.01285
0.052,-0.01346
0.056,-0.02526
0.06,-0.01994
0.064,-0.0421
0.068,-0.01242
0.072,-0.02491
0.076,-0.04354
0.08,-0.02873
0.084,-0.05101
0.088,-0.0554
0.092,-0.01924
0.096,-0.04017
0.1,-0.05486
0.104,-0.04506
0.108,-0.00979
0.112,-0.05888
0.116,-0.06094
0.12,-0.09464
0.124,-0.15626
0.128,-0.15764
0.132,-0.07044
0.136,0.05693
0.14,0.22822
0.144,0.45213
0.148,0.65425
0.152,0.83167
0.156,0.96075
0.16,0.95465
0.164,0.83319
0.168,0.66861
0.172,0.42948
0.176,0.23092
0.18,0.02137
0.184,-0.11683
0.188,-0.19397
0.192,-0.19732
0.196,-0.17862
0.2,-0.11626
0.204,-0.071
0.208,-0.02999
0.212,-0.04993
0.216,-0.03304
0.22,-0.05423
0.224,-0.02528
0.228,-0.01823
0.232,-0.00797
0.236,-0.04313
0.24,-0.00575
0.244,-0.03579
0.248,-0.01803
0.252,-0.02166
0.256,-0.05888
0.26,-0.04079
0.264,-0.03981
0.268,-0.04478
0.272,-0.03262
0.276,-0.03083
0.28,-0.06005
0.284,-0.02873
0.288,-0.03312
0.292,-0.03618
0.296,-0.01178
0.3,-0.0385
0.304,-0.01285
0.308,0.01757
0.312,-0.03387
0.316,-0.0441
0.32,-0.02434
0.324,-0.02563
0.328,-0.0232
0.332,-0.00211
0.336,-0.00847
0.34,0.00236
0.344,-0.00796
0.348,0.00918
0.352,0.02151
0.356,0.02527
0.36,0.02152
0.364,0.03714
0.368,0.03927
0.372,0.027
0.376,0.04548
0.38,0.07326
0.384,0.07558
0.388,0.069
0.392,0.10511
0.396,0.10957
0.4,0.11055
0.404,0.15268
0.408,0.11909
0.412,0.17647
0.416,0.16415
0.42,0.16883
0.424,0.18609
0.428,0.19111
0.432,0.18021
0.436,0.188
0.44,0.18987
0.444,0.20349
0.448,0.17757
0.452,0.17584
0.456,0.1647
0.46,0.18081
0.464,0.16259
0.468,0.15025
0.472,0.10941
0.476,0.13062
0.48,0.11658
0.484,0.1036
0.488,0.09315
0.492,0.07359
0.496,0.08791
0.5,0.07294
0.504,0.04351
0.508,0.02194
0.512,0.03159
0.516,0.01179
0.52,0.00658
0.524,0.01846
0.528,0.01658
0.532,0.00967
0.536,-0.00254
0.54,-0.01453
0.544,0.00547
0.548,-0.00357
0.552,-0.00164
0.556,-0.03206
0.56,-0.0084
0.564,-0.00931
0.568,-0.04972
0.572,-0.03268
0.576,-0.03647
0.58,-0.0406
0.584,-0.01779
0.588,-0.02851
0.592,-0.01367
0.596,-0.02818
0.6,-0.03108
0.604,-0.03811
0.608,-0.04492
0.612,-0.01773
0.616,-0.03798
0.62,-0.02601
0.624,-0.029
0.628,-0.00072
0.632,-0.00573
0.636,-0.02979
0.64,-0.05022
0.644,-0.02447
0.648,-0.03539
0.652,-0.02228
0.656,-0.01601
0.66,-0.012
0.664,-0.01995
0.668,-0.02439
0.672,-0.00374
0.676,0.0103
0.68,0.02518
0.684,0.0383
0.688,0.04869
0.692,0.02664
0.696,0.05699
0.7,0.0618
0.704,0.07512
0.708,0.06319
0.712,0.05484
0.716,0.04905
0.72,0.05386
0.724,0.03602
0.728,0.04404
0.732,0.02595
0.736,0.01016
0.74,-0.01722
0.744,-0.00314
0.748,-0.01743
0.752,-0.05627
0.756,-0.03917
0.76,-0.02843
0.764,-0.04095
0.768,-0.02205
0.772,-0.02999
0.776,-0.02936
0.78,-0.02725
0.784,-0.05048
0.788,-0.03358
0.792,-0.04742
0.796,-0.02121
0.8,-0.03485
0.804,-0.0016
0.808,-0.01716
0.812,-0.01419
0.816,-0.0246
0.82,-0.04422
0.824,-0.08693
0.828,-0.10814
0.832,-0.16026
0.836,-0.12753
0.84,-0.06524
0.844,0.08539
0.848,0.26871
0.852,0.4942
0.856,0.70745
0.86,0.88374
0.864,0.95446
0.868,0.96317
0.872,0.8336
0.876,0.5937
0.88,0.37221
0.884,0.1928
0.888,0.0001
0.892,-0.12129
0.896,-0.19534
0.9,-0.1918
0.904,-0.1659
0.908,-0.1169
0.912,-0.07948
0.916,-0.04608
0.92,-0.02366
0.924,-0.02161
0.928,-0.02766
0.932,-0.01726
0.936,-0.04179
0.94,-0.02704
0.944,-0.01355
0.948,-0.01893
0.952,-0.01101
0.956,-0.00635
0.96,-0.01727
0.964,-0.04711
0.968,-0.04607
0.972,-0.03529
0.976,-0.03778
0.98,-0.03343
0.984,-0.03292
0.988,-0.01721
0.992,-0.00731
0.996,-0.02709
1.0,-0.04924
1.004,-0.01804
1.008,-0.00911
1.012,-0.03419
1.016,-0.01114
1.02,-0.00601
1.024,-0.02973
1.028,-0.01356
1.032,-0.01678
1.036,-0.01909
1.04,-0.00839
1.044,-0.02753
1.048,-0.01411
1.052,0.00992
1.056,0.0348
1.06,0.00615
1.064,0.01432
1.068,0.0683
1.072,0.06168
1.076,0.04605
1.08,0.03966
1.084,0.06744
1.088,0.08773
1.092,0.11085
1.096,0.07616
1.1,0.12664
1.104,0.12623
1.108,0.10933
1.112,0.1488
1.116,0.16399
1.12,0.16407
1.124,0.18911
1.128,0.18451
1.132,0.19158
1.136,0.17558
1.14,0.19819
1.144,0.19926
1.148,0.20274
1.152,0.1809
1.156,0.18612
1.16,0.20255
1.164,0.17554
1.168,0.17663
1.172,0.15985
1.176,0.12098
1.18,0.12463
1.184,0.13519
1.188,0.13763
1.192,0.09243
1.196,0.10194
1.2,0.09442
1.204,0.08118
1.208,0.07709
1.212,0.07311
1.216,0.07006
1.22,0.06614
1.224,0.03871
1.228,0.04037
1.232,0.00901
1.236,0.02812
1.24,-0.01904
1.244,-0.00065
1.248,-0.02299
1.252,-0.01433
1.256,-0.00096
1.26,-0.02297
1.264,-0.01407
1.268,-0.00587
1.272,-0.02487
1.276,-0.01
1.28,-0.03592
1.284,-0.03379
1.288,-0.00067
1.292,0.0055
1.296,-0.03139
1.3,-0.01546
1.304,0.00038
1.308,-0.00804
1.312,-0.02732
1.316,-0.02172
1.32,0.00445
1.324,-0.0048
1.328,-0.02261
1.332,0.01139
1.336,0.00242
1.34,0.01656
1.344,-0.03817
1.348,-0.00069
1.352,-0.05671
1.356,-0.00253
1.36,-0.03527
1.364,-0.01388
1.368,0.00926
1.372,-0.02382
1.376,-0.00964
1.38,-0.02229
1.384,-0.0052
1.388,-0.0132
1.392,-0.00487
1.396,-0.01764
1.4,-0.01969
1.404,-0.00013
1.408,-0.01646
1.412,-0.00577
1.416,-0.00604
1.42,-0.04158
1.424,-0.01143
1.428,-0.01398
1.432,0.00441
1.436,0.01349
1.44,-0.00981
1.444,0.001
1.448,0.00145
1.452,-0.0017
1.456,-0.02661
1.46,-0.02213
1.464,-0.02672
1.468,-0.00726
1.472,0.01968
1.476,0.01158
1.48,0.02105
1.484,0.06746
1.488,0.06083
1.492,0.0547
1.496,0.06527
1.5,0.08236
1.504,0.08632
1.508,0.10782
1.512,0.06561
1.516,0.06794
1.52,0.04635
1.524,0.03218
1.528,0.05303
1.532,0.04168
1.536,0.00187
1.54,-5e-05
1.544,0.02296
1.548,0.0082
1.552,0.00399
1.556,-0.01184
1.56,-0.00748
1.564,0.01386
1.568,-0.00803
1.572,-0.00694
1.576,-0.01111
1.58,0.00081
1.584,-0.01812
1.588,-0.03661
1.592,-0.02172
1.596,-0.0043
1.6,-0.03366
1.604,-0.02347
1.608,-0.01248
1.612,-0.02299
1.616,-0.01698
1.62,0.0082
1.624,-0.04944
1.628,-0.09258
1.632,-0.14667
1.636,-0.10192
1.64,-0.02689
1.644,0.11294
1.648,0.27598
1.652,0.51224
1.656,0.72738
1.66,0.89899
1.664,0.97354
1.668,0.97141
1.672,0.83556
1.676,0.62247
1.68,0.38549
1.684,0.18661
1.688,0.03374
1.692,-0.10215
1.696,-0.16302
1.7,-0.18316
1.704,-0.13644
1.708,-0.10976
1.712,-0.06113
1.716,-0.04262
1.72,-0.01256
1.724,-0.02102
1.728,-0.00274
1.732,-0.01753
1.736,-0.00014
1.74,0.00583
1.744,-0.00908
1.748,0.01775
1.752,-0.04837
1.756,0.00867
1.76,-0.02469
1.764,-0.01014
1.768,0.01042
1.772,-0.02018
1.776,0.00656
1.78,0.01077
1.784,-0.00567
1.788,-0.02923
1.792,0.02049
1.796,0.00116
1.8,0.00248
1.804,0.0119
1.808,-0.00099
1.812,0.00406
1.816,0.0142
1.82,0.00272
1.824,-0.00394
1.828,0.00522
1.832,0.02105
1.836,0.02828
1.84,0.00979
1.844,0.03091
1.848,0.01297
1.852,0.04411
1.856,0.00308
1.86,0.03102
1.864,0.05219
1.868,0.08285
1.872,0.04631
1.876,0.08966
1.88,0.08743
1.884,0.10115
1.888,0.09006
1.892,0.11044
1.896,0.10484
1.9,0.11174
1.904,0.16637
1.908,0.14836
1.912,0.16199
1.916,0.17677
1.92,0.20033
1.924,0.21226
1.928,0.22631
1.932,0.22504
1.936,0.2309
1.94,0.20394
1.944,0.23148
1.948,0.23903
1.952,0.21528
1.956,0.21948
1.96,0.22371
1.964,0.22111
1.968,0.22572
1.972,0.18865
1.976,0.19996
1.98,0.1474
1.984,0.15109
1.988,0.13272
1.992,0.13145
1.996,0.14014
2.0,0.13807
2.004,0.09323
2.008,0.06229
2.012,0.07613
2.016,0.05691
2.02,0.05593
2.024,0.03818
2.028,0.04882
2.032,0.04996
2.036,0.04502
2.04,0.02174
2.044,0.01236
2.048,0.02414
2.052,0.03899
2.056,0.03128
2.06,-0.00344
2.064,0.02823
2.068,0.01782
2.072,0.02218
2.076,0.02673
2.08,0.03736
2.084,0.00199
2.088,-0.00239
2.092,0.00106
2.096,0.02871
2.1,0.01585
2.104,-0.00813
2.108,-0.00176
2.112,0.04147
2.116,-0.01252
2.12,0.04075
2.124,0.00041
2.128,0.02012
2.132,-0.01428
2.136,0.00456
2.14,-0.00115
2.144,0.00524
2.148,0.01348
2.152,-0.0119
2.156,0.0161
2.16,0.00369
2.164,-0.00234
2.168,0.03478
2.172,-0.00144
2.176,-0.00019
2.18,0.01493
2.184,0.00051
2.188,0.02509
2.192,-0.00985
2.196,0.00865
2.2,0.01478
2.204,-0.01323
2.208,0.00215
2.212,-0.01176
2.216,0.00809
2.22,0.0337
2.224,0.00017
2.228,0.01526
2.232,0.04582
2.236,0.01894
2.24,-0.00198
2.244,0.02544
2.248,0.02792
2.252,0.05947
2.256,0.06165
2.26,0.09037
2.264,0.07042
2.268,0.13116
2.272,0.09933
2.276,0.10052
2.28,0.12571
2.284,0.10391
2.288,0.10386
2.292,0.10237
2.296,0.06781
2.3,0.06541
2.304,0.05462
2.308,0.03504
2.312,0.03676
2.316,0.02143
2.32,0.02508
2.324,0.01987
2.328,0.03451
2.332,0.00747
2.336,0.00535
2.34,0.0024
2.344,0.05465
2.348,-0.01195
2.352,-0.00178
2.356,0.0149
2.36,-0.0058
2.364,0.01153
2.368,0.0314
2.372,0.01135
2.376,0.02113
2.38,0.04157
2.384,0.00273
2.388,-0.00832
2.392,-0.02678
2.396,-0.01718
2.4,-0.0552
2.404,-0.08757
2.408,-0.07497
2.412,-0.00197
2.416,0.12637
2.42,0.30771
2.424,0.52562
2.428,0.76988
2.432,0.91685
2.436,0.9918
2.44,0.99644
2.444,0.8672
2.448,0.65625
2.452,0.4103
2.456,0.20424
2.46,0.02712
2.464,-0.08738
2.468,-0.15788
2.472,-0.15231
2.476,-0.12155
2.48,-0.07336
2.484,-0.0442
2.488,-0.01782
2.492,0.01637
2.496,0.0097
2.5,0.02035
2.504,0.01309
2.508,0.0273
2.512,0.00647
2.516,0.01993
2.52,0.00029
2.524,-0.00128
2.528,0.04931
2.532,0.00162
2.536,0.007
2.54,0.01615
2.544,0.0185
2.548,0.03325
2.552,0.02417
2.556,0.02443
2.56,0.00868
2.564,-0.00123
2.568,0.00295
2.572,0.02891
2.576,0.00162
2.58,0.03784
2.584,0.02103
2.588,0.03712
2.592,0.03747
2.596,0.01013
2.6,0.02282
2.604,0.03786
2.608,0.03787
2.612,0.03168
2.616,0.02111
2.62,0.01615
2.624,0.05861
2.628,0.0503
2.632,0.0468
2.636,0.10081
2.64,0.06885
2.644,0.09707
2.648,0.11561
2.652,0.10718
2.656,0.08717
2.66,0.10757
2.664,0.12342
2.668,0.14013
2.672,0.15212
2.676,0.17842
2.68,0.17796
2.684,0.16516
2.688,0.20774
2.692,0.22663
2.696,0.22569
2.7,0.22016
2.704,0.23707
2.708,0.23785
2.712,0.22712
2.716,0.25143
2.72,0.24976
2.724,0.23283
2.728,0.24019
2.732,0.21329
2.736,0.22664
2.74,0.21511
2.744,0.2055
2.748,0.198
2.752,0.1974
2.756,0.16825
2.76,0.16277
2.764,0.14881
2.768,0.1174
2.772,0.12232
2.776,0.11027
2.78,0.10439
2.784,0.09809
2.788,0.0926
2.792,0.10135
2.796,0.07388
2.8,0.04588
2.804,0.05745
2.808,0.06152
2.812,0.06216
2.816,0.05344
2.82,0.05455
2.824,0.02982
2.828,0.02259
2.832,0.03525
2.836,0.03615
2.84,0.00732
2.844,0.04294
2.848,0.03712
2.852,0.03998
2.856,0.01748
2.86,0.03431
2.864,0.0069
2.868,-0.00014
2.872,0.03134
2.876,0.03841
2.88,0.00799
2.884,0.03981
2.888,0.0337
2.892,0.01031
2.896,0.02984
2.9,0.03729
2.904,0.03282
2.908,0.02522
2.912,0.05097
2.916,0.06397
2.92,0.06122
2.924,0.08605
2.928,0.09311
2.932,0.12918
2.936,0.11446
2.94,0.12453
2.944,0.12514
2.948,0.11353
2.952,0.13142
2.956,0.10909
2.96,0.08628
2.964,0.10956
2.968,0.08349
2.972,0.07295
2.976,0.04009
2.98,0.02721
2.984,0.02871
2.988,0.02303
2.992,0.0509
2.996,0.05668
3.0,0.04607
3.004,0.02811
3.008,-0.00509
3.012,0.0127
3.016,0.02134
3.02,0.03604
3.024,0.03054
3.028,0.03088
3.032,0.04578
3.036,0.03727
3.04,0.0528
3.044,0.0362
3.048,0.01304
3.052,0.02682
3.056,0.00714
3.06,-0.02777
3.064,-0.04244
3.068,-0.08357
3.072,-0.08777
3.076,-0.05686
3.08,0.07435
3.084,0.23163
3.088,0.41836
3.092,0.67277
3.096,0.83558
3.1,0.98005
3.104,1.03944
3.108,0.97673
3.112,0.80875
3.116,0.55366
3.12,0.31389
3.124,0.1505
3.128,-0.00191
3.132,-0.10509
3.136,-0.14204
3.14,-0.11235
3.144,-0.09232
3.148,-0.05433
3.152,-0.01583
3.156,-0.00038
3.16,0.01946
3.164,-0.01152
3.168,0.00257
3.172,0.00767
3.176,0.03389
3.18,0.01999
3.184,0.01969
3.188,0.03261
3.192,0.00568
3.196,0.00654
3.2,0.01099
3.204,0.04135
3.208,0.02969
3.212,0.02064
3.216,0.00966
3.22,0.02728
3.224,0.02425
3.228,0.05523
3.232,0.02783
3.236,0.03447
3.24,0.02567
3.244,0.05686
3.248,-0.00119
3.252,0.04845
3.256,0.02876
3.26,0.03428
3.264,0.05275
3.268,0.02921
3.272,0.02739
3.276,0.01923
3.28,0.03678
3.284,0.05895
3.288,0.05197
3.292,0.05434
3.296,0.0501
3.3,0.06274
3.304,0.07066
3.308,0.09116
3.312,0.06694
3.316,0.1106
3.32,0.09154
3.324,0.09898
3.328,0.12487
3.332,0.17009
3.336,0.13343
3.34,0.15347
3.344,0.18671
3.348,0.20033
3.352,0.18983
3.356,0.22908
3.36,0.22118
3.364,0.22427
3.368,0.22325
3.372,0.2242
3.376,0.238
3.38,0.25525
3.384,0.2654
3.388,0.23919
3.392,0.25669
3.396,0.2252
3.4,0.21258
3.404,0.25019
3.408,0.23762
3.412,0.22688
3.416,0.16649
3.42,0.19692
3.424,0.16192
3.428,0.16485
3.432,0.16672
3.436,0.13534
3.44,0.13829
3.444,0.12294
3.448,0.07629
3.452,0.0791
3.456,0.07328
3.46,0.10436
3.464,0.0607
3.468,0.07155
3.472,0.07488
3.476,0.06518
3.48,0.04769
3.484,0.08911
3.488,0.06349
3.492,0.03901
3.496,0.04886
3.5,0.0031
3.504,0.0269
3.508,0.02689
3.512,0.04656
3.516,0.02675
3.52,0.03832
3.524,0.04087
3.528,0.0401
3.532,0.02031
3.536,0.03214
3.54,0.04755
3.544,0.01501
3.548,0.01258
3.552,0.03707
3.556,0.03597
3.56,0.02817
3.564,0.0068
3.568,0.05569
3.572,0.01969
3.576,0.04638
3.58,0.03976
3.584,0.02795
3.588,0.03685
3.592,0.04284
3.596,0.04708
3.6,0.04083
3.604,0.06008
3.608,0.09123
3.612,0.11898
3.616,0.10308
3.62,0.13322
3.624,0.11676
3.628,0.12141
3.632,0.1399
3.636,0.11532
3.64,0.12319
3.644,0.11673
3.648,0.11867
3.652,0.07413
3.656,0.0635
3.66,0.04004
3.664,0.05648
3.668,0.04924
3.672,0.05049
3.676,0.03715
3.68,0.02972
3.684,0.01281
3.688,0.03329
3.692,0.04337
3.696,0.02212
3.7,0.0224
3.704,0.02605
3.708,0.03196
3.712,0.03782
3.716,0.02201
3.72,0.04148
3.724,0.03842
3.728,0.04083
3.732,0.03825
3.736,0.03593
3.74,0.02437
3.744,-0.00338
3.748,-0.03351
3.752,-0.04149
3.756,-0.07543
3.76,-0.07661
3.764,-0.01835
3.768,0.11439
3.772,0.28509
3.776,0.47329
3.78,0.70868
3.784,0.89579
3.788,1.03032
3.792,1.02902
3.796,0.93346
3.8,0.72946
3.804,0.50809
3.808,0.29134
3.812,0.0646
3.816,-0.03943
3.82,-0.1229
3.824,-0.14954
3.828,-0.10711
3.832,-0.03584
3.836,0.01202
3.84,-0.02987
3.844,0.02764
3.848,0.05004
3.852,0.03324
3.856,0.00789
3.86,0.01895
3.864,0.04124
3.868,0.01887
3.872,0.01729
3.876,0.01322
3.88,0.05728
3.884,0.04148
3.888,0.02036
3.892,0.04924
3.896,0.02008
3.9,0.04731
3.904,0.02328
3.908,0.0257
3.912,0.06216
3.916,0.02483
3.92,0.00313
3.924,0.01787
3.928,0.02292
3.932,0.02016
3.936,0.02425
3.94,0.03185
3.944,0.02834
3.948,0.02483
3.952,0.04754
3.956,0.03223
3.96,0.03149
3.964,0.03406
3.968,0.02511
3.972,0.03827
3.976,0.08455
3.98,0.06219
3.984,0.06346
3.988,0.06295
3.992,0.07026
3.996,0.06678
4.0,0.0676
4.004,0.11075
4.008,0.11625
4.012,0.10757
4.016,0.12302
4.02,0.12246
4.024,0.15722
4.028,0.17063
4.032,0.18263
4.036,0.1919
4.04,0.19728
4.044,0.21489
4.048,0.21129
4.052,0.24693
4.056,0.24141
4.06,0.23941
4.064,0.24878
4.068,0.23814
4.072,0.22914
4.076,0.27665
4.08,0.24324
4.084,0.21962
4.088,0.23315
4.092,0.22161
4.096,0.21778
4.1,0.19146
4.104,0.21362
4.108,0.20195
4.112,0.19486
4.116,0.14554
4.12,0.14589
4.124,0.14957
4.128,0.11982
4.132,0.11075
4.136,0.09986
4.14,0.09506
4.144,0.07259
4.148,0.06375
4.152,0.07976
4.156,0.07162
4.16,0.06325
4.164,0.05323
4.168,0.04738
4.172,0.01811
4.176,0.04908
4.18,0.05931
4.184,0.02842
4.188,0.03547
4.192,0.05825
4.196,0.02851
4.2,0.0377
4.204,0.01218
4.208,0.04088
4.212,0.04774
4.216,0.0416
4.22,0.01466
4.224,0.03374
4.228,0.02751
4.232,0.02448
4.236,0.00834
4.24,0.04356
4.244,0.01833
4.248,0.02618
4.252,0.04255
4.256,0.00689
4.26,0.03774
4.264,0.05804
4.268,0.04409
4.272,0.02201
4.276,0.00188
4.28,0.04064
4.284,0.02696
4.288,0.04305
4.292,-0.02423
4.296,0.01441
4.3,0.04979
4.304,0.02817
4.308,0.04841
4.312,0.00665
4.316,0.01067
4.32,0.03006
4.324,-0.01131
4.328,0.06921
4.332,0.03237
4.336,0.02808
4.34,0.01025
4.344,0.01302
4.348,0.03815
4.352,0.02051
4.356,0.01881
4.36,0.00458
4.364,0.03555
4.368,0.01344
4.372,0.00418
4.376,0.00937
4.38,0.00771
4.384,0.01895
4.388,0.01897
4.392,0.02275
4.396,0.01839
4.4,0.01922
4.404,0.03968
4.408,0.01004
4.412,0.02898
4.416,0.03835
4.42,0.01508
4.424,0.0182
4.428,0.04228
4.432,0.0761
4.436,0.06708
4.44,0.06864
4.444,0.07169
4.448,0.08994
4.452,0.10222
4.456,0.15004
4.46,0.12224
4.464,0.10222
4.468,0.13049
4.472,0.13962
4.476,0.10773
4.48,0.10101
4.484,0.09811
4.488,0.07664
4.492,0.05754
4.496,0.04797
4.5,0.03297
4.504,0.03873
4.508,0.00176
4.512,0.03977
4.516,0.00358
4.52,0.02576
4.524,-0.00793
4.528,0.02058
4.532,0.01143
4.536,0.01813
4.54,0.03575
4.544,0.03732
4.548,0.02473
4.552,0.01713
4.556,0.00318
4.56,0.03593
4.564,0.005
4.568,0.02234
4.572,0.02189
4.576,0.02444
4.58,0.00996
4.584,-0.05228
4.588,-0.0901
4.592,-0.09733
4.596,-0.04802
4.6,0.04759
4.604,0.19174
4.608,0.40438
4.612,0.62051
4.616,0.82007
4.62,0.9843
4.624,1.01568
4.628,0.9296
4.632,0.78921
4.636,0.5955
4.64,0.33442
4.644,0.146
4.648,-0.03565
4.652,-0.12472
4.656,-0.16013
4.66,-0.16304
4.664,-0.07659
4.668,-0.0623
4.672,-0.01761
4.676,0.01562
4.68,0.0042
4.684,0.00808
4.688,-0.00372
4.692,0.00846
4.696,0.00764
4.7,0.02096
4.704,0.01659
4.708,0.03301
4.712,0.00906
4.716,0.01047
4.72,0.01752
4.724,0.03259
4.728,0.00274
4.732,-7e-05
4.736,0.01007
4.74,-0.00655
4.744,0.00617
4.748,0.04323
4.752,-0.01039
4.756,0.0022
4.76,-0.01144
4.764,0.01096
4.768,-0.03633
4.772,-5e-05
4.776,0.00214
4.78,0.00479
4.784,0.01704
4.788,0.023
4.792,0.04174
4.796,0.00107
4.8,0.03714
4.804,0.03769
4.808,0.04612
4.812,0.02457
4.816,0.03096
4.82,0.05189
4.824,0.08158
4.828,0.04329
4.832,0.0992
4.836,0.07055
4.84,0.10985
4.844,0.10586
4.848,0.09562
4.852,0.11226
4.856,0.14983
4.86,0.16701
4.864,0.14023
4.868,0.17424
4.872,0.15475
4.876,0.20102
4.88,0.21322
4.884,0.18765
4.888,0.20898
4.892,0.24374
4.896,0.22147
4.9,0.23283
4.904,0.2445
4.908,0.23959
4.912,0.22275
4.916,0.21867
4.92,0.2273
4.924,0.21554
4.928,0.18212
4.932,0.1925
4.936,0.1914
4.94,0.16827
4.944,0.1861
4.948,0.15037
4.952,0.12723
4.956,0.09604
4.96,0.09863
4.964,0.08051
4.968,0.1023
4.972,0.07343
4.976,0.03286
4.98,0.06398
4.984,0.04598
4.988,0.03515
4.992,0.03092
4.996,0.05756
5.0,0.04463
5.004,0.02966
5.008,0.04108
5.012,0.02066
5.016,0.01116
5.02,-0.00995
5.024,0.03037
5.028,0.00236
5.032,0.03933
5.036,0.00598
5.04,0.00444
5.044,0.01394
5.048,0.00298
5.052,-0.00236
5.056,-0.01757
5.06,-0.01609
5.064,-0.00471
5.068,0.013
5.072,0.01005
5.076,0.03299
5.08,0.00742
5.084,0.00809
5.088,-0.01598
5.092,-0.00123
5.096,0.01592
5.1,-0.00296
5.104,0.00856
5.108,0.0419
5.112,-0.00441
5.116,-0.0177
5.12,-0.0056
5.124,0.02318
5.128,0.01293
5.132,-0.00614
5.136,0.00671
5.14,0.01746
5.144,-0.00893
5.148,-0.02451
5.152,0.05696
5.156,0.04586
5.16,0.04016
5.164,0.06207
5.168,0.07747
5.172,0.08702
5.176,0.08456
5.18,0.09571
5.184,0.08917
5.188,0.11328
5.192,0.0962
5.196,0.07628
5.2,0.08594
5.204,0.0809
5.208,0.074
5.212,0.0178
5.216,0.03451
5.22,0.01843
5.224,0.01251
5.228,0.02324
5.232,-0.00807
5.236,-0.013
5.24,0.00727
5.244,-0.00541
5.248,0.00111
5.252,-0.00189
5.256,0.00494
5.26,0.00238
5.264,-0.00852
5.268,-0.00972
5.272,0.00646
5.276,0.02006
5.28,0.00172
5.284,0.00843
5.288,-0.01558
5.292,-0.00896
5.296,-0.00675
5.3,-0.01339
5.304,-0.04967
5.308,-0.08127
5.312,-0.12594
5.316,-0.08739
5.32,-0.0385
5.324,0.12409
5.328,0.29184
5.332,0.50562
5.336,0.69299
5.34,0.90041
5.344,0.99553
5.348,0.94599
5.352,0.85631
5.356,0.65471
5.36,0.4158
5.364,0.18764
5.368,0.02613
5.372,-0.08617
5.376,-0.1427
5.38,-0.15953
5.384,-0.14745
5.388,-0.08875
5.392,-0.07025
5.396,-0.01673
5.4,-0.0356
5.404,-0.03479
5.408,0.02773
5.412,-0.00785
5.416,0.0001
5.42,-0.00719
5.424,0.02962
5.428,-0.00239
5.432,0.00448
5.436,-0.00736
5.44,0.00019
5.444,-0.0212
5.448,-0.00932
5.452,-0.00187
5.456,-0.003
5.46,0.01427
5.464,-0.00692
5.468,-0.0108
5.472,0.00113
5.476,-0.00565
5.48,-0.00812
5.484,-0.01243
5.488,-0.03099
5.492,0.01314
5.496,-0.01153
5.5,-0.01577
5.504,-0.01945
5.508,0.0204
5.512,0.01963
5.516,0.0023
5.52,0.02752
5.524,-0.00703
5.528,0.02054
5.532,0.05073
5.536,0.00782
5.54,0.02424
5.544,0.05683
5.548,0.03475
5.552,0.06221
5.556,0.06605
5.56,0.04144
5.564,0.08513
5.568,0.07716
5.572,0.06285
5.576,0.14773
5.58,0.11527
5.584,0.155
5.588,0.13675
5.592,0.17716
5.596,0.19084
5.6,0.17464
5.604,0.18697
5.608,0.1648
5.612,0.1997
5.616,0.19186
5.62,0.22764
5.624,0.24948
5.628,0.19369
5.632,0.21399
5.636,0.19462
5.64,0.2211
5.644,0.20132
5.648,0.14822
5.652,0.1684
5.656,0.16847
5.66,0.17582
5.664,0.16166
5.668,0.12147
5.672,0.13974
5.676,0.12373
5.68,0.09194
5.684,0.07281
5.688,0.11
5.692,0.05722
5.696,0.03237
5.7,0.07505
5.704,0.02571
5.708,0.01171
5.712,0.03867
5.716,0.00702
5.72,-0.00018
5.724,0.01447
5.728,0.00057
5.732,0.01169
5.736,-0.00165
5.74,0.00801
5.744,-0.02549
5.748,-0.01158
5.752,-0.00432
5.756,-0.02557
5.76,-0.02184
5.764,-0.00478
5.768,-0.02208
5.772,-0.01871
5.776,0.01468
5.78,-0.02353
5.784,-0.01157
5.788,-0.01974
5.792,-0.01214
5.796,-0.01868
5.8,-0.02708
5.804,-0.01441
5.808,-0.02319
5.812,-0.00473
5.816,-0.01188
5.82,-0.00295
5.824,-0.02365
5.828,0.01871
5.832,0.01867
5.836,-0.01274
5.84,-0.00968
5.844,-0.00188
5.848,-0.02038
5.852,0.0266
5.856,0.03819
5.86,0.03876
5.864,0.05005
5.868,0.03469
5.872,0.07508
5.876,0.08977
5.88,0.11505
5.884,0.07493
5.888,0.07004
5.892,0.07573
5.896,0.0723
5.9,0.09177
5.904,0.03975
5.908,0.00954
5.912,0.02531
5.916,0.02641
5.92,-0.01247
5.924,0.00334
5.928,-0.01831
5.932,-0.00594
5.936,-0.01111
5.94,-0.03618
5.944,-0.00693
5.948,0.00483
5.952,-0.02064
5.956,0.003
5.96,-0.00703
5.964,-0.01251
5.968,-0.04234
5.972,-0.011
5.976,-0.02044
5.98,-0.03378
5.984,-0.03679
5.988,-0.00196
5.992,-0.03657
5.996,-0.05204
6.0,-0.04018
6.004,-0.09772
6.008,-0.10701
6.012,-0.1304
6.016,-0.10121
6.02,0.03084
6.024,0.15279
6.028,0.38697
6.032,0.55949
6.036,0.7934
6.04,0.92551
6.044,0.93817
6.048,0.9147
6.052,0.74059
6.056,0.51614
6.06,0.28908
6.064,0.12541
6.068,-0.06366
6.072,-0.14008
6.076,-0.17695
6.08,-0.18471
6.084,-0.12421
6.088,-0.09487
6.092,-0.06336
6.096,-0.04767
6.1,-0.04782
6.104,-0.03235
6.108,-0.00211
6.112,-0.04652
6.116,-0.01463
6.12,-0.02078
6.124,-0.00085
6.128,-0.00811
6.132,-0.03766
6.136,-0.04829
6.14,-0.02182
6.144,-0.02095
6.148,-0.01178
6.152,-0.02308
6.156,-0.04026
6.16,-0.02179
6.164,-0.02483
6.168,0.00727
6.172,-0.01907
6.176,-0.038
6.18,0.0281
6.184,-0.00821
6.188,-0.00365
6.192,-0.02895
6.196,-0.02548
6.2,-0.02938
6.204,-0.04873
6.208,-0.01558
6.212,-0.01158
6.216,-0.0182
6.22,-0.00138
6.224,-0.01752
6.228,-0.0033
6.232,0.01037
6.236,-0.00051
6.24,0.05243
6.244,0.01954
6.248,0.02319
6.252,0.04434
6.256,0.06746
6.26,0.05344
6.264,0.0551
6.268,0.0934
6.272,0.09215
6.276,0.10753
6.28,0.12956
6.284,0.12376
6.288,0.14573
6.292,0.14423
6.296,0.16263
6.3,0.18466
6.304,0.18562
6.308,0.19282
6.312,0.1863
6.316,0.17893
6.32,0.18315
6.324,0.22
6.328,0.18427
6.332,0.1835
6.336,0.17905
6.34,0.1899
6.344,0.19662
6.348,0.14327
6.352,0.14062
6.356,0.13579
6.36,0.13046
6.364,0.12624
6.368,0.11796
6.372,0.11693
6.376,0.09909
6.38,0.07502
6.384,0.05878
6.388,0.05319
6.392,0.06258
6.396,0.06028
6.4,0.03145
6.404,-0.00602
6.408,0.01622
6.412,-0.02211
6.416,-0.0127
6.42,-0.02806
6.424,-0.01071
6.428,-0.0143
6.432,-0.0105
6.436,-0.00971
6.44,-0.04098
6.444,-0.04688
6.448,-0.03571
6.452,-0.0549
6.456,-0.02103
6.46,-0.01304
6.464,-0.0035
6.468,-0.03583
6.472,-0.04042
6.476,-0.01931
6.48,-0.01462
6.484,-0.03999
6.488,-0.03227
6.492,-0.03668
6.496,-0.023
6.5,-0.0039
6.504,-0.01729
6.508,-0.04964
6.512,-0.01917
6.516,-0.01585
6.52,-0.00882
6.524,-0.02915
6.528,-0.03567
6.532,-0.01195
6.536,-0.03601
6.54,-0.06458
6.544,-0.04026
6.548,-0.0059
6.552,-0.02274
6.556,-0.01971
6.56,-0.04116
6.564,-0.03325
6.568,-0.01826
6.572,-0.02069
6.576,-0.01333
6.58,-0.05224
6.584,-0.05285
6.588,-0.03703
6.592,-0.00262
6.596,-0.02459
6.6,-0.04128
6.604,-0.02664
6.608,-0.01617
6.612,0.01274
6.616,0.00102
6.62,-0.01729
6.624,0.03447
6.628,0.01617
6.632,0.05048
6.636,0.05537
6.64,0.06168
6.644,0.06597
6.648,0.07261
6.652,0.06852
6.656,0.05553
6.66,0.04077
6.664,0.01693
6.668,0.05394
6.672,0.01611
6.676,0.00042
6.68,0.00358
6.684,-0.02839
6.688,-0.00661
6.692,-0.01665
6.696,0.00991
6.7,-0.0117
6.704,-0.03919
6.708,-0.04357
6.712,-0.05368
6.716,-0.00689
6.72,-0.00875
6.724,-0.02537
6.728,-0.04211
6.732,-0.00976
6.736,-0.0327
6.74,-0.02293
6.744,-0.04415
6.748,0.00095
6.752,-0.01535
6.756,-0.0206
6.76,-0.03934
6.764,-0.06874
6.768,-0.08745
6.772,-0.11488
6.776,-0.1634
6.78,-0.13
6.784,-0.03612
6.788,0.13402
6.792,0.33097
6.796,0.54626
6.8,0.74572
6.804,0.90454
6.808,0.95992
6.812,0.92374
6.816,0.78032
6.82,0.56537
6.824,0.34377
6.828,0.10317
6.832,-0.04914
6.836,-0.16824
6.84,-0.15661
6.844,-0.17445
6.848,-0.17377
6.852,-0.08241
6.856,-0.07255
6.86,-0.05997
6.864,-0.05008
6.868,-0.03219
6.872,-0.02792
6.876,-0.02257
6.88,2e-05
6.884,-0.01713
6.888,-0.0159
6.892,-0.04811
6.896,-0.02568
6.9,-0.02758
6.904,-0.03973
6.908,-0.02237
6.912,-0.01391
6.916,-0.0426
6.92,-0.02797
6.924,-0.0483
6.928,-0.03744
6.932,-0.02275
6.936,-0.02246
6.94,-0.02497
6.944,-0.0557
6.948,-0.04761
6.952,-0.01901
6.956,-0.03696
6.96,-0.02931
6.964,-0.01728
6.968,-0.0144
6.972,-0.01585
6.976,-0.00931
6.98,-0.01017
6.984,-0.04308
6.988,-0.02016
6.992,0.01988
6.996,-0.01409
7.0,-0.00297
7.004,0.02405
7.008,0.03098
7.012,-0.00327
7.016,0.05686
7.02,0.06564
7.024,0.06546
7.028,0.05122
7.032,0.06234
7.036,0.08426
7.04,0.09106
7.044,0.12547
7.048,0.10291
7.052,0.12521
7.056,0.12145
7.06,0.13769
7.064,0.16085
7.068,0.15072
7.072,0.17796
7.076,0.16123
7.08,0.1737
7.084,0.19102
7.088,0.19141
7.092,0.16502
7.096,0.17471
7.1,0.18245
7.104,0.18388
7.108,0.19066
7.112,0.15948
7.116,0.17948
7.12,0.12165
7.124,0.13964
7.128,0.1469
7.132,0.11742
7.136,0.11145
7.14,0.08115
7.144,0.07414
7.148,0.08171
7.152,0.05306
7.156,0.05523
7.16,0.07264
7.164,0.05594
7.168,0.04418
7.172,0.02461
7.176,0.03169
7.18,0.05222
7.184,0.05815
7.188,0.06527
7.192,0.06185
7.196,0.06585
7.2,0.08455
7.204,0.06032
7.208,0.06529
7.212,0.08643
7.216,0.07436
7.22,0.05531
7.224,0.04625
7.228,0.05026
7.232,0.00773
7.236,0.00338
7.24,0.00648
7.244,-0.02543
7.248,-0.00387
7.252,-0.02794
7.256,-0.04584
7.26,-0.04911
7.264,-0.02997
7.268,-0.04732
7.272,-0.04202
7.276,-0.01954
7.28,-0.06695
7.284,-0.03824
7.288,-0.03429
7.292,-0.03701
7.296,0.00776
7.3,-0.01859
7.304,-0.0457
7.308,-0.01735
7.312,-0.02411
7.316,-0.03061
7.32,-0.03222
7.324,-0.06657
7.328,-0.09632
7.332,-0.12945
7.336,-0.12428
7.34,-0.09018
7.344,0.0311
7.348,0.19347
7.352,0.37364
7.356,0.61049
7.36,0.79321
7.364,0.92597
7.368,0.95824
7.372,0.86835
7.376,0.73581
7.38,0.48061
7.384,0.25653
7.388,0.06446
7.392,-0.05776
7.396,-0.17093
7.4,-0.20051
7.404,-0.16675
7.408,-0.13464
7.412,-0.10158
7.416,-0.04356
7.42,-0.05207
7.424,-0.02015
7.428,-0.02976
7.432,-0.02349
7.436,-0.04762
7.44,-0.03837
7.444,-0.01432
7.448,-0.00228
7.452,-0.00526
7.456,-0.01801
7.46,-0.01466
7.464,-0.02472
7.468,-0.02698
7.472,-0.01016
7.476,-0.03577
7.48,-0.0707
7.484,-0.03482
7.488,-0.02245
7.492,-0.02059
7.496,-0.04815
7.5,0.00623
7.504,-0.03267
7.508,-0.02186
7.512,-0.01922
7.516,-0.01526
7.52,-0.03898
7.524,-0.02521
7.528,-0.03792
7.532,0.00123
7.536,-0.01894
7.54,-0.02993
7.544,-0.02937
7.548,-0.00789
7.552,0.01031
7.556,0.00464
7.56,-0.01375
7.564,0.03782
7.568,0.01204
7.572,0.01901
7.576,0.06467
7.58,0.05373
7.584,0.06119
7.588,0.07182
7.592,0.10489
7.596,0.08603
7.6,0.09633
7.604,0.1231
7.608,0.1257
7.612,0.14041
7.616,0.13602
7.62,0.15858
7.624,0.16584
7.628,0.17663
7.632,0.19774
7.636,0.17087
7.64,0.19496
7.644,0.17913
7.648,0.19743
7.652,0.20492
7.656,0.17727
7.66,0.23612
7.664,0.18661
7.668,0.16293
7.672,0.16722
7.676,0.15351
7.68,0.15905
7.684,0.13253
7.688,0.10453
7.692,0.11426
7.696,0.09946
7.7,0.0786
7.704,0.08757
7.708,0.07689
7.712,0.06613
7.716,0.06059
7.72,0.04306
7.724,0.02492
7.728,0.01891
7.732,0.01303
7.736,0.02178
7.74,0.0112
7.744,-0.03332
7.748,-0.00587
7.752,-0.02051
7.756,-0.01472
7.76,-0.01525
7.764,-0.02752
7.768,0.01227
7.772,-0.02084
7.776,-0.00816
7.78,-0.01681
7.784,-0.02756
7.788,-0.02536
7.792,-0.0343
7.796,-0.02359
7.8,-0.02396
7.804,0.00065
7.808,-0.01122
7.812,-0.01811
7.816,-0.01657
7.82,-0.00965
7.824,-0.0128
7.828,-0.00351
7.832,-0.0402
7.836,-0.02183
7.84,-0.02431
7.844,-0.02699
7.848,-0.02689
7.852,-0.01928
7.856,-0.02172
7.86,-0.01756
7.864,-0.03525
7.868,-0.00298
7.872,-0.01199
7.876,-0.04099
7.88,-0.01888
7.884,-0.00982
7.888,-0.00941
7.892,0.00294
7.896,0.00889
7.9,-0.02358
7.904,0.0099
7.908,-0.01823
7.912,0.00707
7.916,0.02224
7.92,0.03773
7.924,0.04071
7.928,0.04543
7.932,0.06576
7.936,0.07953
7.94,0.10718
7.944,0.05098
7.948,0.08098
7.952,0.08544
7.956,0.07668
7.96,0.06339
7.964,0.03336
7.968,0.03252
7.972,0.02089
7.976,0.02133
7.98,0.00085
7.984,0.01229
7.988,0.00278
7.992,0.00822
7.996,-0.01113
8.0,-0.01333
8.004,-0.00614
8.008,0.00041
8.012,-0.01447
8.016,-0.02459
8.02,-0.01019
8.024,0.01036
8.028,-0.05039
8.032,0.0102
8.036,-0.01104
8.04,-0.01636
8.044,-0.00712
8.048,-0.02023
8.052,-0.03759
8.056,-0.00839
8.06,-0.04764
8.064,-0.08521
8.068,-0.10201
8.072,-0.13368
8.076,-0.0984
8.08,-0.01782
8.084,0.16372
8.088,0.33148
8.092,0.56449
8.096,0.77617
8.1,0.91624
8.104,0.98123
8.108,0.94591
8.112,0.77478
8.116,0.56681
8.12,0.36254
8.124,0.15115
8.128,-0.03684
8.132,-0.11529
8.136,-0.19938
8.14,-0.15624
8.144,-0.14193
8.148,-0.09433
8.152,-0.03004
8.156,-0.0073
8.16,-0.00179
8.164,-0.00701
8.168,-0.01972
8.172,-0.01555
8.176,0.0138
8.18,-0.02522
8.184,-0.0077
8.188,-0.00456
8.192,-0.01022
8.196,-0.01732
8.2,-0.01678
8.204,-0.01441
8.208,0.01019
8.212,-0.01173
8.216,-0.01427
8.22,0.01272
8.224,-0.0041
8.228,-0.01538
8.232,0.00211
8.236,0.01631
8.24,-0.00772
8.244,-0.01869
8.248,0.01364
8.252,-0.00805
8.256,0.00197
8.26,0.00172
8.264,-0.01292
8.268,0.02466
8.272,-7e-05
8.276,0.00877
8.28,0.00944
8.284,0.02181
8.288,0.01136
8.292,0.01259
8.296,0.03482
8.3,0.0097
8.304,0.02061
8.308,0.04546
8.312,0.05977
8.316,0.09203
8.32,0.05653
8.324,0.08258
8.328,0.08557
8.332,0.08947
8.336,0.12062
8.34,0.14701
8.344,0.12862
8.348,0.14854
8.352,0.16899
8.356,0.1867
8.36,0.21487
8.364,0.20577
8.368,0.20715
8.372,0.20179
8.376,0.19624
8.38,0.2347
8.384,0.2335
8.388,0.23796
8.392,0.20828
8.396,0.22554
8.4,0.2009
8.404,0.1628
8.408,0.18285
8.412,0.19723
8.416,0.17559
8.42,0.1986
8.424,0.14276
8.428,0.12951
8.432,0.12173
8.436,0.11585
8.44,0.09016
8.444,0.09212
8.448,0.08121
8.452,0.07681
8.456,0.0916
8.46,-0.00156
8.464,0.05135
8.468,0.03914
8.472,0.04559
8.476,0.03914
8.48,0.04582
8.484,-0.0205
8.488,0.00186
8.492,0.02224
8.496,-0.00611
8.5,0.04313
8.504,0.01296
8.508,-0.00072
8.512,0.03703
8.516,0.01604
8.52,-0.02186
8.524,-0.01811
8.528,0.00211
8.532,-0.00636
8.536,-0.01149
8.54,-0.0066
8.544,0.00713
8.548,0.01201
8.552,0.00425
8.556,-0.01289
8.56,0.00926
8.564,0.00566
8.568,-0.01153
8.572,-0.00477
8.576,0.02041
8.58,0.00417
8.584,0.00799
8.588,-0.01185
8.592,-0.02487
8.596,-0.00045
8.6,0.00869
8.604,0.01075
8.608,0.00376
8.612,0.00848
8.616,0.03166
8.62,0.0435
8.624,0.08758
8.628,0.05225
8.632,0.07836
8.636,0.10301
8.64,0.06554
8.644,0.09617
8.648,0.10823
8.652,0.10592
8.656,0.08048
8.66,0.09683
8.664,0.0632
8.668,0.05196
8.672,0.0347
8.676,0.0195
8.68,0.03684
8.684,0.0056
8.688,0.00014
8.692,0.03446
8.696,0.00508
8.7,0.03048
8.704,-0.01588
8.708,0.0082
8.712,0.0072
8.716,0.01542
8.72,-0.00831
8.724,0.00665
8.728,-0.0181
8.732,-0.00201
8.736,0.01132
8.74,0.01659
8.744,0.02296
8.748,-0.01832
8.752,0.01856
8.756,0.00774
8.76,-0.00165
8.764,-0.07961
8.768,-0.09497
8.772,-0.13125
8.776,-0.10139
8.78,-0.01153
8.784,0.14385
8.788,0.31236
8.792,0.53325
8.796,0.73268
8.8,0.90343
8.804,1.01024
8.808,0.99496
8.812,0.86118
8.816,0.64917
8.82,0.40146
8.824,0.19523
8.828,0.00929
8.832,-0.09258
8.836,-0.17615
8.84,-0.15976
8.844,-0.10978
8.848,-0.08527
8.852,-0.0019
8.856,-0.0307
8.86,-0.01405
8.864,0.01326
8.868,0.03753
8.872,0.01975
8.876,0.02485
8.88,-0.00992
8.884,0.01432
8.888,-0.00652
8.892,-0.02028
8.896,0.01622
8.9,-0.00605
8.904,0.00351
8.908,-9e-05
8.912,0.01604
8.916,0.03226
8.92,0.02072
8.924,0.0118
8.928,0.03041
8.932,0.03333
8.936,0.00351
8.94,0.0055
8.944,-0.00736
8.948,0.01078
8.952,0.02318
8.956,0.01923
8.96,0.01289
8.964,-0.00236
8.968,0.04932
8.972,0.02263
8.976,0.00746
8.98,0.01749
8.984,0.01959
8.988,0.02103
8.992,0.04696
8.996,0.06405
9.0,0.05235
9.004,0.05148
9.008,0.06801
9.012,0.07059
9.016,0.08
9.02,0.09932
9.024,0.0992
9.028,0.10361
9.032,0.10054
9.036,0.141
9.04,0.15795
9.044,0.15537
9.048,0.15791
9.052,0.17657
9.056,0.1854
9.06,0.2275
9.064,0.21224
9.068,0.20658
9.072,0.22999
9.076,0.23356
9.08,0.24847
9.084,0.25187
9.088,0.20591
9.092,0.23407
9.096,0.24215
9.1,0.21519
9.104,0.22058
9.108,0.21572
9.112,0.21926
9.116,0.17448
9.12,0.17109
9.124,0.15316
9.128,0.12733
9.132,0.14071
9.136,0.13696
9.14,0.14734
9.144,0.13312
9.148,0.07154
9.152,0.10691
9.156,0.07479
9.16,0.09078
9.164,0.07844
9.168,0.06919
9.172,0.06751
9.176,0.08547
9.18,0.03573
9.184,0.00494
9.188,0.01075
9.192,0.00912
9.196,0.03256
9.2,0.02458
9.204,0.01069
9.208,0.01308
9.212,0.03162
9.216,0.00897
9.22,0.01036
9.224,0.00318
9.228,0.02595
9.232,0.00693
9.236,0.039
9.24,0.01483
9.244,0.00985
9.248,0.04152
9.252,0.00486
9.256,0.01906
9.26,0.04135
9.264,-0.02145
9.268,0.03862
9.272,0.03934
9.276,0.0385
9.28,0.01512
9.284,0.04602
9.288,0.06028
9.292,0.06971
9.296,0.07787
9.3,0.07824
9.304,0.08852
9.308,0.10453
9.312,0.14003
9.316,0.10982
9.32,0.12044
9.324,0.11214
9.328,0.10442
9.332,0.13215
9.336,0.10272
9.34,0.10836
9.344,0.08363
9.348,0.05733
9.352,0.04339
9.356,0.04221
9.36,0.02155
9.364,0.0362
9.368,0.02397
9.372,0.03267
9.376,0.03012
9.38,0.04621
9.384,0.00398
9.388,0.00734
9.392,0.00825
9.396,0.02428
9.4,0.03306
9.404,0.02673
9.408,0.02956
9.412,0.0383
9.416,0.03378
9.42,0.03141
9.424,0.02652
9.428,0.04002
9.432,-0.00846
9.436,-0.03789
9.44,-0.0608
9.444,-0.10305
9.448,-0.06859
9.452,-0.00621
9.456,0.10868
9.46,0.33002
9.464,0.52848
9.468,0.75629
9.472,0.92973
9.476,1.01333
9.48,0.99221
9.484,0.88619
9.488,0.67566
9.492,0.45526
9.496,0.21264
9.5,0.04451
9.504,-0.0873
9.508,-0.13524
9.512,-0.12927
9.516,-0.12341
9.52,-0.07491
9.524,-0.00854
9.528,0.0078
9.532,0.0392
9.536,0.01453
9.54,0.04286
9.544,0.0321
9.548,0.03962
9.552,0.02762
9.556,0.00757
9.56,0.02704
9.564,0.02604
9.568,0.03553
9.572,0.01036
9.576,0.032
9.58,0.00809
9.584,0.01802
9.588,0.02926
9.592,0.0384
9.596,0.02169
9.6,0.04278
9.604,0.04421
9.608,0.04465
9.612,0.01841
9.616,0.03687
9.62,0.0337
9.624,0.00234
9.628,0.04379
9.632,0.0317
9.636,0.02595
9.64,0.02228
9.644,0.03889
9.648,0.02785
9.652,0.04132
9.656,0.03104
9.66,0.06668
9.664,0.06624
9.668,0.03884
9.672,0.07912
9.676,0.05681
9.68,0.03313
9.684,0.09562
9.688,0.09403
9.692,0.11403
9.696,0.11498
9.7,0.10668
9.704,0.11001
9.708,0.1279
9.712,0.14744
9.716,0.14171
9.72,0.15218
9.724,0.1942
9.728,0.18475
9.732,0.20323
9.736,0.21015
9.74,0.24939
9.744,0.23365
9.748,0.26217
9.752,0.24898
9.756,0.24356
9.76,0.25694
9.764,0.24365
9.768,0.24383
9.772,0.23464
9.776,0.23652
9.78,0.22637
9.784,0.21824
9.788,0.21593
9.792,0.21225
9.796,0.19568
9.8,0.14453
9.804,0.15974
9.808,0.15333
9.812,0.13231
9.816,0.09119
9.82,0.10707
9.824,0.11901
9.828,0.1186
9.832,0.09403
9.836,0.0719
9.84,0.06464
9.844,0.05799
9.848,0.06951
9.852,0.04956
9.856,0.04613
9.86,0.04841
9.864,0.0491
9.868,0.02302
9.872,0.0127
9.876,0.01108
9.88,0.03897
9.884,0.0465
9.888,0.03936
9.892,0.02411
9.896,0.00561
9.9,0.0425
9.904,0.02335
9.908,0.01499
9.912,0.01903
9.916,0.04709
9.92,0.01403
9.924,0.02257
9.928,0.04113
9.932,0.0069
9.936,0.02312
9.94,0.0402
9.944,0.04095
9.948,0.02217
9.952,0.06079
9.956,0.0293
9.96,0.02932
9.964,0.02496
9.968,0.02966
9.972,0.00977
9.976,0.02148
9.98,0.03104
9.984,0.02398
9.988,0.03599
9.992,0.01367
9.996,0.0097
