t_seg,ecg_mV
0.0,0.05605
0.004,0.04092
0.008,0.02668
0.012,0.00657
0.016,0.03219
0.02,0.01573
0.024,0.00943
0.028,0.03285
0.032,0.01903
0.036,0.03004
0.04,0.05041
0.044,0.0215
0.048,0.01471
0.052,0.0359
0.056,-0.00698
0.06,0.00027
0.064,-0.05383
0.068,-0.06003
0.072,-0.08031
0.076,-0.03057
0.08,0.09076
0.084,0.27347
0.088,0.44818
0.092,0.6945
0.096,0.87604
0.1,1.00852
0.104,1.00761
0.108,0.93221
0.112,0.78247
0.116,0.50216
0.12,0.28988
0.124,0.1053
0.128,-0.03371
0.132,-0.12125
0.136,-0.14289
0.14,-0.08917
0.144,-0.07991
0.148,-0.0171
0.152,-0.00181
0.156,0.0086
0.16,0.02406
0.164,0.00959
0.168,0.03916
0.172,0.01315
0.176,0.04763
0.18,0.03948
0.184,0.03971
0.188,0.0283
0.192,0.04026
0.196,0.04845
0.2,0.00913
0.204,0.01286
0.208,0.03653
0.212,0.03461
0.216,0.04239
0.22,0.01429
0.224,0.01296
0.228,0.04848
0.232,0.02569
0.236,0.01115
0.24,0.04819
0.244,0.03232
0.248,0.03073
0.252,0.03323
0.256,0.04831
0.26,0.0306
0.264,0.06235
0.268,0.07569
0.272,0.02594
0.276,0.02878
0.28,0.05265
0.284,0.02793
0.288,0.06066
0.292,0.06083
0.296,0.05893
0.3,0.08325
0.304,0.08395
0.308,0.10258
0.312,0.0996
0.316,0.11357
0.32,0.10418
0.324,0.11772
0.328,0.15997
0.332,0.1486
0.336,0.1582
0.34,0.15875
0.344,0.2244
0.348,0.15928
0.352,0.20164
0.356,0.20895
0.36,0.25706
0.364,0.22406
0.368,0.23876
0.372,0.27524
0.376,0.26458
0.38,0.23788
0.384,0.26331
0.388,0.25246
0.392,0.23924
0.396,0.2413
0.4,0.22627
0.404,0.22695
0.408,0.20853
0.412,0.18267
0.416,0.20501
0.42,0.16642
0.424,0.17762
0.428,0.18409
0.432,0.15297
0.436,0.15011
0.44,0.12601
0.444,0.09971
0.448,0.1011
0.452,0.09674
0.456,0.08936
0.46,0.07301
0.464,0.065
0.468,0.0557
0.472,0.05753
0.476,0.05327
0.48,0.05283
0.484,0.0492
0.488,0.0381
0.492,0.03639
0.496,0.01795
0.5,0.0351
0.504,0.03226
0.508,0.0466
0.512,0.03623
0.516,0.03127
0.52,0.0533
0.524,0.04222
0.528,0.02521
0.532,0.0466
0.536,0.03408
0.54,0.05195
0.544,0.02917
0.548,0.037
0.552,0.03436
0.556,0.04364
0.56,0.05237
0.564,0.01048
0.568,0.03756
0.572,0.02073
0.576,0.04547
0.58,0.02005
0.584,0.00039
0.588,0.0044
0.592,0.03211
0.596,0.02773
0.6,0.02088
0.604,0.01828
0.608,0.03936
0.612,0.0485
0.616,0.03994
0.62,0.01958
0.624,0.04521
0.628,0.03243
0.632,0.04184
0.636,0.03705
0.64,0.05018
0.644,0.03438
0.648,0.05272
0.652,0.01843
0.656,0.03169
0.66,0.022
0.664,0.0395
0.668,0.0223
0.672,0.00418
0.676,0.02661
0.68,0.04141
0.684,0.02915
0.688,0.03213
0.692,0.02648
0.696,0.02649
0.7,0.01507
0.704,0.03311
0.708,0.0284
0.712,0.04619
0.716,0.05082
0.72,0.07046
0.724,0.05601
0.728,0.06551
0.732,0.08693
0.736,0.07866
0.74,0.09765
0.744,0.10535
0.748,0.12894
0.752,0.14749
0.756,0.11503
0.76,0.10595
0.764,0.07901
0.768,0.13022
0.772,0.10167
0.776,0.06341
0.78,0.05535
0.784,0.04892
0.788,0.04029
0.792,0.05697
0.796,0.02638
0.8,0.009
0.804,0.03138
0.808,0.03719
0.812,0.03909
0.816,0.02253
0.82,0.00646
0.824,0.03477
0.828,0.05417
0.832,0.05098
0.836,0.00541
0.84,0.02647
0.844,0.0264
0.848,0.0082
0.852,0.02625
0.856,0.00776
0.86,0.04056
0.864,0.0543
0.868,0.01714
0.872,-0.03358
0.876,-0.05031
0.88,-0.11849
0.884,-0.09338
0.888,-0.01888
0.892,0.11937
0.896,0.2924
0.9,0.44374
0.904,0.70722
0.908,0.85596
0.912,1.00611
0.916,1.02571
0.92,0.92549
0.924,0.72788
0.928,0.50014
0.932,0.24043
0.936,0.07969
0.94,-0.05825
0.944,-0.10306
0.948,-0.14362
0.952,-0.11865
0.956,-0.09635
0.96,-0.04108
0.964,-0.03819
0.968,0.01886
0.972,0.03444
0.976,-0.00642
0.98,0.02105
0.984,0.00464
0.988,0.02163
0.992,0.00993
0.996,0.02497
1.0,0.02194
1.004,0.00275
1.008,0.00561
1.012,0.03532
1.016,0.01113
1.02,0.01794
1.024,0.0318
1.028,0.03407
1.032,-0.01412
1.036,0.01158
1.04,0.0543
1.044,0.00316
1.048,0.02642
1.052,0.03519
1.056,0.04519
1.06,0.02868
1.064,0.02569
1.068,-0.00636
1.072,0.00639
1.076,0.01992
1.08,0.00941
1.084,0.00405
1.088,0.04156
1.092,0.06296
1.096,0.03423
1.1,0.07333
1.104,0.04344
1.108,0.03664
1.112,0.06558
1.116,0.05312
1.12,0.0763
1.124,0.07258
1.128,0.08824
1.132,0.10515
1.136,0.142
1.14,0.11605
1.144,0.15993
1.148,0.13296
1.152,0.14586
1.156,0.18727
1.16,0.17903
1.164,0.1649
1.168,0.20374
1.172,0.19007
1.176,0.19824
1.18,0.24842
1.184,0.237
1.188,0.24282
1.192,0.22196
1.196,0.26509
1.2,0.25173
1.204,0.23717
1.208,0.23395
1.212,0.20161
1.216,0.18499
1.22,0.19376
1.224,0.20773
1.228,0.18234
1.232,0.16289
1.236,0.16579
1.24,0.13796
1.244,0.13259
1.248,0.12279
1.252,0.08151
1.256,0.12437
1.26,0.09048
1.264,0.06095
1.268,0.03815
1.272,0.06817
1.276,0.06502
1.28,0.06251
1.284,0.0573
1.288,0.06194
1.292,0.02227
1.296,0.0331
1.3,0.01865
1.304,0.01261
1.308,0.03622
1.312,0.02352
1.316,0.05878
1.32,-0.00385
1.324,-0.00494
1.328,0.01259
1.332,0.00259
1.336,0.03342
1.34,0.02495
1.344,0.01703
1.348,0.01104
1.352,0.02801
1.356,0.01741
1.36,0.01109
1.364,-0.01523
1.368,0.03022
1.372,0.03197
1.376,0.01126
1.38,-0.00062
1.384,0.00671
1.388,0.0115
1.392,0.0253
1.396,0.0227
1.4,-0.00469
1.404,-0.00452
1.408,0.00311
1.412,0.05031
1.416,-0.00354
1.42,0.01513
1.424,-0.00032
1.428,0.0264
1.432,0.0175
1.436,-0.00068
1.44,0.03113
1.444,0.00435
1.448,0.00501
1.452,-0.01754
1.456,-0.00967
1.46,0.014
1.464,0.01445
1.468,0.00269
1.472,0.02818
1.476,-0.00404
1.48,0.00879
1.484,-0.00049
1.488,0.01548
1.492,0.00229
1.496,-0.01019
1.5,0.02096
1.504,0.01769
1.508,-0.0006
1.512,0.00902
1.516,0.02048
1.52,0.01889
1.524,0.03219
1.528,0.02542
1.532,0.0115
1.536,0.00401
1.54,0.05385
1.544,0.02053
1.548,0.02387
1.552,0.0541
1.556,0.04675
1.56,0.0728
1.564,0.06206
1.568,0.10208
1.572,0.08561
1.576,0.12623
1.58,0.10286
1.584,0.07935
1.588,0.10625
1.592,0.06862
1.596,0.06787
1.6,0.04748
1.604,0.04173
1.608,0.00676
1.612,0.02523
1.616,0.03667
1.62,0.01688
1.624,0.02627
1.628,0.00725
1.632,0.01524
1.636,0.01805
1.64,0.01009
1.644,0.00227
1.648,0.02192
1.652,0.01871
1.656,0.01359
1.66,0.0045
1.664,0.03471
1.668,-0.01291
1.672,0.01482
1.676,0.0136
1.68,-0.0051
1.684,0.00024
1.688,0.01554
1.692,-0.03025
1.696,-0.03927
1.7,-0.06086
1.704,-0.10266
1.708,-0.09246
1.712,-0.06626
1.716,0.03366
1.72,0.19061
1.724,0.39256
1.728,0.61476
1.732,0.78793
1.736,0.96691
1.74,0.99527
1.744,0.95012
1.748,0.76894
1.752,0.56649
1.756,0.33738
1.76,0.12914
1.764,-0.02357
1.768,-0.11712
1.772,-0.16796
1.776,-0.17018
1.78,-0.13084
1.784,-0.08645
1.788,-0.02236
1.792,-0.00145
1.796,-0.05004
1.8,0.01076
1.804,0.02255
1.808,-0.00543
1.812,0.00594
1.816,4e-05
1.82,0.0216
1.824,-0.00163
1.828,0.0068
1.832,-0.02132
1.836,-0.00438
1.84,-0.01439
1.844,-0.00242
1.848,0.01124
1.852,0.00963
1.856,0.00721
1.86,0.00414
1.864,0.01206
1.868,0.0069
1.872,0.00801
1.876,-0.02338
1.88,0.00241
1.884,0.00515
1.888,-0.02103
1.892,-0.01975
1.896,-0.02205
1.9,0.00943
1.904,0.01196
1.908,0.0257
1.912,-0.00221
1.916,-0.01416
1.92,0.02296
1.924,0.01521
1.928,0.00664
1.932,0.01635
1.936,0.01133
1.94,0.05863
1.944,0.0583
1.948,0.04893
1.952,0.06112
1.956,0.09963
1.96,0.09129
1.964,0.11024
1.968,0.12326
1.972,0.11452
1.976,0.11582
1.98,0.1662
1.984,0.14827
1.988,0.14211
1.992,0.19672
1.996,0.19159
2.0,0.19126
2.004,0.18212
2.008,0.21524
2.012,0.21807
2.016,0.20149
2.02,0.21968
2.024,0.21308
2.028,0.17643
2.032,0.19531
2.036,0.16496
2.04,0.19392
2.044,0.2031
2.048,0.1803
2.052,0.16778
2.056,0.15842
2.06,0.17153
2.064,0.1325
2.068,0.12185
2.072,0.11689
2.076,0.07118
2.08,0.06404
2.084,0.08528
2.088,0.03257
2.092,0.05018
2.096,0.03696
2.1,0.03883
2.104,0.02628
2.108,0.0127
2.112,0.02557
2.116,0.03405
2.12,0.02073
2.124,-0.01352
2.128,0.02971
2.132,-0.02067
2.136,0.00071
2.14,-0.01801
2.144,-0.00616
2.148,-0.02211
2.152,0.00409
2.156,-0.04422
2.16,-0.01154
2.164,-0.02048
2.168,-0.03373
2.172,-0.0353
2.176,0.00611
2.18,-0.02438
2.184,-0.0211
2.188,-0.00238
2.192,-0.01306
2.196,-0.01613
2.2,-0.01518
2.204,-0.00408
2.208,0.01814
2.212,-0.00485
2.216,-0.00142
2.22,-0.01468
2.224,-0.01673
2.228,-0.00563
2.232,0.00552
2.236,-0.01454
2.24,-0.005
2.244,-0.02435
2.248,-0.01493
2.252,-0.00926
2.256,0.01425
2.26,-0.02871
2.264,-0.00984
2.268,-0.04141
2.272,-0.01865
2.276,-0.01246
2.28,-0.01605
2.284,0.00216
2.288,-0.02726
2.292,-0.01393
2.296,-0.01321
2.3,-0.00068
2.304,-0.00128
2.308,-0.02354
2.312,-0.01886
2.316,-0.00572
2.32,0.02452
2.324,-0.01315
2.328,0.02369
2.332,0.03668
2.336,0.04677
2.34,0.05753
2.344,0.06467
2.348,0.06319
2.352,0.09718
2.356,0.07602
2.36,0.08945
2.364,0.09096
2.368,0.11708
2.372,0.05628
2.376,0.04198
2.38,0.0497
2.384,0.02167
2.388,0.02045
2.392,0.02063
2.396,0.00226
2.4,0.00145
2.404,-0.01528
2.408,-0.01673
2.412,-0.02437
2.416,-0.03308
2.42,-0.01582
2.424,-0.01409
2.428,-0.01392
2.432,-0.01458
2.436,-0.02942
2.44,-0.02145
2.444,-0.02902
2.448,-0.0124
2.452,-0.01649
2.456,-0.01428
2.46,-0.01049
2.464,-0.00545
2.468,-0.03485
2.472,-0.02695
2.476,-0.07457
2.48,-0.09494
2.484,-0.13716
2.488,-0.09556
2.492,-0.02871
2.496,0.0889
2.5,0.29554
2.504,0.4837
2.508,0.7057
2.512,0.84468
2.516,0.9737
2.52,0.96584
2.524,0.83981
2.528,0.67288
2.532,0.38882
2.536,0.21046
2.54,0.04573
2.544,-0.12183
2.548,-0.1991
2.552,-0.1791
2.556,-0.15858
2.56,-0.10124
2.564,-0.07164
2.568,-0.03283
2.572,-0.029
2.576,-0.01979
2.58,-0.02894
2.584,-0.01799
2.588,-0.03527
2.592,-0.03774
2.596,-0.01352
2.6,-0.01698
2.604,-0.02516
2.608,-0.00821
2.612,-0.03077
2.616,-0.02773
2.62,-0.00093
2.624,-0.03573
2.628,-0.01732
2.632,-0.02213
2.636,-0.0378
2.64,-0.01555
2.644,-0.01372
2.648,-0.00599
2.652,0.01788
2.656,-0.02897
2.66,-0.02686
2.664,0.01687
2.668,-0.02843
2.672,0.00732
2.676,-0.02073
2.68,0.00813
2.684,-0.01365
2.688,-0.01522
2.692,-0.02328
2.696,-0.03319
2.7,0.0088
2.704,0.00781
2.708,0.0017
2.712,0.01358
2.716,0.01884
2.72,0.04526
2.724,0.05041
2.728,0.05498
2.732,0.05468
2.736,0.09029
2.74,0.06081
2.744,0.08061
2.748,0.06955
2.752,0.11974
2.756,0.09794
2.76,0.11703
2.764,0.15137
2.768,0.14889
2.772,0.17792
2.776,0.15466
2.78,0.16893
2.784,0.19663
2.788,0.18664
2.792,0.21284
2.796,0.18855
2.8,0.18753
2.804,0.17682
2.808,0.19399
2.812,0.18987
2.816,0.19714
2.82,0.16593
2.824,0.16859
2.828,0.16426
2.832,0.15752
2.836,0.12827
2.84,0.10053
2.844,0.11472
2.848,0.08965
2.852,0.07275
2.856,0.05791
2.86,0.07013
2.864,0.03922
2.868,0.01166
2.872,0.03786
2.876,0.02032
2.88,0.00522
2.884,0.02647
2.888,0.0065
2.892,-0.01333
2.896,-0.0095
2.9,-0.01343
2.904,0.00858
2.908,-0.00959
2.912,-0.02595
2.916,-0.01652
2.92,-0.03057
2.924,-0.0314
2.928,-0.03404
2.932,-0.05424
2.936,-0.02974
2.94,-0.02508
2.944,-0.01974
2.948,-0.02262
2.952,-0.0158
2.956,-0.00151
2.96,-0.02913
2.964,-0.04102
2.968,-0.05286
2.972,-0.00808
2.976,-0.01699
2.98,-0.03539
2.984,-0.02151
2.988,-0.02936
2.992,-0.03008
2.996,-0.0038
3.0,-0.01889
3.004,-0.03964
3.008,-0.02153
3.012,-0.0219
3.016,-0.03864
3.02,-0.02549
3.024,-0.03011
3.028,-0.01633
3.032,-0.04588
3.036,-0.02166
3.04,-0.06078
3.044,-0.05713
3.048,-0.02593
3.052,-0.02556
3.056,-0.02595
3.06,-0.03021
3.064,-0.02654
3.068,-0.0153
3.072,-0.03492
3.076,-0.008
3.08,0.00355
3.084,0.03396
3.088,0.03366
3.092,0.05416
3.096,0.07041
3.1,0.07445
3.104,0.05517
3.108,0.0839
3.112,0.06208
3.116,0.09133
3.12,0.06109
3.124,0.08465
3.128,0.03558
3.132,0.03333
3.136,0.01649
3.14,0.02436
3.144,-0.01068
3.148,-0.00572
3.152,-0.00745
3.156,-0.00998
3.16,-0.0127
3.164,-0.04395
3.168,-0.02371
3.172,-0.04635
3.176,-0.00064
3.18,-0.04124
3.184,-0.04609
3.188,-0.00863
3.192,-0.04545
3.196,-0.04384
3.2,-0.03822
3.204,-0.01433
3.208,-0.0281
3.212,-0.02114
3.216,-0.01616
3.22,-0.0301
3.224,-0.04604
3.228,-0.05031
3.232,-0.10618
3.236,-0.15567
3.24,-0.13599
3.244,-0.10487
3.248,-0.00404
3.252,0.15516
3.256,0.37796
3.26,0.57911
3.264,0.75166
3.268,0.90601
3.272,0.96215
3.276,0.8819
3.28,0.72995
3.284,0.51118
3.288,0.3023
3.292,0.10429
3.296,-0.07508
3.3,-0.1528
3.304,-0.22112
3.308,-0.18489
3.312,-0.16334
3.316,-0.10936
3.32,-0.06888
3.324,-0.05355
3.328,-0.03891
3.332,-0.04464
3.336,-0.02494
3.34,-0.01994
3.344,-0.05088
3.348,-0.01408
3.352,-0.01936
3.356,-0.04763
3.36,-0.04467
3.364,-0.04125
3.368,-0.04778
3.372,-0.02666
3.376,-0.02105
3.38,-0.01309
3.384,-0.01345
3.388,-0.00793
3.392,-0.025
3.396,-0.03621
3.4,-0.00997
3.404,-0.02603
3.408,-0.0244
3.412,-0.03068
3.416,-0.04108
3.42,-0.0171
3.424,-0.03511
3.428,-0.02804
3.432,-0.01757
3.436,6e-05
3.44,-0.01578
3.444,0.00275
3.448,-0.03529
3.452,-0.00888
3.456,-0.0091
3.46,0.0132
3.464,4e-05
3.468,0.01433
3.472,0.01036
3.476,0.03987
3.48,0.03549
3.484,0.03856
3.488,0.07204
3.492,0.06189
3.496,0.07851
3.5,0.10964
3.504,0.09753
3.508,0.12009
3.512,0.10428
3.516,0.10758
3.52,0.12722
3.524,0.14695
3.528,0.17023
3.532,0.17326
3.536,0.14446
3.54,0.16972
3.544,0.19043
3.548,0.20017
3.552,0.18081
3.556,0.15882
3.56,0.19863
3.564,0.18548
3.568,0.16625
3.572,0.16934
3.576,0.1697
3.58,0.14146
3.584,0.12753
3.588,0.13639
3.592,0.11728
3.596,0.10254
3.6,0.11708
3.604,0.07056
3.608,0.07986
3.612,0.03783
3.616,0.03715
3.62,0.05955
3.624,0.02879
3.628,0.02245
3.632,0.03567
3.636,-0.0263
3.64,0.00263
3.644,0.02647
3.648,-0.01401
3.652,-0.01791
3.656,-0.00295
3.66,-0.00126
3.664,-0.04364
3.668,-0.02319
3.672,-0.02043
3.676,-0.03083
3.68,-0.03164
3.684,0.00459
3.688,-0.02049
3.692,-0.01655
3.696,-0.02422
3.7,-0.03407
3.704,-0.01509
3.708,-0.03425
3.712,-0.02639
3.716,-0.03954
3.72,-0.02093
3.724,-0.01687
3.728,-0.04543
3.732,-0.02454
3.736,-0.06019
3.74,-0.03611
3.744,-0.06529
3.748,-0.01465
3.752,-0.04457
3.756,-0.03317
3.76,0.00668
3.764,-0.01927
3.768,-0.02174
3.772,-0.05348
3.776,-0.02243
3.78,-0.02198
3.784,-0.01827
3.788,-0.03033
3.792,-0.02282
3.796,-0.03032
3.8,-0.01425
3.804,-0.04497
3.808,-0.01227
3.812,-0.01796
3.816,-0.04938
3.82,-0.02094
3.824,-0.01446
3.828,-0.0182
3.832,-0.03888
3.836,-0.02407
3.84,-0.03443
3.844,-0.03665
3.848,-0.01395
3.852,-0.01687
3.856,-0.03286
3.86,-0.04276
3.864,-0.03689
3.868,-0.03039
3.872,-0.02353
3.876,-0.02894
3.88,-0.03829
3.884,-0.05323
3.888,-0.04296
3.892,-0.0486
3.896,-0.0158
3.9,-0.03875
3.904,-0.03975
3.908,-0.04105
3.912,-0.03384
3.916,-0.02152
3.92,-0.04429
3.924,-0.01428
3.928,-0.01862
3.932,-0.0341
3.936,-0.04055
3.94,-0.01242
3.944,-0.05193
3.948,-0.02994
3.952,-0.00934
3.956,-0.0018
3.96,-0.05704
3.964,-0.02289
3.968,0.00124
3.972,-0.02377
3.976,0.00599
3.98,0.00571
3.984,0.00438
3.988,-0.01107
3.992,-0.01819
3.996,-0.01555
4.0,-0.02525
4.004,-0.02942
4.008,-0.03183
4.012,-0.03448
4.016,-0.00881
4.02,-0.02616
4.024,-0.01388
4.028,-0.02261
4.032,-0.03667
4.036,-0.03021
4.04,-0.03861
4.044,-0.03035
4.048,-0.04139
4.052,-0.0349
4.056,-0.0385
4.06,0.00845
4.064,-0.01485
4.068,-0.00755
4.072,0.0097
4.076,0.04084
4.08,0.06184
4.084,0.03365
4.088,0.05017
4.092,0.06222
4.096,0.07503
4.1,0.07045
4.104,0.04316
4.108,0.09097
4.112,0.07229
4.116,0.04302
4.12,0.03582
4.124,0.04333
4.128,0.00801
4.132,-0.00958
4.136,-0.01387
4.14,-0.00197
4.144,0.01236
4.148,-0.01814
4.152,-0.03466
4.156,-0.01509
4.16,-0.03782
4.164,-0.02303
4.168,-0.01119
4.172,-0.0065
4.176,-0.02617
4.18,-0.02886
4.184,0.00537
4.188,-0.03129
4.192,-0.04253
4.196,-0.05397
4.2,-0.03743
4.204,-0.04403
4.208,-0.0124
4.212,-0.0107
4.216,-0.06509
4.22,-0.08398
4.224,-0.11741
4.228,-0.1329
4.232,-0.12625
4.236,-0.04709
4.24,0.11317
4.244,0.29741
4.248,0.52519
4.252,0.75289
4.256,0.87998
4.26,0.96139
4.264,0.95259
4.268,0.82254
4.272,0.61432
4.276,0.39053
4.28,0.12435
4.284,-0.01501
4.288,-0.1198
4.292,-0.19452
4.296,-0.16652
4.3,-0.15441
4.304,-0.12142
4.308,-0.05491
4.312,-0.0764
4.316,-0.0367
4.32,0.00458
4.324,-0.01097
4.328,-0.01474
4.332,-0.01236
4.336,-0.01971
4.34,-0.00819
4.344,-0.01001
4.348,-0.00674
4.352,-0.01332
4.356,-0.00311
4.36,-0.0219
4.364,-0.01617
4.368,-0.0217
4.372,-0.00767
4.376,-0.01933
4.38,-0.02393
4.384,-0.02757
4.388,-0.0218
4.392,-0.03038
4.396,-0.00834
4.4,-0.0225
4.404,-0.01709
4.408,-0.01093
4.412,-0.0022
4.416,-0.0161
4.42,-0.00246
4.424,0.00862
4.428,0.00963
4.432,0.01185
4.436,-0.0216
4.44,-0.0004
4.444,0.01183
4.448,0.00154
4.452,0.02091
4.456,0.01792
4.46,0.04455
4.464,0.06261
4.468,0.03005
4.472,0.04467
4.476,0.06667
4.48,0.0798
4.484,0.08245
4.488,0.08607
4.492,0.0977
4.496,0.09982
4.5,0.13366
4.504,0.15426
4.508,0.13645
4.512,0.15329
4.516,0.17823
4.52,0.14732
4.524,0.19448
4.528,0.17505
4.532,0.21567
4.536,0.22315
4.54,0.20382
4.544,0.22414
4.548,0.17922
4.552,0.18894
4.556,0.20024
4.56,0.18309
4.564,0.18248
4.568,0.19442
4.572,0.16331
4.576,0.15791
4.58,0.12097
4.584,0.12376
4.588,0.11346
4.592,0.08647
4.596,0.08475
4.6,0.08226
4.604,0.06224
4.608,0.06801
4.612,0.06257
4.616,0.05018
4.62,0.05322
4.624,0.01842
4.628,-0.00196
4.632,0.03256
4.636,0.00896
4.64,0.02028
4.644,-0.00136
4.648,0.00545
4.652,-0.00771
4.656,0.01471
4.66,-0.01453
4.664,-0.02242
4.668,-0.00894
4.672,-0.00393
4.676,0.00012
4.68,-0.02501
4.684,-0.00405
4.688,-0.04382
4.692,-0.01452
4.696,0.00897
4.7,-0.01962
4.704,-0.03006
4.708,-0.00171
4.712,-0.03428
4.716,-0.02425
4.72,-0.01172
4.724,-0.02851
4.728,0.00546
4.732,0.00143
4.736,0.00194
4.74,-0.0116
4.744,-0.00599
4.748,-0.02808
4.752,-0.00469
4.756,-0.01682
4.76,0.00159
4.764,-0.02792
4.768,-0.03661
4.772,0.02237
4.776,-0.01824
4.78,-0.00882
4.784,-0.02001
4.788,0.00537
4.792,0.00469
4.796,-0.05411
4.8,0.02211
4.804,-0.00131
4.808,-0.02399
4.812,-0.0112
4.816,-0.0209
4.82,-0.02203
4.824,-0.00849
4.828,0.01142
4.832,0.02112
4.836,-0.00557
4.84,-0.02656
4.844,-0.00464
4.848,-0.00529
4.852,-0.0174
4.856,-0.02124
4.86,-0.0213
4.864,-0.0093
4.868,-0.00727
4.872,-0.0146
4.876,-0.00204
4.88,-0.01262
4.884,-0.00088
4.888,-0.03636
4.892,-0.01756
4.896,-0.00448
4.9,0.02199
4.904,0.00596
4.908,-0.01092
4.912,0.01756
4.916,0.01353
4.92,-0.00105
4.924,-0.01418
4.928,-0.00869
4.932,0.00696
4.936,0.00601
4.94,-0.02418
4.944,0.00449
4.948,0.00914
4.952,-0.01838
4.956,-0.00348
4.96,0.0043
4.964,-0.01543
4.968,-0.0064
4.972,-0.01354
4.976,0.00094
4.98,0.02308
4.984,-0.01397
4.988,-0.01466
4.992,-0.01588
4.996,-0.00187
5.0,0.00901
5.004,-0.01047
5.008,-0.01725
5.012,-0.00887
5.016,-0.01494
5.02,0.00024
5.024,-0.03092
5.028,-0.00613
5.032,0.0269
5.036,0.00598
5.04,-0.00567
5.044,0.0014
5.048,-0.01299
5.052,0.02165
5.056,-0.00442
5.06,-0.02676
5.064,-0.00651
5.068,0.01563
5.072,0.01231
5.076,-0.00671
5.08,0.013
5.084,-0.00858
5.088,0.02046
5.092,-0.00338
5.096,0.0113
5.1,0.01426
5.104,-0.01084
5.108,0.01021
5.112,0.00653
5.116,0.02764
5.12,0.0291
5.124,0.02337
5.128,0.04183
5.132,0.06699
5.136,0.07956
5.14,0.09024
5.144,0.1006
5.148,0.07425
5.152,0.11016
5.156,0.08296
5.16,0.0729
5.164,0.08485
5.168,0.08579
5.172,0.07189
5.176,0.09129
5.18,0.02981
5.184,0.01353
5.188,0.03023
5.192,0.02647
5.196,0.00259
5.2,-0.00064
5.204,-0.0207
5.208,-0.02062
5.212,0.0178
5.216,-0.00111
5.22,-0.00659
5.224,-0.01967
5.228,0.02251
5.232,0.013
5.236,-0.00708
5.24,-0.02889
5.244,0.00769
5.248,0.0023
5.252,0.00495
5.256,0.01358
5.26,0.00158
5.264,-0.00287
5.268,-0.01909
5.272,-0.01754
5.276,-0.05853
5.28,-0.11317
5.284,-0.11919
5.288,-0.00259
5.292,0.12047
5.296,0.30584
5.3,0.51593
5.304,0.73235
5.308,0.89473
5.312,0.99553
5.316,0.99833
5.32,0.85372
5.324,0.67229
5.328,0.4374
5.332,0.22047
5.336,0.02333
5.34,-0.10642
5.344,-0.13021
5.348,-0.16522
5.352,-0.12988
5.356,-0.07916
5.36,-0.04813
5.364,-0.04855
5.368,-0.00787
5.372,-0.00927
5.376,0.0194
5.38,-0.00425
5.384,0.00883
5.388,0.01534
5.392,0.01133
5.396,-0.00525
5.4,0.01504
5.404,0.01452
5.408,-0.00334
5.412,0.00948
5.416,0.00414
5.42,0.01223
5.424,0.00213
5.428,0.00117
5.432,-0.00433
5.436,0.009
5.44,-8e-05
5.444,0.0121
5.448,0.01227
5.452,0.02335
5.456,0.00473
5.46,-0.00739
5.464,0.01442
5.468,0.02834
5.472,0.00829
5.476,0.03396
5.48,0.00659
5.484,0.03164
5.488,0.01794
5.492,0.02349
5.496,0.05359
5.5,0.0442
5.504,0.06119
5.508,0.03212
5.512,0.0614
5.516,0.08514
5.52,0.08473
5.524,0.06188
5.528,0.07325
5.532,0.11522
5.536,0.11229
5.54,0.11841
5.544,0.11612
5.548,0.14128
5.552,0.14835
5.556,0.14998
5.56,0.19703
5.564,0.17454
5.568,0.1984
5.572,0.19645
5.576,0.236
5.58,0.22787
5.584,0.26815
5.588,0.24691
5.592,0.22522
5.596,0.24652
5.6,0.20324
5.604,0.19725
5.608,0.23381
5.612,0.21054
5.616,0.20934
5.62,0.19351
5.624,0.21948
5.628,0.18098
5.632,0.18925
5.636,0.15822
5.64,0.14465
5.644,0.13401
5.648,0.11335
5.652,0.12499
5.656,0.1049
5.66,0.10473
5.664,0.08636
5.668,0.08219
5.672,0.05518
5.676,0.0506
5.68,0.03655
5.684,0.03356
5.688,0.04771
5.692,0.02219
5.696,0.02208
5.7,0.02697
5.704,0.0066
5.708,0.02137
5.712,0.01676
5.716,0.01462
5.72,0.00686
5.724,0.00374
5.728,0.0382
5.732,0.01143
5.736,0.01553
5.74,-0.01918
5.744,0.02909
5.748,0.01913
5.752,0.00999
5.756,0.02753
5.76,0.00241
5.764,0.04311
5.768,-0.00631
5.772,0.03382
5.776,0.00242
5.78,0.00469
5.784,0.03226
5.788,0.03221
5.792,0.00498
5.796,0.03581
5.8,0.0341
5.804,0.01429
5.808,0.03174
5.812,0.01911
5.816,0.00927
5.82,0.03229
5.824,0.02814
5.828,0.02025
5.832,0.02772
5.836,0.01357
5.84,0.02158
5.844,0.03937
5.848,0.03962
5.852,0.01825
5.856,0.0282
5.86,-0.00449
5.864,0.02749
5.868,0.00915
5.872,0.00761
5.876,0.01854
5.88,-0.01585
5.884,0.01535
5.888,0.02226
5.892,0.0311
5.896,0.0232
5.9,0.02564
5.904,0.02163
5.908,0.02067
5.912,0.0008
5.916,0.01221
5.92,0.03876
5.924,0.03669
5.928,0.02121
5.932,0.0248
5.936,0.02713
5.94,0.00749
5.944,0.06132
5.948,0.03968
5.952,0.01945
5.956,0.03208
5.96,0.04937
5.964,0.01014
5.968,0.03958
5.972,0.02246
5.976,0.02807
5.98,0.02535
5.984,0.03355
5.988,0.03152
5.992,0.02478
5.996,0.0245
6.0,0.01998
6.004,0.05651
6.008,0.0091
6.012,0.0015
6.016,0.03113
6.02,0.02506
6.024,0.0035
6.028,0.06097
6.032,0.02598
6.036,0.06064
6.04,0.03081
6.044,0.02551
6.048,0.02182
6.052,0.00417
6.056,0.02223
6.06,0.02238
6.064,0.01361
6.068,0.01459
6.072,0.01043
6.076,0.02188
6.08,0.04759
6.084,0.02258
6.088,0.05251
6.092,0.0133
6.096,-0.0036
6.1,0.03109
6.104,0.05322
6.108,0.02679
6.112,0.02936
6.116,0.04621
6.12,0.03848
6.124,0.07017
6.128,0.07712
6.132,0.09155
6.136,0.09148
6.14,0.1511
6.144,0.12438
6.148,0.13525
6.152,0.10025
6.156,0.13337
6.16,0.1161
6.164,0.11104
6.168,0.12704
6.172,0.08525
6.176,0.05015
6.18,0.06083
6.184,0.02251
6.188,0.01807
6.192,0.05362
6.196,0.03639
6.2,0.01169
6.204,0.03715
6.208,0.02403
6.212,0.01895
6.216,0.03706
6.22,0.0228
6.224,0.04195
6.228,0.03558
6.232,0.03511
6.236,-0.00107
6.24,0.03095
6.244,0.02324
6.248,0.02313
6.252,0.04173
6.256,0.02065
6.26,-0.00443
6.264,0.00719
6.268,-0.03317
6.272,-0.05593
6.276,-0.09996
6.28,-0.07065
6.284,-0.00341
6.288,0.13743
6.292,0.30308
6.296,0.55271
6.3,0.72167
6.304,0.89463
6.308,1.04645
6.312,1.01562
6.316,0.9096
6.32,0.7294
6.324,0.46661
6.328,0.2458
6.332,0.10926
6.336,-0.03322
6.34,-0.13151
6.344,-0.14132
6.348,-0.08404
6.352,-0.07515
6.356,-0.02066
6.36,0.01409
6.364,0.03497
6.368,0.01911
6.372,0.01359
6.376,0.04564
6.38,0.02113
6.384,0.03312
6.388,0.00756
6.392,0.02821
6.396,0.02433
6.4,0.0303
6.404,0.01718
6.408,0.03233
6.412,0.0355
6.416,0.05902
6.42,0.02589
6.424,0.03533
6.428,0.04651
6.432,0.03655
6.436,0.04112
6.44,0.01666
6.444,0.04237
6.448,0.01814
6.452,0.00901
6.456,0.02312
6.46,0.03112
6.464,0.02674
6.468,0.05103
6.472,0.02059
6.476,0.0334
6.48,0.04324
6.484,0.03298
6.488,0.03532
6.492,0.02674
6.496,0.05626
6.5,0.07113
6.504,0.07026
6.508,0.07529
6.512,0.06138
6.516,0.099
6.52,0.08312
6.524,0.1042
6.528,0.11241
6.532,0.15724
6.536,0.15123
6.54,0.14137
6.544,0.17872
6.548,0.17903
6.552,0.19889
6.556,0.19494
6.56,0.22353
6.564,0.22843
6.568,0.22247
6.572,0.26132
6.576,0.20684
6.58,0.22353
6.584,0.22697
6.588,0.21844
6.592,0.24171
6.596,0.23091
6.6,0.25538
6.604,0.25233
6.608,0.23589
6.612,0.19917
6.616,0.2278
6.62,0.20979
6.624,0.19009
6.628,0.18736
6.632,0.17178
6.636,0.15938
6.64,0.16973
6.644,0.14814
6.648,0.13213
6.652,0.1154
6.656,0.09824
6.66,0.05714
6.664,0.04186
6.668,0.07383
6.672,0.09971
6.676,0.04609
6.68,0.04393
6.684,0.05141
6.688,0.06752
6.692,0.04057
6.696,0.05203
6.7,0.05628
6.704,0.04124
6.708,0.05829
6.712,0.01952
6.716,0.02062
6.72,0.02699
6.724,0.00589
6.728,0.05118
6.732,0.01184
6.736,0.0602
6.74,0.05071
6.744,0.02832
6.748,0.06207
6.752,0.01358
6.756,0.04663
6.76,0.03057
6.764,0.03958
6.768,0.04221
6.772,0.01931
6.776,0.0324
6.78,0.0488
6.784,0.02834
6.788,0.04278
6.792,0.05869
6.796,0.02339
6.8,0.03046
6.804,0.05755
6.808,0.05559
6.812,0.10138
6.816,0.067
6.82,0.06753
6.824,0.09125
6.828,0.11976
6.832,0.11017
6.836,0.12522
6.84,0.11826
6.844,0.1114
6.848,0.13207
6.852,0.14037
6.856,0.11808
6.86,0.11377
6.864,0.07064
6.868,0.09123
6.872,0.09502
6.876,0.06983
6.88,0.04096
6.884,0.03673
6.888,0.05439
6.892,0.03097
6.896,0.0423
6.9,0.04945
6.904,0.02337
6.908,0.02815
6.912,0.03379
6.916,0.02405
6.92,0.01087
6.924,0.02619
6.928,0.01725
6.932,0.03712
6.936,-0.00077
6.94,0.02266
6.944,0.0638
6.948,0.03474
6.952,0.02318
6.956,0.00229
6.96,0.01187
6.964,-0.02173
6.968,-0.0626
6.972,-0.06369
6.976,-0.06786
6.98,0.02125
6.984,0.14541
6.988,0.33498
6.992,0.54889
6.996,0.76995
7.0,0.92968
7.004,1.03474
7.008,0.99513
7.012,0.84307
7.016,0.68805
7.02,0.41927
7.024,0.21279
7.028,0.05721
7.032,-0.08374
7.036,-0.12851
7.04,-0.11649
7.044,-0.09472
7.048,-0.06242
7.052,-0.02372
7.056,0.02446
7.06,0.01926
7.064,0.04298
7.068,0.00628
7.072,0.03349
7.076,0.03499
7.08,0.01983
7.084,0.0036
7.088,0.03246
7.092,0.01901
7.096,0.0227
7.1,0.03345
7.104,0.03626
7.108,0.03186
7.112,0.03038
7.116,0.03194
7.12,0.03206
7.124,0.02539
7.128,0.04692
7.132,-0.00314
7.136,0.03184
7.14,0.05339
7.144,0.03355
7.148,0.02822
7.152,0.03338
7.156,0.02965
7.16,0.0385
7.164,0.02339
7.168,0.04969
7.172,0.03472
7.176,0.02073
7.18,0.03487
7.184,0.02209
7.188,0.04071
7.192,0.07222
7.196,0.06499
7.2,0.08377
7.204,0.0588
7.208,0.08106
7.212,0.09777
7.216,0.10519
7.22,0.08182
7.224,0.10297
7.228,0.13127
7.232,0.11997
7.236,0.15997
7.24,0.17552
7.244,0.1795
7.248,0.17827
7.252,0.20487
7.256,0.20193
7.26,0.19697
7.264,0.23767
7.268,0.24818
7.272,0.24124
7.276,0.26043
7.28,0.24239
7.284,0.24889
7.288,0.25722
7.292,0.25337
7.296,0.25001
7.3,0.21472
7.304,0.20813
7.308,0.24812
7.312,0.19625
7.316,0.20833
7.32,0.18935
7.324,0.15752
7.328,0.16778
7.332,0.1283
7.336,0.12806
7.34,0.11015
7.344,0.09563
7.348,0.10268
7.352,0.10822
7.356,0.11357
7.36,0.05188
7.364,0.08181
7.368,0.0805
7.372,0.06283
7.376,0.06217
7.38,0.0376
7.384,0.03185
7.388,0.03907
7.392,0.0443
7.396,0.04945
7.4,0.03734
7.404,0.03507
7.408,0.05365
7.412,0.04919
7.416,0.0009
7.42,0.02923
7.424,0.00633
7.428,0.0287
7.432,0.04035
7.436,0.02573
7.44,0.02928
7.444,0.00175
7.448,0.00596
7.452,0.01033
7.456,0.01618
7.46,0.01857
7.464,0.00909
7.468,0.05019
7.472,0.02009
7.476,0.0069
7.48,0.02307
7.484,0.03325
7.488,0.04362
7.492,0.02276
7.496,0.04129
7.5,0.01581
7.504,0.04281
7.508,0.03303
7.512,0.02018
7.516,0.00938
7.52,0.04881
7.524,0.02001
7.528,0.01635
7.532,0.00624
7.536,0.02905
7.54,0.01065
7.544,0.0137
7.548,0.02863
7.552,0.04346
7.556,0.00279
7.56,0.03127
7.564,0.02646
7.568,0.02668
7.572,0.04871
7.576,0.03974
7.58,0.0516
7.584,0.04418
7.588,0.06077
7.592,0.06395
7.596,0.06954
7.6,0.10954
7.604,0.10821
7.608,0.14381
7.612,0.11117
7.616,0.10636
7.62,0.13085
7.624,0.11979
7.628,0.10993
7.632,0.08927
7.636,0.09618
7.64,0.08269
7.644,0.02815
7.648,0.06414
7.652,0.05356
7.656,0.05463
7.66,0.00644
7.664,0.00761
7.668,0.03137
7.672,0.02948
7.676,0.00106
7.68,0.04951
7.684,0.02383
7.688,0.02137
7.692,-0.01573
7.696,0.00785
7.7,0.01634
7.704,0.03679
7.708,0.0207
7.712,-0.00811
7.716,0.01057
7.72,0.0182
7.724,0.02736
7.728,0.00527
7.732,-0.00357
7.736,-0.0456
7.74,-0.04461
7.744,-0.14174
7.748,-0.08532
7.752,-0.01148
7.756,0.14012
7.76,0.33011
7.764,0.53757
7.768,0.74822
7.772,0.93463
7.776,1.01386
7.78,0.99214
7.784,0.85654
7.788,0.68338
7.792,0.42287
7.796,0.1881
7.8,0.0455
7.804,-0.09802
7.808,-0.13379
7.812,-0.1441
7.816,-0.08507
7.82,-0.0966
7.824,-0.02483
7.828,0.01716
7.832,0.02603
7.836,0.0164
7.84,0.00115
7.844,0.03678
7.848,0.02317
7.852,0.00121
7.856,0.02839
7.86,0.02854
7.864,0.00687
7.868,-0.00519
7.872,0.02893
7.876,0.03748
7.88,0.04959
7.884,0.00431
7.888,0.00918
7.892,0.01951
7.896,0.03636
7.9,0.02641
7.904,0.02299
7.908,0.00224
7.912,0.0487
7.916,0.02112
7.92,-0.00303
7.924,0.02387
7.928,0.01846
7.932,-0.0034
7.936,-0.00453
7.94,-0.00968
7.944,0.01625
7.948,0.03719
7.952,0.02703
7.956,0.05036
7.96,0.05534
7.964,0.01114
7.968,0.05156
7.972,0.04904
7.976,0.06543
7.98,0.05034
7.984,0.0772
7.988,0.07083
7.992,0.07522
7.996,0.09536
8.0,0.12002
8.004,0.11533
8.008,0.14192
8.012,0.13842
8.016,0.17853
8.02,0.14852
8.024,0.18104
8.028,0.22056
8.032,0.17363
8.036,0.20269
8.04,0.21863
8.044,0.2491
8.048,0.2212
8.052,0.23775
8.056,0.208
8.06,0.22027
8.064,0.2456
8.068,0.237
8.072,0.25055
8.076,0.21958
8.08,0.20454
8.084,0.19791
8.088,0.16146
8.092,0.18795
8.096,0.1777
8.1,0.12768
8.104,0.15686
8.108,0.16455
8.112,0.12359
8.116,0.11822
8.12,0.08746
8.124,0.06395
8.128,0.07911
8.132,0.05806
8.136,0.05792
8.14,0.05533
8.144,0.03407
8.148,0.05247
8.152,0.024
8.156,0.00304
8.16,0.03859
8.164,0.02161
8.168,0.03464
8.172,0.02962
8.176,0.0136
8.18,0.01954
8.184,0.00754
8.188,-0.0134
8.192,0.03646
8.196,0.00999
8.2,0.03152
8.204,0.00249
8.208,0.01102
8.212,0.02765
8.216,-0.02708
8.22,0.00462
8.224,0.04015
8.228,0.00948
8.232,0.00122
8.236,-0.00591
8.24,8e-05
8.244,-0.01568
8.248,0.01838
8.252,0.02213
8.256,0.01228
8.26,0.02425
8.264,0.00299
8.268,-0.00145
8.272,0.02713
8.276,0.02744
8.28,0.02529
8.284,0.01903
8.288,0.07228
8.292,0.08576
8.296,0.07409
8.3,0.06544
8.304,0.10071
8.308,0.07744
8.312,0.10243
8.316,0.1104
8.32,0.09429
8.324,0.0945
8.328,0.09539
8.332,0.05067
8.336,0.05508
8.34,0.04726
8.344,0.02556
8.348,0.04391
8.352,0.01571
8.356,0.01416
8.36,0.00787
8.364,0.00354
8.368,0.01222
8.372,-0.00198
8.376,-0.01046
8.38,-0.00936
8.384,0.00892
8.388,0.00702
8.392,-0.02497
8.396,-0.00828
8.4,-0.00284
8.404,0.0037
8.408,-9e-05
8.412,0.00882
8.416,-0.01292
8.42,-0.0134
8.424,0.00399
8.428,-0.05031
8.432,-0.04809
8.436,-0.10835
8.44,-0.10316
8.444,-0.05467
8.448,0.01913
8.452,0.20384
8.456,0.38018
8.46,0.62582
8.464,0.84253
8.468,0.96696
8.472,1.0235
8.476,0.88825
8.48,0.74502
8.484,0.48466
8.488,0.25415
8.492,0.11249
8.496,-0.06241
8.5,-0.1257
8.504,-0.1843
8.508,-0.1463
8.512,-0.09997
8.516,-0.06786
8.52,-0.03154
8.524,0.02181
8.528,-0.02068
8.532,-0.00162
8.536,-0.02498
8.54,-0.01196
8.544,-0.0217
8.548,-0.00718
8.552,-0.02467
8.556,-0.00013
8.56,-0.00983
8.564,0.01157
8.568,-0.0092
8.572,-0.0261
8.576,-0.00249
8.58,0.03031
8.584,-0.02129
8.588,-0.00042
8.592,0.0077
8.596,-0.01004
8.6,-0.00499
8.604,-0.00596
8.608,0.01447
8.612,0.02053
8.616,-0.01514
8.62,0.01314
8.624,-0.02305
8.628,-0.01194
8.632,0.00635
8.636,0.00736
8.64,0.01052
8.644,0.00793
8.648,0.00306
8.652,0.0286
8.656,0.03026
8.66,0.01391
8.664,0.03926
8.668,0.0161
8.672,0.01111
8.676,0.04146
8.68,0.06725
8.684,0.06909
8.688,0.08407
8.692,0.07775
8.696,0.06344
8.7,0.122
8.704,0.08942
8.708,0.11159
8.712,0.13417
8.716,0.17139
8.72,0.17573
8.724,0.19253
8.728,0.17036
8.732,0.18025
8.736,0.18769
8.74,0.19333
8.744,0.22072
8.748,0.19843
8.752,0.18875
8.756,0.22354
8.76,0.22768
8.764,0.21624
8.768,0.21074
8.772,0.18818
8.776,0.16785
8.78,0.18078
8.784,0.15537
8.788,0.14166
8.792,0.13512
8.796,0.14008
8.8,0.12587
8.804,0.10089
8.808,0.09455
8.812,0.1065
8.816,0.06795
8.82,0.06848
8.824,0.04829
8.828,0.02323
8.832,0.01937
8.836,0.03499
8.84,0.02631
8.844,0.02934
8.848,0.02548
8.852,0.01305
8.856,0.02622
8.86,0.00334
8.864,-0.0048
8.868,-0.01082
8.872,-0.00431
8.876,-0.00936
8.88,0.02565
8.884,-0.00047
8.888,-0.00792
8.892,-0.03286
8.896,0.02583
8.9,-0.01736
8.904,0.00222
8.908,-0.00987
8.912,-0.04175
8.916,-0.01355
8.92,-0.04032
8.924,-0.01106
8.928,0.01047
8.932,-0.00882
8.936,-0.0172
8.94,-0.04023
8.944,-0.02207
8.948,-0.0046
8.952,0.00813
8.956,-0.04076
8.96,-0.01702
8.964,-0.0026
8.968,0.00108
8.972,0.01748
8.976,-0.01938
8.98,-0.0002
8.984,-0.01552
8.988,0.01068
8.992,-0.01456
8.996,-0.01342
9.0,-0.0083
9.004,-0.01778
9.008,-0.01088
9.012,-0.01193
9.016,-0.02308
9.02,-0.01606
9.024,-0.0217
9.028,0.00858
9.032,0.01139
9.036,0.01284
9.04,-0.00516
9.044,-0.02352
9.048,-0.0263
9.052,-0.04518
9.056,-0.02418
9.06,-0.01357
9.064,-0.0286
9.068,-0.02717
9.072,-0.0342
9.076,-0.00771
9.08,-0.00217
9.084,0.00346
9.088,-0.00563
9.092,-0.02524
9.096,0.00076
9.1,-0.03632
9.104,0.00967
9.108,-0.01096
9.112,0.00808
9.116,-0.01667
9.12,-0.01095
9.124,-0.04656
9.128,0.00464
9.132,-0.01761
9.136,-0.01414
9.14,-0.00951
9.144,-0.01144
9.148,-0.00212
9.152,-0.00864
9.156,0.0161
9.16,0.0247
9.164,0.0335
9.168,0.07179
9.172,0.06784
9.176,0.08823
9.18,0.09545
9.184,0.06052
9.188,0.0367
9.192,0.0849
9.196,0.04442
9.2,0.04059
9.204,0.02492
9.208,0.02015
9.212,0.02427
9.216,0.01811
9.22,-0.00704
9.224,-0.00226
9.228,-0.01902
9.232,-0.01519
9.236,-0.00421
9.24,-0.01462
9.244,-0.01153
9.248,-0.02968
9.252,-0.02979
9.256,-0.00816
9.26,-0.01268
9.264,-0.03147
9.268,-0.01151
9.272,-0.04325
9.276,-0.01563
9.28,-0.00381
9.284,-0.02738
9.288,-0.03409
9.292,-0.02958
9.296,-0.05517
9.3,-0.05566
9.304,-0.08857
9.308,-0.13639
9.312,-0.1104
9.316,-0.06948
9.32,0.07813
9.324,0.24577
9.328,0.47695
9.332,0.64904
9.336,0.82907
9.34,0.95182
9.344,0.96168
9.348,0.86593
9.352,0.65982
9.356,0.45204
9.36,0.22092
9.364,0.04527
9.368,-0.09728
9.372,-0.18942
9.376,-0.21005
9.38,-0.1698
9.384,-0.12408
9.388,-0.08428
9.392,-0.06701
9.396,-0.0477
9.4,-0.02562
9.404,-0.03359
9.408,-0.03709
9.412,-0.01047
9.416,-0.03541
9.42,-0.01784
9.424,-0.00769
9.428,-0.03752
9.432,-0.01793
9.436,-0.03887
9.44,-0.02635
9.444,-0.02627
9.448,-0.01698
9.452,-0.03866
9.456,-0.03108
9.46,-0.02764
9.464,-0.01954
9.468,-0.0221
9.472,-0.04617
9.476,-0.01847
9.48,-0.03289
9.484,-0.01526
9.488,-0.01592
9.492,-0.02771
9.496,-0.02419
9.5,-0.00773
9.504,-0.03113
9.508,-0.00994
9.512,-0.03038
9.516,-0.02658
9.52,-0.03103
9.524,-0.02014
9.528,-0.01344
9.532,0.00261
9.536,0.02958
9.54,0.0065
9.544,0.03014
9.548,0.02954
9.552,0.04306
9.556,0.06469
9.56,0.02789
9.564,0.07922
9.568,0.05245
9.572,0.11201
9.576,0.11059
9.58,0.08926
9.584,0.13254
9.588,0.15908
9.592,0.1704
9.596,0.15746
9.6,0.17085
9.604,0.16482
9.608,0.15919
9.612,0.16752
9.616,0.19665
9.62,0.2075
9.624,0.16882
9.628,0.18934
9.632,0.18862
9.636,0.16062
9.64,0.15624
9.644,0.16041
9.648,0.15775
9.652,0.11375
9.656,0.13735
9.66,0.11674
9.664,0.11619
9.668,0.13048
9.672,0.07414
9.676,0.10715
9.68,0.07524
9.684,0.05638
9.688,0.06758
9.692,0.01623
9.696,0.03083
9.7,0.0187
9.704,0.01074
9.708,0.02979
9.712,0.01971
9.716,0.00417
9.72,-0.01507
9.724,-0.0089
9.728,-0.00751
9.732,-0.04543
9.736,0.00283
9.74,0.01152
9.744,-0.01756
9.748,-0.01955
9.752,-0.02896
9.756,-0.03099
9.76,-0.03996
9.764,-0.02769
9.768,-0.02793
9.772,-0.01155
9.776,-0.02658
9.78,-0.01903
9.784,-0.0097
9.788,-0.0353
9.792,-0.02371
9.796,-0.05158
9.8,-0.0191
9.804,-0.02104
9.808,-0.04575
9.812,-0.04793
9.816,-0.01005
9.82,-0.02835
9.824,-0.01925
9.828,-0.03543
9.832,-0.00858
9.836,-0.03646
9.84,-0.02302
9.844,-0.01213
9.848,-0.02259
9.852,-0.04023
9.856,-0.02165
9.86,-0.00565
9.864,-0.04563
9.868,-0.05657
9.872,-0.02854
9.876,-0.00753
9.88,-0.03944
9.884,-0.03444
9.888,-0.05296
9.892,-0.04206
9.896,-0.03977
9.9,-0.01752
9.904,-0.05182
9.908,-0.02319
9.912,-0.01284
9.916,-0.04169
9.92,-0.01165
9.924,-0.03352
9.928,-0.05874
9.932,-0.01696
9.936,-0.01451
9.94,-0.00525
9.944,-0.04972
9.948,-0.01162
9.952,-0.03777
9.956,-0.07381
9.96,-0.02581
9.964,-0.02086
9.968,-0.03976
9.972,-0.01791
9.976,-0.01868
9.98,-0.01584
9.984,-0.04397
9.988,-0.01782
9.992,-0.03459
9.996,-0.01802
