t_seg,ecg_mV
0.0,-0.02363
0.004,-0.0362
0.008,-0.02226
0.012,-0.0452
0.016,-0.03248
0.02,-0.03313
0.024,-0.00429
0.028,-0.01851
0.032,0.0119
0.036,-0.04246
0.04,-0.03386
0.044,-0.02011
0.048,-0.02936
0.052,-0.06278
0.056,0.00635
0.06,-0.04952
0.064,-0.02529
0.068,-0.03572
0.072,0.01585
0.076,-0.03237
0.08,-0.00271
0.084,-0.01434
0.088,-0.03305
0.092,-0.01029
0.096,-0.05641
0.1,-0.01878
0.104,-0.01404
0.108,-0.03245
0.112,-0.01704
0.116,-0.00342
0.12,-0.02596
0.124,-0.03195
0.128,-0.03669
0.132,-0.03249
0.136,-0.01306
0.14,-0.02273
0.144,-0.00865
0.148,-0.01637
0.152,-0.00354
0.156,-0.03129
0.16,0.00232
0.164,-0.01526
0.168,-0.01445
0.172,-0.05232
0.176,-0.00319
0.18,-0.01701
0.184,-0.05202
0.188,-0.01976
0.192,-0.02758
0.196,-0.01897
0.2,-0.00851
0.204,-0.03737
0.208,-0.00882
0.212,-0.02526
0.216,-0.02101
0.22,-0.04171
0.224,-0.02222
0.228,-0.00872
0.232,0.02581
0.236,-0.02197
0.24,-0.03619
0.244,-0.01954
0.248,-0.01012
0.252,-0.00536
0.256,-0.02669
0.26,-0.01254
0.264,-0.01519
0.268,-0.02654
0.272,-0.00979
0.276,-0.00049
0.28,0.00579
0.284,-0.02685
0.288,-0.0297
0.292,-0.01983
0.296,-0.03824
0.3,-0.03618
0.304,-0.01698
0.308,-0.02997
0.312,-0.04147
0.316,-0.01187
0.32,-0.0257
0.324,-0.01058
0.328,-0.03441
0.332,0.0171
0.336,0.00594
0.34,0.01241
0.344,0.01599
0.348,0.00831
0.352,0.03825
0.356,0.07994
0.36,0.06758
0.364,0.05992
0.368,0.06898
0.372,0.06711
0.376,0.10102
0.38,0.06805
0.384,0.0825
0.388,0.04839
0.392,0.07665
0.396,0.04486
0.4,0.02299
0.404,-0.01772
0.408,0.00199
0.412,0.00664
0.416,0.01671
0.42,0.00132
0.424,-0.00568
0.428,0.00468
0.432,-0.0099
0.436,-0.01317
0.44,-0.02806
0.444,-0.01608
0.448,-0.00526
0.452,0.00788
0.456,-0.03677
0.46,-0.02214
0.464,-0.00901
0.468,-0.02203
0.472,-0.00854
0.476,-0.02204
0.48,-0.0034
0.484,-0.02296
0.488,-0.05472
0.492,-0.02507
0.496,-0.11566
0.5,-0.11736
0.504,-0.12973
0.508,-0.0412
0.512,0.07582
0.516,0.24681
0.52,0.44705
0.524,0.69167
0.528,0.83558
0.532,0.96326
0.536,0.97364
0.54,0.87847
0.544,0.695
0.548,0.46345
0.552,0.20268
0.556,0.02659
0.56,-0.14016
0.564,-0.19159
0.568,-0.16176
0.572,-0.17247
0.576,-0.12035
0.58,-0.04336
0.584,-0.01677
0.588,-0.01632
0.592,-0.04563
0.596,-0.01947
0.6,-0.02359
0.604,-0.01336
0.608,0.00264
0.612,-0.01837
0.616,-0.03034
0.62,-0.03018
0.624,-0.01549
0.628,-0.00787
0.632,-0.0042
0.636,-0.00646
0.64,-0.01212
0.644,-0.01173
0.648,0.00819
0.652,0.01204
0.656,0.03353
0.66,0.01396
0.664,0.01909
0.668,-0.02063
0.672,-0.00136
0.676,0.01877
0.68,0.00273
0.684,-0.00327
0.688,-0.00673
0.692,-0.00349
0.696,-0.00652
0.7,-0.01742
0.704,-0.01738
0.708,-0.01559
0.712,0.03582
0.716,0.01459
0.72,0.00876
0.724,0.05749
0.728,0.03073
0.732,0.03339
0.736,0.03044
0.74,0.04203
0.744,0.07173
0.748,0.11002
0.752,0.0752
0.756,0.09883
0.76,0.10421
0.764,0.10838
0.768,0.09981
0.772,0.1214
0.776,0.14848
0.78,0.17476
0.784,0.15946
0.788,0.1784
0.792,0.18935
0.796,0.18795
0.8,0.21126
0.804,0.22113
0.808,0.21171
0.812,0.22305
0.816,0.19611
0.82,0.20907
0.824,0.22857
0.828,0.20569
0.832,0.1857
0.836,0.16365
0.84,0.19017
0.844,0.17282
0.848,0.15406
0.852,0.15326
0.856,0.12998
0.86,0.12002
0.864,0.10141
0.868,0.10592
0.872,0.08726
0.876,0.06222
0.88,0.05444
0.884,0.08732
0.888,0.04025
0.892,0.02955
0.896,0.00953
0.9,0.04595
0.904,0.00824
0.908,0.01889
0.912,0.02395
0.916,0.01682
0.92,-0.00286
0.924,0.00715
0.928,-0.01543
0.932,-0.02531
0.936,0.02447
0.94,-0.00063
0.944,0.00431
0.948,0.00968
0.952,-0.02759
0.956,-0.00766
0.96,0.02124
0.964,-0.02795
0.968,0.00168
0.972,-0.00233
0.976,0.00377
0.98,-0.01094
0.984,0.0071
0.988,-0.00592
0.992,0.02244
0.996,-0.02157
1.0,0.00438
1.004,-0.01721
1.008,-0.00277
1.012,-0.0041
1.016,-0.00727
1.02,0.00176
1.024,-0.00417
1.028,0.00089
1.032,-0.00642
1.036,0.01632
1.04,-0.0168
1.044,-0.01444
1.048,0.00908
1.052,-0.00806
1.056,-0.00692
1.06,-0.01441
1.064,0.01266
1.068,0.01494
1.072,0.02234
1.076,-0.02696
1.08,0.01611
1.084,-0.03649
1.088,0.0202
1.092,0.01552
1.096,-0.03899
1.1,0.02041
1.104,0.028
1.108,0.02257
1.112,0.00129
1.116,-0.00947
1.12,0.03167
1.124,-0.01423
1.128,0.00024
1.132,0.00549
1.136,-0.00544
1.14,0.03645
1.144,0.04522
1.148,0.02573
1.152,0.07186
1.156,0.06492
1.16,0.06577
1.164,0.09337
1.168,0.09125
1.172,0.12657
1.176,0.08333
1.18,0.12845
1.184,0.10225
1.188,0.06047
1.192,0.0163
1.196,0.05807
1.2,0.06702
1.204,0.04646
1.208,0.02349
1.212,0.02298
1.216,-0.00565
1.22,-0.00319
1.224,-0.0014
1.228,0.01048
1.232,-0.00239
1.236,0.01578
1.24,0.02792
1.244,0.01881
1.248,0.01477
1.252,0.03615
1.256,-0.00927
1.26,0.03225
1.264,0.0183
1.268,0.00914
1.272,0.00569
1.276,0.03697
1.28,-0.00653
1.284,-0.00307
1.288,-0.00428
1.292,-0.07759
1.296,-0.10151
1.3,-0.10781
1.304,-0.09129
1.308,-0.03449
1.312,0.07931
1.316,0.29718
1.32,0.48448
1.324,0.70135
1.328,0.8748
1.332,0.99798
1.336,0.96485
1.34,0.86433
1.344,0.67037
1.348,0.43049
1.352,0.22193
1.356,0.06697
1.36,-0.08524
1.364,-0.12904
1.368,-0.14966
1.372,-0.10113
1.376,-0.06971
1.38,-0.05231
1.384,-0.01557
1.388,-0.0173
1.392,0.02431
1.396,0.01162
1.4,0.0062
1.404,0.00897
1.408,0.02239
1.412,-0.0072
1.416,-0.00408
1.42,0.02736
1.424,0.02579
1.428,0.00687
1.432,0.02944
1.436,0.02395
1.44,0.01324
1.444,0.01508
1.448,0.0065
1.452,-0.02349
1.456,0.03516
1.46,0.0272
1.464,0.04519
1.468,0.00907
1.472,0.03638
1.476,0.0152
1.48,0.0336
1.484,0.0168
1.488,0.05071
1.492,0.0187
1.496,0.01114
1.5,0.03676
1.504,0.04109
1.508,0.00789
1.512,0.03142
1.516,0.0217
1.52,0.03969
1.524,0.05265
1.528,0.07347
1.532,0.07185
1.536,0.06546
1.54,0.07259
1.544,0.08867
1.548,0.08239
1.552,0.09571
1.556,0.10597
1.56,0.13676
1.564,0.10456
1.568,0.133
1.572,0.15015
1.576,0.18433
1.58,0.18116
1.584,0.18234
1.588,0.2048
1.592,0.21978
1.596,0.22818
1.6,0.23595
1.604,0.21482
1.608,0.24599
1.612,0.25291
1.616,0.22909
1.62,0.20113
1.624,0.23378
1.628,0.21375
1.632,0.21387
1.636,0.22252
1.64,0.21934
1.644,0.16088
1.648,0.18368
1.652,0.19344
1.656,0.16834
1.66,0.14642
1.664,0.12471
1.668,0.15575
1.672,0.11448
1.676,0.10795
1.68,0.10014
1.684,0.07884
1.688,0.06529
1.692,0.06744
1.696,0.0729
1.7,0.04909
1.704,0.02798
1.708,0.05507
1.712,0.03071
1.716,0.03408
1.72,0.00226
1.724,0.01739
1.728,0.00942
1.732,0.04761
1.736,0.04018
1.74,-0.0201
1.744,0.04424
1.748,0.00057
1.752,0.01002
1.756,0.02462
1.76,0.01799
1.764,0.01119
1.768,0.01742
1.772,0.03199
1.776,0.01872
1.78,0.01087
1.784,0.01808
1.788,0.00921
1.792,0.02295
1.796,0.0205
1.8,0.01171
1.804,0.00186
1.808,0.03257
1.812,0.01794
1.816,0.05609
1.82,0.00926
1.824,0.01348
1.828,0.01904
1.832,-0.00148
1.836,0.0395
1.84,0.03905
1.844,0.01109
1.848,0.00227
1.852,0.02306
1.856,-0.0015
1.86,0.02672
1.864,0.01621
1.868,-0.00968
1.872,0.01617
1.876,0.02026
1.88,0.02504
1.884,0.04465
1.888,0.03518
1.892,0.03902
1.896,0.01599
1.9,0.02207
1.904,0.02454
1.908,0.01762
1.912,0.0193
1.916,0.04406
1.92,0.02599
1.924,0.02912
1.928,0.04813
1.932,0.0258
1.936,0.04514
1.94,0.08608
1.944,0.07261
1.948,0.10294
1.952,0.08592
1.956,0.10701
1.96,0.09111
1.964,0.14672
1.968,0.12926
1.972,0.14321
1.976,0.09986
1.98,0.1221
1.984,0.09419
1.988,0.08154
1.992,0.06567
1.996,0.08186
2.0,0.06975
2.004,0.05378
2.008,0.0353
2.012,0.02057
2.016,0.02153
2.02,0.03244
2.024,0.01383
2.028,0.00871
2.032,-0.00633
2.036,0.00034
2.04,0.05134
2.044,-0.00052
2.048,0.0329
2.052,0.04662
2.056,0.01116
2.06,0.05029
2.064,0.01566
2.068,0.01871
2.072,0.01746
2.076,0.0278
2.08,-0.00603
2.084,-0.02327
2.088,-0.00964
2.092,-0.06554
2.096,-0.0921
2.1,-0.06289
2.104,0.02384
2.108,0.14766
2.112,0.36994
2.116,0.61031
2.12,0.75516
2.124,0.94155
2.128,1.02149
2.132,0.99868
2.136,0.858
2.14,0.65064
2.144,0.413
2.148,0.20117
2.152,0.02047
2.156,-0.05655
2.16,-0.15446
2.164,-0.10504
2.168,-0.1149
2.172,-0.03402
2.176,-0.00031
2.18,0.0081
2.184,0.00442
2.188,0.0229
2.192,0.03336
2.196,0.01517
2.2,0.00823
2.204,0.03683
2.208,0.03169
2.212,0.00779
2.216,0.03111
2.22,0.01843
2.224,0.02113
2.228,0.01757
2.232,0.0324
2.236,0.01238
2.24,0.0574
2.244,0.04297
2.248,0.03736
2.252,0.01856
2.256,0.03834
2.26,0.04072
2.264,0.0166
2.268,0.03789
2.272,0.02646
2.276,0.04016
2.28,0.03237
2.284,0.02684
2.288,0.03275
2.292,0.03249
2.296,0.04758
2.3,0.05062
2.304,0.03457
2.308,0.05654
2.312,0.05219
2.316,0.03822
2.32,0.07357
2.324,0.04089
2.328,0.06092
2.332,0.09076
2.336,0.11668
2.34,0.10038
2.344,0.10946
2.348,0.10422
2.352,0.11701
2.356,0.13061
2.36,0.15829
2.364,0.17468
2.368,0.15567
2.372,0.17814
2.376,0.21008
2.38,0.1748
2.384,0.22986
2.388,0.20867
2.392,0.21903
2.396,0.23081
2.4,0.2329
2.404,0.27248
2.408,0.2422
2.412,0.2497
2.416,0.23898
2.42,0.26276
2.424,0.24919
2.428,0.23848
2.432,0.23657
2.436,0.2067
2.44,0.21179
2.444,0.17685
2.448,0.17746
2.452,0.15687
2.456,0.1784
2.46,0.14255
2.464,0.14239
2.468,0.13472
2.472,0.11812
2.476,0.1074
2.48,0.08041
2.484,0.09497
2.488,0.08107
2.492,0.05768
2.496,0.07439
2.5,0.04041
2.504,0.04072
2.508,0.04185
2.512,0.06238
2.516,0.06944
2.52,0.0508
2.524,0.02555
2.528,0.01638
2.532,0.05846
2.536,0.05686
2.54,0.0361
2.544,0.0214
2.548,0.00074
2.552,0.00324
2.556,0.02266
2.56,0.01873
2.564,0.02622
2.568,0.02096
2.572,0.02738
2.576,0.01503
2.58,0.03062
2.584,0.01906
2.588,0.02262
2.592,0.04008
2.596,0.0455
2.6,0.02897
2.604,0.02305
2.608,0.03969
2.612,0.0333
2.616,0.01601
2.62,0.02997
2.624,0.02654
2.628,0.03156
2.632,0.02696
2.636,0.03584
2.64,0.02441
2.644,0.04501
2.648,-0.00437
2.652,0.03764
2.656,0.03221
2.66,0.03007
2.664,0.02128
2.668,0.05036
2.672,0.04365
2.676,0.01335
2.68,0.0161
2.684,0.02312
2.688,0.02519
2.692,0.05143
2.696,0.00878
2.7,0.0342
2.704,0.01942
2.708,0.03076
2.712,0.01194
2.716,0.04647
2.72,0.01057
2.724,0.05038
2.728,0.04462
2.732,0.02365
2.736,0.05157
2.74,0.0518
2.744,0.05192
2.748,0.07132
2.752,0.06636
2.756,0.08924
2.76,0.1144
2.764,0.12707
2.768,0.13491
2.772,0.1376
2.776,0.12386
2.78,0.11027
2.784,0.1491
2.788,0.11282
2.792,0.14212
2.796,0.11503
2.8,0.0868
2.804,0.06781
2.808,0.07216
2.812,0.04084
2.816,0.04765
2.82,0.04266
2.824,0.03129
2.828,0.02782
2.832,0.03439
2.836,-0.00936
2.84,0.04995
2.844,0.03348
2.848,0.02833
2.852,0.03013
2.856,0.03659
2.86,0.02179
2.864,0.02201
2.868,0.02329
2.872,0.01725
2.876,0.01777
2.88,0.01379
2.884,0.03487
2.888,0.03672
2.892,0.0147
2.896,-0.02642
2.9,-0.05973
2.904,-0.10034
2.908,-0.07432
2.912,-0.01249
2.916,0.16829
2.92,0.33571
2.924,0.55402
2.928,0.7441
2.932,0.93258
2.936,1.02267
2.94,0.99168
2.944,0.86751
2.948,0.67136
2.952,0.4257
2.956,0.21562
2.96,0.05022
2.964,-0.06497
2.968,-0.12667
2.972,-0.14118
2.976,-0.09942
2.98,-0.04789
2.984,-0.00412
2.988,0.01395
2.992,0.0446
2.996,0.02007
3.0,0.03807
3.004,0.02982
3.008,0.03066
3.012,0.03036
3.016,0.01873
3.02,0.0305
3.024,0.04122
3.028,0.02283
3.032,0.01882
3.036,0.04391
3.04,0.0256
3.044,0.02329
3.048,0.02394
3.052,0.01384
3.056,0.02257
3.06,0.05402
3.064,0.02976
3.068,0.02622
3.072,0.03568
3.076,0.03632
3.08,0.03007
3.084,0.04044
3.088,0.00705
3.092,0.03536
3.096,0.0435
3.1,0.05742
3.104,0.04137
3.108,0.03406
3.112,0.03714
3.116,0.05135
3.12,0.05586
3.124,0.02818
3.128,0.06086
3.132,0.05966
3.136,0.0674
3.14,0.07288
3.144,0.09114
3.148,0.09449
3.152,0.10001
3.156,0.11987
3.16,0.13243
3.164,0.11968
3.168,0.15397
3.172,0.16026
3.176,0.18777
3.18,0.19738
3.184,0.20752
3.188,0.18176
3.192,0.22823
3.196,0.21546
3.2,0.22842
3.204,0.21395
3.208,0.24648
3.212,0.24543
3.216,0.2631
3.22,0.22285
3.224,0.23361
3.228,0.23077
3.232,0.22702
3.236,0.22241
3.24,0.23993
3.244,0.17969
3.248,0.20712
3.252,0.17357
3.256,0.19572
3.26,0.18596
3.264,0.12566
3.268,0.13154
3.272,0.1183
3.276,0.15269
3.28,0.11226
3.284,0.0772
3.288,0.08508
3.292,0.08385
3.296,0.0638
3.3,0.06158
3.304,0.05685
3.308,0.02458
3.312,0.0455
3.316,0.02054
3.32,0.04222
3.324,0.06101
3.328,0.02553
3.332,0.03329
3.336,0.04431
3.34,0.05392
3.344,0.01824
3.348,0.02535
3.352,0.03034
3.356,0.03593
3.36,-0.00598
3.364,0.01111
3.368,0.03388
3.372,0.01103
3.376,0.02468
3.38,0.01516
3.384,0.00754
3.388,0.02457
3.392,0.01227
3.396,0.00854
3.4,0.02135
3.404,0.03943
3.408,0.01128
3.412,0.00937
3.416,0.02194
3.42,0.04664
3.424,-0.00634
3.428,0.04379
3.432,0.01685
3.436,0.05153
3.44,0.02895
3.444,0.0305
3.448,0.02327
3.452,0.0123
3.456,0.02776
3.46,0.03724
3.464,0.02818
3.468,0.04151
3.472,0.02135
3.476,0.0101
3.48,-0.00876
3.484,0.01602
3.488,0.06759
3.492,0.03468
3.496,0.02033
3.5,-0.00417
3.504,0.00176
3.508,0.01962
3.512,0.0171
3.516,-0.00136
3.52,0.03113
3.524,0.0291
3.528,0.00485
3.532,0.0251
3.536,0.04718
3.54,0.02779
3.544,0.00225
3.548,0.02814
3.552,0.03458
3.556,0.01653
3.56,0.02244
3.564,0.01735
3.568,0.06542
3.572,0.05382
3.576,0.06004
3.58,0.06238
3.584,0.08001
3.588,0.07724
3.592,0.1237
3.596,0.1184
3.6,0.14519
3.604,0.10033
3.608,0.11433
3.612,0.11547
3.616,0.11345
3.62,0.10352
3.624,0.0952
3.628,0.08142
3.632,0.05272
3.636,0.03531
3.64,0.05864
3.644,0.03647
3.648,0.03012
3.652,0.00203
3.656,0.03235
3.66,0.00541
3.664,0.00224
3.668,0.02637
3.672,0.01459
3.676,0.0266
3.68,0.03593
3.684,0.03273
3.688,0.00483
3.692,0.00532
3.696,0.02105
3.7,0.01937
3.704,0.0424
3.708,0.01195
3.712,0.01642
3.716,-0.00249
3.72,-0.01724
3.724,-0.04489
3.728,-0.06308
3.732,-0.0896
3.736,-0.04188
3.74,0.01017
3.744,0.18208
3.748,0.36214
3.752,0.58135
3.756,0.78367
3.76,0.94521
3.764,1.01189
3.768,0.95339
3.772,0.82322
3.776,0.60549
3.78,0.38367
3.784,0.16642
3.788,0.01874
3.792,-0.09827
3.796,-0.159
3.8,-0.13106
3.804,-0.1109
3.808,-0.0733
3.812,-0.05157
3.816,0.00682
3.82,-0.00877
3.824,-0.00557
3.828,0.0089
3.832,0.01456
3.836,0.00352
3.84,-0.01588
3.844,0.01032
3.848,-0.01291
3.852,0.00792
3.856,0.01549
3.86,0.0438
3.864,0.00507
3.868,-0.01558
3.872,-0.00027
3.876,0.05581
3.88,0.00395
3.884,0.01563
3.888,0.02602
3.892,0.02022
3.896,0.00405
3.9,-0.00738
3.904,0.03914
3.908,0.04592
3.912,0.053
3.916,0.01904
3.92,0.00528
3.924,0.0194
3.928,0.01459
3.932,0.01623
3.936,0.03246
3.94,0.01169
3.944,0.03452
3.948,0.04585
3.952,0.02469
3.956,0.06749
3.96,0.06955
3.964,0.05935
3.968,0.0741
3.972,0.0947
3.976,0.08253
3.98,0.08977
3.984,0.09486
3.988,0.12042
3.992,0.12507
3.996,0.1517
4.0,0.1449
4.004,0.1599
4.008,0.17203
4.012,0.17374
4.016,0.19942
4.02,0.18757
4.024,0.21767
4.028,0.19711
4.032,0.20129
4.036,0.24455
4.04,0.24482
4.044,0.2037
4.048,0.21135
4.052,0.25028
4.056,0.22789
4.06,0.22752
4.064,0.18938
4.068,0.2296
4.072,0.20299
4.076,0.18528
4.08,0.16721
4.084,0.13863
4.088,0.11445
4.092,0.12438
4.096,0.12314
4.1,0.06996
4.104,0.10614
4.108,0.06241
4.112,0.08159
4.116,0.05642
4.12,0.06945
4.124,0.03605
4.128,0.05511
4.132,0.04434
4.136,0.0329
4.14,0.01968
4.144,0.00437
4.148,0.01453
4.152,0.02323
4.156,0.02112
4.16,0.02194
4.164,0.01564
4.168,0.01415
4.172,0.00495
4.176,0.04174
4.18,0.03916
4.184,0.00546
4.188,0.00068
4.192,0.01573
4.196,0.00671
4.2,-0.01186
4.204,0.00514
4.208,-0.0
4.212,-0.04223
4.216,0.03055
4.22,-0.01738
4.224,0.02482
4.228,0.00699
4.232,-0.03157
4.236,-0.01064
4.24,0.03431
4.244,0.01245
4.248,0.00321
4.252,-0.00615
4.256,-0.00628
4.26,0.01085
4.264,0.00353
4.268,-0.01993
4.272,0.01533
4.276,0.0131
4.28,0.00031
4.284,-0.01108
4.288,-0.01198
4.292,-0.00773
4.296,0.00659
4.3,0.02317
4.304,0.03522
4.308,-0.00014
4.312,0.00629
4.316,0.01904
4.32,-0.00167
4.324,0.01094
4.328,-0.01531
4.332,0.00871
4.336,0.01535
4.34,0.00637
4.344,-0.0124
4.348,-0.00546
4.352,-0.0115
4.356,0.01485
4.36,-0.00545
4.364,0.0297
4.368,-0.01706
4.372,0.01158
4.376,0.001
4.38,0.00554
4.384,0.01395
4.388,-0.02631
4.392,-0.01707
4.396,0.00127
4.4,0.02089
4.404,0.02368
4.408,0.00301
4.412,0.0039
4.416,0.0191
4.42,0.00466
4.424,-0.00974
4.428,0.00421
4.432,-0.00599
4.436,0.00145
4.44,0.03179
4.444,0.02474
4.448,0.01027
4.452,-0.00314
4.456,-0.00313
4.46,0.01893
4.464,0.01649
4.468,0.05063
4.472,0.02838
4.476,0.02324
4.48,0.03544
4.484,0.08391
4.488,0.09475
4.492,0.09788
4.496,0.10138
4.5,0.09023
4.504,0.07715
4.508,0.06882
4.512,0.0563
4.516,0.06588
4.52,0.03413
4.524,0.01664
4.528,0.0208
4.532,0.02665
4.536,0.01986
4.54,0.0042
4.544,0.00761
4.548,0.01399
4.552,-0.00655
4.556,0.03317
4.56,0.00087
4.564,-0.00041
4.568,0.02905
4.572,0.00389
4.576,-0.00555
4.58,-0.01449
4.584,-0.0026
4.588,-0.02025
4.592,0.01201
4.596,-0.00809
4.6,-0.00411
4.604,-0.00858
4.608,-0.06618
4.612,-0.05969
4.616,-0.10948
4.62,-0.12855
4.624,-0.11673
4.628,-0.03222
4.632,0.14283
4.636,0.31688
4.64,0.49516
4.644,0.72923
4.648,0.92495
4.652,0.98733
4.656,0.95622
4.66,0.8142
4.664,0.60579
4.668,0.40773
4.672,0.15985
4.676,-0.01155
4.68,-0.11999
4.684,-0.20067
4.688,-0.17153
4.692,-0.16838
4.696,-0.08767
4.7,-0.08381
4.704,-0.02261
4.708,-0.02841
4.712,-0.02768
4.716,-0.01174
4.72,-0.01406
4.724,-0.00712
4.728,-0.01824
4.732,0.00764
4.736,-0.05036
4.74,-0.01074
4.744,-0.00266
4.748,-0.01279
4.752,0.00508
4.756,-0.00538
4.76,-0.00777
4.764,0.03071
4.768,-0.00359
4.772,-0.00647
4.776,-0.00599
4.78,-0.02313
4.784,0.00954
4.788,-0.00834
4.792,0.01409
4.796,0.00245
4.8,-0.00162
4.804,-0.01179
4.808,-0.02684
4.812,-0.00875
4.816,-0.03162
4.82,-0.02971
4.824,0.02439
4.828,0.00845
4.832,0.01826
4.836,-0.02879
4.84,0.02411
4.844,0.02629
4.848,0.04003
4.852,0.05733
4.856,0.04814
4.86,0.0538
4.864,0.0469
4.868,0.08044
4.872,0.07598
4.876,0.10346
4.88,0.10016
4.884,0.0872
4.888,0.13369
4.892,0.12624
4.896,0.15458
4.9,0.18023
4.904,0.16638
4.908,0.15702
4.912,0.16949
4.916,0.19439
4.92,0.18201
4.924,0.20754
4.928,0.22172
4.932,0.20956
4.936,0.17409
4.94,0.19944
4.944,0.15693
4.948,0.21755
4.952,0.16761
4.956,0.17742
4.96,0.16687
4.964,0.15079
4.968,0.17782
4.972,0.12624
4.976,0.09627
4.98,0.1162
4.984,0.08277
4.988,0.07211
4.992,0.09315
4.996,0.07383
5.0,0.05439
5.004,0.02795
5.008,0.04745
5.012,0.03954
5.016,0.00019
5.02,0.00325
5.024,0.02537
5.028,0.01489
5.032,0.00888
5.036,0.00191
5.04,0.00117
5.044,0.00983
5.048,-0.02085
5.052,0.00635
5.056,-0.02611
5.06,-0.01009
5.064,-0.01896
5.068,-0.0022
5.072,-0.01501
5.076,-0.01526
5.08,-0.02675
5.084,-0.03654
5.088,-0.01019
5.092,-0.04888
5.096,-0.02074
5.1,-0.025
5.104,-0.02368
5.108,-0.0002
5.112,-0.02188
5.116,-0.03112
5.12,-0.01705
5.124,-0.0431
5.128,-0.02856
5.132,-0.01446
5.136,-0.01176
5.14,-0.03501
5.144,-0.01231
5.148,-0.01725
5.152,-0.01539
5.156,-0.04385
5.16,-0.02577
5.164,-0.02962
5.168,-0.01171
5.172,-0.02566
5.176,-0.04114
5.18,0.00047
5.184,-0.02631
5.188,-0.00584
5.192,0.01327
5.196,-6e-05
5.2,-0.0148
5.204,-0.01516
5.208,-0.03157
5.212,-0.02044
5.216,-0.00577
5.22,0.0205
5.224,-0.01722
5.228,0.02296
5.232,0.03215
5.236,-0.01538
5.24,0.06246
5.244,0.07242
5.248,0.0448
5.252,0.06773
5.256,0.06413
5.26,0.05816
5.264,0.07037
5.268,0.06933
5.272,0.05255
5.276,0.02257
5.28,0.01728
5.284,0.04085
5.288,-0.001
5.292,-0.00255
5.296,0.00866
5.3,-0.01058
5.304,-0.01727
5.308,-0.04585
5.312,-0.03161
5.316,-0.00958
5.32,-0.02337
5.324,-0.02642
5.328,-0.01543
5.332,-0.0438
5.336,0.00173
5.34,-0.00274
5.344,-0.02812
5.348,-0.02437
5.352,-0.00918
5.356,-0.02619
5.36,-0.04243
5.364,-0.03846
5.368,-0.02904
5.372,-0.05967
5.376,-0.04788
5.38,-0.10712
5.384,-0.13328
5.388,-0.08315
5.392,-0.07116
5.396,0.06053
5.4,0.27631
5.404,0.49557
5.408,0.65935
5.412,0.89525
5.416,0.96962
5.42,0.95092
5.424,0.81421
5.428,0.61498
5.432,0.38776
5.436,0.16738
5.44,0.00844
5.444,-0.14513
5.448,-0.19262
5.452,-0.20259
5.456,-0.18917
5.46,-0.12054
5.464,-0.07632
5.468,-0.06432
5.472,-0.04577
5.476,-0.04648
5.48,-0.02124
5.484,-0.01616
5.488,-0.03724
5.492,-0.04977
5.496,-0.0289
5.5,-0.00987
5.504,-0.02447
5.508,-0.03124
5.512,-0.02837
5.516,-0.03093
5.52,-0.03154
5.524,-0.01959
5.528,-0.0291
5.532,-0.0251
5.536,-0.01705
5.54,-0.04628
5.544,-0.03473
5.548,-0.05615
5.552,-0.01833
5.556,-0.02419
5.56,-0.04139
5.564,-0.02335
5.568,0.00347
5.572,-0.01363
5.576,0.00121
5.58,-0.00363
5.584,-0.00498
5.588,-0.00618
5.592,-0.03928
5.596,0.00747
5.6,-0.01137
5.604,0.01616
5.608,0.00245
5.612,0.01937
5.616,0.03711
5.62,0.01189
5.624,0.03396
5.628,0.0283
5.632,0.05752
5.636,0.06851
5.64,0.07236
5.644,0.12738
5.648,0.10202
5.652,0.09049
5.656,0.12547
5.66,0.11229
5.664,0.14377
5.668,0.14955
5.672,0.14286
5.676,0.15655
5.68,0.15807
5.684,0.193
5.688,0.1658
5.692,0.20021
5.696,0.18664
5.7,0.19636
5.704,0.19212
5.708,0.18726
5.712,0.18113
5.716,0.16129
5.72,0.17696
5.724,0.13854
5.728,0.12528
5.732,0.14096
5.736,0.11749
5.74,0.11963
5.744,0.07808
5.748,0.09338
5.752,0.05108
5.756,0.05668
5.76,0.06793
5.764,0.04018
5.768,0.02653
5.772,0.03687
5.776,0.03365
5.78,0.02719
5.784,0.00812
5.788,-0.01257
5.792,0.00587
5.796,-0.02256
5.8,-0.01541
5.804,-0.00635
5.808,-0.02902
5.812,-0.00701
5.816,-0.01378
5.82,-0.04977
5.824,-0.02477
5.828,-0.01473
5.832,-0.02473
5.836,-0.00153
5.84,-0.0401
5.844,-0.02487
5.848,-0.02287
5.852,-0.03625
5.856,-0.03483
5.86,-0.0051
5.864,-0.01447
5.868,-0.01984
5.872,-0.02859
5.876,-0.02005
5.88,-0.01964
5.884,-0.02
5.888,-0.00975
5.892,-0.05046
5.896,-0.03747
5.9,-0.02792
5.904,-0.06321
5.908,-0.02219
5.912,-0.0752
5.916,-0.03864
5.92,-0.02841
5.924,-0.02097
5.928,-0.02802
5.932,-0.02037
5.936,-0.03272
5.94,-0.05191
5.944,-0.03758
5.948,-0.01619
5.952,-0.03011
5.956,-0.04693
5.96,-0.02562
5.964,-0.03675
5.968,-0.023
5.972,-0.01951
5.976,-0.02456
5.98,-0.02519
5.984,0.00836
5.988,-0.04477
5.992,-0.00576
5.996,-0.00636
6.0,-0.01809
6.004,-0.02566
6.008,0.00526
6.012,0.01113
6.016,0.01776
6.02,0.01951
6.024,0.03049
6.028,0.05304
6.032,0.0809
6.036,0.08271
6.04,0.06818
6.044,0.08839
6.048,0.07564
6.052,0.02643
6.056,0.04396
6.06,0.0299
6.064,0.00125
6.068,-0.00098
6.072,0.00743
6.076,0.00502
6.08,-0.02209
6.084,0.01647
6.088,-0.00808
6.092,-0.0505
6.096,-0.03179
6.1,-0.02176
6.104,-0.02491
6.108,-0.03698
6.112,-0.0353
6.116,-0.01191
6.12,-0.034
6.124,-0.01387
6.128,-0.02939
6.132,-0.02364
6.136,-0.04166
6.14,-0.0534
6.144,-0.04497
6.148,-0.03181
6.152,-0.05698
6.156,-0.07569
6.16,-0.14377
6.164,-0.15046
6.168,-0.15758
6.172,-0.05683
6.176,0.05014
6.18,0.22516
6.184,0.43323
6.188,0.65668
6.192,0.85995
6.196,0.96918
6.2,0.94682
6.204,0.84749
6.208,0.6738
6.212,0.42171
6.216,0.21981
6.22,0.04105
6.224,-0.10493
6.228,-0.171
6.232,-0.2005
6.236,-0.16788
6.24,-0.13902
6.244,-0.08674
6.248,-0.03784
6.252,-0.0325
6.256,-0.06166
6.26,-0.03206
6.264,-0.00253
6.268,-0.02726
6.272,-0.02323
6.276,-0.0321
6.28,-0.05069
6.284,-0.0245
6.288,-0.0209
6.292,-0.02592
6.296,-0.01606
6.3,-0.04898
6.304,0.0011
6.308,-0.02262
6.312,-0.02136
6.316,-0.0566
6.32,-0.05388
6.324,-0.03002
6.328,-0.03482
6.332,-0.01513
6.336,-0.04568
6.34,-0.01104
6.344,-0.044
6.348,-0.04484
6.352,-0.02299
6.356,-0.01022
6.36,-0.01648
6.364,-0.01253
6.368,-0.05061
6.372,-0.02799
6.376,-0.01417
6.38,0.01477
6.384,-0.00172
6.388,-0.00488
6.392,-0.00095
6.396,0.01691
6.4,0.02472
6.404,0.02864
6.408,0.02464
6.412,0.03106
6.416,0.04889
6.42,0.06919
6.424,0.08523
6.428,0.08755
6.432,0.10116
6.436,0.11748
6.44,0.12843
6.444,0.12014
6.448,0.12989
6.452,0.1655
6.456,0.15568
6.46,0.19577
6.464,0.18292
6.468,0.23685
6.472,0.1869
6.476,0.1873
6.48,0.19049
6.484,0.21982
6.488,0.1767
6.492,0.20295
6.496,0.16383
6.5,0.19233
6.504,0.15167
6.508,0.13627
6.512,0.12694
6.516,0.12773
6.52,0.09225
6.524,0.12347
6.528,0.0944
6.532,0.07202
6.536,0.09092
6.54,0.06277
6.544,0.05065
6.548,0.04467
6.552,0.02011
6.556,0.0239
6.56,0.01638
6.564,0.01072
6.568,0.01756
6.572,0.00727
6.576,-0.00346
6.58,-0.00859
6.584,-0.031
6.588,-0.02529
6.592,-0.03911
6.596,-0.02681
6.6,-0.0077
6.604,-0.03514
6.608,-0.02996
6.612,-0.02658
6.616,-0.02248
6.62,-0.01144
6.624,-0.02356
6.628,-0.01323
6.632,-0.04802
6.636,-0.04279
6.64,-0.05516
6.644,-0.03033
6.648,-0.03197
6.652,-0.01416
6.656,-0.01168
6.66,0.00681
6.664,-0.00063
6.668,-0.03332
6.672,-0.02228
6.676,0.00382
6.68,-0.00323
6.684,-0.00834
6.688,-0.02817
6.692,-0.00203
6.696,-0.01406
6.7,-0.03247
6.704,-0.02961
6.708,-0.01642
6.712,-0.00777
6.716,-0.00063
6.72,-0.02069
6.724,-0.01803
6.728,-0.02354
6.732,-0.02653
6.736,-0.03851
6.74,-0.03134
6.744,-0.03827
6.748,-0.03139
6.752,-0.01222
6.756,-0.04398
6.76,-0.03474
6.764,-0.03451
6.768,-0.00864
6.772,-0.02744
6.776,-0.02414
6.78,-0.04373
6.784,-0.00474
6.788,-0.00527
6.792,-0.02859
6.796,-0.03115
6.8,-0.00532
6.804,-0.00983
6.808,0.01258
6.812,0.03706
6.816,0.01321
6.82,0.07859
6.824,0.0578
6.828,0.08101
6.832,0.09683
6.836,0.08042
6.84,0.06363
6.844,0.06417
6.848,0.0701
6.852,0.05318
6.856,0.00483
6.86,0.01654
6.864,-0.02539
6.868,-0.01352
6.872,0.0144
6.876,0.00842
6.88,-0.0622
6.884,-0.05539
6.888,-0.01364
6.892,-0.00649
6.896,-0.02419
6.9,-0.03256
6.904,-0.02634
6.908,-0.0109
6.912,-0.05157
6.916,-0.01962
6.92,-0.02022
6.924,-0.04265
6.928,0.00274
6.932,-0.0462
6.936,-0.00956
6.94,-0.02245
6.944,-0.01651
6.948,-0.03249
6.952,-0.03384
6.956,-0.11555
6.96,-0.15095
6.964,-0.13816
6.968,-0.09611
6.972,0.02527
6.976,0.19144
6.98,0.39282
6.984,0.59627
6.988,0.79351
6.992,0.92194
6.996,0.96393
7.0,0.89206
7.004,0.73462
7.008,0.50875
7.012,0.27753
7.016,0.06801
7.02,-0.07629
7.024,-0.15522
7.028,-0.1913
7.032,-0.14251
7.036,-0.11165
7.04,-0.08777
7.044,-0.02114
7.048,-0.04217
7.052,-0.0601
7.056,-0.02033
7.06,-0.02358
7.064,-0.00053
7.068,-0.0459
7.072,-0.03082
7.076,-0.00793
7.08,0.01039
7.084,0.00668
7.088,-0.00326
7.092,-0.00067
7.096,-0.04079
7.1,-0.03113
7.104,-0.03821
7.108,-0.05087
7.112,-0.00795
7.116,-0.03838
7.12,-0.01351
7.124,0.01789
7.128,-0.05429
7.132,-0.01432
7.136,-0.01424
7.14,-0.01337
7.144,-0.00884
7.148,-0.00299
7.152,0.00967
7.156,-0.01463
7.16,-0.01453
7.164,0.01901
7.168,-0.014
7.172,-0.01638
7.176,-0.02966
7.18,0.03167
7.184,0.00851
7.188,0.01461
7.192,0.03415
7.196,0.01101
7.2,0.05183
7.204,0.0659
7.208,0.07704
7.212,0.085
7.216,0.07137
7.22,0.06368
7.224,0.11766
7.228,0.14081
7.232,0.11351
7.236,0.14089
7.24,0.15942
7.244,0.16353
7.248,0.17123
7.252,0.19952
7.256,0.19675
7.26,0.19196
7.264,0.18112
7.268,0.19648
7.272,0.22082
7.276,0.19971
7.28,0.20938
7.284,0.17667
7.288,0.21661
7.292,0.17679
7.296,0.18853
7.3,0.1743
7.304,0.16982
7.308,0.1674
7.312,0.11472
7.316,0.1343
7.32,0.12676
7.324,0.1362
7.328,0.09581
7.332,0.0951
7.336,0.10888
7.34,0.07253
7.344,0.07062
7.348,0.07034
7.352,0.0324
7.356,0.03062
7.36,0.01917
7.364,0.03553
7.368,0.01846
7.372,0.03365
7.376,-0.00516
7.38,-0.01677
7.384,0.00535
7.388,-0.01623
7.392,-0.03584
7.396,0.00364
7.4,-0.00329
7.404,0.00077
7.408,0.00167
7.412,0.0113
7.416,0.00012
7.42,-0.01014
7.424,-0.01726
7.428,-0.00265
7.432,-0.01011
7.436,0.00579
7.44,0.00282
7.444,0.01545
7.448,0.00473
7.452,0.00098
7.456,0.00702
7.46,0.00502
7.464,-0.02161
7.468,-0.00196
7.472,0.00235
7.476,-0.02455
7.48,0.00454
7.484,-0.01977
7.488,0.00474
7.492,-0.03938
7.496,0.02066
7.5,-0.02341
7.504,-0.02678
7.508,0.0299
7.512,-0.03036
7.516,-0.01005
7.52,0.00036
7.524,-0.03049
7.528,-0.00331
7.532,0.00872
7.536,-0.00144
7.54,0.00603
7.544,-0.00273
7.548,-0.00065
7.552,-0.02706
7.556,-0.00446
7.56,0.01465
7.564,-0.00013
7.568,0.02438
7.572,-0.00888
7.576,-0.02434
7.58,-0.00942
7.584,-0.02413
7.588,-0.01196
7.592,-0.00431
7.596,0.02175
7.6,0.00228
7.604,0.00533
7.608,0.02498
7.612,0.02378
7.616,0.01583
7.62,0.00514
7.624,0.02117
7.628,0.0298
7.632,0.03759
7.636,0.06131
7.64,0.04506
7.644,0.08253
7.648,0.11809
7.652,0.07986
7.656,0.09547
7.66,0.08427
7.664,0.08985
7.668,0.1003
7.672,0.07634
7.676,0.06781
7.68,0.04554
7.684,0.03969
7.688,0.02078
7.692,0.03954
7.696,-0.01261
7.7,0.02878
7.704,0.01589
7.708,-0.00279
7.712,0.00198
7.716,-0.00231
7.72,0.02421
7.724,0.01914
7.728,0.01433
7.732,-0.01714
7.736,0.00264
7.74,-0.0186
7.744,-0.01788
7.748,0.02979
7.752,-0.01549
7.756,0.00578
7.76,-0.01051
7.764,-0.00088
7.768,-0.00572
7.772,-0.03616
7.776,-0.07256
7.78,-0.11445
7.784,-0.10121
7.788,-0.0788
7.792,0.06351
7.796,0.18401
7.8,0.41658
7.804,0.63847
7.808,0.8501
7.812,0.9643
7.816,0.97991
7.82,0.91734
7.824,0.70795
7.828,0.49889
7.832,0.27511
7.836,0.09078
7.84,-0.0653
7.844,-0.1712
7.848,-0.16384
7.852,-0.15117
7.856,-0.11545
7.86,-0.0561
7.864,-0.03426
7.868,-0.01645
7.872,0.01173
7.876,-0.02987
7.88,0.04195
7.884,-0.01972
7.888,0.01421
7.892,-0.00813
7.896,-0.01422
7.9,-0.00284
7.904,0.00736
7.908,-0.00577
7.912,0.00812
7.916,0.02005
7.92,-0.01186
7.924,0.00777
7.928,0.02583
7.932,0.00775
7.936,0.02323
7.94,-0.00886
7.944,0.00704
7.948,0.01401
7.952,0.0332
7.956,-0.00199
7.96,-0.02096
7.964,0.02304
7.968,0.02354
7.972,-0.02096
7.976,0.02645
7.98,0.01651
7.984,0.00287
7.988,0.04859
7.992,0.01018
7.996,0.03807
8.0,0.02544
8.004,0.04324
8.008,0.05197
8.012,0.08246
8.016,0.064
8.02,0.0523
8.024,0.08579
8.028,0.07262
8.032,0.11185
8.036,0.0809
8.04,0.10269
8.044,0.09779
8.048,0.12818
8.052,0.15345
8.056,0.16647
8.06,0.17399
8.064,0.18916
8.068,0.19292
8.072,0.19222
8.076,0.2135
8.08,0.2132
8.084,0.24701
8.088,0.21311
8.092,0.22278
8.096,0.22691
8.1,0.24445
8.104,0.23744
8.108,0.2179
8.112,0.21639
8.116,0.20247
8.12,0.18917
8.124,0.1974
8.128,0.19751
8.132,0.18555
8.136,0.15056
8.14,0.17447
8.144,0.11551
8.148,0.13209
8.152,0.11646
8.156,0.09553
8.16,0.09448
8.164,0.08429
8.168,0.04204
8.172,0.04469
8.176,0.05359
8.18,0.0687
8.184,0.03393
8.188,0.01892
8.192,0.02553
8.196,0.02341
8.2,0.05296
8.204,-0.0035
8.208,0.03277
8.212,0.0234
8.216,0.02077
8.22,0.01457
8.224,0.00297
8.228,0.01239
8.232,0.05719
8.236,0.05907
8.24,0.01164
8.244,0.00707
8.248,0.01586
8.252,0.02965
8.256,0.01448
8.26,-0.00519
8.264,0.05006
8.268,0.02094
8.272,0.01373
8.276,-0.01325
8.28,0.02479
8.284,0.01358
8.288,0.00067
8.292,0.00122
8.296,0.02882
8.3,0.04231
8.304,0.0017
8.308,0.008
8.312,0.01445
8.316,0.03046
8.32,0.00576
8.324,0.00627
8.328,0.00772
8.332,0.00592
8.336,-0.00461
8.34,-0.01137
8.344,0.02747
8.348,0.02966
8.352,0.00722
8.356,0.04328
8.36,0.03357
8.364,0.02323
8.368,0.02088
8.372,0.03618
8.376,0.03464
8.38,0.04926
8.384,0.06181
8.388,0.08802
8.392,0.07915
8.396,0.08855
8.4,0.10537
8.404,0.13474
8.408,0.09831
8.412,0.11327
8.416,0.12579
8.42,0.10157
8.424,0.09933
8.428,0.07274
8.432,0.06142
8.436,0.07393
8.44,0.05819
8.444,0.06582
8.448,0.02591
8.452,0.03228
8.456,0.03831
8.46,-0.00529
8.464,0.04047
8.468,0.02227
8.472,0.00019
8.476,-0.00133
8.48,0.01638
8.484,-0.0059
8.488,0.01678
8.492,0.03038
8.496,0.01929
8.5,0.00614
8.504,0.02268
8.508,0.00392
8.512,0.03771
8.516,0.02963
8.52,0.02984
8.524,-0.02158
8.528,-0.03961
8.532,-0.09379
8.536,-0.0761
8.54,-0.07223
8.544,-0.01291
8.548,0.1419
8.552,0.33032
8.556,0.55542
8.56,0.76888
8.564,0.94118
8.568,1.02953
8.572,0.97879
8.576,0.86314
8.58,0.67977
8.584,0.4302
8.588,0.22437
8.592,0.03708
8.596,-0.09783
8.6,-0.16036
8.604,-0.14947
8.608,-0.09712
8.612,-0.07689
8.616,-0.05118
8.62,-0.023
8.624,0.00476
8.628,0.02282
8.632,-0.00981
8.636,0.02636
8.64,0.04431
8.644,0.04071
8.648,0.00518
8.652,0.04696
8.656,0.01285
8.66,0.01494
8.664,0.02298
8.668,0.00742
8.672,0.007
8.676,0.00896
8.68,0.01326
8.684,0.02263
8.688,0.02142
8.692,0.02241
8.696,0.02861
8.7,0.05439
8.704,0.03036
8.708,0.01979
8.712,0.00498
8.716,0.0063
8.72,0.04595
8.724,0.03316
8.728,0.01025
8.732,0.04203
8.736,0.03876
8.74,0.03321
8.744,0.04063
8.748,0.03321
8.752,0.04498
8.756,0.06581
8.76,0.07636
8.764,0.05998
8.768,0.04493
8.772,0.05406
8.776,0.10113
8.78,0.10785
8.784,0.09542
8.788,0.13019
8.792,0.1292
8.796,0.12829
8.8,0.14718
8.804,0.16101
8.808,0.1906
8.812,0.19717
8.816,0.19755
8.82,0.19835
8.824,0.22814
8.828,0.21503
8.832,0.23962
8.836,0.2248
8.84,0.24398
8.844,0.2484
8.848,0.26214
8.852,0.23351
8.856,0.25306
8.86,0.22849
8.864,0.24211
8.868,0.21145
8.872,0.20805
8.876,0.19836
8.88,0.19986
8.884,0.1821
8.888,0.18188
8.892,0.1746
8.896,0.13224
8.9,0.14134
8.904,0.11831
8.908,0.12925
8.912,0.09651
8.916,0.12599
8.92,0.07155
8.924,0.08082
8.928,0.08433
8.932,0.08172
8.936,0.05818
8.94,0.03189
8.944,0.04426
8.948,0.0438
8.952,0.04919
8.956,0.0704
8.96,0.05586
8.964,0.03104
8.968,0.00844
8.972,0.03999
8.976,0.02924
8.98,0.0433
8.984,0.02297
8.988,0.01286
8.992,0.00979
8.996,0.04703
9.0,0.01817
9.004,0.02339
9.008,0.04724
9.012,0.02891
9.016,0.01158
9.02,0.00724
9.024,0.02381
9.028,0.03301
9.032,0.02017
9.036,0.02581
9.04,0.02253
9.044,0.02002
9.048,0.01616
9.052,0.04213
9.056,0.03418
9.06,0.02256
9.064,0.03438
9.068,0.0426
9.072,0.02664
9.076,0.03522
9.08,0.02425
9.084,0.04347
9.088,-0.01184
9.092,0.02873
9.096,0.05726
9.1,0.02965
9.104,0.01233
9.108,0.02777
9.112,0.04266
9.116,0.04274
9.12,0.04463
9.124,0.03215
9.128,0.02078
9.132,0.04032
9.136,0.01982
9.14,0.05859
9.144,0.05039
9.148,0.03627
9.152,0.0673
9.156,0.07102
9.16,0.10209
9.164,0.0936
9.168,0.11637
9.172,0.13424
9.176,0.12421
9.18,0.11749
9.184,0.15268
9.188,0.14085
9.192,0.11189
9.196,0.0962
9.2,0.08854
9.204,0.06605
9.208,0.07333
9.212,0.06309
9.216,0.06351
9.22,0.04377
9.224,0.02832
9.228,0.00411
9.232,0.03604
9.236,0.04636
9.24,0.0144
9.244,0.04247
9.248,0.03048
9.252,0.03656
9.256,0.02657
9.26,0.01744
9.264,0.03509
9.268,0.02713
9.272,0.04393
9.276,0.0405
9.28,0.05971
9.284,0.01798
9.288,0.03174
9.292,-0.01892
9.296,-0.01286
9.3,-0.04393
9.304,-0.05692
9.308,-0.08525
9.312,-0.04773
9.316,0.04286
9.32,0.23501
9.324,0.43325
9.328,0.6355
9.332,0.87107
9.336,0.99709
9.34,1.0117
9.344,0.94446
9.348,0.78329
9.352,0.57253
9.356,0.3377
9.36,0.1387
9.364,0.00777
9.368,-0.11939
9.372,-0.1475
9.376,-0.10663
9.38,-0.0707
9.384,-0.02734
9.388,-0.0081
9.392,0.01308
9.396,0.02692
9.4,0.0311
9.404,0.04984
9.408,0.0192
9.412,0.03564
9.416,0.02656
9.42,0.0667
9.424,0.04554
9.428,0.01184
9.432,0.02213
9.436,0.02466
9.44,0.03993
9.444,0.03928
9.448,0.05105
9.452,0.04282
9.456,0.03819
9.46,0.03149
9.464,0.03812
9.468,0.04209
9.472,0.03659
9.476,0.0214
9.48,0.0239
9.484,0.06039
9.488,0.01756
9.492,0.02075
9.496,-0.00322
9.5,0.02144
9.504,0.05003
9.508,0.04186
9.512,0.00944
9.516,0.05967
9.52,0.04697
9.524,0.01674
9.528,0.02815
9.532,0.0527
9.536,0.07037
9.54,0.09166
9.544,0.09224
9.548,0.11824
9.552,0.10797
9.556,0.11024
9.56,0.13087
9.564,0.11874
9.568,0.18499
9.572,0.12669
9.576,0.16302
9.58,0.1708
9.584,0.18801
9.588,0.24047
9.592,0.2151
9.596,0.23603
9.6,0.22186
9.604,0.23679
9.608,0.22731
9.612,0.22849
9.616,0.23677
9.62,0.22702
9.624,0.25642
9.628,0.25635
9.632,0.22877
9.636,0.22502
9.64,0.22306
9.644,0.21835
9.648,0.20203
9.652,0.21224
9.656,0.18139
9.66,0.1892
9.664,0.13574
9.668,0.14827
9.672,0.12922
9.676,0.12609
9.68,0.11301
9.684,0.08051
9.688,0.09235
9.692,0.09333
9.696,0.09472
9.7,0.06552
9.704,0.07019
9.708,0.0547
9.712,0.02376
9.716,0.04099
9.72,0.04247
9.724,0.03021
9.728,0.06739
9.732,0.0455
9.736,0.01376
9.74,0.02914
9.744,0.03081
9.748,0.03302
9.752,0.0584
9.756,0.03827
9.76,0.02402
9.764,0.01632
9.768,0.04514
9.772,0.03336
9.776,-0.00706
9.78,0.02799
9.784,0.03402
9.788,0.0267
9.792,0.02705
9.796,0.0287
9.8,0.04344
9.804,0.02424
9.808,0.04268
9.812,0.04627
9.816,0.04481
9.82,0.02091
9.824,0.05839
9.828,0.0242
9.832,0.02065
9.836,0.03286
9.84,0.04076
9.844,0.01904
9.848,0.01427
9.852,0.01457
9.856,0.02547
9.86,0.06341
9.864,0.05579
9.868,0.04267
9.872,0.01656
9.876,0.03547
9.88,0.03664
9.884,0.04662
9.888,0.03252
9.892,0.03476
9.896,0.04439
9.9,0.02273
9.904,0.0219
9.908,0.01709
9.912,0.00591
9.916,0.01348
9.92,0.02593
9.924,0.00389
9.928,0.00607
9.932,0.01273
9.936,0.03728
9.94,0.02219
9.944,0.04553
9.948,0.01911
9.952,0.05721
9.956,0.01546
9.96,0.04572
9.964,0.01838
9.968,0.03076
9.972,0.02199
9.976,0.01509
9.98,0.03468
9.984,0.04404
9.988,0.03197
9.992,0.01672
9.996,0.01937
