t_seg,ecg_mV
0.0,0.00535
0.004,0.03004
0.008,-0.02516
0.012,0.05291
0.016,0.02831
0.02,-0.01647
0.024,0.01232
0.028,0.01917
0.032,-0.08306
0.036,0.05831
0.04,0.0373
0.044,-0.03662
0.048,-0.09463
0.052,-0.06351
0.056,0.00531
0.06,-0.07345
0.064,-0.06455
0.068,-0.06721
0.072,-0.10059
0.076,0.01329
0.08,0.01138
0.084,0.01017
0.088,0.04954
0.092,0.02101
0.096,-0.10913
0.1,-0.04492
0.104,-0.11297
0.108,-0.16721
0.112,-0.09205
0.116,-0.09731
0.12,0.10501
0.124,0.28884
0.128,0.52027
0.132,0.73491
0.136,0.83275
0.14,0.92023
0.144,0.94304
0.148,0.77349
0.152,0.62506
0.156,0.42175
0.16,0.15655
0.164,0.00608
0.168,-0.13605
0.172,-0.2121
0.176,-0.23992
0.18,-0.18454
0.184,-0.1554
0.188,-0.13027
0.192,-0.04693
0.196,-0.10769
0.2,0.01973
0.204,-0.01777
0.208,-0.02285
0.212,-0.06425
0.216,-0.05648
0.22,-0.0225
0.224,0.00226
0.228,-0.03308
0.232,-0.09353
0.236,-0.03047
0.24,-0.08037
0.244,-0.0594
0.248,-0.04055
0.252,-0.04878
0.256,0.0157
0.26,-0.05673
0.264,-0.03667
0.268,-0.04279
0.272,0.02251
0.276,-0.06211
0.28,-0.0352
0.284,-0.00226
0.288,-0.00246
0.292,-0.08553
0.296,0.0222
0.3,0.04516
0.304,-0.04898
0.308,-0.02482
0.312,0.03605
0.316,-0.00518
0.32,-0.05609
0.324,-0.0287
0.328,0.01281
0.332,0.00524
0.336,0.01341
0.34,-0.05235
0.344,-0.0324
0.348,0.02874
0.352,0.01432
0.356,0.14726
0.36,0.05564
0.364,0.007
0.368,0.08435
0.372,0.11559
0.376,0.10159
0.38,0.1091
0.384,0.15117
0.388,0.23718
0.392,0.21564
0.396,0.28608
0.4,0.18869
0.404,0.32908
0.408,0.21742
0.412,0.29639
0.416,0.21358
0.42,0.30829
0.424,0.27539
0.428,0.23735
0.432,0.24528
0.436,0.29187
0.44,0.23741
0.444,0.22086
0.448,0.20359
0.452,0.12395
0.456,0.20899
0.46,0.16909
0.464,0.09345
0.468,0.11485
0.472,0.07304
0.476,0.09115
0.48,0.12234
0.484,-0.02
0.488,0.06438
0.492,0.06016
0.496,0.05296
0.5,0.03448
0.504,-0.00522
0.508,-0.01324
0.512,-0.00988
0.516,0.01784
0.52,0.04125
0.524,-0.00232
0.528,-0.00505
0.532,-0.05545
0.536,-0.12282
0.54,-0.05781
0.544,-0.09778
0.548,-0.09705
0.552,-0.08017
0.556,0.05409
0.56,0.22269
0.564,0.37351
0.568,0.62952
0.572,0.84112
0.576,0.96051
0.58,0.98352
0.584,0.88911
0.588,0.72806
0.592,0.39351
0.596,0.28522
0.6,0.08291
0.604,-0.13117
0.608,-0.19374
0.612,-0.25616
0.616,-0.17212
0.62,-0.08306
0.624,-0.11473
0.628,-0.11665
0.632,-0.07245
0.636,-0.01544
0.64,0.01795
0.644,-0.02488
0.648,-0.02559
0.652,0.04196
0.656,0.07173
0.66,-0.02532
0.664,0.00113
0.668,-0.00877
0.672,-0.0329
0.676,-0.00523
0.68,-0.01989
0.684,-0.03374
0.688,-0.03695
0.692,-0.01719
0.696,-0.02097
0.7,-0.03313
0.704,-0.04518
0.708,0.0297
0.712,0.06627
0.716,0.04892
0.72,-0.00156
0.724,0.00722
0.728,0.05241
0.732,0.0962
0.736,0.04959
0.74,0.05256
0.744,0.04663
0.748,0.06338
0.752,0.06419
0.756,0.06041
0.76,0.06821
0.764,0.06243
0.768,0.06793
0.772,0.09881
0.776,-0.04944
0.78,0.05799
0.784,0.04512
0.788,0.00702
0.792,0.12825
0.796,0.08148
0.8,0.12273
0.804,0.10963
0.808,0.12542
0.812,0.04844
0.816,0.18586
0.82,0.09389
0.824,0.20342
0.828,0.16381
0.832,0.23418
0.836,0.19619
0.84,0.20845
0.844,0.18721
0.848,0.20185
0.852,0.13676
0.856,0.21134
0.86,0.20005
0.864,0.11974
0.868,0.06948
0.872,0.0573
0.876,0.19168
0.88,0.31847
0.884,0.46346
0.888,0.77965
0.892,0.89298
0.896,1.04392
0.9,1.10636
0.904,1.04573
0.908,0.93429
0.912,0.68152
0.916,0.42535
0.92,0.19705
0.924,0.02175
0.928,-0.06505
0.932,-0.11612
0.936,-0.17526
0.94,-0.13331
0.944,-0.03646
0.948,-0.06355
0.952,0.02966
0.956,-0.0119
0.96,-0.00174
0.964,-0.01043
0.968,-0.03728
0.972,-0.01512
0.976,-0.04039
0.98,0.04472
0.984,-0.01302
0.988,0.01451
0.992,-0.10954
0.996,-0.02504
1.0,-0.04469
1.004,-0.03311
1.008,0.00845
1.012,-0.03591
1.016,-0.00487
1.02,-0.00905
1.024,-0.00528
1.028,-0.00769
1.032,0.0123
1.036,0.02577
1.04,-0.03325
1.044,0.00023
1.048,-0.01123
1.052,0.06071
1.056,-0.00203
1.06,0.02022
1.064,0.02633
1.068,0.0299
1.072,0.08135
1.076,0.08201
1.08,0.03915
1.084,0.1209
1.088,0.04687
1.092,0.12232
1.096,0.13742
1.1,0.08747
1.104,0.13689
1.108,0.14555
1.112,0.11168
1.116,0.16731
1.12,0.11812
1.124,0.14145
1.128,0.12956
1.132,0.14361
1.136,0.16849
1.14,0.13859
1.144,0.15415
1.148,0.19453
1.152,0.18351
1.156,0.12858
1.16,0.16119
1.164,0.18124
1.168,0.21519
1.172,0.17304
1.176,0.21832
1.18,0.174
1.184,0.21782
1.188,0.18785
1.192,0.18057
1.196,0.20693
1.2,0.24245
1.204,0.12324
1.208,0.08216
1.212,0.08979
1.216,0.09546
1.22,0.04783
1.224,0.01624
1.228,-0.00757
1.232,0.06552
1.236,0.20055
1.24,0.35244
1.244,0.52589
1.248,0.8014
1.252,0.93215
1.256,1.06592
1.26,0.98879
1.264,0.91364
1.268,0.6865
1.272,0.51312
1.276,0.26516
1.28,0.10524
1.284,-0.07307
1.288,-0.20339
1.292,-0.19552
1.296,-0.15734
1.3,-0.15668
1.304,-0.08653
1.308,-0.06251
1.312,-0.06635
1.316,-0.01084
1.32,-0.05687
1.324,-0.01315
1.328,-0.04962
1.332,-0.02863
1.336,0.04025
1.34,0.01254
1.344,-0.00284
1.348,-0.01476
1.352,-0.05087
1.356,0.00142
1.36,-0.03817
1.364,-0.03399
1.368,-0.01311
1.372,-0.02185
1.376,0.04809
1.38,-0.05187
1.384,-0.01359
1.388,0.01252
1.392,0.02409
1.396,-0.04264
1.4,-0.04319
1.404,-0.00103
1.408,-0.01347
1.412,-0.03357
1.416,-0.00621
1.42,-0.01052
1.424,0.01973
1.428,0.04093
1.432,0.06376
1.436,-0.00799
1.44,0.03816
1.444,-0.02227
1.448,-0.0159
1.452,0.04833
1.456,0.00325
1.46,0.08833
1.464,0.07582
1.468,-0.01242
1.472,0.0395
1.476,0.0918
1.48,0.0876
1.484,0.16915
1.488,0.08761
1.492,0.10191
1.496,0.12241
1.5,0.21275
1.504,0.11703
1.508,0.18845
1.512,0.14179
1.516,0.16657
1.52,0.25
1.524,0.18094
1.528,0.19848
1.532,0.17689
1.536,0.21375
1.54,0.20751
1.544,0.21756
1.548,0.17797
1.552,0.22174
1.556,0.23943
1.56,0.15338
1.564,0.19227
1.568,0.22533
1.572,0.1377
1.576,0.13787
1.58,0.07187
1.584,0.10442
1.588,0.13272
1.592,0.10204
1.596,0.10398
1.6,0.0101
1.604,0.0869
1.608,0.06549
1.612,0.11305
1.616,0.105
1.62,0.03313
1.624,0.08851
1.628,0.04167
1.632,0.03855
1.636,-0.01922
1.64,0.00264
1.644,0.07303
1.648,-0.02722
1.652,-0.02618
1.656,0.02442
1.66,0.05115
1.664,0.0078
1.668,-0.0011
1.672,0.02317
1.676,0.02758
1.68,0.01569
1.684,0.10313
1.688,-0.0083
1.692,0.07575
1.696,0.06251
1.7,0.04452
1.704,0.01933
1.708,0.10929
1.712,0.04401
1.716,0.16044
1.72,0.12268
1.724,0.0343
1.728,0.09622
1.732,0.08459
1.736,0.12369
1.74,0.04489
1.744,0.09337
1.748,0.02275
1.752,0.00284
1.756,0.01519
1.76,0.02015
1.764,-0.02537
1.768,0.0154
1.772,0.03099
1.776,0.03895
1.78,0.0652
1.784,0.03222
1.788,0.03433
1.792,0.03963
1.796,0.04649
1.8,-0.0026
1.804,0.05466
1.808,0.01515
1.812,0.01324
1.816,0.04052
1.82,0.11425
1.824,0.03573
1.828,0.02187
1.832,-0.03729
1.836,-0.03554
1.84,-0.03296
1.844,-0.05752
1.848,-0.06489
1.852,-0.04896
1.856,0.0389
1.86,0.13873
1.864,0.34674
1.868,0.58354
1.872,0.83231
1.876,0.94166
1.88,1.03317
1.884,0.93116
1.888,0.79681
1.892,0.63208
1.896,0.32222
1.9,0.16072
1.904,-0.07319
1.908,-0.08522
1.912,-0.18319
1.916,-0.11794
1.92,-0.14798
1.924,-0.0674
1.928,-0.03776
1.932,0.00916
1.936,0.00121
1.94,0.06661
1.944,-0.04562
1.948,0.05035
1.952,-0.01362
1.956,-0.0486
1.96,0.03462
1.964,0.03362
1.968,-0.00138
1.972,-0.02073
1.976,0.04338
1.98,-0.01014
1.984,0.01354
1.988,0.00129
1.992,0.04579
1.996,0.06067
2.0,0.00733
2.004,0.02336
2.008,-0.01475
2.012,-0.02929
2.016,-0.0411
2.02,0.02209
2.024,-0.0003
2.028,0.04438
2.032,0.08434
2.036,-0.00725
2.04,0.06691
2.044,0.05444
2.048,0.03721
2.052,0.02487
2.056,0.02507
2.06,-0.00726
2.064,0.04633
2.068,0.04718
2.072,0.10013
2.076,0.01741
2.08,0.0139
2.084,0.08055
2.088,0.07072
2.092,0.06662
2.096,0.13888
2.1,0.05916
2.104,0.1135
2.108,0.13464
2.112,0.16438
2.116,0.16891
2.12,0.20506
2.124,0.14516
2.128,0.15424
2.132,0.21027
2.136,0.19566
2.14,0.264
2.144,0.27208
2.148,0.30553
2.152,0.30305
2.156,0.25567
2.16,0.28287
2.164,0.27005
2.168,0.33255
2.172,0.31355
2.176,0.28572
2.18,0.33587
2.184,0.2528
2.188,0.2801
2.192,0.25149
2.196,0.28691
2.2,0.20024
2.204,0.19824
2.208,0.13741
2.212,0.10732
2.216,0.18738
2.22,0.12189
2.224,0.13239
2.228,0.06808
2.232,0.06734
2.236,0.04471
2.24,0.09452
2.244,0.02908
2.248,0.09341
2.252,0.06671
2.256,0.1144
2.26,0.01876
2.264,0.04009
2.268,-0.04736
2.272,0.03778
2.276,0.07122
2.28,0.01901
2.284,0.07325
2.288,-0.02305
2.292,-0.09729
2.296,-0.10556
2.3,-0.18414
2.304,-0.02348
2.308,0.08792
2.312,0.13814
2.316,0.27307
2.32,0.44213
2.324,0.53032
2.328,0.53804
2.332,0.58892
2.336,0.50561
2.34,0.30593
2.344,0.23811
2.348,0.08763
2.352,-0.00523
2.356,-0.12742
2.36,-0.16782
2.364,-0.1246
2.368,-0.09414
2.372,-0.01202
2.376,-0.05252
2.38,-0.05412
2.384,0.01387
2.388,0.06014
2.392,0.02567
2.396,0.06001
2.4,-0.03905
2.404,0.0194
2.408,0.04569
2.412,0.02024
2.416,0.08242
2.42,0.04993
2.424,-0.01296
2.428,-0.04188
2.432,0.01416
2.436,0.03332
2.44,-0.03724
2.444,0.0255
2.448,0.02151
2.452,0.04513
2.456,0.08862
2.46,-0.01754
2.464,0.01699
2.468,0.00466
2.472,-0.0149
2.476,-0.01887
2.48,0.00039
2.484,0.02308
2.488,0.0089
2.492,-0.02708
2.496,0.03038
2.5,0.02392
2.504,0.07763
2.508,0.01873
2.512,0.04206
2.516,-0.00214
2.52,0.03824
2.524,0.06053
2.528,0.0713
2.532,0.11033
2.536,0.10681
2.54,0.14844
2.544,0.14697
2.548,0.20233
2.552,0.17633
2.556,0.2379
2.56,0.27118
2.564,0.2068
2.568,0.29706
2.572,0.31789
2.576,0.27305
2.58,0.25517
2.584,0.26972
2.588,0.30238
2.592,0.35745
2.596,0.25385
2.6,0.21833
2.604,0.29658
2.608,0.25925
2.612,0.26977
2.616,0.29143
2.62,0.21897
2.624,0.23252
2.628,0.21208
2.632,0.2099
2.636,0.20279
2.64,0.16892
2.644,0.1935
2.648,0.13911
2.652,0.15275
2.656,0.22531
2.66,0.17026
2.664,0.09972
2.668,0.06016
2.672,0.14543
2.676,0.05646
2.68,0.08165
2.684,0.11723
2.688,0.03208
2.692,0.04509
2.696,0.00346
2.7,-0.04235
2.704,-0.1005
2.708,-0.03294
2.712,0.16445
2.716,0.32367
2.72,0.50098
2.724,0.76004
2.728,0.99957
2.732,1.02984
2.736,1.00424
2.74,0.95818
2.744,0.75502
2.748,0.45419
2.752,0.242
2.756,0.04713
2.76,-0.06758
2.764,-0.15275
2.768,-0.11012
2.772,-0.16612
2.776,-0.1122
2.78,-0.03666
2.784,0.02609
2.788,-0.01441
2.792,-0.02266
2.796,0.02046
2.8,0.06629
2.804,-0.02922
2.808,0.04726
2.812,0.08921
2.816,0.05084
2.82,0.02416
2.824,-0.01555
2.828,0.11967
2.832,0.04619
2.836,0.00527
2.84,0.01986
2.844,0.01727
2.848,0.02623
2.852,0.10142
2.856,0.04153
2.86,0.06054
2.864,0.02924
2.868,0.05562
2.872,0.05026
2.876,0.08518
2.88,0.06176
2.884,-0.01602
2.888,0.10773
2.892,0.05256
2.896,0.10664
2.9,0.04518
2.904,0.15058
2.908,0.12657
2.912,0.12086
2.916,0.14989
2.92,0.13282
2.924,0.15144
2.928,0.12127
2.932,0.11689
2.936,0.08789
2.94,0.14693
2.944,0.10959
2.948,0.19376
2.952,0.15873
2.956,0.18657
2.96,0.15212
2.964,0.10669
2.968,0.14432
2.972,0.18381
2.976,0.19164
2.98,0.2195
2.984,0.21723
2.988,0.18267
2.992,0.22137
2.996,0.24894
3.0,0.31481
3.004,0.28607
3.008,0.16006
3.012,0.19006
3.016,0.26408
3.02,0.27655
3.024,0.21839
3.028,0.20159
3.032,0.20717
3.036,0.19417
3.04,0.12788
3.044,0.07823
3.048,0.07452
3.052,0.12831
3.056,0.30071
3.06,0.45775
3.064,0.6304
3.068,0.8259
3.072,0.98917
3.076,1.05927
3.08,1.15814
3.084,0.92741
3.088,0.82967
3.092,0.53136
3.096,0.30496
3.1,0.05674
3.104,-0.09686
3.108,-0.11076
3.112,-0.13523
3.116,-0.0883
3.12,-0.06352
3.124,0.04618
3.128,-0.00321
3.132,0.0431
3.136,0.07314
3.14,0.02462
3.144,0.02336
3.148,-0.06343
3.152,0.05867
3.156,0.05293
3.16,-0.00734
3.164,0.01117
3.168,0.05989
3.172,-8e-05
3.176,0.02448
3.18,0.05042
3.184,0.00845
3.188,0.02873
3.192,0.0088
3.196,0.02194
3.2,0.04444
3.204,0.04668
3.208,0.0795
3.212,0.03889
3.216,0.01991
3.22,0.07835
3.224,0.07053
3.228,0.04485
3.232,-0.01449
3.236,0.01226
3.24,0.0319
3.244,0.06981
3.248,0.06606
3.252,0.04312
3.256,0.05159
3.26,-0.03165
3.264,0.06932
3.268,0.0373
3.272,0.04269
3.276,0.03949
3.28,0.07532
3.284,0.0755
3.288,0.0659
3.292,0.13209
3.296,0.1135
3.3,0.12847
3.304,0.17492
3.308,0.17341
3.312,0.09222
3.316,0.11571
3.32,0.14993
3.324,0.21021
3.328,0.20017
3.332,0.1705
3.336,0.24083
3.34,0.23787
3.344,0.24436
3.348,0.24514
3.352,0.15311
3.356,0.24262
3.36,0.32811
3.364,0.26815
3.368,0.26871
3.372,0.26958
3.376,0.23042
3.38,0.25235
3.384,0.29556
3.388,0.27946
3.392,0.2828
3.396,0.24281
3.4,0.21413
3.404,0.22525
3.408,0.25953
3.412,0.21625
3.416,0.1778
3.42,0.16317
3.424,0.15676
3.428,0.18257
3.432,0.11785
3.436,0.01854
3.44,0.09345
3.444,0.04923
3.448,0.00942
3.452,0.13343
3.456,0.05338
3.46,0.02462
3.464,0.11872
3.468,0.05169
3.472,0.10305
3.476,-0.00989
3.48,0.01491
3.484,0.06332
3.488,0.00044
3.492,0.0778
3.496,0.02566
3.5,0.01329
3.504,-0.00382
3.508,-0.01783
3.512,0.04446
3.516,-0.01217
3.52,-0.05707
3.524,-0.10425
3.528,-0.08448
3.532,0.02943
3.536,0.06905
3.54,0.24967
3.544,0.39031
3.548,0.68427
3.552,0.8565
3.556,1.01097
3.56,1.03819
3.564,0.9361
3.568,0.80377
3.572,0.53414
3.576,0.30745
3.58,0.14501
3.584,0.05557
3.588,-0.08256
3.592,-0.18416
3.596,-0.13463
3.6,-0.06227
3.604,0.02448
3.608,5e-05
3.612,0.00691
3.616,0.00681
3.62,0.00991
3.624,0.0522
3.628,0.03692
3.632,-0.02599
3.636,0.048
3.64,0.06032
3.644,-0.005
3.648,0.10281
3.652,0.05051
3.656,0.07841
3.66,0.04239
3.664,0.05381
3.668,-0.00166
3.672,0.03569
3.676,-0.05005
3.68,0.02387
3.684,0.04486
3.688,0.05845
3.692,0.10531
3.696,-0.01648
3.7,0.00218
3.704,0.02767
3.708,0.02172
3.712,0.03642
3.716,0.05555
3.72,0.03833
3.724,0.07106
3.728,0.05496
3.732,0.06303
3.736,0.04975
3.74,0.05376
3.744,0.05658
3.748,0.07343
3.752,0.01483
3.756,0.13716
3.76,0.14078
3.764,0.01577
3.768,0.03923
3.772,0.08542
3.776,0.11915
3.78,0.07952
3.784,0.14048
3.788,0.13672
3.792,0.14497
3.796,0.0983
3.8,0.17204
3.804,0.14708
3.808,0.19325
3.812,0.20191
3.816,0.28287
3.82,0.20048
3.824,0.25166
3.828,0.27515
3.832,0.21831
3.836,0.23105
3.84,0.26556
3.844,0.2602
3.848,0.25045
3.852,0.20298
3.856,0.18919
3.86,0.18488
3.864,0.25495
3.868,0.16302
3.872,0.15105
3.876,0.21658
3.88,0.25149
3.884,0.14949
3.888,0.1463
3.892,0.08229
3.896,0.13873
3.9,0.09262
3.904,0.07201
3.908,0.07255
3.912,0.03592
3.916,0.12671
3.92,0.12993
3.924,0.09357
3.928,0.09427
3.932,0.09285
3.936,0.10292
3.94,0.13742
3.944,0.11059
3.948,0.08654
3.952,0.126
3.956,0.09221
3.96,0.18635
3.964,0.17103
3.968,0.13977
3.972,0.0461
3.976,0.08411
3.98,0.08567
3.984,0.10019
3.988,0.08117
3.992,0.07855
3.996,0.07544
4.0,0.07939
4.004,0.0261
4.008,0.06313
4.012,0.0167
4.016,0.15999
4.02,0.064
4.024,0.0047
4.028,0.04488
4.032,0.09757
4.036,0.06361
4.04,-0.00696
4.044,0.0198
4.048,-0.0238
4.052,0.00515
4.056,0.06107
4.06,0.06652
4.064,0.01138
4.068,0.02294
4.072,-0.02776
4.076,-0.03169
4.08,-0.04782
4.084,-0.1077
4.088,-0.00058
4.092,0.10369
4.096,0.24012
4.1,0.54117
4.104,0.64313
4.108,0.80448
4.112,0.98734
4.116,1.05305
4.12,0.98683
4.124,0.73052
4.128,0.50722
4.132,0.30033
4.136,0.17914
4.14,-0.0179
4.144,-0.10084
4.148,-0.1585
4.152,-0.17003
4.156,-0.03318
4.16,-0.0545
4.164,0.00276
4.168,0.0063
4.172,0.02388
4.176,-0.03584
4.18,0.00459
4.184,0.05646
4.188,0.10361
4.192,-0.0318
4.196,0.00414
4.2,0.04114
4.204,0.05871
4.208,0.00084
4.212,0.04411
4.216,0.06034
4.22,0.01319
4.224,0.0216
4.228,0.03345
4.232,0.03123
4.236,0.0145
4.24,0.04728
4.244,0.05427
4.248,0.039
4.252,0.11188
4.256,0.0847
4.26,0.11901
4.264,0.01865
4.268,0.05678
4.272,0.10825
4.276,0.13283
4.28,0.10263
4.284,0.10237
4.288,0.08872
4.292,0.17151
4.296,0.0742
4.3,0.10268
4.304,0.10655
4.308,0.06925
4.312,0.09402
4.316,0.06384
4.32,0.07355
4.324,0.08877
4.328,0.0973
4.332,0.05797
4.336,0.11435
4.34,0.12111
4.344,0.07882
4.348,0.12863
4.352,0.12674
4.356,0.12693
4.36,0.14736
4.364,0.11584
4.368,0.29769
4.372,0.1756
4.376,0.27325
4.38,0.26197
4.384,0.23534
4.388,0.30631
4.392,0.2122
4.396,0.25652
4.4,0.20961
4.404,0.15238
4.408,0.20202
4.412,0.09206
4.416,0.13877
4.42,0.17423
4.424,0.34452
4.428,0.47257
4.432,0.61799
4.436,0.83837
4.44,1.06448
4.444,1.13904
4.448,1.07971
4.452,1.03403
4.456,0.78568
4.46,0.54875
4.464,0.25359
4.468,0.13476
4.472,-0.00772
4.476,-0.09573
4.48,-0.12184
4.484,-0.075
4.488,-0.05293
4.492,-0.00963
4.496,0.0186
4.5,0.05513
4.504,0.08565
4.508,0.07628
4.512,-0.02805
4.516,0.03407
4.52,0.01311
4.524,-0.04811
4.528,-0.04067
4.532,0.07669
4.536,0.03065
4.54,0.02223
4.544,0.0154
4.548,0.01117
4.552,-0.01739
4.556,0.01519
4.56,-0.02865
4.564,-0.09242
4.568,0.00219
4.572,-0.00269
4.576,0.03546
4.58,0.00356
4.584,-0.02644
4.588,0.04722
4.592,0.00244
4.596,-0.00457
4.6,0.06429
4.604,-0.02373
4.608,-0.00236
4.612,0.10925
4.616,0.01534
4.62,0.06339
4.624,0.04511
4.628,0.03969
4.632,0.03901
4.636,0.08317
4.64,-0.02021
4.644,0.08267
4.648,0.07609
4.652,0.02829
4.656,0.07631
4.66,0.08993
4.664,0.15578
4.668,0.1413
4.672,0.10606
4.676,0.11533
4.68,0.14725
4.684,0.1817
4.688,0.15872
4.692,0.06241
4.696,0.17639
4.7,0.21233
4.704,0.18165
4.708,0.18531
4.712,0.20656
4.716,0.21081
4.72,0.25746
4.724,0.15437
4.728,0.28026
4.732,0.19513
4.736,0.26134
4.74,0.19409
4.744,0.24949
4.748,0.26639
4.752,0.1639
4.756,0.19343
4.76,0.1592
4.764,0.15694
4.768,0.19383
4.772,0.16836
4.776,0.09767
4.78,0.14193
4.784,0.10795
4.788,0.07004
4.792,0.06153
4.796,0.11512
4.8,0.03421
4.804,0.00118
4.808,0.0136
4.812,0.02474
4.816,0.05389
4.82,0.08634
4.824,0.01263
4.828,0.0756
4.832,-0.0487
4.836,0.0069
4.84,0.03318
4.844,0.01928
4.848,0.03332
4.852,0.0579
4.856,0.07618
4.86,0.09794
4.864,0.11097
4.868,0.11851
4.872,0.02231
4.876,0.2004
4.88,0.07233
4.884,0.15363
4.888,0.09748
4.892,0.09407
4.896,0.07271
4.9,0.07419
4.904,0.07311
4.908,-0.00099
4.912,0.03544
4.916,0.02765
4.92,0.00559
4.924,0.02267
4.928,-0.00042
4.932,-0.05095
4.936,0.05061
4.94,0.0028
4.944,-0.04408
4.948,-0.03014
4.952,-0.02599
4.956,0.03632
4.96,-0.06017
4.964,0.07162
4.968,0.02114
4.972,-0.01268
4.976,0.00708
4.98,0.02841
4.984,-0.03707
4.988,-0.08683
4.992,-0.04775
4.996,-0.07823
5.0,-0.11465
5.004,-0.06959
5.008,-0.09049
5.012,0.05813
5.016,0.16443
5.02,0.36983
5.024,0.63064
5.028,0.72485
5.032,0.92811
5.036,0.97406
5.04,0.92637
5.044,0.78281
5.048,0.60932
5.052,0.37371
5.056,0.11323
5.06,-0.02251
5.064,-0.14578
5.068,-0.19616
5.072,-0.1354
5.076,-0.13764
5.08,-0.08005
5.084,-0.04591
5.088,-0.0225
5.092,-0.02458
5.096,0.0136
5.1,-0.03177
5.104,-0.02179
5.108,-0.02016
5.112,-0.03464
5.116,0.03397
5.12,0.00827
5.124,0.00557
5.128,0.00266
5.132,-0.06407
5.136,0.05722
5.14,0.0142
5.144,0.03944
5.148,-0.01165
5.152,0.0184
5.156,0.03974
5.16,0.0064
5.164,0.03874
5.168,-0.06159
5.172,0.0321
5.176,0.00412
5.18,0.01768
5.184,0.0749
5.188,0.06723
5.192,0.08743
5.196,0.14723
5.2,0.111
5.204,0.10719
5.208,0.11101
5.212,0.16713
5.216,0.06282
5.22,0.07643
5.224,0.03601
5.228,0.09008
5.232,0.08855
5.236,0.05819
5.24,0.00581
5.244,0.06004
5.248,0.10093
5.252,0.11081
5.256,0.09089
5.26,0.10057
5.264,0.10873
5.268,0.11077
5.272,0.18118
5.276,0.10787
5.28,0.11725
5.284,0.10335
5.288,0.19706
5.292,0.20232
5.296,0.15965
5.3,0.17837
5.304,0.25009
5.308,0.2112
5.312,0.2495
5.316,0.25031
5.32,0.22616
5.324,0.13633
5.328,0.12482
5.332,0.10415
5.336,0.09079
5.34,0.22112
5.344,0.35924
5.348,0.53193
5.352,0.73211
5.356,0.9167
5.36,1.04622
5.364,1.10843
5.368,1.03002
5.372,0.8938
5.376,0.62654
5.38,0.45354
5.384,0.21417
5.388,0.02813
5.392,-0.02616
5.396,-0.17609
5.4,-0.08659
5.404,-0.09044
5.408,-0.01348
5.412,-0.02241
5.416,0.02043
5.42,-0.0203
5.424,0.02058
5.428,0.05743
5.432,-0.00113
5.436,-0.03144
5.44,-0.00928
5.444,-0.02196
5.448,0.04227
5.452,0.02614
5.456,0.04536
5.46,-0.00315
5.464,0.048
5.468,-0.0561
5.472,-0.02197
5.476,-0.00453
5.48,0.04182
5.484,-0.00632
5.488,0.00727
5.492,0.03274
5.496,0.02655
5.5,-0.04774
5.504,0.02124
5.508,-0.02608
5.512,-0.0059
5.516,-0.0279
5.52,-0.04553
5.524,-0.03858
5.528,-0.03127
5.532,-0.00327
5.536,0.0271
5.54,0.00915
5.544,0.03053
5.548,0.07047
5.552,-0.02754
5.556,0.01551
5.56,0.09614
5.564,0.04549
5.568,0.0723
5.572,0.00072
5.576,0.13586
5.58,0.13031
5.584,0.15641
5.588,0.20008
5.592,0.13313
5.596,0.20771
5.6,0.2166
5.604,0.22998
5.608,0.25901
5.612,0.22147
5.616,0.24692
5.62,0.28768
5.624,0.23512
5.628,0.20551
5.632,0.23647
5.636,0.17442
5.64,0.19834
5.644,0.23569
5.648,0.17914
5.652,0.15092
5.656,0.18408
5.66,0.18149
5.664,0.17138
5.668,0.11647
5.672,0.17139
5.676,0.16881
5.68,0.1821
5.684,0.12329
5.688,0.16745
5.692,0.12277
5.696,0.01508
5.7,0.08608
5.704,0.0604
5.708,0.03247
5.712,0.03618
5.716,0.00558
5.72,-0.13293
5.724,-0.01878
5.728,-0.01016
5.732,0.03219
5.736,0.19642
5.74,0.44206
5.744,0.6747
5.748,0.86518
5.752,0.99861
5.756,0.96686
5.76,0.84199
5.764,0.70193
5.768,0.493
5.772,0.28214
5.776,0.08706
5.78,-0.06545
5.784,-0.14962
5.788,-0.2454
5.792,-0.13933
5.796,-0.1066
5.8,0.00765
5.804,-0.06405
5.808,-0.02871
5.812,-0.01534
5.816,0.02416
5.82,-0.05749
5.824,-0.02708
5.828,-0.03563
5.832,-0.07077
5.836,-0.06381
5.84,-0.02992
5.844,-0.04363
5.848,-0.09508
5.852,-0.04733
5.856,-0.01167
5.86,-0.02251
5.864,0.01861
5.868,-0.02001
5.872,0.01922
5.876,-0.03904
5.88,-0.03727
5.884,-0.00927
5.888,-0.03957
5.892,-0.03613
5.896,-0.03998
5.9,-0.00483
5.904,-0.04475
5.908,-0.03486
5.912,-0.04324
5.916,0.00442
5.92,-0.04981
5.924,0.01019
5.928,-0.03476
5.932,-0.01111
5.936,0.0267
5.94,-0.05991
5.944,0.04505
5.948,0.03224
5.952,0.02684
5.956,0.02689
5.96,0.01096
5.964,0.01552
5.968,0.01751
5.972,0.05484
5.976,0.09018
5.98,0.05804
5.984,0.11637
5.988,0.13203
5.992,0.15988
5.996,0.12574
6.0,0.11142
6.004,0.09522
6.008,0.11727
6.012,0.16553
6.016,0.1759
6.02,0.181
6.024,0.10938
6.028,0.20776
6.032,0.21311
6.036,0.24265
6.04,0.20835
6.044,0.22964
6.048,0.18274
6.052,0.17271
6.056,0.15345
6.06,0.19221
6.064,0.06398
6.068,0.12928
6.072,0.07592
6.076,0.15334
6.08,0.07452
6.084,0.07501
6.088,0.05073
6.092,0.08981
6.096,-0.01253
6.1,0.10282
6.104,-0.00795
6.108,0.07277
6.112,0.06809
6.116,0.07886
6.12,0.01148
6.124,-0.04462
6.128,-0.01739
6.132,-0.00935
6.136,-0.03138
6.14,-0.03609
6.144,0.00015
6.148,-0.007
6.152,0.0563
6.156,-0.02221
6.16,0.00166
6.164,0.01325
6.168,-0.07788
6.172,-0.03514
6.176,0.00203
6.18,-0.02882
6.184,-0.02394
6.188,0.00144
6.192,-0.0332
6.196,0.01547
6.2,0.06053
6.204,-0.00266
6.208,0.06169
6.212,0.05241
6.216,0.04275
6.22,0.03324
6.224,0.09424
6.228,0.10103
6.232,0.063
6.236,0.06267
6.24,0.07111
6.244,0.07462
6.248,0.0135
6.252,0.02594
6.256,0.00528
6.26,0.02531
6.264,0.0289
6.268,-0.0622
6.272,-0.06222
6.276,-0.02037
6.28,-0.02515
6.284,-0.03429
6.288,0.02461
6.292,0.02039
6.296,0.01941
6.3,-0.00599
6.304,-0.07417
6.308,-0.04018
6.312,-0.04154
6.316,-0.05292
6.32,-0.06509
6.324,-0.0266
6.328,-0.01404
6.332,0.00884
6.336,0.01199
6.34,-0.03936
6.344,-0.1286
6.348,-0.04698
6.352,-0.15973
6.356,-0.12351
6.36,-0.09494
6.364,0.08712
6.368,0.31503
6.372,0.5452
6.376,0.70363
6.38,0.88516
6.384,0.94165
6.388,0.94039
6.392,0.84778
6.396,0.62466
6.4,0.46481
6.404,0.1698
6.408,0.00976
6.412,-0.11777
6.416,-0.2361
6.42,-0.15235
6.424,-0.14948
6.428,-0.11953
6.432,-0.14468
6.436,-0.06073
6.44,0.0724
6.444,-0.05993
6.448,-0.00412
6.452,-0.07394
6.456,-0.00285
6.46,-0.07067
6.464,0.01344
6.468,-0.09769
6.472,-0.01471
6.476,0.01624
6.48,-0.05699
6.484,-0.0497
6.488,-0.09447
6.492,-0.02547
6.496,0.02476
6.5,-0.07243
6.504,-0.04582
6.508,-0.06679
6.512,-0.02478
6.516,-0.00907
6.52,-0.05244
6.524,-0.00879
6.528,-0.03186
6.532,-0.016
6.536,-0.03386
6.54,0.02117
6.544,-0.04772
6.548,0.01661
6.552,-0.0318
6.556,-0.05291
6.56,-0.04119
6.564,-0.06963
6.568,-0.01021
6.572,-0.02965
6.576,-0.02505
6.58,-0.0343
6.584,0.00293
6.588,0.04993
6.592,0.02075
6.596,-0.00195
6.6,0.12105
6.604,0.05314
6.608,0.10618
6.612,0.09157
6.616,0.05304
6.62,0.06142
6.624,0.11857
6.628,0.14841
6.632,0.12629
6.636,0.13846
6.64,0.11563
6.644,0.18327
6.648,0.24126
6.652,0.12304
6.656,0.18439
6.66,0.19465
6.664,0.19705
6.668,0.1951
6.672,0.16461
6.676,0.23901
6.68,0.19691
6.684,0.21025
6.688,0.2019
6.692,0.20985
6.696,0.1988
6.7,0.1952
6.704,0.24811
6.708,0.20663
6.712,0.14075
6.716,0.21691
6.72,0.18756
6.724,0.18913
6.728,0.08552
6.732,0.09783
6.736,0.14079
6.74,0.06848
6.744,0.10593
6.748,0.03504
6.752,0.04635
6.756,0.04059
6.76,-0.00885
6.764,-0.00373
6.768,-0.00263
6.772,-0.00486
6.776,-0.04033
6.78,-0.0025
6.784,0.05614
6.788,-0.02366
6.792,-0.03222
6.796,-0.02371
6.8,-0.00237
6.804,-0.05791
6.808,-0.00661
6.812,-0.00183
6.816,-0.11075
6.82,-0.07938
6.824,-0.06245
6.828,-0.01843
6.832,-0.05073
6.836,-0.14458
6.84,-0.14089
6.844,-0.09974
6.848,-0.04277
6.852,0.09578
6.856,0.25306
6.86,0.51704
6.864,0.71459
6.868,0.83641
6.872,0.97586
6.876,0.98035
6.88,0.81558
6.884,0.59696
6.888,0.42687
6.892,0.13203
6.896,-0.03675
6.9,-0.06942
6.904,-0.19173
6.908,-0.13984
6.912,-0.07294
6.916,-0.07223
6.92,-0.07699
6.924,-0.10839
6.928,-0.06267
6.932,-0.06323
6.936,-0.04263
6.94,-0.03045
6.944,-0.06162
6.948,-0.05419
6.952,-0.05796
6.956,-0.02614
6.96,-0.00875
6.964,-0.00647
6.968,-0.01709
6.972,-0.06492
6.976,-0.02052
6.98,-0.03749
6.984,-0.0521
6.988,-0.00918
6.992,0.00971
6.996,-0.06169
7.0,-0.02925
7.004,-0.01301
7.008,-0.0407
7.012,-0.01414
7.016,-0.04686
7.02,-0.02769
7.024,-0.04255
7.028,-0.04398
7.032,0.00272
7.036,-0.00813
7.04,-0.02469
7.044,-0.04378
7.048,-0.04822
7.052,0.02704
7.056,-0.01175
7.06,0.01707
7.064,-0.04519
7.068,0.01184
7.072,-0.06071
7.076,0.01333
7.08,0.04943
7.084,0.02731
7.088,0.0339
7.092,0.07885
7.096,0.04736
7.1,0.01046
7.104,0.02097
7.108,0.1091
7.112,0.15023
7.116,0.17504
7.12,0.18414
7.124,0.12904
7.128,0.19768
7.132,0.13715
7.136,0.16121
7.14,0.26147
7.144,0.13211
7.148,0.18443
7.152,0.1812
7.156,0.1496
7.16,0.13759
7.164,0.16154
7.168,0.17126
7.172,0.17218
7.176,0.19738
7.18,0.12726
7.184,0.16597
7.188,0.12844
7.192,0.11217
7.196,0.13533
7.2,0.12033
7.204,0.02062
7.208,0.08012
7.212,0.08327
7.216,0.08166
7.22,0.0834
7.224,0.07691
7.228,0.01413
7.232,0.00074
7.236,0.06352
7.24,0.05708
7.244,0.04315
7.248,0.16874
7.252,0.07477
7.256,0.11459
7.26,0.11925
7.264,0.12973
7.268,0.09958
7.272,0.02852
7.276,-0.00534
7.28,0.03416
7.284,0.05608
7.288,-0.00993
7.292,0.02256
7.296,-0.02493
7.3,-0.0235
7.304,0.03417
7.308,-0.04898
7.312,-0.00662
7.316,-0.09618
7.32,0.02805
7.324,0.01754
7.328,-0.06954
7.332,-0.03194
7.336,0.00338
7.34,-0.02136
7.344,-0.02136
7.348,-0.06867
7.352,-0.00256
7.356,-0.06949
7.36,-0.0336
7.364,-0.02705
7.368,-0.07416
7.372,-0.03936
7.376,-0.02707
7.38,-0.08629
7.384,-0.11198
7.388,-0.2096
7.392,-0.16017
7.396,-0.0822
7.4,0.10721
7.404,0.23066
7.408,0.42202
7.412,0.682
7.416,0.86752
7.42,0.90859
7.424,0.95511
7.428,0.86744
7.432,0.64499
7.436,0.35522
7.44,0.23013
7.444,0.01273
7.448,-0.07499
7.452,-0.11846
7.456,-0.14951
7.46,-0.17576
7.464,-0.09666
7.468,-0.10293
7.472,-0.02567
7.476,-0.08794
7.48,-0.00967
7.484,-0.00547
7.488,-0.06815
7.492,0.01901
7.496,-0.04787
7.5,-0.08772
7.504,-0.01328
7.508,-0.00913
7.512,0.05651
7.516,0.02035
7.52,0.01494
7.524,-0.0359
7.528,-0.02067
7.532,0.0241
7.536,0.0092
7.54,-0.10229
7.544,-0.03589
7.548,-0.05093
7.552,-0.06788
7.556,0.04167
7.56,0.08267
7.564,-0.05345
7.568,-0.03923
7.572,-0.02681
7.576,-0.03098
7.58,0.02612
7.584,-0.0884
7.588,-0.03395
7.592,0.01042
7.596,-0.00067
7.6,-0.04812
7.604,0.08281
7.608,0.01192
7.612,-0.00115
7.616,0.10283
7.62,0.03197
7.624,0.00024
7.628,0.09564
7.632,0.06094
7.636,0.12606
7.64,0.13898
7.644,0.14308
7.648,0.17163
7.652,0.13763
7.656,0.22727
7.66,0.25034
7.664,0.25188
7.668,0.21229
7.672,0.18954
7.676,0.3188
7.68,0.26514
7.684,0.19876
7.688,0.2467
7.692,0.24172
7.696,0.24223
7.7,0.20708
7.704,0.22683
7.708,0.22575
7.712,0.2655
7.716,0.16619
7.72,0.23369
7.724,0.18695
7.728,0.24138
7.732,0.19693
7.736,0.20103
7.74,0.11516
7.744,0.12118
7.748,0.08472
7.752,0.14226
7.756,0.12402
7.76,0.04408
7.764,0.07942
7.768,0.08091
7.772,0.14451
7.776,0.06194
7.78,-0.00648
7.784,-0.03561
7.788,-0.05609
7.792,-0.05587
7.796,-0.01237
7.8,0.02246
7.804,0.14106
7.808,0.38821
7.812,0.58139
7.816,0.7929
7.82,0.94493
7.824,0.96094
7.828,0.93524
7.832,0.7772
7.836,0.53011
7.84,0.31183
7.844,0.10195
7.848,-0.05838
7.852,-0.1232
7.856,-0.17697
7.86,-0.17835
7.864,-0.14209
7.868,-0.05114
7.872,-0.08231
7.876,-0.01916
7.88,-0.07977
7.884,-0.00924
7.888,0.01761
7.892,-0.03617
7.896,0.06728
7.9,0.05046
7.904,0.01516
7.908,-0.03057
7.912,0.03429
7.916,0.0572
7.92,0.16171
7.924,0.13862
7.928,0.14099
7.932,0.00984
7.936,0.0561
7.94,0.10763
7.944,0.04245
7.948,0.00598
7.952,0.03613
7.956,0.01812
7.96,0.04053
7.964,-0.01078
7.968,-0.00109
7.972,0.02037
7.976,0.05125
7.98,-0.08028
7.984,-0.04369
7.988,0.00764
7.992,0.04343
7.996,-0.06577
8.0,-0.03408
8.004,0.04405
8.008,0.00781
8.012,-0.01518
8.016,0.02871
8.02,0.03497
8.024,0.02703
8.028,0.02918
8.032,0.08356
8.036,0.00435
8.04,0.11083
8.044,-0.00801
8.048,-0.03333
8.052,0.08334
8.056,-0.0245
8.06,0.07158
8.064,0.25989
8.068,0.46896
8.072,0.6829
8.076,0.89829
8.08,1.08339
8.084,1.15559
8.088,1.21938
8.092,1.02323
8.096,0.82263
8.1,0.59429
8.104,0.41835
8.108,0.24526
8.112,0.08657
8.116,0.05619
8.12,-0.0199
8.124,0.0359
8.128,0.10084
8.132,0.02153
8.136,0.10656
8.14,0.15917
8.144,0.11596
8.148,0.13843
8.152,0.12125
8.156,0.09147
8.16,0.07474
8.164,0.12089
8.168,0.02418
8.172,0.08197
8.176,0.04842
8.18,0.03664
8.184,0.03147
8.188,0.01836
8.192,0.03208
8.196,0.05637
8.2,0.05755
8.204,0.02279
8.208,0.07305
8.212,0.10402
8.216,0.05346
8.22,0.0675
8.224,0.10157
8.228,0.14801
8.232,0.08294
8.236,0.02268
8.24,0.06764
8.244,0.12689
8.248,0.11875
8.252,0.07332
8.256,0.01467
8.26,0.09541
8.264,0.14919
8.268,0.0584
8.272,0.03408
8.276,0.05084
8.28,0.02959
8.284,0.07421
8.288,0.00422
8.292,0.10005
8.296,0.0762
8.3,0.05586
8.304,0.07577
8.308,0.106
8.312,0.12157
8.316,0.14038
8.32,0.10978
8.324,0.16739
8.328,0.16544
8.332,0.2088
8.336,0.17627
8.34,0.19362
8.344,0.16703
8.348,0.18107
8.352,0.27424
8.356,0.16389
8.36,0.15242
8.364,0.101
8.368,0.07231
8.372,0.21029
8.376,0.20327
8.38,0.40001
8.384,0.65535
8.388,0.84329
8.392,0.98864
8.396,1.11174
8.4,1.17448
8.404,1.05794
8.408,0.83459
8.412,0.72483
8.416,0.39039
8.42,0.17825
8.424,0.01777
8.428,-0.04563
8.432,-0.06507
8.436,-0.16362
8.44,-0.04389
8.444,-0.05912
8.448,-0.02795
8.452,-0.00375
8.456,0.04457
8.46,0.03693
8.464,0.04795
8.468,0.04693
8.472,0.08036
8.476,0.02284
8.48,-0.04408
8.484,0.08433
8.488,0.04218
8.492,0.01162
8.496,-0.00537
8.5,0.03844
8.504,0.01703
8.508,0.02154
8.512,-0.01839
8.516,-0.03033
8.52,-0.01369
8.524,-0.03407
8.528,0.00999
8.532,-0.0168
8.536,0.09178
8.54,-0.00596
8.544,0.03427
8.548,0.02601
8.552,0.00571
8.556,0.07436
8.56,0.02711
8.564,0.02216
8.568,0.07107
8.572,0.07752
8.576,0.03292
8.58,0.17831
8.584,0.05674
8.588,0.12937
8.592,0.11107
8.596,0.13596
8.6,0.18323
8.604,0.15219
8.608,0.19539
8.612,0.12447
8.616,0.1473
8.62,0.181
8.624,0.16387
8.628,0.14153
8.632,0.22014
8.636,0.19871
8.64,0.16667
8.644,0.1997
8.648,0.19632
8.652,0.18877
8.656,0.23493
8.66,0.16818
8.664,0.2109
8.668,0.17128
8.672,0.20482
8.676,0.22187
8.68,0.16287
8.684,0.13262
8.688,0.1816
8.692,0.19408
8.696,0.25986
8.7,0.18287
8.704,0.21871
8.708,0.26381
8.712,0.16094
8.716,0.14058
8.72,0.13145
8.724,0.07264
8.728,0.05004
8.732,0.03035
8.736,0.11455
8.74,0.27726
8.744,0.40561
8.748,0.57135
8.752,0.75363
8.756,0.92625
8.76,1.0418
8.764,1.00762
8.768,0.84145
8.772,0.66842
8.776,0.4228
8.78,0.17162
8.784,-0.0185
8.788,-0.10971
8.792,-0.19124
8.796,-0.15335
8.8,-0.10462
8.804,-0.0541
8.808,-0.00839
8.812,0.02572
8.816,-0.02867
8.82,0.05652
8.824,-0.01452
8.828,-0.02177
8.832,0.01688
8.836,-0.0063
8.84,0.06237
8.844,0.02216
8.848,0.06035
8.852,-0.01265
8.856,-0.04441
8.86,0.05437
8.864,0.01236
8.868,0.03166
8.872,-0.01564
8.876,0.07987
8.88,0.00776
8.884,0.00174
8.888,-0.00186
8.892,-0.0043
8.896,-0.02117
8.9,-0.00604
8.904,-0.02005
8.908,0.00233
8.912,-0.01589
8.916,0.07075
8.92,-0.02885
8.924,0.01974
8.928,-0.00531
8.932,0.00485
8.936,0.04984
8.94,0.04238
8.944,0.01769
8.948,0.02933
8.952,0.06677
8.956,0.09539
8.96,0.13419
8.964,0.08174
8.968,0.1173
8.972,0.04736
8.976,0.06012
8.98,0.15484
8.984,0.06916
8.988,0.13546
8.992,0.10971
8.996,0.16957
9.0,0.1853
9.004,0.09754
9.008,0.12525
9.012,0.16813
9.016,0.25591
9.02,0.1275
9.024,0.19991
9.028,0.28677
9.032,0.30821
9.036,0.21765
9.04,0.27944
9.044,0.27485
9.048,0.33646
9.052,0.20861
9.056,0.3003
9.06,0.34133
9.064,0.31341
9.068,0.22228
9.072,0.33308
9.076,0.3458
9.08,0.31743
9.084,0.22771
9.088,0.22926
9.092,0.3002
9.096,0.22124
9.1,0.15171
9.104,0.12835
9.108,0.16569
9.112,0.11857
9.116,0.14155
9.12,-0.01968
9.124,0.08567
9.128,0.04446
9.132,0.07951
9.136,0.05954
9.14,0.00189
9.144,-0.00392
9.148,-0.01764
9.152,0.04862
9.156,0.0342
9.16,-0.01173
9.164,-0.023
9.168,0.034
9.172,0.03088
9.176,0.05989
9.18,0.06236
9.184,-0.02816
9.188,0.02943
9.192,-0.00928
9.196,0.00753
9.2,-0.12346
9.204,-0.10917
9.208,-0.08304
9.212,-0.00969
9.216,0.07982
9.22,0.39928
9.224,0.4791
9.228,0.80956
9.232,0.93014
9.236,1.01347
9.24,0.96777
9.244,0.84585
9.248,0.64798
9.252,0.36694
9.256,0.20177
9.26,-0.06619
9.264,-0.09815
9.268,-0.10759
9.272,-0.07269
9.276,-0.12885
9.28,-0.07224
9.284,-0.02744
9.288,-0.02536
9.292,-0.07127
9.296,0.02657
9.3,-0.01243
9.304,0.02334
9.308,0.02498
9.312,0.06982
9.316,0.0097
9.32,-0.02198
9.324,-0.00276
9.328,0.01254
9.332,0.08299
9.336,-0.00113
9.34,-0.04391
9.344,0.0304
9.348,-0.00075
9.352,-0.01726
9.356,0.0015
9.36,0.03285
9.364,0.02265
9.368,-0.01862
9.372,0.01555
9.376,0.022
9.38,0.06212
9.384,0.01582
9.388,-0.00111
9.392,0.00806
9.396,0.06661
9.4,0.0295
9.404,0.05917
9.408,0.07647
9.412,0.07962
9.416,-0.00865
9.42,0.03737
9.424,0.06602
9.428,0.07551
9.432,0.05437
9.436,0.11055
9.44,0.0899
9.444,0.0614
9.448,0.13728
9.452,0.06929
9.456,0.09953
9.46,0.12555
9.464,0.1844
9.468,0.16371
9.472,0.16812
9.476,0.169
9.48,0.17562
9.484,0.21832
9.488,0.22966
9.492,0.20066
9.496,0.20617
9.5,0.23139
9.504,0.20823
9.508,0.25228
9.512,0.20327
9.516,0.21564
9.52,0.31206
9.524,0.22077
9.528,0.1757
9.532,0.19436
9.536,0.19565
9.54,0.2513
9.544,0.18498
9.548,0.21896
9.552,0.21439
9.556,0.16994
9.56,0.20732
9.564,0.15549
9.568,0.16012
9.572,0.16814
9.576,0.13315
9.58,0.12159
9.584,0.07942
9.588,0.06589
9.592,0.12021
9.596,0.05419
9.6,0.03788
9.604,0.05954
9.608,0.04617
9.612,0.06674
9.616,0.00277
9.62,0.015
9.624,0.00341
9.628,0.01464
9.632,0.0142
9.636,0.03086
9.64,0.04505
9.644,0.0196
9.648,0.01379
9.652,-0.00404
9.656,0.00073
9.66,0.03631
9.664,0.03633
9.668,0.03684
9.672,0.08925
9.676,0.03098
9.68,0.12861
9.684,0.04389
9.688,0.04244
9.692,0.02519
9.696,0.09819
9.7,0.08941
9.704,0.12815
9.708,0.12647
9.712,0.13309
9.716,0.06302
9.72,0.12657
9.724,0.15319
9.728,0.1295
9.732,0.13303
9.736,0.07842
9.74,0.05299
9.744,0.11845
9.748,0.06121
9.752,0.06533
9.756,0.03158
9.76,0.0098
9.764,0.03757
9.768,0.0433
9.772,0.08266
9.776,0.04077
9.78,0.02259
9.784,0.11816
9.788,0.01398
9.792,-0.02629
9.796,0.01349
9.8,-0.0193
9.804,-0.03596
9.808,0.07293
9.812,-0.04633
9.816,0.0366
9.82,0.02365
9.824,-0.028
9.828,0.04562
9.832,0.02581
9.836,0.01748
9.84,0.00957
9.844,-0.07405
9.848,-0.13805
9.852,-0.09201
9.856,-0.06086
9.86,0.14644
9.864,0.22344
9.868,0.26185
9.872,0.42226
9.876,0.42946
9.88,0.48899
9.884,0.42802
9.888,0.43571
9.892,0.205
9.896,0.13309
9.9,0.06115
9.904,-0.07635
9.908,-0.15275
9.912,-0.16058
9.916,-0.19206
9.92,-0.17221
9.924,-0.01812
9.928,-0.02314
9.932,-0.00468
9.936,0.07421
9.94,0.03321
9.944,0.05561
9.948,0.03547
9.952,-0.01795
9.956,0.03516
9.96,0.02687
9.964,0.01041
9.968,0.04955
9.972,0.07382
9.976,0.04763
9.98,-0.01169
9.984,0.01178
9.988,0.02605
9.992,-0.00156
9.996,-0.00097
