t_seg,ecg_mV
0.0,-0.09575
0.004,-0.11422
0.008,-0.05123
0.012,0.0361
0.016,0.24151
0.02,0.45723
0.024,0.63106
0.028,0.84688
0.032,0.97785
0.036,1.03386
0.04,0.95834
0.044,0.78751
0.048,0.56402
0.052,0.32409
0.056,0.13658
0.06,-0.02046
0.064,-0.1193
0.068,-0.1556
0.072,-0.12579
0.076,-0.08841
0.08,-0.05603
0.084,0.00309
0.088,0.01726
0.092,0.04761
0.096,0.00527
0.1,0.02618
0.104,0.03293
0.108,0.02334
0.112,0.03919
0.116,0.0374
0.12,0.0099
0.124,0.02689
0.128,0.00702
0.132,0.0325
0.136,0.02815
0.14,0.03041
0.144,0.04406
0.148,0.03407
0.152,0.0352
0.156,0.0428
0.16,0.01805
0.164,0.04175
0.168,0.01067
0.172,0.02405
0.176,0.01925
0.18,0.01502
0.184,0.00265
0.188,0.03021
0.192,0.02328
0.196,0.03004
0.2,0.03986
0.204,0.02096
0.208,0.03094
0.212,0.06654
0.216,0.04774
0.22,0.02927
0.224,0.05447
0.228,0.0758
0.232,0.05237
0.236,0.07918
0.24,0.06567
0.244,0.09869
0.248,0.08036
0.252,0.11086
0.256,0.10625
0.26,0.13206
0.264,0.14239
0.268,0.12695
0.272,0.13547
0.276,0.1851
0.28,0.19426
0.284,0.19621
0.288,0.1804
0.292,0.22068
0.296,0.2217
0.3,0.24786
0.304,0.24265
0.308,0.24959
0.312,0.22379
0.316,0.28078
0.32,0.20978
0.324,0.20889
0.328,0.24871
0.332,0.23053
0.336,0.22198
0.34,0.21076
0.344,0.22096
0.348,0.2008
0.352,0.1786
0.356,0.16908
0.36,0.17455
0.364,0.13095
0.368,0.12204
0.372,0.09965
0.376,0.10051
0.38,0.0962
0.384,0.0717
0.388,0.09368
0.392,0.05785
0.396,0.07331
0.4,0.07016
0.404,0.04906
0.408,0.03704
0.412,0.05006
0.416,0.06172
0.42,0.03783
0.424,0.04513
0.428,0.03152
0.432,0.04382
0.436,0.0257
0.44,0.03158
0.444,0.00334
0.448,0.00983
0.452,0.02389
0.456,0.03445
0.46,0.02042
0.464,0.03726
0.468,0.03666
0.472,0.01443
0.476,0.01884
0.48,0.00502
0.484,0.0197
0.488,0.02865
0.492,0.00571
0.496,0.01844
0.5,0.0213
0.504,0.01501
0.508,0.03769
0.512,0.04142
0.516,0.02466
0.52,0.02319
0.524,0.04094
0.528,0.02458
0.532,0.01304
0.536,0.02293
0.54,0.01675
0.544,0.02308
0.548,0.00745
0.552,0.0132
0.556,-0.00419
0.56,-0.00932
0.564,0.04528
0.568,0.02816
0.572,0.00977
0.576,0.03002
0.58,0.03628
0.584,0.00132
0.588,0.01612
0.592,0.03141
0.596,0.026
0.6,0.01557
0.604,0.0342
0.608,0.01516
0.612,0.02885
0.616,0.01107
0.62,-0.00372
0.624,0.00813
0.628,0.0209
0.632,0.03314
0.636,0.02311
0.64,0.03331
0.644,0.04837
0.648,-0.00477
0.652,0.01804
0.656,-0.00521
0.66,0.02558
0.664,0.02574
0.668,0.02218
0.672,0.00518
0.676,0.02448
0.68,0.03488
0.684,0.00941
0.688,0.03499
0.692,0.03182
0.696,0.06755
0.7,0.05246
0.704,0.08324
0.708,0.08454
0.712,0.09332
0.716,0.13047
0.72,0.1239
0.724,0.10725
0.728,0.10651
0.732,0.11238
0.736,0.07886
0.74,0.08775
0.744,0.06737
0.748,0.06774
0.752,0.04999
0.756,0.04105
0.76,0.02185
0.764,0.03258
0.768,0.02883
0.772,-0.00244
0.776,0.01745
0.78,-0.007
0.784,0.00773
0.788,-0.00608
0.792,-0.00092
0.796,0.03213
0.8,0.03273
0.804,-0.00475
0.808,0.00817
0.812,-0.01981
0.816,0.0253
0.82,0.0003
0.824,-0.00206
0.828,-0.01403
0.832,0.02354
0.836,0.00592
0.84,-0.02864
0.844,-0.06966
0.848,-0.09917
0.852,-0.08819
0.856,-0.05125
0.86,0.07235
0.864,0.21779
0.868,0.39884
0.872,0.62721
0.876,0.85982
0.88,0.9572
0.884,0.97702
0.888,0.92475
0.892,0.7682
0.896,0.52766
0.9,0.31859
0.904,0.10622
0.908,-0.03021
0.912,-0.14297
0.916,-0.16531
0.92,-0.10934
0.924,-0.10881
0.928,-0.06071
0.932,-0.01901
0.936,-0.00527
0.94,-0.02594
0.944,0.00951
0.948,0.0104
0.952,0.03735
0.956,-0.02105
0.96,0.01307
0.964,0.0233
0.968,0.03116
0.972,-0.00723
0.976,0.01166
0.98,0.00617
0.984,0.01257
0.988,-0.00998
0.992,-0.01037
0.996,0.03348
1.0,0.0037
1.004,0.02355
1.008,0.00214
1.012,0.01794
1.016,0.01431
1.02,0.01023
1.024,-0.03022
1.028,-0.01538
1.032,0.00226
1.036,-0.01172
1.04,0.02598
1.044,-0.00492
1.048,0.01897
1.052,0.00964
1.056,0.04436
1.06,0.01215
1.064,0.01989
1.068,0.0218
1.072,0.01416
1.076,0.03926
1.08,0.06734
1.084,0.06606
1.088,0.0442
1.092,0.03512
1.096,0.08233
1.1,0.08384
1.104,0.08836
1.108,0.11092
1.112,0.10707
1.116,0.13036
1.12,0.18669
1.124,0.14935
1.128,0.16427
1.132,0.17401
1.136,0.22312
1.14,0.19204
1.144,0.19509
1.148,0.1857
1.152,0.19955
1.156,0.22192
1.16,0.19433
1.164,0.20901
1.168,0.24021
1.172,0.21677
1.176,0.19006
1.18,0.22056
1.184,0.21265
1.188,0.17016
1.192,0.18232
1.196,0.14466
1.2,0.16825
1.204,0.15764
1.208,0.13896
1.212,0.09934
1.216,0.10655
1.22,0.11902
1.224,0.08189
1.228,0.07617
1.232,0.07301
1.236,0.06503
1.24,0.04131
1.244,0.0462
1.248,0.04395
1.252,0.0036
1.256,0.01742
1.26,0.03132
1.264,0.00279
1.268,-0.01605
1.272,-0.01126
1.276,0.01633
1.28,0.01311
1.284,0.0021
1.288,0.04487
1.292,0.0072
1.296,0.0049
1.3,0.0079
1.304,0.00093
1.308,-0.00672
1.312,0.02139
1.316,-0.02054
1.32,-0.02955
1.324,0.03035
1.328,0.02468
1.332,0.00022
1.336,0.00263
1.34,-0.01175
1.344,0.00322
1.348,0.00385
1.352,-0.00943
1.356,-0.02155
1.36,0.00099
1.364,0.01531
1.368,-0.01805
1.372,0.00836
1.376,0.00058
1.38,-0.0191
1.384,0.00902
1.388,-0.0021
1.392,0.00562
1.396,0.00547
1.4,0.00017
1.404,0.00773
1.408,0.00555
1.412,0.01398
1.416,0.00128
1.42,-0.00029
1.424,-0.01603
1.428,-0.02559
1.432,-0.00624
1.436,-0.0199
1.44,-0.00267
1.444,-0.00237
1.448,-0.00348
1.452,0.01071
1.456,0.01509
1.46,0.01483
1.464,0.02652
1.468,0.00572
1.472,0.00528
1.476,0.03199
1.48,-0.00352
1.484,-0.00269
1.488,-0.01144
1.492,0.00812
1.496,-0.0213
1.5,0.01975
1.504,0.0147
1.508,0.0059
1.512,0.00297
1.516,-0.00535
1.52,-0.01812
1.524,0.00191
1.528,-0.02386
1.532,-0.0146
1.536,0.0099
1.54,-0.00052
1.544,0.00121
1.548,0.02457
1.552,-0.02099
1.556,-0.00651
1.56,0.01346
1.564,-0.01128
1.568,0.00271
1.572,-0.01098
1.576,0.00031
1.58,0.01512
1.584,-0.01352
1.588,-0.03514
1.592,0.00819
1.596,-0.01933
1.6,-0.01149
1.604,-0.0204
1.608,-0.02545
1.612,-0.02212
1.616,0.01239
1.62,0.00127
1.624,-0.00225
1.628,-0.00523
1.632,-0.0045
1.636,0.01319
1.64,0.0119
1.644,-0.00199
1.648,0.01831
1.652,0.00828
1.656,0.00459
1.66,-0.02963
1.664,-0.0186
1.668,0.00306
1.672,-0.00669
1.676,-0.01137
1.68,-0.01209
1.684,-0.0253
1.688,0.00644
1.692,0.00976
1.696,-0.03233
1.7,-0.01315
1.704,-0.01693
1.708,-0.01892
1.712,-0.02136
1.716,-0.01772
1.72,-0.01053
1.724,0.01743
1.728,0.01299
1.732,0.01453
1.736,0.0504
1.74,0.05927
1.744,0.07877
1.748,0.05795
1.752,0.08031
1.756,0.07791
1.76,0.09348
1.764,0.08696
1.768,0.07942
1.772,0.08705
1.776,0.03548
1.78,0.06837
1.784,0.00822
1.788,0.02885
1.792,-0.00535
1.796,0.00121
1.8,0.00743
1.804,-0.00625
1.808,-0.02121
1.812,-0.02794
1.816,-0.01329
1.82,-0.01187
1.824,0.01535
1.828,-0.02378
1.832,-0.01886
1.836,7e-05
1.84,-0.01623
1.844,-0.01988
1.848,-0.01848
1.852,-0.00888
1.856,-0.01399
1.86,-0.02836
1.864,-0.02852
1.868,-0.00189
1.872,-0.03351
1.876,-0.04222
1.88,-0.09691
1.884,-0.10808
1.888,-0.12852
1.892,-0.09109
1.896,0.0134
1.9,0.1381
1.904,0.34537
1.908,0.56446
1.912,0.77783
1.916,0.93035
1.92,0.98427
1.924,0.89924
1.928,0.7617
1.932,0.55282
1.936,0.32256
1.94,0.1591
1.944,-0.04345
1.948,-0.12247
1.952,-0.18405
1.956,-0.15796
1.96,-0.13751
1.964,-0.10252
1.968,-0.05197
1.972,-0.03155
1.976,-0.05067
1.98,-0.00688
1.984,-5e-05
1.988,-0.00347
1.992,-0.02717
1.996,-0.0062
2.0,-0.02484
2.004,-0.02765
2.008,-0.00071
2.012,0.00455
2.016,-0.00812
2.02,-0.02846
2.024,-0.00726
2.028,-0.01063
2.032,-0.00047
2.036,-0.00766
2.04,-0.00047
2.044,-0.02731
2.048,-0.02793
2.052,-0.04796
2.056,-1e-05
2.06,-0.02143
2.064,-0.01292
2.068,-0.00962
2.072,-0.02715
2.076,-0.01976
2.08,-0.02106
2.084,-0.01421
2.088,-0.00216
2.092,-0.01354
2.096,-0.01169
2.1,-0.03198
2.104,0.00561
2.108,0.0113
2.112,0.01024
2.116,0.0284
2.12,0.01725
2.124,0.03112
2.128,0.02949
2.132,0.02705
2.136,0.07136
2.14,0.05153
2.144,0.09279
2.148,0.08675
2.152,0.09824
2.156,0.12365
2.16,0.12341
2.164,0.14357
2.168,0.15111
2.172,0.1385
2.176,0.16443
2.18,0.17727
2.184,0.19642
2.188,0.20568
2.192,0.1934
2.196,0.196
2.2,0.20095
2.204,0.18781
2.208,0.18148
2.212,0.16245
2.216,0.18929
2.22,0.19328
2.224,0.16719
2.228,0.17152
2.232,0.14947
2.236,0.10474
2.24,0.10677
2.244,0.12113
2.248,0.10716
2.252,0.05914
2.256,0.10024
2.26,0.07549
2.264,0.03193
2.268,0.02847
2.272,0.04498
2.276,-0.0012
2.28,0.03902
2.284,0.01905
2.288,0.02724
2.292,0.01883
2.296,-0.00764
2.3,-0.00495
2.304,-0.02987
2.308,-0.02318
2.312,-0.01505
2.316,-0.01223
2.32,-0.02905
2.324,-0.02383
2.328,-0.02926
2.332,-0.02206
2.336,-0.0181
2.34,-0.01655
2.344,-0.00393
2.348,-0.03985
2.352,-0.02347
2.356,-0.02465
2.36,-0.03592
2.364,-0.04007
2.368,-0.00158
2.372,-0.03788
2.376,-0.02372
2.38,-0.0189
2.384,-0.02487
2.388,-0.02317
2.392,-0.02817
2.396,-0.03834
2.4,-0.01362
2.404,-0.01146
2.408,-0.03072
2.412,-0.02855
2.416,-0.01867
2.42,-0.03731
2.424,-0.04462
2.428,-0.01562
2.432,-0.02852
2.436,-0.04183
2.44,-0.00698
2.444,-0.06036
2.448,-0.02042
2.452,-0.03026
2.456,-0.01767
2.46,0.00114
2.464,-0.01752
2.468,-0.05311
2.472,-0.00828
2.476,-0.02599
2.48,-0.02532
2.484,-0.03442
2.488,-0.04929
2.492,-0.01997
2.496,-0.00942
2.5,-0.05287
2.504,-0.00433
2.508,-0.03243
2.512,-0.03913
2.516,-0.03099
2.52,-0.02235
2.524,-0.03734
2.528,-0.05006
2.532,-0.03771
2.536,-0.04164
2.54,-0.02721
2.544,-0.0245
2.548,-0.02089
2.552,-0.02861
2.556,-0.02056
2.56,-0.04934
2.564,-0.02294
2.568,-0.04376
2.572,-0.04893
2.576,-0.03963
2.58,-0.02556
2.584,-0.04389
2.588,-0.03007
2.592,-0.02749
2.596,-0.02162
2.6,-0.04303
2.604,-0.02527
2.608,-0.00371
2.612,-0.03701
2.616,-0.00497
2.62,-0.04618
2.624,-0.05501
2.628,-0.05979
2.632,-0.04467
2.636,-0.029
2.64,-0.03179
2.644,-0.02302
2.648,-0.03373
2.652,-0.02162
2.656,-0.03547
2.66,-0.03298
2.664,-0.04449
2.668,-0.03035
2.672,-0.05743
2.676,-0.01827
2.68,-0.02428
2.684,-0.00884
2.688,0.0257
2.692,0.01829
2.696,0.02667
2.7,0.08297
2.704,0.0465
2.708,0.07121
2.712,0.08356
2.716,0.05881
2.72,0.06897
2.724,0.0604
2.728,0.04799
2.732,0.05025
2.736,0.0208
2.74,-0.01566
2.744,-0.02254
2.748,-0.02104
2.752,-0.01651
2.756,-0.05026
2.76,-0.0073
2.764,-0.01706
2.768,-0.04365
2.772,-0.04169
2.776,-0.02061
2.78,-0.02382
2.784,-0.041
2.788,-0.041
2.792,-0.01532
2.796,-0.04122
2.8,-0.0575
2.804,-0.02824
2.808,-0.03864
2.812,-0.01355
2.816,-0.0463
2.82,-0.03011
2.824,-0.05536
2.828,-0.07853
2.832,-0.09214
2.836,-0.12484
2.84,-0.17609
2.844,-0.10323
2.848,-0.05975
2.852,0.10741
2.856,0.28776
2.86,0.50692
2.864,0.71122
2.868,0.88572
2.872,0.93249
2.876,0.94296
2.88,0.7973
2.884,0.56748
2.888,0.36808
2.892,0.14005
2.896,0.00327
2.9,-0.14111
2.904,-0.20236
2.908,-0.18251
2.912,-0.16709
2.916,-0.1055
2.92,-0.08868
2.924,-0.08315
2.928,-0.0232
2.932,-0.04702
2.936,-0.03128
2.94,-0.0448
2.944,-0.03907
2.948,-0.01851
2.952,-0.04012
2.956,-0.02945
2.96,-0.02909
2.964,-0.0424
2.968,-0.03544
2.972,-0.03029
2.976,-0.01501
2.98,-0.02956
2.984,-0.00938
2.988,-0.00968
2.992,-0.03499
2.996,-0.03753
3.0,-0.01139
3.004,0.00154
3.008,-0.00718
3.012,-0.00973
3.016,-0.01565
3.02,-0.04135
3.024,0.00141
3.028,-0.03012
3.032,-0.01504
3.036,-0.02493
3.04,-0.03857
3.044,0.00598
3.048,-0.04164
3.052,-0.01049
3.056,0.00395
3.06,-0.00319
3.064,-0.02338
3.068,0.00211
3.072,0.02371
3.076,0.01352
3.08,0.02808
3.084,0.04861
3.088,0.02933
3.092,0.0459
3.096,0.07283
3.1,0.07451
3.104,0.13183
3.108,0.11124
3.112,0.12729
3.116,0.12902
3.12,0.1346
3.124,0.15323
3.128,0.15587
3.132,0.17785
3.136,0.19801
3.14,0.22323
3.144,0.18242
3.148,0.18266
3.152,0.18195
3.156,0.17873
3.16,0.22059
3.164,0.19091
3.168,0.1595
3.172,0.15854
3.176,0.18049
3.18,0.13555
3.184,0.14394
3.188,0.14355
3.192,0.11489
3.196,0.11518
3.2,0.09493
3.204,0.10043
3.208,0.06803
3.212,0.05479
3.216,0.04404
3.22,0.02284
3.224,0.07505
3.228,0.01237
3.232,0.02622
3.236,-0.0131
3.24,0.02495
3.244,-0.01776
3.248,0.01918
3.252,-0.01828
3.256,-0.00048
3.26,-0.01905
3.264,-0.02859
3.268,-0.03172
3.272,-0.02099
3.276,-0.03992
3.28,-0.02172
3.284,-0.0211
3.288,-0.02786
3.292,-0.02036
3.296,-0.01291
3.3,-0.0553
3.304,-0.05402
3.308,-0.00842
3.312,-0.03777
3.316,-0.03935
3.32,-0.04673
3.324,-0.04008
3.328,-0.07155
3.332,-0.05775
3.336,-0.01816
3.34,-0.02896
3.344,-0.01753
3.348,-0.01465
3.352,-0.04641
3.356,-0.03545
3.36,-0.03311
3.364,-0.00554
3.368,-0.02167
3.372,-0.02956
3.376,-0.05839
3.38,-0.03175
3.384,-0.05508
3.388,-0.04588
3.392,-0.03912
3.396,-0.04217
3.4,-0.03318
3.404,-0.0192
3.408,0.01604
3.412,-0.03994
3.416,-0.00933
3.42,-0.02562
3.424,-0.00393
3.428,-0.01019
3.432,0.01198
3.436,0.01385
3.44,0.03601
3.444,0.0873
3.448,0.03802
3.452,0.0723
3.456,0.06782
3.46,0.05685
3.464,0.03848
3.468,0.05902
3.472,0.07457
3.476,0.07474
3.48,0.04008
3.484,0.04126
3.488,0.00446
3.492,0.00996
3.496,0.03168
3.5,-0.02307
3.504,0.00515
3.508,0.00431
3.512,-0.01963
3.516,-0.00786
3.52,-0.0164
3.524,-0.03109
3.528,-0.04403
3.532,-0.04388
3.536,-0.04661
3.54,-0.0468
3.544,-0.01595
3.548,-0.0398
3.552,-0.05651
3.556,-0.02931
3.56,-0.03747
3.564,-0.01654
3.568,-0.04098
3.572,-0.05405
3.576,-0.02208
3.58,-0.07121
3.584,-0.12035
3.588,-0.13293
3.592,-0.12495
3.596,-0.08274
3.6,0.07989
3.604,0.24439
3.608,0.46512
3.612,0.68442
3.616,0.85218
3.62,0.95587
3.624,0.9608
3.628,0.8449
3.632,0.6729
3.636,0.41475
3.64,0.17761
3.644,0.00917
3.648,-0.10453
3.652,-0.17777
3.656,-0.20142
3.66,-0.15647
3.664,-0.14239
3.668,-0.06077
3.672,-0.04854
3.676,-0.03844
3.68,-0.00658
3.684,0.01492
3.688,-0.00303
3.692,-0.029
3.696,-0.04912
3.7,-0.04666
3.704,-0.01119
3.708,-0.02943
3.712,-0.02348
3.716,-0.04206
3.72,0.00285
3.724,-0.03455
3.728,-0.02515
3.732,-0.0233
3.736,-0.03372
3.74,-0.02527
3.744,-0.00964
3.748,-0.02969
3.752,-0.00935
3.756,-0.03177
3.76,-0.00308
3.764,-0.01918
3.768,-0.01355
3.772,-0.03384
3.776,-0.02885
3.78,-0.02983
3.784,-0.03797
3.788,-0.02035
3.792,-0.00944
3.796,0.02816
3.8,0.0162
3.804,-0.01422
3.808,-0.01465
3.812,0.0021
3.816,0.01146
3.82,0.01531
3.824,0.03773
3.828,0.02195
3.832,0.02786
3.836,0.05379
3.84,0.05367
3.844,0.08637
3.848,0.09462
3.852,0.13345
3.856,0.12812
3.86,0.13435
3.864,0.12681
3.868,0.13946
3.872,0.13398
3.876,0.15431
3.88,0.17807
3.884,0.18534
3.888,0.20668
3.892,0.21426
3.896,0.17241
3.9,0.20364
3.904,0.19839
3.908,0.21155
3.912,0.20585
3.916,0.19805
3.92,0.16947
3.924,0.16554
3.928,0.1684
3.932,0.13997
3.936,0.14033
3.94,0.12172
3.944,0.12499
3.948,0.12167
3.952,0.08061
3.956,0.10457
3.96,0.06779
3.964,0.08133
3.968,0.05887
3.972,0.094
3.976,0.02333
3.98,0.04875
3.984,0.04051
3.988,0.01477
3.992,0.01068
3.996,-0.00034
4.0,-0.00943
4.004,-0.00143
4.008,-0.02247
4.012,0.00753
4.016,-0.01752
4.02,-0.03259
4.024,-0.02745
4.028,-0.0573
4.032,-0.00139
4.036,-0.01343
4.04,-0.01092
4.044,-0.01009
4.048,-0.0092
4.052,-0.01579
4.056,-0.03185
4.06,-0.03488
4.064,-0.0033
4.068,-0.01664
4.072,0.00342
4.076,-0.02703
4.08,-0.02202
4.084,-0.01991
4.088,-0.00522
4.092,-0.02702
4.096,-0.00487
4.1,0.00024
4.104,0.00409
4.108,-0.01247
4.112,0.00153
4.116,-0.00218
4.12,-0.00252
4.124,-0.00685
4.128,-0.01114
4.132,-0.01109
4.136,-0.02158
4.14,-0.00099
4.144,-0.00474
4.148,-0.00824
4.152,-0.00826
4.156,-0.00952
4.16,-0.0032
4.164,-0.02264
4.168,0.00227
4.172,-0.02901
4.176,-0.04767
4.18,-0.01104
4.184,-0.00264
4.188,0.01161
4.192,-0.00014
4.196,-0.016
4.2,-0.00636
4.204,-0.0239
4.208,-0.02366
4.212,-0.00092
4.216,-0.00459
4.22,-0.01579
4.224,-0.03366
4.228,-0.0006
4.232,0.00132
4.236,-0.00717
4.24,-0.02249
4.244,-0.0327
4.248,-0.02326
4.252,-0.00374
4.256,0.01447
4.26,0.00093
4.264,0.01839
4.268,-0.00822
4.272,0.0071
4.276,-0.01182
4.28,-0.0206
4.284,0.00283
4.288,0.00076
4.292,-0.02125
4.296,0.00023
4.3,0.00088
4.304,-0.00844
4.308,-0.03435
4.312,-0.04698
4.316,-0.00439
4.32,-0.01906
4.324,-0.03784
4.328,-0.00201
4.332,-0.0002
4.336,-0.0283
4.34,-0.02025
4.344,0.0168
4.348,0.01466
4.352,0.02155
4.356,0.00331
4.36,0.01085
4.364,-0.00539
4.368,0.02748
4.372,-0.01264
4.376,-0.01749
4.38,-0.02871
4.384,-0.03533
4.388,0.01431
4.392,0.00433
4.396,-0.00509
4.4,-0.0185
4.404,0.01325
4.408,-0.01756
4.412,0.02655
4.416,0.03648
4.42,0.02916
4.424,0.0702
4.428,0.08776
4.432,0.08186
4.436,0.07585
4.44,0.09317
4.444,0.10888
4.448,0.06969
4.452,0.0893
4.456,0.07723
4.46,0.07347
4.464,0.046
4.468,0.0386
4.472,0.01754
4.476,0.04696
4.48,0.0201
4.484,0.00573
4.488,0.02266
4.492,-0.02693
4.496,-0.00301
4.5,-0.00451
4.504,0.00532
4.508,0.0014
4.512,0.03486
4.516,0.00178
4.52,-0.01399
4.524,-0.02
4.528,0.0072
4.532,0.00911
4.536,-0.00464
4.54,-0.03205
4.544,0.00345
4.548,-0.01194
4.552,-0.01669
4.556,-0.05507
4.56,-0.00723
4.564,-0.0492
4.568,-0.11166
4.572,-0.15336
4.576,-0.08353
4.58,-0.03751
4.584,0.09288
4.588,0.29313
4.592,0.49312
4.596,0.71743
4.6,0.88812
4.604,1.00974
4.608,0.97191
4.612,0.86949
4.616,0.6652
4.62,0.41365
4.624,0.21449
4.628,0.02574
4.632,-0.095
4.636,-0.17552
4.64,-0.16169
4.644,-0.16561
4.648,-0.0649
4.652,-0.05538
4.656,-0.03227
4.66,-0.02406
4.664,0.03298
4.668,-0.00585
4.672,-0.02654
4.676,-0.00199
4.68,0.00844
4.684,0.00563
4.688,9e-05
4.692,0.01346
4.696,-0.00831
4.7,-0.00551
4.704,-0.02835
4.708,-0.00613
4.712,0.01726
4.716,-0.02286
4.72,-0.01702
4.724,-0.01282
4.728,0.00305
4.732,0.02145
4.736,-0.01929
4.74,0.02135
4.744,0.04586
4.748,-0.02183
4.752,0.03657
4.756,-0.01064
4.76,0.03237
4.764,-0.00484
4.768,0.00725
4.772,-0.01027
4.776,-0.0022
4.78,0.03844
4.784,0.00951
4.788,0.0291
4.792,0.0351
4.796,0.05557
4.8,0.03855
4.804,0.05869
4.808,0.04404
4.812,0.0658
4.816,0.07499
4.82,0.06755
4.824,0.08602
4.828,0.11723
4.832,0.09299
4.836,0.09627
4.84,0.14065
4.844,0.12649
4.848,0.16421
4.852,0.16502
4.856,0.1999
4.86,0.19857
4.864,0.20955
4.868,0.21043
4.872,0.23578
4.876,0.22429
4.88,0.23535
4.884,0.22971
4.888,0.19945
4.892,0.23358
4.896,0.24739
4.9,0.23399
4.904,0.22632
4.908,0.20895
4.912,0.18505
4.916,0.16864
4.92,0.17038
4.924,0.16941
4.928,0.15558
4.932,0.11967
4.936,0.12508
4.94,0.12128
4.944,0.11328
4.948,0.11335
4.952,0.09662
4.956,0.08471
4.96,0.07042
4.964,0.07686
4.968,0.04582
4.972,0.03767
4.976,0.04258
4.98,0.01789
4.984,0.06715
4.988,0.0192
4.992,0.0181
4.996,0.00493
5.0,0.00673
5.004,0.01066
5.008,-0.00292
5.012,0.02157
5.016,0.02361
5.02,0.02772
5.024,0.01492
5.028,0.03125
5.032,-0.0052
5.036,-0.0121
5.04,0.02832
5.044,0.01299
5.048,0.03099
5.052,0.04173
5.056,0.0125
5.06,0.01891
5.064,0.02537
5.068,0.03604
5.072,0.01385
5.076,-0.01318
5.08,0.01805
5.084,0.00188
5.088,0.00915
5.092,-0.00478
5.096,0.01422
5.1,0.0554
5.104,0.03331
5.108,0.00883
5.112,0.03285
5.116,0.04373
5.12,0.01614
5.124,0.00037
5.128,0.02078
5.132,0.03802
5.136,0.0071
5.14,0.04223
5.144,0.01602
5.148,0.02561
5.152,-0.00636
5.156,0.03339
5.16,0.00773
5.164,-0.00644
5.168,0.02276
5.172,0.00517
5.176,0.00965
5.18,-0.00109
5.184,0.06116
5.188,0.04365
5.192,0.0427
5.196,0.05306
5.2,0.05182
5.204,0.063
5.208,0.08519
5.212,0.0797
5.216,0.09245
5.22,0.10369
5.224,0.11339
5.228,0.09299
5.232,0.13249
5.236,0.09171
5.24,0.09969
5.244,0.06571
5.248,0.07778
5.252,0.05729
5.256,0.08775
5.26,0.0363
5.264,0.03719
5.268,0.06879
5.272,0.00126
5.276,0.01681
5.28,-0.00821
5.284,0.02585
5.288,0.01149
5.292,0.0101
5.296,0.02381
5.3,0.02274
5.304,0.01753
5.308,0.02116
5.312,0.04142
5.316,0.00482
5.32,0.02644
5.324,0.01207
5.328,0.01522
5.332,0.02382
5.336,-0.00196
5.34,0.01849
5.344,-0.05068
5.348,-0.07182
5.352,-0.12754
5.356,-0.09698
5.36,-0.03806
5.364,0.13154
5.368,0.31464
5.372,0.53562
5.376,0.72112
5.38,0.92114
5.384,0.9996
5.388,0.99412
5.392,0.86463
5.396,0.67593
5.4,0.45467
5.404,0.24177
5.408,0.05182
5.412,-0.07233
5.416,-0.1347
5.42,-0.14486
5.424,-0.12083
5.428,-0.08104
5.432,-0.0634
5.436,-0.01449
5.44,0.0068
5.444,-0.01389
5.448,0.03848
5.452,0.01153
5.456,0.02804
5.46,0.01303
5.464,-0.01021
5.468,0.02493
5.472,-0.0173
5.476,0.01176
5.48,0.0298
5.484,0.03452
5.488,0.00936
5.492,0.02168
5.496,0.01385
5.5,0.01402
5.504,0.01442
5.508,0.01929
5.512,0.05351
5.516,0.03056
5.52,0.04738
5.524,0.03848
5.528,0.03082
5.532,0.02749
5.536,0.02282
5.54,0.02996
5.544,0.01377
5.548,0.02736
5.552,0.0167
5.556,0.01815
5.56,0.05002
5.564,0.00697
5.568,0.05255
5.572,0.07527
5.576,0.06063
5.58,0.02757
5.584,0.08446
5.588,0.07378
5.592,0.08282
5.596,0.09734
5.6,0.07394
5.604,0.12278
5.608,0.10408
5.612,0.10285
5.616,0.13564
5.62,0.15086
5.624,0.12738
5.628,0.1891
5.632,0.20089
5.636,0.18611
5.64,0.21629
5.644,0.20116
5.648,0.22601
5.652,0.23181
5.656,0.23756
5.66,0.2662
5.664,0.24903
5.668,0.25193
5.672,0.21086
5.676,0.21882
5.68,0.25525
5.684,0.20676
5.688,0.20766
5.692,0.21406
5.696,0.19937
5.7,0.18442
5.704,0.17201
5.708,0.16439
5.712,0.15325
5.716,0.1787
5.72,0.12607
5.724,0.12997
5.728,0.13147
5.732,0.11123
5.736,0.12544
5.74,0.07411
5.744,0.08689
5.748,0.08573
5.752,0.06956
5.756,0.04598
5.76,0.06629
5.764,0.05886
5.768,0.0352
5.772,0.05047
5.776,0.04638
5.78,0.04716
5.784,0.01094
5.788,0.034
5.792,0.03654
5.796,0.04078
5.8,0.01429
5.804,0.04632
5.808,-0.01064
5.812,0.02241
5.816,0.0321
5.82,0.04161
5.824,0.01064
5.828,0.01785
5.832,0.02859
5.836,0.01871
5.84,0.0423
5.844,0.00423
5.848,0.04305
5.852,0.04205
5.856,0.0567
5.86,0.04216
5.864,0.01096
5.868,0.02117
5.872,0.02953
5.876,0.01464
5.88,0.01147
5.884,0.02094
5.888,0.01516
5.892,0.00284
5.896,0.00961
5.9,0.03308
5.904,0.02087
5.908,0.03144
5.912,0.0494
5.916,0.02959
5.92,0.01896
5.924,0.02416
5.928,0.03753
5.932,0.04661
5.936,0.04098
5.94,0.02516
5.944,0.02167
5.948,0.0367
5.952,0.04612
5.956,0.04996
5.96,0.06904
5.964,0.04812
5.968,0.07763
5.972,0.07316
5.976,0.11168
5.98,0.09662
5.984,0.12915
5.988,0.14665
5.992,0.13659
5.996,0.12742
6.0,0.1261
6.004,0.09962
6.008,0.08374
6.012,0.07845
6.016,0.07861
6.02,0.07961
6.024,0.04147
6.028,0.03037
6.032,0.03098
6.036,0.05549
6.04,0.03542
6.044,0.04039
6.048,0.0439
6.052,0.02093
6.056,0.03838
6.06,0.06301
6.064,0.02671
6.068,0.01836
6.072,0.02039
6.076,0.01543
6.08,0.00417
6.084,0.02532
6.088,0.03878
6.092,0.03018
6.096,0.03788
6.1,0.04589
6.104,0.03237
6.108,0.01803
6.112,-0.0284
6.116,-0.07396
6.12,-0.09759
6.124,-0.08796
6.128,0.01756
6.132,0.14384
6.136,0.33224
6.14,0.56987
6.144,0.75218
6.148,0.91425
6.152,1.02485
6.156,1.00334
6.16,0.86561
6.164,0.63209
6.168,0.43925
6.172,0.22143
6.176,0.04052
6.18,-0.11805
6.184,-0.1233
6.188,-0.13292
6.192,-0.07034
6.196,-0.05094
6.2,-0.01735
6.204,-0.00309
6.208,0.01936
6.212,0.01683
6.216,0.02263
6.22,0.03088
6.224,0.01937
6.228,0.02051
6.232,0.04814
6.236,0.03042
6.24,0.02935
6.244,0.05047
6.248,0.01234
6.252,0.00824
6.256,0.0554
6.26,0.04392
6.264,0.02513
6.268,0.03485
6.272,0.01064
6.276,0.0063
6.28,0.07153
6.284,0.01498
6.288,0.01582
6.292,0.00928
6.296,0.00874
6.3,0.05291
6.304,0.02313
6.308,0.03739
6.312,0.03696
6.316,0.04079
6.32,0.04772
6.324,0.06416
6.328,0.04581
6.332,0.06492
6.336,0.04833
6.34,0.0556
6.344,0.0751
6.348,0.07046
6.352,0.04901
6.356,0.06626
6.36,0.06894
6.364,0.08934
6.368,0.10645
6.372,0.1241
6.376,0.11872
6.38,0.13821
6.384,0.15222
6.388,0.16709
6.392,0.16444
6.396,0.20709
6.4,0.20048
6.404,0.1887
6.408,0.20771
6.412,0.24785
6.416,0.23078
6.42,0.25218
6.424,0.23775
6.428,0.23512
6.432,0.26014
6.436,0.21944
6.44,0.25701
6.444,0.26093
6.448,0.21909
6.452,0.23985
6.456,0.22708
6.46,0.18713
6.464,0.22802
6.468,0.17811
6.472,0.17796
6.476,0.16027
6.48,0.16456
6.484,0.13904
6.488,0.17576
6.492,0.13144
6.496,0.07327
6.5,0.08161
6.504,0.09746
6.508,0.08166
6.512,0.10201
6.516,0.04996
6.52,0.03314
6.524,0.0606
6.528,0.05744
6.532,0.04813
6.536,0.04822
6.54,0.04039
6.544,0.05458
6.548,0.03998
6.552,0.01045
6.556,0.05056
6.56,0.00382
6.564,0.02243
6.568,0.01489
6.572,0.0277
6.576,0.02621
6.58,0.06104
6.584,0.00035
6.588,0.03714
6.592,0.04795
6.596,0.00743
6.6,0.01929
6.604,0.0396
6.608,0.01945
6.612,0.02804
6.616,0.01856
6.62,0.02302
6.624,0.03006
6.628,0.02852
6.632,0.00895
6.636,0.02729
6.64,0.02794
6.644,0.03888
6.648,0.04456
6.652,0.01227
6.656,0.00958
6.66,0.04985
6.664,0.012
6.668,0.03439
6.672,0.02151
6.676,0.00532
6.68,0.02483
6.684,0.05247
6.688,0.05107
6.692,0.0201
6.696,0.03332
6.7,0.01672
6.704,0.05005
6.708,0.03734
6.712,0.00212
6.716,0.03727
6.72,0.0221
6.724,0.01603
6.728,0.02817
6.732,0.01779
6.736,0.0033
6.74,0.01387
6.744,0.02064
6.748,0.02284
6.752,0.03432
6.756,0.00362
6.76,0.03584
6.764,0.01256
6.768,-0.00531
6.772,0.03132
6.776,0.01766
6.78,0.02317
6.784,0.03138
6.788,0.02656
6.792,0.0126
6.796,0.03263
6.8,0.04079
6.804,0.03263
6.808,0.05197
6.812,0.04541
6.816,0.01197
6.82,0.04001
6.824,0.06059
6.828,0.03136
6.832,0.04347
6.836,0.01436
6.84,0.01721
6.844,0.04086
6.848,0.01245
6.852,0.02076
6.856,0.0439
6.86,0.01729
6.864,0.05654
6.868,0.03775
6.872,0.02295
6.876,-0.00388
6.88,0.035
6.884,0.03085
6.888,0.03776
6.892,0.06614
6.896,0.05535
6.9,0.06786
6.904,0.09701
6.908,0.10653
6.912,0.12257
6.916,0.08501
6.92,0.08342
6.924,0.12393
6.928,0.13826
6.932,0.1155
6.936,0.1369
6.94,0.09812
6.944,0.0731
6.948,0.05584
6.952,0.05717
6.956,0.03923
6.96,0.05196
6.964,0.05154
6.968,0.04104
6.972,0.03796
6.976,0.05601
6.98,0.03224
6.984,0.03292
6.988,0.01881
6.992,0.02151
6.996,0.04682
7.0,0.04747
7.004,0.01109
7.008,0.02872
7.012,0.0286
7.016,0.02513
7.02,0.02808
7.024,-0.0008
7.028,0.00295
7.032,0.02524
7.036,-0.01448
7.04,-0.02796
7.044,-0.03281
7.048,-0.07344
7.052,-0.06417
7.056,0.00611
7.06,0.11323
7.064,0.28262
7.068,0.51692
7.072,0.6966
7.076,0.88966
7.08,1.01198
7.084,1.02031
7.088,0.88014
7.092,0.72195
7.096,0.49715
7.1,0.24434
7.104,0.07195
7.108,-0.07246
7.112,-0.14393
7.116,-0.13359
7.12,-0.13758
7.124,-0.07895
7.128,-0.02335
7.132,-0.02006
7.136,0.03577
7.14,0.02864
7.144,0.01038
7.148,0.02251
7.152,0.01436
7.156,0.02234
7.16,0.00949
7.164,0.01402
7.168,0.02504
7.172,0.02583
7.176,0.01955
7.18,0.02236
7.184,0.022
7.188,-0.00555
7.192,0.05062
7.196,0.0215
7.2,0.02089
7.204,-0.00636
7.208,0.0231
7.212,0.02033
7.216,0.03078
7.22,0.02829
7.224,0.031
7.228,0.02851
7.232,0.02939
7.236,0.02521
7.24,0.03679
7.244,0.02013
7.248,0.03796
7.252,0.03191
7.256,-0.00822
7.26,0.03088
7.264,0.05367
7.268,0.03723
7.272,0.0477
7.276,0.05919
7.28,0.03449
7.284,0.06111
7.288,0.04973
7.292,0.10191
7.296,0.0932
7.3,0.09993
7.304,0.11273
7.308,0.14338
7.312,0.09995
7.316,0.1618
7.32,0.1573
7.324,0.19186
7.328,0.18213
7.332,0.18081
7.336,0.16077
7.34,0.21708
7.344,0.21993
7.348,0.24449
7.352,0.19964
7.356,0.25722
7.36,0.21199
7.364,0.22643
7.368,0.26226
7.372,0.20901
7.376,0.21917
7.38,0.21428
7.384,0.2074
7.388,0.20451
7.392,0.1818
7.396,0.13752
7.4,0.17632
7.404,0.16208
7.408,0.1395
7.412,0.12675
7.416,0.14914
7.42,0.1224
7.424,0.10837
7.428,0.10777
7.432,0.08964
7.436,0.06705
7.44,0.04341
7.444,0.07223
7.448,0.04589
7.452,0.03182
7.456,0.03803
7.46,0.04821
7.464,0.01566
7.468,0.0242
7.472,0.03352
7.476,0.01296
7.48,0.0448
7.484,0.01988
7.488,0.00059
7.492,-0.00339
7.496,0.02843
7.5,0.01469
7.504,0.01057
7.508,0.01855
7.512,0.00642
7.516,0.03386
7.52,0.01989
7.524,0.01391
7.528,0.02439
7.532,0.01317
7.536,0.01313
7.54,-0.00537
7.544,-0.01489
7.548,-0.0037
7.552,0.00939
7.556,0.0121
7.56,0.00815
7.564,-0.0089
7.568,0.0136
7.572,0.01776
7.576,0.0032
7.58,0.01163
7.584,-0.01344
7.588,-0.003
7.592,0.02244
7.596,-0.01012
7.6,0.00755
7.604,0.00406
7.608,0.03944
7.612,0.01855
7.616,0.00877
7.62,-0.02211
7.624,0.03281
7.628,0.00738
7.632,0.02687
7.636,-0.01321
7.64,-0.01139
7.644,-0.02056
7.648,0.0125
7.652,0.04298
7.656,0.00482
7.66,0.0092
7.664,0.01433
7.668,0.02916
7.672,0.02211
7.676,-0.00605
7.68,0.01041
7.684,0.01541
7.688,-0.00274
7.692,0.0352
7.696,0.01214
7.7,0.02118
7.704,0.00182
7.708,0.02984
7.712,0.00389
7.716,-0.00512
7.72,0.04114
7.724,0.02343
7.728,-0.01377
7.732,0.00252
7.736,0.00558
7.74,0.00476
7.744,0.01539
7.748,-0.01744
7.752,-0.00326
7.756,0.00085
7.76,0.00632
7.764,-0.0187
7.768,0.02925
7.772,0.00285
7.776,0.01054
7.78,0.00409
7.784,0.01906
7.788,0.02035
7.792,-0.01782
7.796,-0.006
7.8,-0.00851
7.804,0.00339
7.808,0.01069
7.812,0.03453
7.816,0.02281
7.82,0.00341
7.824,0.00174
7.828,-0.01996
7.832,0.00045
7.836,0.02868
7.84,0.02106
7.844,0.00336
7.848,-0.01281
7.852,-0.0015
7.856,-0.01714
7.86,0.00486
7.864,0.00565
7.868,0.00162
7.872,0.05244
7.876,0.03386
7.88,0.0509
7.884,0.07759
7.888,0.07517
7.892,0.09162
7.896,0.08732
7.9,0.1237
7.904,0.08495
7.908,0.10658
7.912,0.10718
7.916,0.06625
7.92,0.07481
7.924,0.05335
7.928,0.04788
7.932,0.05679
7.936,0.03272
7.94,0.01666
7.944,0.01774
7.948,0.00505
7.952,0.0123
7.956,0.00629
7.96,-0.01097
7.964,0.02063
7.968,0.00423
7.972,-0.01885
7.976,-0.00114
7.98,-0.02927
7.984,-0.01089
7.988,-0.00658
7.992,0.03392
7.996,-0.01513
8.0,0.00368
8.004,-0.01643
8.008,-0.01718
8.012,0.01084
8.016,-0.02399
8.02,-0.06991
8.024,-0.08741
8.028,-0.14313
8.032,-0.11251
8.036,-0.00978
8.04,0.1076
8.044,0.30431
8.048,0.53976
8.052,0.7627
8.056,0.91121
8.06,0.99074
8.064,0.96445
8.068,0.82584
8.072,0.64743
8.076,0.41139
8.08,0.17505
8.084,-0.00604
8.088,-0.12607
8.092,-0.18357
8.096,-0.17502
8.1,-0.13523
8.104,-0.09121
8.108,-0.05756
8.112,-0.0193
8.116,-0.00796
8.12,-0.00782
8.124,-0.00546
8.128,-0.00366
8.132,-0.01816
8.136,-0.01244
8.14,-0.00861
8.144,0.01485
8.148,-0.00383
8.152,0.01692
8.156,-0.03189
8.16,-0.02605
8.164,-0.02062
8.168,-0.00491
8.172,0.00267
8.176,0.00474
8.18,-0.04056
8.184,0.00737
8.188,-0.00677
8.192,-0.01066
8.196,0.01923
8.2,0.01201
8.204,-0.02071
8.208,0.00486
8.212,-0.01619
8.216,0.00328
8.22,0.02251
8.224,0.00567
8.228,0.01575
8.232,0.01276
8.236,-0.00354
8.24,0.03335
8.244,-0.01293
8.248,0.00595
8.252,0.03081
8.256,0.00247
8.26,0.02795
8.264,0.0516
8.268,0.04294
8.272,0.05249
8.276,0.05801
8.28,0.07688
8.284,0.08719
8.288,0.11889
8.292,0.08963
8.296,0.12469
8.3,0.14424
8.304,0.17452
8.308,0.14738
8.312,0.17305
8.316,0.17542
8.32,0.17188
8.324,0.19951
8.328,0.19513
8.332,0.20093
8.336,0.21769
8.34,0.20943
8.344,0.2222
8.348,0.19248
8.352,0.18027
8.356,0.18144
8.36,0.14844
8.364,0.19189
8.368,0.14984
8.372,0.15173
8.376,0.13415
8.38,0.15749
8.384,0.1529
8.388,0.10283
8.392,0.11201
8.396,0.12481
8.4,0.08626
8.404,0.06356
8.408,0.04834
8.412,0.03338
8.416,0.05681
8.42,0.05537
8.424,0.03112
8.428,0.01793
8.432,0.00662
8.436,0.01577
8.44,-0.01046
8.444,-0.00614
8.448,0.02415
8.452,-0.0175
8.456,0.00833
8.46,0.00425
8.464,-0.00031
8.468,-0.01754
8.472,0.00542
8.476,0.01893
8.48,-0.00299
8.484,-0.02054
8.488,-0.01912
8.492,-0.02462
8.496,-0.02734
8.5,-0.00967
8.504,-0.01527
8.508,-0.00933
8.512,-0.01916
8.516,-0.02753
8.52,0.03192
8.524,-0.01357
8.528,0.00279
8.532,-0.03027
8.536,-0.03323
8.54,-0.01705
8.544,-0.0077
8.548,-0.01068
8.552,-0.00746
8.556,-0.00324
8.56,0.00398
8.564,-0.02287
8.568,-0.0177
8.572,-0.01361
8.576,0.01759
8.58,-0.00264
8.584,-0.01254
8.588,-0.01753
8.592,-0.00894
8.596,0.01814
8.6,-0.0156
8.604,-0.04739
8.608,-0.02221
8.612,-0.02202
8.616,-0.03334
8.62,-0.03417
8.624,-0.02143
8.628,-0.04697
8.632,-0.02025
8.636,0.00471
8.64,0.00132
8.644,-0.01471
8.648,-0.00912
8.652,-0.04819
8.656,0.00814
8.66,0.00342
8.664,-0.00097
8.668,-0.01424
8.672,-0.0348
8.676,-0.03866
8.68,-0.04079
8.684,-0.03808
8.688,-0.01494
8.692,-0.01793
8.696,-0.03193
8.7,-0.01932
8.704,-0.01399
8.708,-0.01887
8.712,-0.01943
8.716,-0.00369
8.72,-0.00179
8.724,0.00573
8.728,-0.01167
8.732,0.00944
8.736,-0.00476
8.74,0.01542
8.744,0.02479
8.748,0.00148
8.752,0.03729
8.756,0.02606
8.76,0.03664
8.764,0.05291
8.768,0.08691
8.772,0.0632
8.776,0.06678
8.78,0.0883
8.784,0.08075
8.788,0.06679
8.792,0.03228
8.796,0.03739
8.8,0.04178
8.804,0.00532
8.808,0.00426
8.812,-0.00424
8.816,-0.02258
8.82,0.00189
8.824,-0.02284
8.828,0.00796
8.832,-0.04095
8.836,-0.01055
8.84,0.00135
8.844,-0.00831
8.848,-0.02384
8.852,-0.0343
8.856,-0.01437
8.86,-0.00392
8.864,-0.00667
8.868,-0.00915
8.872,0.00276
8.876,-0.03695
8.88,-0.03215
8.884,-0.02945
8.888,-0.01261
8.892,-0.06877
8.896,-0.06745
8.9,-0.11468
8.904,-0.13598
8.908,-0.03939
8.912,0.06329
8.916,0.20704
8.92,0.45116
8.924,0.65673
8.928,0.85835
8.932,0.96396
8.936,0.95022
8.94,0.85167
8.944,0.71795
8.948,0.46418
8.952,0.25638
8.956,0.04817
8.96,-0.07991
8.964,-0.16951
8.968,-0.19706
8.972,-0.19251
8.976,-0.1165
8.98,-0.11445
8.984,-0.04264
8.988,-0.0224
8.992,-0.01042
8.996,-0.07129
9.0,-0.05597
9.004,-0.01833
9.008,-0.03764
9.012,-0.02507
9.016,0.00495
9.02,-0.018
9.024,-0.02696
9.028,-0.02396
9.032,-0.02498
9.036,-0.02009
9.04,-0.03606
9.044,-0.02397
9.048,-0.03275
9.052,-0.02683
9.056,-0.0572
9.06,-0.02105
9.064,-0.03729
9.068,-0.00704
9.072,-0.04056
9.076,-0.04166
9.08,-0.04567
9.084,-0.00576
9.088,-0.01583
9.092,-0.0281
9.096,-0.02952
9.1,-0.01164
9.104,-0.01382
9.108,-0.04261
9.112,-0.00046
9.116,-0.02218
9.12,-0.00745
9.124,0.02606
9.128,0.01014
9.132,0.02005
9.136,0.00212
9.14,0.04544
9.144,0.03981
9.148,0.03247
9.152,0.06912
9.156,0.0773
9.16,0.05942
9.164,0.06991
9.168,0.10777
9.172,0.09636
9.176,0.12939
9.18,0.13666
9.184,0.15853
9.188,0.17156
9.192,0.15494
9.196,0.17483
9.2,0.19013
9.204,0.18005
9.208,0.16827
9.212,0.18194
9.216,0.1646
9.22,0.17057
9.224,0.20445
9.228,0.17328
9.232,0.18405
9.236,0.16746
9.24,0.14941
9.244,0.14058
9.248,0.148
9.252,0.11822
9.256,0.11367
9.26,0.08202
9.264,0.09769
9.268,0.06505
9.272,0.06739
9.276,0.06939
9.28,0.07016
9.284,0.0309
9.288,0.02027
9.292,-0.00458
9.296,0.02959
9.3,0.01552
9.304,0.00854
9.308,-0.02212
9.312,0.01242
9.316,-0.02318
9.32,-0.0125
9.324,-0.0164
9.328,-0.02032
9.332,0.00647
9.336,-0.03116
9.34,-0.01678
9.344,-0.06249
9.348,0.0011
9.352,-0.03111
9.356,-0.01597
9.36,-0.0139
9.364,-0.02801
9.368,-0.042
9.372,-0.0324
9.376,-0.01782
9.38,-0.01302
9.384,-0.03569
9.388,-0.02769
9.392,-0.03567
9.396,-0.04667
9.4,-0.05456
9.404,-0.03672
9.408,-0.04767
9.412,-0.01784
9.416,-0.05273
9.42,-0.04633
9.424,-0.01732
9.428,-0.00965
9.432,-0.04711
9.436,-0.01958
9.44,-0.03232
9.444,-0.02497
9.448,-0.0293
9.452,-0.0253
9.456,-0.0308
9.46,-0.01649
9.464,-0.0389
9.468,-0.0191
9.472,-0.02677
9.476,-0.02719
9.48,-0.01614
9.484,-0.02364
9.488,-0.01129
9.492,-0.02466
9.496,-0.01708
9.5,-0.03123
9.504,-0.03308
9.508,-0.03901
9.512,-0.02991
9.516,-0.02136
9.52,-0.06125
9.524,-0.04066
9.528,-0.026
9.532,-0.03763
9.536,-0.04233
9.54,-0.01479
9.544,-0.02907
9.548,-0.0247
9.552,-0.03182
9.556,-0.00894
9.56,-0.01933
9.564,-0.02896
9.568,-0.03256
9.572,-0.00872
9.576,-0.03052
9.58,-0.04303
9.584,-0.01535
9.588,-0.03866
9.592,-0.04384
9.596,-0.05317
9.6,-0.05722
9.604,-0.02225
9.608,-0.03598
9.612,-0.05334
9.616,-0.03984
9.62,-0.02761
9.624,-0.04262
9.628,-0.03532
9.632,-0.04532
9.636,-0.04184
9.64,-0.04559
9.644,-0.02037
9.648,-0.02384
9.652,-0.03125
9.656,-0.03708
9.66,-0.01257
9.664,-0.03441
9.668,-0.03971
9.672,0.00818
9.676,-0.04997
9.68,-0.00544
9.684,-0.03531
9.688,-0.03894
9.692,-0.03675
9.696,-0.02567
9.7,-0.03358
9.704,-0.04103
9.708,-0.02678
9.712,-0.01568
9.716,-0.04472
9.72,-0.00938
9.724,-0.02035
9.728,-0.03938
9.732,-0.00423
9.736,-0.03545
9.74,-0.03545
9.744,-0.0336
9.748,-0.0183
9.752,0.0004
9.756,-0.02185
9.76,-0.0206
9.764,-0.00532
9.768,-0.00594
9.772,-0.00122
9.776,0.00192
9.78,-0.00523
9.784,-0.00311
9.788,0.00108
9.792,-0.00235
9.796,0.03526
9.8,0.02949
9.804,0.07424
9.808,0.03915
9.812,0.05291
9.816,0.07461
9.82,0.06011
9.824,0.05382
9.828,0.06323
9.832,0.05472
9.836,0.0493
9.84,0.00454
9.844,0.00563
9.848,0.01639
9.852,-0.00967
9.856,-0.01345
9.86,0.00355
9.864,-0.02283
9.868,-0.04807
9.872,-0.06069
9.876,-0.02153
9.88,-0.04705
9.884,-0.02724
9.888,-0.03278
9.892,-0.01138
9.896,-0.01398
9.9,-0.04535
9.904,-0.04824
9.908,-0.02142
9.912,-0.02676
9.916,-0.04466
9.92,-0.04661
9.924,-0.04169
9.928,-0.04726
9.932,-0.09282
9.936,-0.07633
9.94,-0.12474
9.944,-0.13752
9.948,-0.1359
9.952,-0.04685
9.956,0.0855
9.96,0.28641
9.964,0.51164
9.968,0.72901
9.972,0.88442
9.976,0.95036
9.98,0.94419
9.984,0.84079
9.988,0.62129
9.992,0.39093
9.996,0.13665
