t_seg,ecg_mV
0.0,-0.01372
0.004,0.00144
0.008,-0.00322
0.012,-0.01059
0.016,-0.00192
0.02,0.03003
0.024,0.00522
0.028,0.00223
0.032,-0.02853
0.036,0.01091
0.04,-0.0058
0.044,-0.00618
0.048,0.00131
0.052,0.00437
0.056,-0.00465
0.06,-0.00047
0.064,0.0195
0.068,0.03064
0.072,-0.00066
0.076,0.02289
0.08,0.02897
0.084,0.01423
0.088,0.03174
0.092,0.04819
0.096,0.07172
0.1,0.0947
0.104,0.07851
0.108,0.1121
0.112,0.10776
0.116,0.11602
0.12,0.09173
0.124,0.07625
0.128,0.10094
0.132,0.06815
0.136,0.02969
0.14,0.02219
0.144,0.0274
0.148,0.03045
0.152,-0.02595
0.156,0.02294
0.16,0.02141
0.164,-0.0087
0.168,0.03808
0.172,-0.01353
0.176,-0.01436
0.18,-0.00691
0.184,0.00945
0.188,-0.00925
0.192,-0.01589
0.196,-0.00938
0.2,-0.00915
0.204,-0.01121
0.208,-0.00712
0.212,0.00137
0.216,0.01276
0.22,-0.01517
0.224,0.00464
0.228,-0.05869
0.232,-0.08154
0.236,-0.11098
0.24,-0.11455
0.244,-0.0239
0.248,0.08447
0.252,0.31061
0.256,0.47172
0.26,0.7079
0.264,0.88137
0.268,0.96646
0.272,0.97691
0.276,0.84394
0.28,0.6665
0.284,0.43497
0.288,0.19806
0.292,0.01157
0.296,-0.07837
0.3,-0.13623
0.304,-0.18854
0.308,-0.13856
0.312,-0.07685
0.316,-0.05032
0.32,-0.02434
0.324,-0.0556
0.328,0.00277
0.332,-0.01814
0.336,0.0178
0.34,-0.00036
0.344,0.0011
0.348,0.00329
0.352,-0.03001
0.356,-0.01908
0.36,-0.01568
0.364,-0.01565
0.368,-0.00412
0.372,-0.007
0.376,0.01167
0.38,0.00251
0.384,0.024
0.388,0.00546
0.392,0.00349
0.396,-0.00326
0.4,0.00702
0.404,-0.01808
0.408,-0.01917
0.412,-0.01783
0.416,0.01548
0.42,-0.01026
0.424,-0.00506
0.428,-0.00564
0.432,-0.00148
0.436,0.00856
0.44,0.0016
0.444,0.02333
0.448,-0.00779
0.452,0.03865
0.456,0.00573
0.46,0.0236
0.464,0.01945
0.468,0.06463
0.472,0.03119
0.476,0.05712
0.48,0.07116
0.484,0.06032
0.488,0.085
0.492,0.10148
0.496,0.05935
0.5,0.12167
0.504,0.10125
0.508,0.1461
0.512,0.14315
0.516,0.17774
0.52,0.15814
0.524,0.17392
0.528,0.18597
0.532,0.1598
0.536,0.20828
0.54,0.19075
0.544,0.231
0.548,0.19815
0.552,0.21364
0.556,0.20271
0.56,0.19878
0.564,0.20161
0.568,0.17943
0.572,0.18571
0.576,0.18629
0.58,0.1657
0.584,0.14096
0.588,0.11525
0.592,0.11294
0.596,0.10382
0.6,0.12087
0.604,0.09203
0.608,0.085
0.612,0.07386
0.616,0.03387
0.62,0.02492
0.624,0.03009
0.628,0.04276
0.632,0.02177
0.636,0.03774
0.64,-0.01781
0.644,-0.00262
0.648,-0.00963
0.652,-0.00607
0.656,0.01608
0.66,0.01246
0.664,-0.0098
0.668,0.0021
0.672,0.00107
0.676,0.00645
0.68,-0.00502
0.684,-0.01983
0.688,-0.01725
0.692,-0.01394
0.696,-0.03114
0.7,-0.01332
0.704,-0.0075
0.708,0.01916
0.712,-0.01925
0.716,0.0076
0.72,-0.03815
0.724,-0.01055
0.728,-0.01724
0.732,-0.01749
0.736,-0.00464
0.74,-0.0339
0.744,-0.02644
0.748,-0.00465
0.752,-0.02777
0.756,-0.01779
0.76,-0.00274
0.764,-0.02392
0.768,-0.01028
0.772,-0.01355
0.776,-0.0323
0.78,-0.00803
0.784,-0.03957
0.788,-0.00816
0.792,-0.01942
0.796,-0.02622
0.8,-0.02536
0.804,-0.02544
0.808,-0.02441
0.812,-0.03473
0.816,-0.04057
0.82,-0.03328
0.824,-0.04802
0.828,-0.01225
0.832,0.0116
0.836,-0.03729
0.84,-0.03476
0.844,-0.04456
0.848,-0.01414
0.852,0.00328
0.856,-0.03783
0.86,-0.03825
0.864,-0.02633
0.868,-0.02233
0.872,-0.01407
0.876,-0.05471
0.88,-0.03975
0.884,-0.00874
0.888,-0.03919
0.892,0.00573
0.896,-0.01662
0.9,-0.03015
0.904,0.00519
0.908,-0.0094
0.912,-0.01973
0.916,-0.02779
0.92,-0.02697
0.924,-0.02714
0.928,-0.01417
0.932,-0.03362
0.936,-0.04083
0.94,-0.01466
0.944,-0.03359
0.948,-0.04118
0.952,-0.0241
0.956,-0.00754
0.96,-0.04994
0.964,0.01112
0.968,-0.01629
0.972,-0.04289
0.976,-0.03015
0.98,-0.02747
0.984,-0.00719
0.988,-0.01201
0.992,-0.04481
0.996,-0.03564
1.0,-0.01861
1.004,-0.0554
1.008,-0.01752
1.012,-0.0344
1.016,-0.00974
1.02,-0.02439
1.024,-0.02258
1.028,-0.04694
1.032,-0.02989
1.036,-0.00139
1.04,-0.01956
1.044,-0.02194
1.048,-0.00746
1.052,-0.01039
1.056,-0.00697
1.06,0.00094
1.064,-0.02172
1.068,0.02371
1.072,-0.00241
1.076,0.05116
1.08,0.03836
1.084,0.08584
1.088,0.03789
1.092,0.05978
1.096,0.08204
1.1,0.04964
1.104,0.08518
1.108,0.06965
1.112,0.06287
1.116,0.05329
1.12,0.03112
1.124,-0.00728
1.128,-0.02362
1.132,-0.0112
1.136,-0.00632
1.14,-0.00751
1.144,-0.01567
1.148,-0.02427
1.152,-0.01901
1.156,-0.02311
1.16,-0.02067
1.164,-0.05292
1.168,-0.02507
1.172,-0.01943
1.176,-0.01951
1.18,-0.03714
1.184,-0.00832
1.188,-0.01912
1.192,-0.00768
1.196,-0.0225
1.2,-0.01602
1.204,-0.01086
1.208,-0.02685
1.212,-0.07967
1.216,-0.05761
1.22,-0.13376
1.224,-0.12408
1.228,-0.10971
1.232,-0.00672
1.236,0.1511
1.24,0.35993
1.244,0.53195
1.248,0.75294
1.252,0.90259
1.256,0.97332
1.26,0.90768
1.264,0.74265
1.268,0.54304
1.272,0.33873
1.276,0.113
1.28,-0.07804
1.284,-0.1614
1.288,-0.18349
1.292,-0.15106
1.296,-0.1121
1.3,-0.12958
1.304,-0.06615
1.308,-0.04189
1.312,-0.05801
1.316,-0.04066
1.32,-0.01829
1.324,-0.04723
1.328,-0.01957
1.332,-0.02427
1.336,-0.02636
1.34,-0.0224
1.344,-0.01965
1.348,-0.02689
1.352,-0.03034
1.356,0.01024
1.36,-0.05579
1.364,-0.03077
1.368,-0.00441
1.372,-0.0383
1.376,-0.01097
1.38,-0.03432
1.384,-0.04468
1.388,-0.03403
1.392,-0.04243
1.396,-0.01983
1.4,-0.01211
1.404,0.00155
1.408,-0.03858
1.412,-0.03604
1.416,-0.01521
1.42,-0.03272
1.424,-0.00794
1.428,0.00232
1.432,-0.03178
1.436,-0.02316
1.44,-0.02828
1.444,-0.00465
1.448,0.01716
1.452,0.03137
1.456,-0.00292
1.46,0.0302
1.464,0.0187
1.468,0.05965
1.472,0.0619
1.476,0.06138
1.48,0.09024
1.484,0.07984
1.488,0.08245
1.492,0.13235
1.496,0.12347
1.5,0.11604
1.504,0.13389
1.508,0.1434
1.512,0.15692
1.516,0.14471
1.52,0.15332
1.524,0.20165
1.528,0.19201
1.532,0.19597
1.536,0.17246
1.54,0.19664
1.544,0.18076
1.548,0.1656
1.552,0.18162
1.556,0.15233
1.56,0.19642
1.564,0.14982
1.568,0.12637
1.572,0.13533
1.576,0.08962
1.58,0.08327
1.584,0.11941
1.588,0.10428
1.592,0.06524
1.596,0.04731
1.6,0.06829
1.604,0.0527
1.608,0.01826
1.612,0.0348
1.616,0.02997
1.62,-0.01996
1.624,-0.01586
1.628,0.01772
1.632,-0.01197
1.636,0.00696
1.64,-0.03732
1.644,-0.00956
1.648,-0.00789
1.652,-0.0421
1.656,-0.03934
1.66,-0.03314
1.664,-0.01959
1.668,-0.02192
1.672,-0.0182
1.676,-0.01462
1.68,-0.0307
1.684,-0.04203
1.688,-0.00236
1.692,-0.03581
1.696,-0.02464
1.7,-0.03725
1.704,-0.03147
1.708,-0.0217
1.712,-0.02413
1.716,-0.02032
1.72,-0.02656
1.724,-0.0677
1.728,-0.04039
1.732,-0.00583
1.736,-0.04609
1.74,-0.02368
1.744,-0.04379
1.748,-0.02101
1.752,-0.02629
1.756,-0.05725
1.76,-0.0465
1.764,-0.04606
1.768,-0.01681
1.772,0.01293
1.776,-0.01592
1.78,-0.00781
1.784,-0.0585
1.788,-0.01186
1.792,-0.03048
1.796,-0.03573
1.8,0.0014
1.804,-0.01554
1.808,-0.04772
1.812,-0.04165
1.816,-0.03354
1.82,-0.04114
1.824,-0.01139
1.828,-0.03656
1.832,-0.03309
1.836,-0.00414
1.84,-0.01423
1.844,-0.03839
1.848,-0.03504
1.852,-0.02077
1.856,-0.04376
1.86,-0.03817
1.864,-0.03469
1.868,-0.03447
1.872,-0.0476
1.876,-0.0433
1.88,-0.03835
1.884,-0.00564
1.888,-0.00215
1.892,-0.02042
1.896,-0.05511
1.9,-0.03294
1.904,-0.02755
1.908,-0.04376
1.912,-0.03853
1.916,-0.03196
1.92,-0.03346
1.924,-0.02106
1.928,-0.03844
1.932,-0.0339
1.936,-0.01543
1.94,-0.02105
1.944,-0.01748
1.948,-0.02743
1.952,-0.04576
1.956,-0.03059
1.96,-0.0416
1.964,-0.01957
1.968,-0.02169
1.972,-0.0327
1.976,-0.00445
1.98,-0.01843
1.984,-0.02186
1.988,-0.03646
1.992,-0.04383
1.996,-0.00953
2.0,-0.03539
2.004,-0.01858
2.008,-0.02342
2.012,-0.04415
2.016,-0.03948
2.02,-0.03224
2.024,-0.04627
2.028,-0.0159
2.032,-0.01596
2.036,-0.05119
2.04,-0.02261
2.044,-0.02638
2.048,-0.03508
2.052,-0.02831
2.056,-0.01139
2.06,-0.0438
2.064,-0.00574
2.068,-0.01345
2.072,-0.01458
2.076,-0.02585
2.08,-0.02557
2.084,-0.03821
2.088,-0.03196
2.092,-0.05676
2.096,-0.0233
2.1,-0.03855
2.104,-0.00581
2.108,-0.02567
2.112,-0.02395
2.116,-0.04947
2.12,-0.00826
2.124,-0.01672
2.128,-0.01216
2.132,-0.02502
2.136,-0.02445
2.14,-0.01736
2.144,-0.02645
2.148,-0.01074
2.152,-0.02861
2.156,-0.02858
2.16,0.00666
2.164,-0.0024
2.168,-0.02233
2.172,-0.00455
2.176,-0.01457
2.18,0.01098
2.184,-0.01116
2.188,-0.00684
2.192,0.0384
2.196,0.04047
2.2,0.05656
2.204,0.08446
2.208,0.06575
2.212,0.05472
2.216,0.07472
2.22,0.0738
2.224,0.06436
2.228,0.01787
2.232,0.03312
2.236,0.02667
2.24,0.03265
2.244,0.02741
2.248,0.0062
2.252,0.0044
2.256,0.00041
2.26,-0.02992
2.264,0.0096
2.268,-0.02276
2.272,-0.01423
2.276,-0.01413
2.28,-0.00509
2.284,-0.02534
2.288,-0.04671
2.292,-0.01002
2.296,-0.02773
2.3,-0.00205
2.304,-0.02428
2.308,-0.02494
2.312,-0.04059
2.316,-0.01976
2.32,-0.02731
2.324,-0.02714
2.328,-0.03783
2.332,-0.06892
2.336,-0.07922
2.34,-0.13991
2.344,-0.13608
2.348,-0.12018
2.352,0.0115
2.356,0.16365
2.36,0.34754
2.364,0.57814
2.368,0.79331
2.372,0.89346
2.376,0.95218
2.38,0.89659
2.384,0.74669
2.388,0.51127
2.392,0.28903
2.396,0.0867
2.4,-0.04186
2.404,-0.1391
2.408,-0.20555
2.412,-0.16877
2.416,-0.11124
2.42,-0.10139
2.424,-0.08074
2.428,-0.03113
2.432,-0.04147
2.436,-0.02027
2.44,-0.02153
2.444,0.00114
2.448,-0.01424
2.452,-0.04134
2.456,-0.03772
2.46,-0.02868
2.464,-0.01433
2.468,-0.00974
2.472,-0.0158
2.476,-0.01789
2.48,-0.03658
2.484,-0.02256
2.488,-0.03259
2.492,-0.03038
2.496,-0.03395
2.5,-0.04202
2.504,-0.00202
2.508,-0.01487
2.512,-0.02438
2.516,-0.04302
2.52,-0.00129
2.524,-0.00797
2.528,0.00592
2.532,-0.00395
2.536,0.02827
2.54,-0.00253
2.544,-0.01412
2.548,-0.01179
2.552,-0.00542
2.556,0.00316
2.56,0.00566
2.564,0.01655
2.568,0.0111
2.572,0.0086
2.576,0.01499
2.58,0.04814
2.584,0.03105
2.588,0.06146
2.592,0.06169
2.596,0.05997
2.6,0.08553
2.604,0.08023
2.608,0.09636
2.612,0.10643
2.616,0.11152
2.62,0.1664
2.624,0.14866
2.628,0.1752
2.632,0.1547
2.636,0.17513
2.64,0.1884
2.644,0.20299
2.648,0.18882
2.652,0.19859
2.656,0.19102
2.66,0.21423
2.664,0.19911
2.668,0.19803
2.672,0.18243
2.676,0.16579
2.68,0.16201
2.684,0.16809
2.688,0.18468
2.692,0.15239
2.696,0.11537
2.7,0.09994
2.704,0.12437
2.708,0.07124
2.712,0.0728
2.716,0.0751
2.72,0.06912
2.724,0.06193
2.728,0.04284
2.732,0.04239
2.736,0.05371
2.74,0.01428
2.744,0.02796
2.748,0.01877
2.752,-0.03362
2.756,-0.02171
2.76,0.00708
2.764,-0.0275
2.768,-0.01107
2.772,-0.00722
2.776,0.00498
2.78,-0.03434
2.784,-0.0236
2.788,-0.03573
2.792,-0.0027
2.796,0.00162
2.8,-0.02728
2.804,0.00183
2.808,0.01174
2.812,-0.01611
2.816,-0.03641
2.82,-0.00314
2.824,-0.01141
2.828,-0.0181
2.832,0.00977
2.836,-0.02729
2.84,-0.01885
2.844,-0.01711
2.848,-0.01079
2.852,-0.00371
2.856,-0.04188
2.86,-0.00674
2.864,-0.02059
2.868,-0.01224
2.872,-0.02983
2.876,-0.02721
2.88,-0.01106
2.884,-0.02569
2.888,-0.01207
2.892,-0.00616
2.896,-0.02202
2.9,-0.03093
2.904,-0.01112
2.908,0.00499
2.912,-0.01906
2.916,0.00681
2.92,-0.00043
2.924,-0.03165
2.928,0.00527
2.932,-0.0095
2.936,-0.00062
2.94,-0.0205
2.944,-0.01213
2.948,-0.00937
2.952,-0.03161
2.956,-0.00197
2.96,-0.01306
2.964,-0.0128
2.968,0.0282
2.972,0.01964
2.976,-0.02625
2.98,-0.04109
2.984,0.00469
2.988,-0.00343
2.992,-0.00222
2.996,0.00398
3.0,-0.00652
3.004,-0.01709
3.008,-0.02388
3.012,-0.00796
3.016,-0.0078
3.02,-0.00698
3.024,-0.01542
3.028,-0.00618
3.032,-0.01143
3.036,0.00975
3.04,-0.00736
3.044,0.01081
3.048,-0.02065
3.052,0.0051
3.056,-0.03628
3.06,-0.02358
3.064,-0.01874
3.068,-0.01282
3.072,-0.00495
3.076,-0.00536
3.08,0.00412
3.084,-0.01261
3.088,-0.01914
3.092,0.01246
3.096,0.00708
3.1,0.00331
3.104,0.01205
3.108,0.01316
3.112,-0.01326
3.116,-0.02292
3.12,-0.00186
3.124,0.01116
3.128,-0.02767
3.132,0.0157
3.136,0.00308
3.14,-0.02038
3.144,0.02736
3.148,-0.01548
3.152,0.0109
3.156,-0.00321
3.16,-0.01477
3.164,-0.00345
3.168,-0.00949
3.172,0.01437
3.176,-0.00835
3.18,-0.00775
3.184,-0.01402
3.188,-0.00787
3.192,-0.00904
3.196,0.00457
3.2,-0.00405
3.204,0.00369
3.208,-0.00304
3.212,-0.00196
3.216,-0.01255
3.22,-0.00049
3.224,0.00367
3.228,0.01061
3.232,-0.01162
3.236,0.016
3.24,-0.0025
3.244,0.00489
3.248,-0.00895
3.252,-0.0337
3.256,-0.00606
3.26,-0.01163
3.264,0.01878
3.268,-0.01703
3.272,0.02721
3.276,-0.00923
3.28,0.00881
3.284,0.01157
3.288,0.02705
3.292,0.02139
3.296,0.01484
3.3,0.05154
3.304,0.0856
3.308,0.05834
3.312,0.06737
3.316,0.05194
3.32,0.11598
3.324,0.09899
3.328,0.11406
3.332,0.08875
3.336,0.09655
3.34,0.07553
3.344,0.03491
3.348,0.0379
3.352,0.04613
3.356,0.02252
3.36,0.00829
3.364,0.0325
3.368,0.00646
3.372,-0.00635
3.376,0.00583
3.38,0.00159
3.384,0.03663
3.388,-0.01882
3.392,0.00238
3.396,0.00621
3.4,-0.00791
3.404,-0.00938
3.408,0.00221
3.412,-0.00803
3.416,-0.01578
3.42,0.0198
3.424,0.01172
3.428,0.01335
3.432,0.00065
3.436,-0.02838
3.44,-0.03636
3.444,-0.06424
3.448,-0.08809
3.452,-0.10706
3.456,-0.10623
3.46,0.00529
3.464,0.1612
3.468,0.31359
3.472,0.55906
3.476,0.73571
3.48,0.93365
3.484,1.01458
3.488,0.9503
3.492,0.82205
3.496,0.61455
3.5,0.37981
3.504,0.16744
3.508,0.00919
3.512,-0.10014
3.516,-0.17134
3.52,-0.15953
3.524,-0.1306
3.528,-0.07347
3.532,-0.04277
3.536,-0.03216
3.54,-0.0279
3.544,0.00181
3.548,0.00478
3.552,0.01176
3.556,0.00954
3.56,-0.01708
3.564,0.00866
3.568,0.00606
3.572,-0.00642
3.576,-0.02018
3.58,0.02734
3.584,0.03518
3.588,0.00539
3.592,0.02574
3.596,0.00074
3.6,0.01297
3.604,0.02598
3.608,0.00024
3.612,0.00727
3.616,-0.01127
3.62,0.01925
3.624,0.01741
3.628,0.02177
3.632,0.00467
3.636,0.0008
3.64,0.0344
3.644,0.02726
3.648,0.00461
3.652,0.05727
3.656,0.02842
3.66,0.02464
3.664,0.00525
3.668,0.01088
3.672,0.02809
3.676,0.01587
3.68,0.05745
3.684,0.06087
3.688,0.03755
3.692,0.05764
3.696,0.07094
3.7,0.09105
3.704,0.10651
3.708,0.12381
3.712,0.09449
3.716,0.13299
3.72,0.13335
3.724,0.18579
3.728,0.16318
3.732,0.1962
3.736,0.20388
3.74,0.21296
3.744,0.2282
3.748,0.20222
3.752,0.21406
3.756,0.22423
3.76,0.21571
3.764,0.22725
3.768,0.23104
3.772,0.25737
3.776,0.22746
3.78,0.22921
3.784,0.22277
3.788,0.21748
3.792,0.1708
3.796,0.20532
3.8,0.18108
3.804,0.14327
3.808,0.14038
3.812,0.11925
3.816,0.09446
3.82,0.1136
3.824,0.10935
3.828,0.10389
3.832,0.05978
3.836,0.11534
3.84,0.08175
3.844,0.04338
3.848,0.06066
3.852,0.05086
3.856,0.03454
3.86,0.03278
3.864,0.02204
3.868,-0.00282
3.872,0.02986
3.876,0.03809
3.88,0.02527
3.884,0.03611
3.888,0.006
3.892,0.0268
3.896,0.0294
3.9,0.00686
3.904,-0.00178
3.908,0.02572
3.912,0.00993
3.916,0.03453
3.92,0.03306
3.924,0.00722
3.928,-0.00797
3.932,0.01315
3.936,0.00912
3.94,-0.00408
3.944,0.01612
3.948,0.01263
3.952,0.0306
3.956,0.0184
3.96,0.02006
3.964,0.01214
3.968,0.01531
3.972,0.04833
3.976,-0.00242
3.98,-0.00413
3.984,0.03731
3.988,0.028
3.992,0.01666
3.996,0.01318
4.0,0.00265
4.004,0.00161
4.008,0.01051
4.012,0.05005
4.016,0.01049
4.02,0.01983
4.024,0.04461
4.028,0.01295
4.032,0.02391
4.036,0.00361
4.04,0.00972
4.044,0.01685
4.048,0.03061
4.052,0.01385
4.056,0.02607
4.06,0.02662
4.064,0.01991
4.068,0.02358
4.072,0.02116
4.076,0.02729
4.08,-0.00455
4.084,0.02381
4.088,0.00197
4.092,0.01273
4.096,0.00927
4.1,0.03044
4.104,0.03588
4.108,0.01858
4.112,0.02032
4.116,0.02779
4.12,0.01848
4.124,0.02695
4.128,0.04332
4.132,0.00741
4.136,0.03098
4.14,0.00914
4.144,0.01023
4.148,0.00564
4.152,0.02587
4.156,0.01803
4.16,0.02938
4.164,0.00072
4.168,0.05071
4.172,0.01546
4.176,-0.00236
4.18,0.03319
4.184,0.01411
4.188,0.02508
4.192,0.04179
4.196,0.02054
4.2,0.01499
4.204,0.00506
4.208,0.03723
4.212,0.04774
4.216,0.03036
4.22,0.02964
4.224,0.01329
4.228,0.00569
4.232,0.01475
4.236,0.01378
4.24,0.01258
4.244,0.04255
4.248,0.02856
4.252,0.0109
4.256,0.05878
4.26,0.01521
4.264,0.0165
4.268,0.02752
4.272,0.01428
4.276,0.04962
4.28,0.058
4.284,0.10063
4.288,0.05658
4.292,0.06674
4.296,0.08468
4.3,0.0968
4.304,0.12807
4.308,0.12021
4.312,0.11979
4.316,0.11797
4.32,0.11376
4.324,0.10961
4.328,0.10595
4.332,0.09405
4.336,0.05664
4.34,0.0711
4.344,0.03298
4.348,0.03502
4.352,0.04927
4.356,0.02079
4.36,0.03229
4.364,0.01501
4.368,0.02999
4.372,0.01931
4.376,0.0152
4.38,0.03099
4.384,0.01316
4.388,0.019
4.392,0.00422
4.396,0.03125
4.4,-9e-05
4.404,0.00359
4.408,0.01881
4.412,0.00467
4.416,0.02339
4.42,0.01713
4.424,0.01259
4.428,-0.00591
4.432,-0.04114
4.436,-0.083
4.44,-0.10652
4.444,-0.02996
4.448,0.05355
4.452,0.20795
4.456,0.40812
4.46,0.62078
4.464,0.82973
4.468,0.95654
4.472,1.03477
4.476,0.95078
4.48,0.79619
4.484,0.59472
4.488,0.33604
4.492,0.14006
4.496,-0.02093
4.5,-0.12573
4.504,-0.14531
4.508,-0.1426
4.512,-0.08868
4.516,-0.0262
4.52,-0.00941
4.524,0.00085
4.528,0.01764
4.532,0.02242
4.536,0.06029
4.54,0.02006
4.544,0.01052
4.548,0.0476
4.552,-0.0004
4.556,0.02392
4.56,0.02084
4.564,0.02991
4.568,0.01691
4.572,0.0265
4.576,0.04843
4.58,0.02108
4.584,0.02108
4.588,0.02755
4.592,0.01426
4.596,0.02224
4.6,0.05183
4.604,0.02503
4.608,0.00643
4.612,0.02964
4.616,0.03578
4.62,0.02347
4.624,0.02292
4.628,0.00941
4.632,0.02519
4.636,0.03746
4.64,0.03269
4.644,0.05925
4.648,0.05352
4.652,0.06302
4.656,0.06317
4.66,0.08017
4.664,0.07591
4.668,0.07041
4.672,0.057
4.676,0.06917
4.68,0.10145
4.684,0.09032
4.688,0.10326
4.692,0.12186
4.696,0.15752
4.7,0.12786
4.704,0.16564
4.708,0.16555
4.712,0.16505
4.716,0.16639
4.72,0.1966
4.724,0.20274
4.728,0.22656
4.732,0.21904
4.736,0.23807
4.74,0.25416
4.744,0.23663
4.748,0.24396
4.752,0.26375
4.756,0.24747
4.76,0.27234
4.764,0.24577
4.768,0.2022
4.772,0.23819
4.776,0.21337
4.78,0.23645
4.784,0.19724
4.788,0.21154
4.792,0.17793
4.796,0.16863
4.8,0.15682
4.804,0.17188
4.808,0.13429
4.812,0.08788
4.816,0.09285
4.82,0.092
4.824,0.06328
4.828,0.09795
4.832,0.05769
4.836,0.06661
4.84,0.09309
4.844,0.05315
4.848,0.02389
4.852,0.08013
4.856,0.04949
4.86,0.05706
4.864,0.04339
4.868,0.05344
4.872,0.01903
4.876,0.03
4.88,0.0325
4.884,0.01053
4.888,0.03442
4.892,0.04112
4.896,0.03848
4.9,0.01722
4.904,0.02056
4.908,0.04317
4.912,0.03375
4.916,0.05687
4.92,0.01026
4.924,0.02147
4.928,0.04017
4.932,0.01516
4.936,0.0069
4.94,0.03241
4.944,0.03761
4.948,0.05768
4.952,0.02052
4.956,0.03229
4.96,0.03583
4.964,0.02939
4.968,0.01952
4.972,0.02311
4.976,0.04274
4.98,0.04492
4.984,0.01792
4.988,0.01509
4.992,0.03015
4.996,0.04042
5.0,0.04116
5.004,0.03515
5.008,0.0486
5.012,0.03781
5.016,0.04482
5.02,0.02739
5.024,-0.00601
5.028,0.0285
5.032,0.01805
5.036,0.01966
5.04,0.02757
5.044,0.06132
5.048,0.05258
5.052,0.04887
5.056,0.00563
5.06,0.03689
5.064,0.01271
5.068,0.01951
5.072,0.03135
5.076,0.02793
5.08,0.01849
5.084,0.01016
5.088,0.05667
5.092,0.01521
5.096,0.0261
5.1,0.03985
5.104,0.00769
5.108,0.0101
5.112,-0.00617
5.116,0.04298
5.12,0.02074
5.124,0.03729
5.128,0.03223
5.132,0.04351
5.136,0.038
5.14,0.05268
5.144,0.05209
5.148,0.03333
5.152,0.04213
5.156,0.02667
5.16,-0.00477
5.164,0.04974
5.168,0.02969
5.172,0.00892
5.176,0.0212
5.18,0.01921
5.184,0.01404
5.188,0.00526
5.192,0.01779
5.196,0.02281
5.2,0.01921
5.204,0.04528
5.208,0.05437
5.212,0.02688
5.216,0.0199
5.22,0.0299
5.224,0.04801
5.228,0.03816
5.232,0.02459
5.236,0.04986
5.24,0.02664
5.244,0.04462
5.248,0.02549
5.252,0.02672
5.256,0.02838
5.26,0.03175
5.264,0.03923
5.268,0.05363
5.272,0.04408
5.276,0.05169
5.28,0.00921
5.284,0.03672
5.288,0.04806
5.292,0.03893
5.296,0.02418
5.3,0.05628
5.304,-0.00639
5.308,0.03991
5.312,0.02745
5.316,0.03182
5.32,0.0376
5.324,0.05024
5.328,0.05033
5.332,0.05325
5.336,0.01459
5.34,0.02576
5.344,0.04136
5.348,0.04184
5.352,0.06072
5.356,0.04843
5.36,0.08322
5.364,0.10465
5.368,0.08008
5.372,0.09679
5.376,0.1192
5.38,0.11299
5.384,0.11611
5.388,0.11969
5.392,0.13006
5.396,0.09371
5.4,0.09832
5.404,0.08418
5.408,0.0529
5.412,0.07718
5.416,0.06245
5.42,0.03062
5.424,0.03454
5.428,0.03188
5.432,0.01247
5.436,0.05586
5.44,0.03077
5.444,0.04592
5.448,0.0319
5.452,0.02202
5.456,0.03947
5.46,0.01238
5.464,0.02123
5.468,0.03668
5.472,0.04703
5.476,0.05112
5.48,0.02962
5.484,0.04792
5.488,0.01893
5.492,0.02379
5.496,-0.02071
5.5,-0.00393
5.504,-0.04794
5.508,-0.08135
5.512,-0.06141
5.516,-0.02643
5.52,0.10191
5.524,0.27107
5.528,0.5031
5.532,0.68509
5.536,0.87297
5.54,1.01178
5.544,1.02597
5.548,0.9196
5.552,0.70634
5.556,0.48887
5.56,0.25901
5.564,0.06667
5.568,-0.06104
5.572,-0.12794
5.576,-0.14362
5.58,-0.11332
5.584,-0.07693
5.588,-0.0483
5.592,-0.01639
5.596,0.03265
5.6,0.00015
5.604,-0.00333
5.608,0.01088
5.612,0.02707
5.616,0.00995
5.62,0.00648
5.624,0.0322
5.628,0.04941
5.632,0.01232
5.636,0.01703
5.64,0.0159
5.644,0.00995
5.648,0.02339
5.652,0.01812
5.656,0.02243
5.66,0.00569
5.664,0.01413
5.668,0.02221
5.672,0.03657
5.676,0.01055
5.68,-0.0127
5.684,0.02133
5.688,0.03364
5.692,0.02535
5.696,0.0274
5.7,0.01279
5.704,0.05832
5.708,0.03317
5.712,0.04071
5.716,0.01493
5.72,0.03502
5.724,0.02946
5.728,0.04486
5.732,0.03397
5.736,0.07517
5.74,0.08013
5.744,0.06967
5.748,0.08822
5.752,0.0594
5.756,0.10397
5.76,0.11166
5.764,0.12229
5.768,0.13393
5.772,0.14032
5.776,0.15607
5.78,0.19619
5.784,0.16336
5.788,0.18868
5.792,0.1991
5.796,0.21166
5.8,0.20692
5.804,0.23333
5.808,0.22179
5.812,0.24822
5.816,0.24675
5.82,0.24839
5.824,0.23946
5.828,0.23691
5.832,0.19761
5.836,0.22181
5.84,0.24884
5.844,0.19875
5.848,0.21036
5.852,0.19973
5.856,0.1791
5.86,0.1586
5.864,0.16953
5.868,0.1678
5.872,0.14648
5.876,0.13604
5.88,0.13253
5.884,0.09044
5.888,0.09272
5.892,0.08833
5.896,0.06383
5.9,0.06565
5.904,0.03258
5.908,0.05468
5.912,0.08516
5.916,0.07402
5.92,0.04763
5.924,0.01757
5.928,0.03229
5.932,0.01491
5.936,0.02922
5.94,0.0507
5.944,0.02142
5.948,0.06446
5.952,0.02892
5.956,0.03449
5.96,0.0221
5.964,-0.00577
5.968,0.00449
5.972,0.01502
5.976,0.01904
5.98,0.01349
5.984,0.02942
5.988,0.03267
5.992,0.01576
5.996,0.03165
6.0,0.02398
6.004,0.01048
6.008,0.0255
6.012,0.01325
6.016,0.0209
6.02,0.00807
6.024,-0.0028
6.028,0.01053
6.032,0.00808
6.036,0.002
6.04,0.00017
6.044,0.02226
6.048,0.01543
6.052,0.00226
6.056,0.02353
6.06,0.02143
6.064,0.02753
6.068,0.0034
6.072,0.0151
6.076,0.0185
6.08,0.02376
6.084,0.00786
6.088,0.0362
6.092,0.01506
6.096,-0.00182
6.1,0.01392
6.104,0.04017
6.108,-0.00599
6.112,0.02662
6.116,-0.0236
6.12,0.02346
6.124,0.03223
6.128,0.00809
6.132,0.01442
6.136,0.03488
6.14,0.00256
6.144,0.00769
6.148,0.02404
6.152,0.02467
6.156,0.02835
6.16,0.02625
6.164,-0.00284
6.168,-0.01288
6.172,0.0131
6.176,0.03255
6.18,0.01789
6.184,-0.01268
6.188,0.01879
6.192,0.00348
6.196,0.02497
6.2,0.01078
6.204,0.01269
6.208,0.03579
6.212,-0.00198
6.216,0.01316
6.22,-0.00289
6.224,-0.00402
6.228,0.00412
6.232,-0.01878
6.236,0.02203
6.24,0.01363
6.244,0.01583
6.248,0.01525
6.252,0.03006
6.256,0.02586
6.26,0.00753
6.264,0.00569
6.268,0.03489
6.272,0.01828
6.276,0.0257
6.28,0.01157
6.284,0.00026
6.288,0.00898
6.292,0.01405
6.296,0.00116
6.3,0.03202
6.304,0.01475
6.308,0.00812
6.312,-0.00322
6.316,0.04035
6.32,-0.01643
6.324,0.0292
6.328,-0.00059
6.332,0.02959
6.336,-0.00411
6.34,0.03817
6.344,0.05126
6.348,-0.00633
6.352,0.02918
6.356,0.0596
6.36,0.05364
6.364,0.06971
6.368,0.09965
6.372,0.07873
6.376,0.10793
6.38,0.10745
6.384,0.09542
6.388,0.10989
6.392,0.10005
6.396,0.06257
6.4,0.08551
6.404,0.06821
6.408,0.02502
6.412,0.02917
6.416,0.02023
6.42,-0.00333
6.424,0.03894
6.428,0.00567
6.432,0.01555
6.436,0.01177
6.44,0.00802
6.444,0.00455
6.448,0.02812
6.452,0.02307
6.456,0.01807
6.46,0.01577
6.464,0.00121
6.468,0.00393
6.472,-0.01459
6.476,0.01197
6.48,0.02203
6.484,0.00328
6.488,0.01371
6.492,-0.02054
6.496,-0.00778
6.5,-0.01615
6.504,-0.09567
6.508,-0.09304
6.512,-0.10573
6.516,-0.03539
6.52,0.09568
6.524,0.31942
6.528,0.52882
6.532,0.70934
6.536,0.90428
6.54,1.01771
6.544,0.99561
6.548,0.83589
6.552,0.67321
6.556,0.4329
6.56,0.21058
6.564,0.0335
6.568,-0.10821
6.572,-0.1612
6.576,-0.15702
6.58,-0.12698
6.584,-0.07015
6.588,-0.06713
6.592,-0.02723
6.596,-0.01307
6.6,0.00128
6.604,-0.00091
6.608,0.0012
6.612,-0.022
6.616,0.0245
6.62,-5e-05
6.624,0.01682
6.628,-0.01835
6.632,-0.00614
6.636,-0.00262
6.64,-0.00414
6.644,-0.00461
6.648,-0.01287
6.652,0.02529
6.656,-0.00147
6.66,-0.00472
6.664,-6e-05
6.668,0.02523
6.672,0.00641
6.676,-0.00708
6.68,0.0156
6.684,-0.00733
6.688,0.0093
6.692,0.02791
6.696,-0.01744
6.7,-0.0077
6.704,-0.00695
6.708,0.00551
6.712,0.00544
6.716,-0.00106
6.72,0.01233
6.724,0.01374
6.728,0.03448
6.732,0.04628
6.736,0.037
6.74,0.04818
6.744,0.04987
6.748,0.03744
6.752,0.05921
6.756,0.05437
6.76,0.07777
6.764,0.08334
6.768,0.08845
6.772,0.11156
6.776,0.11559
6.78,0.12541
6.784,0.19348
6.788,0.16311
6.792,0.16102
6.796,0.20538
6.8,0.20802
6.804,0.20739
6.808,0.20138
6.812,0.21831
6.816,0.18731
6.82,0.22182
6.824,0.18427
6.828,0.21244
6.832,0.22561
6.836,0.2045
6.84,0.19626
6.844,0.19881
6.848,0.15502
6.852,0.17805
6.856,0.18136
6.86,0.13117
6.864,0.15493
6.868,0.13592
6.872,0.1164
6.876,0.0882
6.88,0.11142
6.884,0.09122
6.888,0.0464
6.892,0.07541
6.896,0.06048
6.9,0.03988
6.904,0.0502
6.908,0.03675
6.912,0.03639
6.916,0.02127
6.92,0.01615
6.924,-0.00293
6.928,0.01909
6.932,-0.00381
6.936,0.01196
6.94,0.00895
6.944,-0.01178
6.948,-0.00563
6.952,-8e-05
6.956,-0.00396
6.96,-0.0135
6.964,-0.02214
6.968,-0.02059
6.972,-0.01471
6.976,-0.01498
6.98,-0.00096
6.984,-0.02126
6.988,0.00281
6.992,-0.01434
6.996,-0.00083
7.0,-0.0176
7.004,-0.00146
7.008,0.00134
7.012,-0.00771
7.016,-0.00574
7.02,-0.03919
7.024,-0.00985
7.028,-0.00716
7.032,-0.01675
7.036,-0.00153
7.04,-0.03638
7.044,-0.0251
7.048,-0.02908
7.052,-0.01958
7.056,-0.03711
7.06,-0.01926
7.064,-0.02663
7.068,0.00259
7.072,-0.01944
7.076,0.00875
7.08,0.00119
7.084,0.00144
7.088,-0.02703
7.092,0.01907
7.096,-0.03074
7.1,0.01068
7.104,0.0077
7.108,-0.02469
7.112,-0.01784
7.116,-0.03464
7.12,-0.00051
7.124,0.00796
7.128,-0.01171
7.132,-0.02347
7.136,-0.01725
7.14,-0.00658
7.144,-0.01072
7.148,-0.00451
7.152,-0.04294
7.156,-0.00454
7.16,0.00878
7.164,-0.02679
7.168,-0.01112
7.172,-0.02105
7.176,-0.04864
7.18,-0.02766
7.184,-0.02611
7.188,-0.03287
7.192,0.00496
7.196,0.0059
7.2,-0.04964
7.204,-0.02541
7.208,-0.01968
7.212,-0.00068
7.216,-0.02785
7.22,-0.02795
7.224,-0.01741
7.228,-0.04424
7.232,-0.01503
7.236,-0.03809
7.24,0.00386
7.244,-0.01626
7.248,-0.02243
7.252,-0.01156
7.256,-0.0039
7.26,-0.0103
7.264,-0.03173
7.268,-0.04499
7.272,0.01961
7.276,-0.02014
7.28,-0.03564
7.284,-0.02691
7.288,-0.00646
7.292,-0.01545
7.296,-0.01422
7.3,-0.00884
7.304,-0.04012
7.308,-0.03161
7.312,-0.02636
7.316,0.01025
7.32,-0.02956
7.324,-0.00281
7.328,-0.03274
7.332,-0.0124
7.336,-0.01253
7.34,-0.02157
7.344,-0.0366
7.348,-0.01867
7.352,-0.03685
7.356,-0.03682
7.36,-0.00229
7.364,-0.03533
7.368,-0.02283
7.372,-0.02236
7.376,-0.02127
7.38,-0.04002
7.384,-0.02683
7.388,-0.03234
7.392,-0.03953
7.396,0.00194
7.4,-0.02024
7.404,-0.02003
7.408,0.00176
7.412,-0.03713
7.416,-0.00249
7.42,0.00208
7.424,0.0011
7.428,-0.01137
7.432,-0.01892
7.436,0.00628
7.44,0.01829
7.444,-0.00037
7.448,0.02384
7.452,0.01394
7.456,0.03724
7.46,0.04999
7.464,0.07655
7.468,0.06415
7.472,0.07899
7.476,0.11804
7.48,0.08436
7.484,0.08335
7.488,0.06088
7.492,0.05978
7.496,0.057
7.5,0.0378
7.504,0.01404
7.508,0.02991
7.512,0.00879
7.516,-0.01777
7.52,-0.04344
7.524,-0.00859
7.528,-0.01831
7.532,-0.01222
7.536,-0.02856
7.54,-0.01168
7.544,-0.03792
7.548,-0.00463
7.552,-0.02623
7.556,-0.0107
7.56,-0.02957
7.564,-0.02926
7.568,-0.03972
7.572,-0.02818
7.576,-0.01184
7.58,-0.0134
7.584,0.00332
7.588,-0.03223
7.592,-0.052
7.596,-0.06288
7.6,-0.08623
7.604,-0.14614
7.608,-0.10086
7.612,-0.0377
7.616,0.08355
7.62,0.24223
7.624,0.48751
7.628,0.68199
7.632,0.84945
7.636,0.97558
7.64,0.94406
7.644,0.83338
7.648,0.68879
7.652,0.43933
7.656,0.21115
7.66,0.03185
7.664,-0.13507
7.668,-0.19033
7.672,-0.20863
7.676,-0.16354
7.68,-0.10805
7.684,-0.09003
7.688,-0.05826
7.692,-0.03612
7.696,-0.04783
7.7,-0.02527
7.704,-0.00552
7.708,-0.02154
7.712,-0.04004
7.716,-0.03428
7.72,-0.0207
7.724,-0.00471
7.728,-0.02399
7.732,-0.01984
7.736,-0.05858
7.74,-0.04268
7.744,-0.05042
7.748,-0.03856
7.752,-0.03704
7.756,-0.04357
7.76,-0.02143
7.764,-0.06292
7.768,-0.02771
7.772,-0.03793
7.776,-0.0299
7.78,0.00332
7.784,-0.01519
7.788,-0.04105
7.792,-0.00744
7.796,-0.0251
7.8,0.00333
7.804,-0.02733
7.808,0.00094
7.812,-0.01638
7.816,0.0038
7.82,-0.00686
7.824,-0.01015
7.828,0.00455
7.832,0.0161
7.836,0.01463
7.84,0.04054
7.844,0.02804
7.848,0.05572
7.852,0.06573
7.856,0.03603
7.86,0.06666
7.864,0.09016
7.868,0.0776
7.872,0.10542
7.876,0.11306
7.88,0.12908
7.884,0.15114
7.888,0.16355
7.892,0.18667
7.896,0.16152
7.9,0.14914
7.904,0.22569
7.908,0.19902
7.912,0.2063
7.916,0.2183
7.92,0.18516
7.924,0.20063
7.928,0.18575
7.932,0.19037
7.936,0.16528
7.94,0.17259
7.944,0.15784
7.948,0.14187
7.952,0.14785
7.956,0.11882
7.96,0.10794
7.964,0.12692
7.968,0.07999
7.972,0.07607
7.976,0.06234
7.98,0.07035
7.984,0.04283
7.988,0.0434
7.992,0.04601
7.996,-0.00682
8.0,0.01052
8.004,0.01101
8.008,-0.00667
8.012,-0.02388
8.016,0.00019
8.02,-0.01239
8.024,-0.00919
8.028,-0.03037
8.032,-0.05207
8.036,-0.0325
8.04,-0.03147
8.044,-0.03118
8.048,-0.00584
8.052,-0.03486
8.056,-0.02714
8.06,-0.00979
8.064,-0.01629
8.068,-0.01952
8.072,-0.04863
8.076,-0.0053
8.08,-0.04294
8.084,-0.05438
8.088,-0.05117
8.092,-0.01841
8.096,-0.00375
8.1,-0.04166
8.104,-0.03168
8.108,-0.01849
8.112,-0.05289
8.116,-0.04284
8.12,-0.03768
8.124,-0.03544
8.128,-0.02515
8.132,-0.01987
8.136,-0.01568
8.14,-0.01557
8.144,-0.0423
8.148,-0.0502
8.152,-0.03801
8.156,-0.04233
8.16,-0.03101
8.164,-0.04286
8.168,-0.02322
8.172,-0.02475
8.176,-0.04605
8.18,-0.02996
8.184,-0.02406
8.188,-0.02
8.192,-0.00695
8.196,-0.04306
8.2,-0.03731
8.204,-0.0278
8.208,-0.0323
8.212,-0.01716
8.216,-0.01826
8.22,-0.03266
8.224,-0.04216
8.228,-0.03194
8.232,-0.0553
8.236,-0.01179
8.24,-0.02297
8.244,-0.0241
8.248,-0.02157
8.252,-0.04436
8.256,-0.05663
8.26,-0.03965
8.264,-0.04818
8.268,-0.02556
8.272,-0.04565
8.276,-0.01553
8.28,-0.03426
8.284,-0.03776
8.288,-0.01515
8.292,-0.02818
8.296,-0.02681
8.3,-0.02162
8.304,-0.02099
8.308,-0.03727
8.312,-0.03796
8.316,-0.04859
8.32,-0.02096
8.324,-0.05061
8.328,-0.02975
8.332,-0.01512
8.336,-0.03016
8.34,-0.04039
8.344,-0.05182
8.348,-0.03359
8.352,-0.04335
8.356,-0.02692
8.36,-0.04303
8.364,-0.01573
8.368,-0.03984
8.372,-0.01674
8.376,-0.04495
8.38,-0.02435
8.384,-0.02542
8.388,-0.03758
8.392,-0.00108
8.396,-0.03601
8.4,-0.00612
8.404,-0.01841
8.408,-0.02361
8.412,-0.02763
8.416,-0.02496
8.42,-0.03787
8.424,-0.01708
8.428,-0.00281
8.432,-0.03861
8.436,-0.02075
8.44,-0.02017
8.444,-0.01739
8.448,-0.01485
8.452,-0.00719
8.456,-0.01346
8.46,-0.01019
8.464,0.01351
8.468,0.02417
8.472,0.0148
8.476,0.03167
8.48,0.06707
8.484,0.04901
8.488,0.07248
8.492,0.10018
8.496,0.04653
8.5,0.04479
8.504,0.07616
8.508,0.0594
8.512,0.03529
8.516,0.01201
8.52,0.01342
8.524,-0.00564
8.528,-0.01694
8.532,-0.03016
8.536,-0.01308
8.54,-0.02769
8.544,0.0014
8.548,-0.01105
8.552,-0.00651
8.556,-0.04764
8.56,-0.05003
8.564,-0.02307
8.568,-0.01052
8.572,-0.05019
8.576,-0.01123
8.58,-0.0336
8.584,-0.01077
8.588,-0.01976
8.592,-0.04664
8.596,-0.02548
8.6,-0.03872
8.604,-0.04815
8.608,-0.04078
8.612,-0.08121
8.616,-0.1357
8.62,-0.13416
8.624,-0.08662
8.628,0.05744
8.632,0.22055
8.636,0.40445
8.64,0.64755
8.644,0.83913
8.648,0.96428
8.652,0.95892
8.656,0.87737
8.66,0.68259
8.664,0.45396
8.668,0.22788
8.672,0.02307
8.676,-0.11708
8.68,-0.18993
8.684,-0.18634
8.688,-0.17767
8.692,-0.1071
8.696,-0.07234
8.7,-0.07323
8.704,-0.05441
8.708,-0.01208
8.712,-0.0155
8.716,-0.01978
8.72,-0.02464
8.724,-0.04321
8.728,-0.02138
8.732,-0.05603
8.736,-0.04127
8.74,-0.02768
8.744,-0.00207
8.748,-0.04016
8.752,-0.01347
8.756,-0.05231
8.76,-0.02168
8.764,-0.0317
8.768,-0.03479
8.772,-0.02042
8.776,-0.06345
8.78,-0.03343
8.784,-0.00377
8.788,-0.04694
8.792,-0.02944
8.796,-0.04353
8.8,-0.05294
8.804,-0.0286
8.808,-0.01934
8.812,0.01665
8.816,-0.01275
8.82,-0.03768
8.824,-0.03822
8.828,0.01236
8.832,-0.00906
8.836,-0.00617
8.84,-0.00925
8.844,0.00838
8.848,-0.00126
8.852,0.0279
8.856,0.01622
8.86,0.04431
8.864,0.04337
8.868,0.0787
8.872,0.06394
8.876,0.07583
8.88,0.08006
8.884,0.10669
8.888,0.10671
8.892,0.0989
8.896,0.14063
8.9,0.13957
8.904,0.17279
8.908,0.17539
8.912,0.19906
8.916,0.17174
8.92,0.18726
8.924,0.18217
8.928,0.2032
8.932,0.19191
8.936,0.2203
8.94,0.18729
8.944,0.17795
8.948,0.18071
8.952,0.16916
8.956,0.16603
8.96,0.16729
8.964,0.13531
8.968,0.14989
8.972,0.12473
8.976,0.1192
8.98,0.10022
8.984,0.08778
8.988,0.05989
8.992,0.09043
8.996,0.05765
9.0,0.05007
9.004,0.02817
9.008,0.03004
9.012,0.03698
9.016,0.00035
9.02,0.00717
9.024,-0.02332
9.028,-0.00646
9.032,0.01347
9.036,-0.03503
9.04,-0.0327
9.044,-0.01279
9.048,-0.01784
9.052,-0.00642
9.056,-0.0223
9.06,-0.0187
9.064,0.00346
9.068,-0.03448
9.072,-0.02268
9.076,-0.00911
9.08,-0.0457
9.084,-0.02368
9.088,-0.0251
9.092,-0.0293
9.096,-0.04905
9.1,-0.02037
9.104,-0.0216
9.108,0.00028
9.112,-0.0156
9.116,-0.02371
9.12,-0.01166
9.124,-0.00082
9.128,-0.02391
9.132,-0.01141
9.136,-0.04602
9.14,-0.0321
9.144,-0.02925
9.148,-0.03772
9.152,-0.00701
9.156,-0.03493
9.16,-0.04093
9.164,0.0032
9.168,-0.01414
9.172,-0.00926
9.176,-0.00593
9.18,-0.03041
9.184,-0.01972
9.188,-0.03404
9.192,-0.00683
9.196,-0.00012
9.2,-0.02727
9.204,-0.02065
9.208,0.00299
9.212,-0.0255
9.216,-0.02427
9.22,-0.01664
9.224,-0.02115
9.228,-0.00832
9.232,-0.00573
9.236,-0.01881
9.24,-0.02758
9.244,-0.02366
9.248,-0.03891
9.252,-0.02141
9.256,-0.00184
9.26,-0.0051
9.264,-0.02088
9.268,-0.02073
9.272,-0.01854
9.276,0.00413
9.28,-0.0231
9.284,-0.05107
9.288,0.00129
9.292,0.02871
9.296,-0.03682
9.3,-0.02405
9.304,-0.02518
9.308,-0.02251
9.312,-0.02173
9.316,-0.03302
9.32,-0.00301
9.324,0.00188
9.328,-0.01267
9.332,-0.03215
9.336,-0.00453
9.34,-0.03389
9.344,-0.0281
9.348,-0.01327
9.352,0.0051
9.356,-0.00013
9.36,-0.01661
9.364,-0.02945
9.368,0.00767
9.372,-0.03554
9.376,-0.03733
9.38,-0.01372
9.384,0.01204
9.388,-0.00844
9.392,-0.01814
9.396,0.0035
9.4,-0.02798
9.404,-0.01841
9.408,-0.01182
9.412,-0.0274
9.416,-0.01934
9.42,-0.01895
9.424,-0.00942
9.428,-0.01868
9.432,-0.00402
9.436,-0.01452
9.44,0.00472
9.444,0.00883
9.448,-0.00594
9.452,-0.0377
9.456,0.00102
9.46,-0.00693
9.464,-0.01742
9.468,-0.00535
9.472,-0.02055
9.476,-0.01016
9.48,0.02339
9.484,-0.02788
9.488,-0.02303
9.492,-0.00089
9.496,-0.02514
9.5,-0.0235
9.504,-0.0045
9.508,-0.00137
9.512,-0.01035
9.516,-0.00676
9.52,-0.00936
9.524,-0.00426
9.528,-0.02498
9.532,-0.02735
9.536,-0.01604
9.54,-0.03909
9.544,-0.02853
9.548,-0.00296
9.552,-0.0088
9.556,0.0043
9.56,-0.02221
9.564,-0.0157
9.568,0.00216
9.572,0.01147
9.576,0.02437
9.58,0.00257
9.584,0.00677
9.588,0.00355
9.592,-0.02959
9.596,-0.00747
9.6,0.00776
9.604,0.02387
9.608,0.0026
9.612,0.01481
9.616,0.02733
9.62,0.02272
9.624,0.05392
9.628,0.04589
9.632,0.09883
9.636,0.10679
9.64,0.08774
9.644,0.08596
9.648,0.0962
9.652,0.05414
9.656,0.07284
9.66,0.06189
9.664,0.06761
9.668,0.0526
9.672,0.00756
9.676,0.01319
9.68,-0.01147
9.684,-0.00661
9.688,-0.02149
9.692,-0.01427
9.696,-0.01148
9.7,0.01398
9.704,0.00123
9.708,-0.01571
9.712,-0.00492
9.716,-0.00944
9.72,-0.01814
9.724,-0.01243
9.728,0.00667
9.732,-0.01633
9.736,0.00622
9.74,-0.0145
9.744,-0.01135
9.748,-0.02323
9.752,-0.01338
9.756,-0.01768
9.76,-0.04691
9.764,-0.10084
9.768,-0.10998
9.772,-0.0831
9.776,-0.05324
9.78,0.04601
9.784,0.20874
9.788,0.41364
9.792,0.64569
9.796,0.81665
9.8,0.96322
9.804,0.98556
9.808,0.91285
9.812,0.73462
9.816,0.53078
9.82,0.27491
9.824,0.06462
9.828,-0.09514
9.832,-0.13811
9.836,-0.16834
9.84,-0.15229
9.844,-0.11058
9.848,-0.05817
9.852,-0.04441
9.856,-0.00653
9.86,-0.00453
9.864,-0.01385
9.868,-0.0063
9.872,-0.00907
9.876,0.01635
9.88,0.01035
9.884,-0.0258
9.888,-0.00268
9.892,0.00576
9.896,-0.02814
9.9,-0.01976
9.904,-0.00262
9.908,0.02232
9.912,-0.0061
9.916,0.01895
9.92,0.01205
9.924,0.01967
9.928,-0.01715
9.932,-0.01892
9.936,-0.01594
9.94,0.00027
9.944,0.03053
9.948,0.00091
9.952,0.01995
9.956,0.00754
9.96,-0.01614
9.964,0.00032
9.968,-0.0097
9.972,0.00129
9.976,-0.00195
9.98,0.00926
9.984,0.03299
9.988,0.01404
9.992,0.03284
9.996,0.04769
