t_seg,ecg_mV
0.0,0.12177
0.004,0.10801
0.008,0.17111
0.012,0.08015
0.016,0.09308
0.02,0.15299
0.024,0.17121
0.028,0.06701
0.032,0.07887
0.036,0.1192
0.04,0.04802
0.044,0.06903
0.048,-0.07607
0.052,0.01586
0.056,-0.0145
0.06,0.08782
0.064,-0.021
0.068,0.04048
0.072,0.02207
0.076,0.03471
0.08,0.02631
0.084,-0.03276
0.088,0.01645
0.092,0.00826
0.096,0.0265
0.1,0.04744
0.104,0.08525
0.108,0.03094
0.112,0.05261
0.116,-0.01634
0.12,0.04321
0.124,-0.03115
0.128,-0.00761
0.132,-0.01754
0.136,-0.06672
0.14,-0.00796
0.144,0.08184
0.148,0.25937
0.152,0.51262
0.156,0.62884
0.16,0.86204
0.164,0.96419
0.168,0.96312
0.172,0.92302
0.176,0.73622
0.18,0.49017
0.184,0.34781
0.188,0.09931
0.192,-0.0553
0.196,-0.1436
0.2,-0.18022
0.204,-0.20145
0.208,-0.14154
0.212,-0.04021
0.216,-0.01713
0.22,-0.0111
0.224,0.08213
0.228,0.04758
0.232,0.02943
0.236,-0.01716
0.24,-0.04747
0.244,-0.02525
0.248,0.0226
0.252,0.03059
0.256,0.02728
0.26,0.02373
0.264,0.01401
0.268,-0.00399
0.272,-0.04729
0.276,0.07561
0.28,0.02514
0.284,0.0553
0.288,0.00154
0.292,0.03742
0.296,0.07179
0.3,0.01167
0.304,0.03978
0.308,0.11712
0.312,0.04569
0.316,0.03306
0.32,0.0534
0.324,-0.03712
0.328,0.00079
0.332,0.01575
0.336,0.00663
0.34,0.04308
0.344,-0.00668
0.348,0.02522
0.352,0.01104
0.356,0.06385
0.36,0.03743
0.364,0.0055
0.368,0.0791
0.372,0.06472
0.376,0.03786
0.38,0.12534
0.384,0.07314
0.388,0.11003
0.392,0.14811
0.396,0.10012
0.4,0.13886
0.404,0.18457
0.408,0.15684
0.412,0.12281
0.416,0.25063
0.42,0.22569
0.424,0.29532
0.428,0.23478
0.432,0.1687
0.436,0.2299
0.44,0.15779
0.444,0.20472
0.448,0.19326
0.452,0.16232
0.456,0.19239
0.46,0.20263
0.464,0.28074
0.468,0.19119
0.472,0.21259
0.476,0.24872
0.48,0.22824
0.484,0.18908
0.488,0.18774
0.492,0.1299
0.496,0.15593
0.5,0.09011
0.504,0.08353
0.508,0.04803
0.512,0.08737
0.516,0.0322
0.52,0.08475
0.524,0.04176
0.528,0.02409
0.532,0.00147
0.536,-0.01566
0.54,-0.02415
0.544,0.09492
0.548,0.00608
0.552,0.04085
0.556,0.04736
0.56,0.01877
0.564,0.03055
0.568,-0.01151
0.572,0.02049
0.576,0.01587
0.58,0.00636
0.584,0.01339
0.588,0.05246
0.592,0.04479
0.596,0.02581
0.6,0.06558
0.604,0.03587
0.608,0.09356
0.612,0.05365
0.616,0.06767
0.62,0.0837
0.624,0.07131
0.628,0.11323
0.632,0.12672
0.636,0.10741
0.64,0.05762
0.644,0.06074
0.648,0.11415
0.652,0.04067
0.656,0.08634
0.66,0.03516
0.664,0.03066
0.668,-0.02327
0.672,0.06176
0.676,0.01763
0.68,-0.04856
0.684,0.04719
0.688,-0.03473
0.692,-0.00281
0.696,0.06427
0.7,-0.02871
0.704,-0.02847
0.708,-0.01848
0.712,-0.03486
0.716,-0.02506
0.72,0.02879
0.724,0.04067
0.728,-0.01499
0.732,-0.06577
0.736,0.01979
0.74,0.03319
0.744,-0.00866
0.748,-0.08134
0.752,-0.12776
0.756,-0.09465
0.76,-0.06242
0.764,0.03958
0.768,0.28486
0.772,0.42639
0.776,0.58418
0.78,0.78887
0.784,0.90826
0.788,1.06066
0.792,0.90828
0.796,0.72126
0.8,0.53583
0.804,0.30488
0.808,0.11233
0.812,-0.04373
0.816,-0.13994
0.82,-0.15534
0.824,-0.14801
0.828,-0.04629
0.832,-0.11177
0.836,0.06139
0.84,-0.02906
0.844,-0.05824
0.848,0.01988
0.852,0.05884
0.856,0.03727
0.86,-0.06096
0.864,0.00315
0.868,-0.04244
0.872,-0.00522
0.876,0.10037
0.88,-0.00315
0.884,-0.05559
0.888,0.04331
0.892,-0.04075
0.896,-0.05135
0.9,-0.00983
0.904,0.01364
0.908,-0.00519
0.912,-0.0049
0.916,-0.01234
0.92,-0.03105
0.924,-0.00427
0.928,0.02252
0.932,-0.06983
0.936,0.00244
0.94,-0.0241
0.944,0.00933
0.948,-0.0246
0.952,0.00476
0.956,0.04914
0.96,-0.02377
0.964,-0.02768
0.968,-0.04603
0.972,0.08324
0.976,-0.01972
0.98,-0.00101
0.984,0.05429
0.988,0.07831
0.992,0.07897
0.996,0.10298
1.0,0.03619
1.004,0.02772
1.008,0.08828
1.012,0.08813
1.016,0.12526
1.02,0.12561
1.024,0.10957
1.028,0.1482
1.032,0.13567
1.036,0.18183
1.04,0.12908
1.044,0.1951
1.048,0.19771
1.052,0.17966
1.056,0.18118
1.06,0.26551
1.064,0.18083
1.068,0.23358
1.072,0.15501
1.076,0.2837
1.08,0.14954
1.084,0.23396
1.088,0.22558
1.092,0.17973
1.096,0.23266
1.1,0.12758
1.104,0.11602
1.108,0.08291
1.112,0.11675
1.116,0.16269
1.12,0.13955
1.124,0.04528
1.128,0.09325
1.132,0.04288
1.136,0.1095
1.14,0.01508
1.144,0.05496
1.148,0.06182
1.152,0.02135
1.156,0.02474
1.16,0.05653
1.164,0.0295
1.168,0.0241
1.172,0.05027
1.176,0.05064
1.18,-0.03406
1.184,0.02198
1.188,-0.01285
1.192,0.05772
1.196,0.01662
1.2,-0.01508
1.204,-0.00883
1.208,0.0236
1.212,0.00511
1.216,-0.03932
1.22,-0.04861
1.224,-0.01997
1.228,-0.01699
1.232,-0.02292
1.236,-0.03154
1.24,-0.06365
1.244,0.00684
1.248,-0.00654
1.252,0.02622
1.256,0.03977
1.26,-0.03378
1.264,0.01319
1.268,0.03082
1.272,-0.01426
1.276,-0.03356
1.28,0.01179
1.284,0.00277
1.288,0.0399
1.292,-0.04402
1.296,-0.03506
1.3,-0.03441
1.304,0.02155
1.308,-0.04415
1.312,-0.0229
1.316,0.00227
1.32,0.01101
1.324,0.04944
1.328,0.03781
1.332,-0.03557
1.336,-0.00119
1.34,-0.00793
1.344,0.03818
1.348,-0.01509
1.352,-0.01609
1.356,-0.00702
1.36,-0.0475
1.364,-0.0494
1.368,-0.04545
1.372,-0.03453
1.376,-0.03536
1.38,0.00301
1.384,-0.01655
1.388,-0.00457
1.392,-0.00204
1.396,0.0016
1.4,-0.02139
1.404,-0.0229
1.408,0.0232
1.412,-0.02233
1.416,-0.01199
1.42,0.00704
1.424,0.0464
1.428,0.03055
1.432,0.0097
1.436,-0.00587
1.44,0.00564
1.444,-0.0261
1.448,0.02422
1.452,-0.00808
1.456,0.00777
1.46,-0.00037
1.464,0.0109
1.468,0.0105
1.472,-0.04235
1.476,-0.00694
1.48,-0.05662
1.484,-0.00644
1.488,0.00557
1.492,0.00734
1.496,0.03423
1.5,0.00563
1.504,0.01673
1.508,-0.0639
1.512,0.02181
1.516,-0.06506
1.52,-0.04572
1.524,-0.03236
1.528,0.00791
1.532,-0.0298
1.536,0.00956
1.54,0.00613
1.544,-0.08233
1.548,0.00266
1.552,-0.03879
1.556,0.01907
1.56,0.00743
1.564,0.05474
1.568,0.01588
1.572,0.02024
1.576,0.04824
1.58,-0.00436
1.584,0.00611
1.588,0.0109
1.592,0.0435
1.596,0.07305
1.6,0.10839
1.604,-0.00533
1.608,0.099
1.612,0.08371
1.616,0.09422
1.62,0.08726
1.624,0.06025
1.628,0.05337
1.632,0.03252
1.636,0.01314
1.64,0.01267
1.644,0.05023
1.648,-0.02832
1.652,0.00326
1.656,-0.02744
1.66,-0.01887
1.664,0.01837
1.668,-0.01901
1.672,0.03195
1.676,-0.01872
1.68,-0.00592
1.684,0.03059
1.688,-0.00689
1.692,0.00225
1.696,0.00666
1.7,-0.03165
1.704,0.05055
1.708,-0.02603
1.712,-0.0323
1.716,0.00735
1.72,-0.06227
1.724,-0.02947
1.728,-0.04106
1.732,-0.0702
1.736,-0.10066
1.74,-0.1645
1.744,-0.18261
1.748,-0.0393
1.752,0.05353
1.756,0.23164
1.76,0.35519
1.764,0.59231
1.768,0.79033
1.772,0.91436
1.776,1.01641
1.78,0.95367
1.784,0.73431
1.788,0.42001
1.792,0.23014
1.796,0.0449
1.8,-0.07387
1.804,-0.19304
1.808,-0.20587
1.812,-0.19402
1.816,-0.09085
1.82,-0.04561
1.824,-0.07747
1.828,-0.00573
1.832,-0.02384
1.836,-0.02865
1.84,-0.06776
1.844,-0.0404
1.848,-0.03573
1.852,-0.07704
1.856,-0.03772
1.86,0.01081
1.864,0.01339
1.868,0.02582
1.872,-0.07826
1.876,-0.04456
1.88,-0.04734
1.884,-0.03438
1.888,0.01029
1.892,-0.03974
1.896,0.00532
1.9,-0.00331
1.904,-0.05266
1.908,0.04137
1.912,-0.07257
1.916,-0.022
1.92,-0.05806
1.924,-0.05306
1.928,0.04502
1.932,-0.03307
1.936,0.04097
1.94,-0.09261
1.944,0.03717
1.948,-0.01924
1.952,-0.02534
1.956,0.00179
1.96,0.01515
1.964,-0.00218
1.968,0.06326
1.972,0.04212
1.976,0.01502
1.98,0.03859
1.984,0.03664
1.988,0.02886
1.992,0.09808
1.996,0.07252
2.0,0.08061
2.004,0.10552
2.008,0.10866
2.012,0.09628
2.016,0.14509
2.02,0.16351
2.024,0.11635
2.028,0.14367
2.032,0.15113
2.036,0.13293
2.04,0.20655
2.044,0.21848
2.048,0.17739
2.052,0.24582
2.056,0.2265
2.06,0.13848
2.064,0.18838
2.068,0.11407
2.072,0.15688
2.076,0.16775
2.08,0.16364
2.084,0.19878
2.088,0.07708
2.092,0.08183
2.096,0.17393
2.1,0.10566
2.104,0.07602
2.108,0.10156
2.112,0.03097
2.116,0.11813
2.12,0.06388
2.124,0.09834
2.128,-0.01717
2.132,0.02263
2.136,0.00634
2.14,0.01882
2.144,-0.01817
2.148,-0.01076
2.152,0.03544
2.156,-0.04679
2.16,0.03002
2.164,-0.0111
2.168,-0.02244
2.172,-0.03657
2.176,-0.04716
2.18,-0.03489
2.184,-0.05877
2.188,-0.02779
2.192,-0.0577
2.196,0.02991
2.2,-0.04855
2.204,-0.01935
2.208,-0.02974
2.212,-0.02245
2.216,-0.02396
2.22,-0.09602
2.224,0.03318
2.228,-0.03307
2.232,0.00643
2.236,-0.04034
2.24,-0.04501
2.244,-0.02247
2.248,0.03166
2.252,-0.07079
2.256,-0.04211
2.26,-0.05863
2.264,-0.03898
2.268,-0.0835
2.272,-0.08111
2.276,-0.05534
2.28,-0.04187
2.284,-0.03629
2.288,0.00173
2.292,-0.03545
2.296,-0.00952
2.3,-0.01781
2.304,-0.0614
2.308,-0.01324
2.312,-0.0569
2.316,0.00237
2.32,-0.00037
2.324,0.04026
2.328,0.02416
2.332,0.02199
2.336,0.06492
2.34,0.08312
2.344,0.11573
2.348,0.03338
2.352,0.1307
2.356,0.0544
2.36,-0.00269
2.364,0.0669
2.368,0.05563
2.372,0.04632
2.376,-0.03536
2.38,-0.00411
2.384,0.02685
2.388,-0.00769
2.392,-0.02898
2.396,-0.01277
2.4,-0.03576
2.404,-0.03058
2.408,-0.00714
2.412,-0.10121
2.416,-0.04882
2.42,-0.01012
2.424,0.01852
2.428,-0.01842
2.432,-0.03417
2.436,-0.04895
2.44,-0.0003
2.444,-0.024
2.448,-0.07258
2.452,-0.01891
2.456,-0.0399
2.46,-0.05737
2.464,0.05313
2.468,-0.07509
2.472,-0.10762
2.476,-0.10525
2.48,-0.20689
2.484,-0.14852
2.488,0.01062
2.492,0.15628
2.496,0.42536
2.5,0.59712
2.504,0.80708
2.508,0.93116
2.512,0.94592
2.516,0.87211
2.52,0.70158
2.524,0.50376
2.528,0.26359
2.532,-0.00113
2.536,-0.1038
2.54,-0.15567
2.544,-0.18874
2.548,-0.1995
2.552,-0.09769
2.556,-0.093
2.56,-0.06353
2.564,-0.02233
2.568,-0.03303
2.572,-0.02691
2.576,0.01034
2.58,-0.04869
2.584,0.00889
2.588,0.0243
2.592,-0.06488
2.596,0.00709
2.6,-0.03963
2.604,-0.01181
2.608,-0.01495
2.612,-0.0731
2.616,-0.09239
2.62,0.03389
2.624,-0.00283
2.628,0.00861
2.632,-0.0116
2.636,-0.00584
2.64,0.03919
2.644,0.00438
2.648,-0.06995
2.652,-0.02175
2.656,0.0102
2.66,-0.08696
2.664,-0.05429
2.668,-0.05671
2.672,-0.01336
2.676,0.00181
2.68,-0.02932
2.684,0.02533
2.688,0.02582
2.692,-0.04711
2.696,-0.02335
2.7,0.07156
2.704,-0.01529
2.708,0.01106
2.712,0.07254
2.716,0.00421
2.72,0.01815
2.724,0.07952
2.728,0.07293
2.732,0.09631
2.736,0.05646
2.74,0.08217
2.744,0.08802
2.748,0.10899
2.752,0.11032
2.756,0.10083
2.76,0.12697
2.764,0.17804
2.768,0.18708
2.772,0.23826
2.776,0.2
2.78,0.20831
2.784,0.21655
2.788,0.16634
2.792,0.21726
2.796,0.17198
2.8,0.19679
2.804,0.19679
2.808,0.15353
2.812,0.19388
2.816,0.06019
2.82,0.18668
2.824,0.13355
2.828,0.08488
2.832,0.16982
2.836,0.12814
2.84,0.05708
2.844,0.12921
2.848,0.09963
2.852,0.08009
2.856,0.04705
2.86,-0.02406
2.864,-0.05229
2.868,0.01609
2.872,0.01626
2.876,0.02325
2.88,0.02926
2.884,0.01296
2.888,-0.08661
2.892,0.01207
2.896,-0.03645
2.9,-0.002
2.904,-0.08583
2.908,-0.03388
2.912,-0.01207
2.916,-0.07277
2.92,-0.01343
2.924,-0.06354
2.928,0.00338
2.932,-0.05914
2.936,-0.03938
2.94,-0.0653
2.944,-0.11341
2.948,0.04112
2.952,-0.0489
2.956,-0.06085
2.96,0.00077
2.964,-0.02133
2.968,0.0531
2.972,-0.09587
2.976,-0.01534
2.98,-0.05802
2.984,0.06601
2.988,-0.0567
2.992,-0.05412
2.996,-0.04081
3.0,-0.0333
3.004,-0.05862
3.008,-0.03316
3.012,-0.02201
3.016,-0.00495
3.02,-0.01108
3.024,-0.07441
3.028,0.00098
3.032,-0.03019
3.036,-0.07986
3.04,-0.0471
3.044,-0.05155
3.048,-0.01846
3.052,-0.08768
3.056,0.01417
3.06,0.01199
3.064,-0.00807
3.068,-0.03241
3.072,-0.00928
3.076,-0.02162
3.08,-0.01542
3.084,-0.03404
3.088,-0.06656
3.092,0.01409
3.096,-0.00402
3.1,-0.01108
3.104,0.03412
3.108,-0.11833
3.112,-0.06206
3.116,-0.02195
3.12,-0.0791
3.124,-0.03931
3.128,-0.02165
3.132,-0.04668
3.136,-0.00987
3.14,-0.05031
3.144,-0.00642
3.148,0.0195
3.152,0.02955
3.156,-0.0499
3.16,-0.06563
3.164,-0.07774
3.168,0.05453
3.172,-0.04281
3.176,0.05132
3.18,-0.02155
3.184,-0.01615
3.188,-0.00362
3.192,-0.07299
3.196,-0.01376
3.2,-0.07999
3.204,-0.05512
3.208,-0.09562
3.212,-0.04414
3.216,-0.08114
3.22,-0.04603
3.224,0.04297
3.228,-0.01435
3.232,-0.08566
3.236,-0.0004
3.24,-0.02235
3.244,-0.04154
3.248,-0.02663
3.252,-0.04559
3.256,-0.02271
3.26,-0.02744
3.264,-0.05172
3.268,0.00206
3.272,-0.051
3.276,0.04345
3.28,0.00124
3.284,0.01964
3.288,0.0213
3.292,-0.0285
3.296,0.00742
3.3,0.04593
3.304,0.03438
3.308,0.05589
3.312,0.08957
3.316,0.09809
3.32,0.03499
3.324,0.05778
3.328,0.05555
3.332,0.00996
3.336,0.05565
3.34,-0.0025
3.344,-0.04107
3.348,0.03115
3.352,0.04867
3.356,-0.03028
3.36,-0.01959
3.364,0.00352
3.368,-0.04764
3.372,-0.00848
3.376,-0.02771
3.38,0.03401
3.384,-0.03282
3.388,-0.03987
3.392,-0.02352
3.396,0.00836
3.4,-0.03307
3.404,-0.00296
3.408,-0.03188
3.412,0.00305
3.416,-0.01686
3.42,-0.07754
3.424,-0.10959
3.428,-0.02959
3.432,-0.00561
3.436,-0.06957
3.44,-0.11409
3.444,-0.14406
3.448,-0.188
3.452,-0.06934
3.456,0.11725
3.46,0.37055
3.464,0.54095
3.468,0.78146
3.472,0.93359
3.476,1.02135
3.48,0.96212
3.484,0.78506
3.488,0.5461
3.492,0.36864
3.496,0.13431
3.5,-0.06927
3.504,-0.18942
3.508,-0.24254
3.512,-0.21744
3.516,-0.12338
3.52,-0.09043
3.524,-0.0882
3.528,-0.04999
3.532,0.00498
3.536,-0.0089
3.54,-0.08508
3.544,-0.01971
3.548,0.01079
3.552,-0.03648
3.556,-0.03165
3.56,0.02959
3.564,-0.05907
3.568,-0.03227
3.572,0.03688
3.576,0.02289
3.58,-0.05142
3.584,0.00902
3.588,-0.05222
3.592,0.01417
3.596,-0.0262
3.6,-0.00172
3.604,0.02588
3.608,-0.04154
3.612,-0.00105
3.616,0.00115
3.62,-0.01631
3.624,-0.07163
3.628,-0.05979
3.632,0.01914
3.636,-0.04934
3.64,0.01664
3.644,-0.00376
3.648,0.06944
3.652,0.00168
3.656,0.0155
3.66,0.01572
3.664,-0.00683
3.668,-0.00625
3.672,0.08252
3.676,0.00278
3.68,-0.00075
3.684,0.03275
3.688,0.05685
3.692,0.08371
3.696,0.07492
3.7,0.13312
3.704,0.04079
3.708,0.20006
3.712,0.15238
3.716,0.11901
3.72,0.14244
3.724,0.1202
3.728,0.20572
3.732,0.19607
3.736,0.1821
3.74,0.14292
3.744,0.20109
3.748,0.24714
3.752,0.1917
3.756,0.21304
3.76,0.20842
3.764,0.22335
3.768,0.20878
3.772,0.13851
3.776,0.18272
3.78,0.15798
3.784,0.17829
3.788,0.21674
3.792,0.18554
3.796,0.16032
3.8,0.09573
3.804,0.11677
3.808,0.10754
3.812,0.08613
3.816,0.04046
3.82,0.10775
3.824,0.0509
3.828,0.11834
3.832,0.07982
3.836,0.03973
3.84,-0.00662
3.844,0.00856
3.848,0.02604
3.852,-0.0111
3.856,0.02802
3.86,0.00327
3.864,0.00168
3.868,0.04167
3.872,0.04631
3.876,0.01208
3.88,-0.02623
3.884,-0.01048
3.888,0.01293
3.892,-0.03789
3.896,0.08655
3.9,0.02256
3.904,0.0063
3.908,-0.02942
3.912,0.0167
3.916,-0.03831
3.92,0.03534
3.924,0.02469
3.928,-0.05824
3.932,0.04856
3.936,0.09895
3.94,0.03567
3.944,0.05878
3.948,0.11401
3.952,0.08823
3.956,0.11263
3.96,0.06974
3.964,0.09482
3.968,0.04772
3.972,0.01766
3.976,0.05065
3.98,-0.03255
3.984,-0.00403
3.988,0.04343
3.992,0.03872
3.996,-0.04991
4.0,-0.04722
4.004,-0.05934
4.008,-0.03203
4.012,0.03559
4.016,0.03668
4.02,0.00971
4.024,-0.00798
4.028,0.04184
4.032,0.04281
4.036,-0.01782
4.04,0.03977
4.044,0.01371
4.048,0.00168
4.052,-0.02642
4.056,0.02885
4.06,-0.01168
4.064,-0.0371
4.068,-0.07031
4.072,-0.08966
4.076,-0.08122
4.08,-0.15105
4.084,-0.06144
4.088,0.11122
4.092,0.22507
4.096,0.46792
4.1,0.63498
4.104,0.83888
4.108,0.95366
4.112,0.94575
4.116,0.96174
4.12,0.7103
4.124,0.45853
4.128,0.30675
4.132,0.07417
4.136,-0.09891
4.14,-0.08712
4.144,-0.11869
4.148,-0.12301
4.152,-0.11054
4.156,-0.13856
4.16,-0.03915
4.164,-0.00392
4.168,-0.01199
4.172,-0.09773
4.176,-0.04426
4.18,0.03833
4.184,-0.05372
4.188,-0.02456
4.192,0.00743
4.196,0.03731
4.2,0.05271
4.204,0.01622
4.208,-0.03731
4.212,-0.01539
4.216,-0.04635
4.22,-0.01936
4.224,-0.02582
4.228,0.02652
4.232,-0.0191
4.236,0.0287
4.24,-0.00494
4.244,0.05318
4.248,-0.00449
4.252,-0.01542
4.256,0.03909
4.26,-0.03597
4.264,0.00051
4.268,-0.09073
4.272,0.05437
4.276,0.0105
4.28,-0.03266
4.284,0.00579
4.288,-0.00931
4.292,0.00069
4.296,-0.00589
4.3,0.00337
4.304,0.07218
4.308,0.02266
4.312,0.04028
4.316,0.05995
4.32,0.01817
4.324,0.1133
4.328,0.0903
4.332,0.07001
4.336,0.11683
4.34,0.10856
4.344,0.16833
4.348,0.21294
4.352,0.16233
4.356,0.1889
4.36,0.25847
4.364,0.18661
4.368,0.1639
4.372,0.26255
4.376,0.20204
4.38,0.24565
4.384,0.26281
4.388,0.22989
4.392,0.22004
4.396,0.1966
4.4,0.18579
4.404,0.2052
4.408,0.24584
4.412,0.23039
4.416,0.14996
4.42,0.24065
4.424,0.18241
4.428,0.10035
4.432,0.14633
4.436,0.09257
4.44,0.18558
4.444,0.17191
4.448,0.11488
4.452,0.06289
4.456,0.04431
4.46,0.02492
4.464,0.07662
4.468,0.01553
4.472,0.004
4.476,0.08311
4.48,0.03721
4.484,0.02782
4.488,0.03935
4.492,0.0499
4.496,-0.01605
4.5,0.0789
4.504,-0.04596
4.508,0.02131
4.512,-0.02163
4.516,0.0224
4.52,0.01698
4.524,-0.03382
4.528,-0.00877
4.532,0.02669
4.536,0.04215
4.54,0.02874
4.544,-0.00929
4.548,0.01756
4.552,-0.00308
4.556,0.01905
4.56,-0.04602
4.564,0.008
4.568,0.04921
4.572,0.01733
4.576,0.00576
4.58,-0.05759
4.584,0.0528
4.588,0.02486
4.592,0.00402
4.596,0.01627
4.6,0.07446
4.604,0.04813
4.608,0.03722
4.612,0.06193
4.616,0.12688
4.62,0.06259
4.624,0.10174
4.628,0.10641
4.632,0.11722
4.636,0.13495
4.64,0.12201
4.644,0.14365
4.648,0.10045
4.652,0.08733
4.656,0.08247
4.66,0.03714
4.664,0.06242
4.668,-0.00334
4.672,0.04215
4.676,-0.01598
4.68,0.0085
4.684,0.03006
4.688,0.0307
4.692,0.01301
4.696,-0.00686
4.7,0.0249
4.704,0.06075
4.708,0.02209
4.712,0.03699
4.716,0.01141
4.72,-0.00437
4.724,0.03453
4.728,0.0386
4.732,0.0226
4.736,-0.00931
4.74,0.01266
4.744,-0.0741
4.748,-0.07495
4.752,-0.09
4.756,-0.13249
4.76,-0.09073
4.764,-0.01516
4.768,0.10444
4.772,0.32069
4.776,0.55082
4.78,0.77069
4.784,0.90315
4.788,0.96341
4.792,0.98928
4.796,0.82155
4.8,0.69738
4.804,0.47581
4.808,0.22891
4.812,-0.01089
4.816,-0.09731
4.82,-0.14966
4.824,-0.14105
4.828,-0.14492
4.832,-0.08849
4.836,0.02954
4.84,-0.01397
4.844,0.07848
4.848,-0.01073
4.852,-0.01534
4.856,-0.01038
4.86,0.07359
4.864,0.01885
4.868,0.01714
4.872,0.01278
4.876,-0.02633
4.88,0.01384
4.884,0.05404
4.888,0.04856
4.892,-0.04019
4.896,-0.03411
4.9,0.03643
4.904,0.00868
4.908,0.00447
4.912,-0.01911
4.916,-0.00632
4.92,0.03425
4.924,-0.0024
4.928,0.07336
4.932,-0.00691
4.936,0.06052
4.94,-0.00555
4.944,0.0731
4.948,0.05519
4.952,-0.02769
4.956,0.11145
4.96,0.03258
4.964,0.03147
4.968,0.06171
4.972,-0.00986
4.976,-0.01487
4.98,0.09657
4.984,0.0264
4.988,0.04656
4.992,0.02838
4.996,0.06614
5.0,0.09349
5.004,0.10272
5.008,0.08541
5.012,0.1242
5.016,0.15689
5.02,0.07674
5.024,0.15272
5.028,0.11518
5.032,0.22146
5.036,0.16981
5.04,0.26629
5.044,0.20965
5.048,0.15259
5.052,0.19021
5.056,0.23298
5.06,0.25066
5.064,0.2432
5.068,0.21641
5.072,0.18556
5.076,0.21997
5.08,0.21367
5.084,0.20649
5.088,0.1894
5.092,0.2455
5.096,0.21061
5.1,0.17746
5.104,0.2112
5.108,0.16912
5.112,0.20777
5.116,0.16272
5.12,0.13615
5.124,0.10914
5.128,0.11603
5.132,0.06608
5.136,0.14405
5.14,0.04514
5.144,0.1018
5.148,0.13674
5.152,0.11169
5.156,0.07652
5.16,0.00354
5.164,0.06886
5.168,0.01047
5.172,-0.00034
5.176,0.08569
5.18,0.04174
5.184,-0.00782
5.188,0.03941
5.192,-0.0148
5.196,0.0008
5.2,0.02368
5.204,0.06613
5.208,0.02733
5.212,-0.01698
5.216,0.0023
5.22,0.00175
5.224,0.00456
5.228,0.02201
5.232,0.03543
5.236,0.01547
5.24,0.00057
5.244,0.08573
5.248,0.03153
5.252,0.01737
5.256,-0.01266
5.26,0.02955
5.264,0.03088
5.268,0.03551
5.272,0.01699
5.276,0.03645
5.28,0.00829
5.284,0.01745
5.288,0.01429
5.292,0.01322
5.296,-0.0824
5.3,0.13034
5.304,0.00399
5.308,0.05835
5.312,-0.0446
5.316,-0.03065
5.32,0.08431
5.324,-0.00462
5.328,-0.00714
5.332,-0.01334
5.336,-0.02783
5.34,0.02912
5.344,0.01926
5.348,0.03883
5.352,0.06123
5.356,0.09075
5.36,0.06427
5.364,-0.01878
5.368,-0.00023
5.372,-0.03633
5.376,0.02712
5.38,0.08466
5.384,-0.0439
5.388,0.08223
5.392,0.10064
5.396,0.0583
5.4,-0.06143
5.404,-0.01796
5.408,0.05619
5.412,0.08318
5.416,-0.02685
5.42,0.0766
5.424,0.05618
5.428,0.04314
5.432,-0.01726
5.436,0.05237
5.44,0.01579
5.444,0.06307
5.448,0.01006
5.452,0.04068
5.456,0.02541
5.46,0.07272
5.464,0.05012
5.468,0.04758
5.472,-0.034
5.476,0.0387
5.48,0.03575
5.484,-0.03158
5.488,-0.00901
5.492,-0.01473
5.496,0.0658
5.5,-0.02039
5.504,-0.02017
5.508,0.02333
5.512,0.05781
5.516,0.1045
5.52,-0.02371
5.524,-0.01787
5.528,-0.03045
5.532,0.05835
5.536,0.04255
5.54,0.02954
5.544,-0.00862
5.548,0.01166
5.552,0.07897
5.556,-0.01661
5.56,-0.03298
5.564,0.05691
5.568,0.00073
5.572,-0.01251
5.576,0.03797
5.58,-0.02113
5.584,0.01113
5.588,0.0824
5.592,-0.02933
5.596,0.02174
5.6,-0.02135
5.604,0.02674
5.608,0.0148
5.612,0.0153
5.616,0.07132
5.62,0.02692
5.624,0.03877
5.628,-0.00576
5.632,0.07013
5.636,0.01183
5.64,0.05582
5.644,0.08115
5.648,0.02176
5.652,0.04432
5.656,-0.00888
5.66,0.0272
5.664,0.0657
5.668,0.00694
5.672,0.08229
5.676,0.07775
5.68,0.00243
5.684,0.01182
5.688,-0.00414
5.692,-0.00479
5.696,0.0432
5.7,0.1171
5.704,0.0764
5.708,0.10206
5.712,0.06274
5.716,0.09131
5.72,0.16088
5.724,0.14753
5.728,0.10521
5.732,0.13982
5.736,0.05255
5.74,0.14814
5.744,0.13908
5.748,0.14818
5.752,0.09328
5.756,0.1447
5.76,0.07926
5.764,0.00488
5.768,0.041
5.772,-0.00307
5.776,0.05589
5.78,0.12562
5.784,0.04742
5.788,-0.02537
5.792,0.00109
5.796,0.02128
5.8,0.05099
5.804,0.02017
5.808,0.06132
5.812,0.02099
5.816,0.02153
5.82,-0.0623
5.824,0.06851
5.828,0.04965
5.832,0.04471
5.836,0.0277
5.84,0.02578
5.844,0.01647
5.848,-0.00974
5.852,-0.02211
5.856,-0.04134
5.86,-0.15285
5.864,-0.0849
5.868,0.00488
5.872,0.15919
5.876,0.34414
5.88,0.64068
5.884,0.81259
5.888,0.97964
5.892,0.99501
5.896,0.97714
5.9,0.77872
5.904,0.63746
5.908,0.35004
5.912,0.1574
5.916,0.00368
5.92,-0.07521
5.924,-0.15757
5.928,-0.13123
5.932,-0.12116
5.936,-0.0779
5.94,0.04285
5.944,0.06434
5.948,0.05261
5.952,-0.00359
5.956,0.01009
5.96,0.04235
5.964,0.00766
5.968,0.04057
5.972,-0.05563
5.976,0.0125
5.98,0.07704
5.984,0.05629
5.988,0.07938
5.992,0.09905
5.996,0.06956
6.0,0.05754
6.004,-0.02145
6.008,0.0077
6.012,0.03729
6.016,0.07169
6.02,-0.02083
6.024,0.09745
6.028,0.01592
6.032,0.06328
6.036,0.0398
6.04,0.02614
6.044,0.01522
6.048,0.02428
6.052,-0.02179
6.056,-0.01781
6.06,-0.03203
6.064,0.06396
6.068,0.03004
6.072,0.03559
6.076,0.0813
6.08,0.05044
6.084,0.12396
6.088,0.01819
6.092,0.09804
6.096,0.08385
6.1,0.12682
6.104,0.15211
6.108,0.09982
6.112,0.14964
6.116,0.11822
6.12,0.13259
6.124,0.13657
6.128,0.08711
6.132,0.18155
6.136,0.17947
6.14,0.22368
6.144,0.2048
6.148,0.22207
6.152,0.25468
6.156,0.18286
6.16,0.20661
6.164,0.23107
6.168,0.20378
6.172,0.288
6.176,0.25179
6.18,0.19971
6.184,0.25628
6.188,0.2405
6.192,0.2494
6.196,0.21894
6.2,0.20839
6.204,0.21061
6.208,0.22899
6.212,0.159
6.216,0.12773
6.22,0.0963
6.224,0.11321
6.228,0.1506
6.232,0.19444
6.236,0.14376
6.24,0.08488
6.244,0.04846
6.248,0.05676
6.252,0.06181
6.256,0.03754
6.26,0.0571
6.264,0.09546
6.268,0.05467
6.272,0.03474
6.276,0.01522
6.28,-0.03268
6.284,0.03846
6.288,-0.00583
6.292,0.03956
6.296,0.02379
6.3,0.01373
6.304,0.05262
6.308,-0.00392
6.312,0.01889
6.316,0.02322
6.32,0.06774
6.324,0.05839
6.328,0.01104
6.332,0.06576
6.336,0.08021
6.34,0.02273
6.344,-0.00787
6.348,0.04661
6.352,0.01346
6.356,-0.00588
6.36,0.01668
6.364,-0.0004
6.368,0.03219
6.372,-0.00082
6.376,-0.03273
6.38,0.02982
6.384,0.02618
6.388,0.04677
6.392,0.04391
6.396,0.01336
6.4,0.03988
6.404,0.03902
6.408,0.02823
6.412,0.02505
6.416,0.0524
6.42,0.03299
6.424,0.03958
6.428,0.00298
6.432,0.03987
6.436,0.0515
6.44,0.03484
6.444,-0.00766
6.448,0.01727
6.452,-0.00422
6.456,0.03857
6.46,-0.00849
6.464,0.03546
6.468,0.00094
6.472,0.04946
6.476,0.00263
6.48,0.01139
6.484,0.04277
6.488,0.01302
6.492,0.02599
6.496,0.06058
6.5,0.03593
6.504,-8e-05
6.508,0.01024
6.512,0.01553
6.516,0.02352
6.52,-0.00011
6.524,0.02241
6.528,0.10745
6.532,0.0059
6.536,0.06403
6.54,0.0904
6.544,0.02783
6.548,0.05646
6.552,0.0437
6.556,0.00374
6.56,0.02216
6.564,0.01783
6.568,-0.00132
6.572,0.05213
6.576,0.03196
6.58,0.0368
6.584,-0.00943
6.588,0.06402
6.592,-0.03348
6.596,0.07927
6.6,-0.01802
6.604,0.01383
6.608,-0.0139
6.612,-0.00093
6.616,-0.03121
6.62,0.0421
6.624,0.02202
6.628,0.0467
6.632,0.04324
6.636,0.06624
6.64,0.03105
6.644,0.01126
6.648,0.0683
6.652,0.09027
6.656,0.03789
6.66,0.05317
6.664,0.10624
6.668,0.13521
6.672,0.15141
6.676,0.17711
6.68,0.15884
6.684,0.23751
6.688,0.11773
6.692,0.09467
6.696,0.12164
6.7,0.14378
6.704,0.03547
6.708,0.0862
6.712,-0.00354
6.716,0.01641
6.72,0.04567
6.724,0.06357
6.728,-0.02581
6.732,0.10798
6.736,0.04384
6.74,-0.01958
6.744,0.02819
6.748,-0.00255
6.752,0.07294
6.756,0.00152
6.76,0.05038
6.764,-0.02878
6.768,0.00086
6.772,-0.06742
6.776,-0.01291
6.78,0.00917
6.784,-0.01692
6.788,-0.0496
6.792,-0.04394
6.796,-0.09705
6.8,-0.01903
6.804,-0.12198
6.808,-0.02844
6.812,0.03687
6.816,0.14208
6.82,0.37313
6.824,0.62829
6.828,0.77092
6.832,0.89242
6.836,0.98663
6.84,0.9192
6.844,0.83967
6.848,0.61896
6.852,0.43314
6.856,0.23375
6.86,0.02956
6.864,-0.11948
6.868,-0.13392
6.872,-0.15343
6.876,-0.15239
6.88,-0.08357
6.884,-0.0598
6.888,0.01095
6.892,-0.01102
6.896,-0.02587
6.9,-0.0016
6.904,0.03288
6.908,0.02607
6.912,0.00676
6.916,0.00359
6.92,0.01269
6.924,0.09033
6.928,0.06051
6.932,-0.05725
6.936,0.05144
6.94,0.0188
6.944,0.04104
6.948,0.01178
6.952,0.00396
6.956,-0.00743
6.96,0.04977
6.964,-0.0186
6.968,0.03476
6.972,-0.02696
6.976,0.06728
6.98,0.04497
6.984,-0.03386
6.988,0.07601
6.992,0.06342
6.996,-0.00936
7.0,0.02994
7.004,-0.00223
7.008,0.07494
7.012,0.04051
7.016,0.02219
7.02,0.05383
7.024,0.06016
7.028,0.02393
7.032,0.01032
7.036,0.05504
7.04,0.07671
7.044,0.07317
7.048,0.06881
7.052,0.09531
7.056,0.09175
7.06,0.08951
7.064,0.12505
7.068,0.12665
7.072,0.18717
7.076,0.14004
7.08,0.15974
7.084,0.18245
7.088,0.20136
7.092,0.23583
7.096,0.20974
7.1,0.21653
7.104,0.21338
7.108,0.2675
7.112,0.19088
7.116,0.24835
7.12,0.26211
7.124,0.21813
7.128,0.23805
7.132,0.19756
7.136,0.21808
7.14,0.27499
7.144,0.15065
7.148,0.23873
7.152,0.10753
7.156,0.22181
7.16,0.11255
7.164,0.14763
7.168,0.11983
7.172,0.10113
7.176,0.10536
7.18,0.11917
7.184,0.06938
7.188,0.06362
7.192,0.06362
7.196,0.05572
7.2,0.03111
7.204,-0.0169
7.208,-0.00124
7.212,0.03309
7.216,0.02787
7.22,-0.00062
7.224,0.05454
7.228,-0.04981
7.232,-0.01018
7.236,0.05059
7.24,-0.02353
7.244,0.01533
7.248,-0.02378
7.252,-0.06994
7.256,0.06381
7.26,0.02548
7.264,0.02314
7.268,0.02117
7.272,0.0331
7.276,0.03055
7.28,0.01814
7.284,-0.04037
7.288,0.00925
7.292,0.02047
7.296,0.01607
7.3,-0.01538
7.304,-0.01489
7.308,-0.07728
7.312,0.03371
7.316,-0.01205
7.32,-0.02513
7.324,0.0069
7.328,0.00032
7.332,0.00529
7.336,-0.00265
7.34,0.02485
7.344,-0.00507
7.348,0.00151
7.352,0.05478
7.356,0.07591
7.36,-0.03132
7.364,0.00248
7.368,-0.02193
7.372,-0.00887
7.376,0.0253
7.38,-0.04552
7.384,-0.01744
7.388,0.03629
7.392,0.02203
7.396,-0.04075
7.4,0.03694
7.404,0.0295
7.408,-0.05205
7.412,-0.00841
7.416,0.04344
7.42,0.00292
7.424,0.03497
7.428,0.0413
7.432,0.02463
7.436,-0.04925
7.44,0.02769
7.444,0.06037
7.448,-0.05844
7.452,-0.0117
7.456,0.00259
7.46,-0.00953
7.464,-0.00911
7.468,0.01542
7.472,0.02619
7.476,0.02439
7.48,-0.02566
7.484,-0.01359
7.488,-0.01176
7.492,-0.01008
7.496,0.03835
7.5,0.00439
7.504,0.01065
7.508,0.05852
7.512,0.07851
7.516,0.04815
7.52,0.03191
7.524,0.08682
7.528,0.05169
7.532,0.08968
7.536,0.1316
7.54,0.06664
7.544,0.07745
7.548,0.0925
7.552,0.07025
7.556,0.04238
7.56,0.07646
7.564,0.02482
7.568,0.02263
7.572,0.02504
7.576,0.08116
7.58,-0.00938
7.584,-0.00048
7.588,0.06894
7.592,0.00143
7.596,-0.05684
7.6,0.00625
7.604,-0.03128
7.608,0.0175
7.612,0.06799
7.616,0.00201
7.62,0.02036
7.624,0.04327
7.628,-0.01232
7.632,0.00216
7.636,-0.00061
7.64,-0.00409
7.644,-0.06752
7.648,0.02871
7.652,-0.04417
7.656,-0.07091
7.66,-0.01793
7.664,-0.1329
7.668,-0.08402
7.672,-0.06798
7.676,0.00349
7.68,0.08617
7.684,0.28106
7.688,0.47245
7.692,0.71168
7.696,0.79057
7.7,1.03277
7.704,1.01573
7.708,0.90617
7.712,0.63027
7.716,0.4283
7.72,0.24653
7.724,-0.01643
7.728,-0.09811
7.732,-0.13412
7.736,-0.15711
7.74,-0.09162
7.744,-0.10816
7.748,-0.05524
7.752,0.00909
7.756,-0.02514
7.76,-0.06854
7.764,-0.00013
7.768,0.08297
7.772,-0.03033
7.776,0.0096
7.78,-0.03152
7.784,-0.01063
7.788,-0.05231
7.792,-0.03127
7.796,0.00388
7.8,0.03629
7.804,0.03332
7.808,-0.00586
7.812,0.03164
7.816,-0.01807
7.82,-0.02592
7.824,0.01386
7.828,-0.02475
7.832,0.02105
7.836,-0.01174
7.84,-0.0079
7.844,0.03643
7.848,0.04754
7.852,-0.06434
7.856,0.02797
7.86,0.00728
7.864,0.01673
7.868,0.00086
7.872,0.04278
7.876,0.0668
7.88,-0.00917
7.884,0.01556
7.888,0.03943
7.892,0.04112
7.896,-0.00852
7.9,0.07036
7.904,0.03474
7.908,0.06437
7.912,0.02848
7.916,0.05982
7.92,0.09468
7.924,0.05684
7.928,0.11551
7.932,0.09222
7.936,0.09076
7.94,0.10664
7.944,0.09381
7.948,0.15991
7.952,0.19764
7.956,0.13897
7.96,0.21603
7.964,0.21705
7.968,0.15775
7.972,0.16299
7.976,0.182
7.98,0.18206
7.984,0.24303
7.988,0.2395
7.992,0.19801
7.996,0.24402
8.0,0.15319
8.004,0.14763
8.008,0.22133
8.012,0.22465
8.016,0.16053
8.02,0.16181
8.024,0.09555
8.028,0.11465
8.032,0.15513
8.036,0.14461
8.04,0.06666
8.044,0.11063
8.048,0.07681
8.052,0.04898
8.056,0.04927
8.06,0.09873
8.064,-0.02719
8.068,0.03146
8.072,0.05342
8.076,0.02225
8.08,0.02284
8.084,-0.05803
8.088,-0.00015
8.092,-0.00787
8.096,0.02782
8.1,-0.02921
8.104,0.04334
8.108,0.01726
8.112,-0.0426
8.116,-0.05623
8.12,0.01462
8.124,-0.06476
8.128,0.04461
8.132,-0.02815
8.136,-0.0304
8.14,-0.03845
8.144,-0.05415
8.148,0.0282
8.152,-0.0209
8.156,-0.02004
8.16,-0.02118
8.164,-0.01968
8.168,-0.03167
8.172,0.01621
8.176,-0.03878
8.18,-0.03247
8.184,0.01416
8.188,-0.09121
8.192,0.04064
8.196,-0.11594
8.2,-0.02816
8.204,0.03495
8.208,-0.00783
8.212,-0.05809
8.216,-0.01148
8.22,0.00826
8.224,-0.02465
8.228,-0.04218
8.232,-0.00219
8.236,-0.00827
8.24,-0.09222
8.244,-0.11948
8.248,-0.01518
8.252,-0.00245
8.256,0.01061
8.26,0.0084
8.264,-0.02727
8.268,-0.04905
8.272,-0.0518
8.276,-0.00117
8.28,-0.0457
8.284,0.02026
8.288,-0.02325
8.292,0.00444
8.296,-0.04845
8.3,-0.00854
8.304,-0.05161
8.308,-0.04816
8.312,-0.03855
8.316,0.03317
8.32,0.03895
8.324,0.0786
8.328,0.04227
8.332,0.06317
8.336,0.02562
8.34,0.03419
8.344,0.10139
8.348,0.08016
8.352,0.09873
8.356,0.0288
8.36,0.06434
8.364,0.00367
8.368,-0.03088
8.372,-0.01025
8.376,-0.00046
8.38,-0.05633
8.384,0.01182
8.388,0.02405
8.392,0.03478
8.396,-0.00022
8.4,-0.0002
8.404,0.01915
8.408,0.01604
8.412,0.02514
8.416,-0.01335
8.42,-0.00058
8.424,-0.01045
8.428,-0.0185
8.432,-0.02585
8.436,-0.00613
8.44,0.02252
8.444,-0.05169
8.448,-0.05494
8.452,0.00588
8.456,0.00272
8.46,-0.01982
8.464,-0.06482
8.468,-0.04828
8.472,-0.14191
8.476,-0.12408
8.48,-0.03534
8.484,0.0786
8.488,0.35138
8.492,0.59202
8.496,0.74919
8.5,0.85425
8.504,1.01211
8.508,0.9368
8.512,0.71812
8.516,0.61324
8.52,0.35451
8.524,0.16221
8.528,-0.05898
8.532,-0.08306
8.536,-0.16042
8.54,-0.16492
8.544,-0.1727
8.548,-0.15698
8.552,-0.10841
8.556,-0.07816
8.56,-0.07336
8.564,-0.00177
8.568,-0.00194
8.572,-0.01522
8.576,-0.03713
8.58,-0.05703
8.584,-0.01621
8.588,0.01611
8.592,0.02439
8.596,0.02929
8.6,-0.00976
8.604,0.04869
8.608,-0.04012
8.612,0.01674
8.616,-0.03409
8.62,-0.0691
8.624,-0.02572
8.628,-0.04765
8.632,-0.03452
8.636,-0.04235
8.64,-0.03486
8.644,-0.02127
8.648,-0.01491
8.652,-0.04057
8.656,-0.01999
8.66,-0.07633
8.664,0.01733
8.668,-0.0474
8.672,-0.0246
8.676,-0.08175
8.68,-0.03645
8.684,-0.04512
8.688,0.03412
8.692,0.02401
8.696,-0.04662
8.7,0.01792
8.704,-0.01419
8.708,-0.02431
8.712,0.00194
8.716,0.01683
8.72,0.03548
8.724,0.05341
8.728,0.09277
8.732,0.11256
8.736,0.01159
8.74,0.13811
8.744,0.0161
8.748,0.18497
8.752,0.14706
8.756,0.16584
8.76,0.11276
8.764,0.20112
8.768,0.1897
8.772,0.22569
8.776,0.20618
8.78,0.21087
8.784,0.1613
8.788,0.14893
8.792,0.19517
8.796,0.20852
8.8,0.1916
8.804,0.17822
8.808,0.17268
8.812,0.19195
8.816,0.12455
8.82,0.16498
8.824,0.11529
8.828,0.12685
8.832,0.15943
8.836,0.07693
8.84,0.01164
8.844,0.09604
8.848,0.02502
8.852,0.02806
8.856,0.01871
8.86,0.02598
8.864,0.03084
8.868,0.00089
8.872,0.00328
8.876,-0.06161
8.88,-0.02185
8.884,-0.04067
8.888,0.05989
8.892,-0.02138
8.896,-0.03229
8.9,0.03055
8.904,0.01323
8.908,-0.05102
8.912,-0.0056
8.916,0.00109
8.92,0.00135
8.924,-0.04742
8.928,-0.01611
8.932,-0.02585
8.936,-0.07194
8.94,0.03561
8.944,-0.02192
8.948,-0.0051
8.952,-0.06475
8.956,-1e-05
8.96,-0.0444
8.964,-0.00194
8.968,-0.06527
8.972,-0.04036
8.976,-0.02961
8.98,-0.07845
8.984,0.01114
8.988,-0.05144
8.992,-0.07246
8.996,0.02416
9.0,-0.05928
9.004,-0.04992
9.008,0.01335
9.012,-0.06434
9.016,-0.02686
9.02,-0.09315
9.024,-0.01431
9.028,-0.00724
9.032,-0.03164
9.036,0.00954
9.04,-0.07574
9.044,0.01753
9.048,0.02042
9.052,-0.01416
9.056,-0.02077
9.06,0.00885
9.064,0.02059
9.068,-0.05697
9.072,-0.03502
9.076,-0.05626
9.08,-0.02106
9.084,-0.00364
9.088,-0.00777
9.092,-0.04284
9.096,-0.02325
9.1,0.02199
9.104,-0.03428
9.108,-0.07674
9.112,-0.02742
9.116,0.0231
9.12,-0.0872
9.124,-0.02015
9.128,-0.06912
9.132,0.00334
9.136,0.00351
9.14,-0.04295
9.144,-0.02353
9.148,-0.04862
9.152,-0.01731
9.156,-0.06568
9.16,-0.04709
9.164,0.04548
9.168,-0.00554
9.172,-0.01422
9.176,-0.02672
9.18,-0.01208
9.184,0.01506
9.188,-0.01392
9.192,-0.02764
9.196,0.00769
9.2,-0.08947
9.204,-0.02604
9.208,-0.10769
9.212,-0.01708
9.216,-0.05872
9.22,-0.03349
9.224,0.02826
9.228,0.02037
9.232,-0.01917
9.236,-0.0675
9.24,-0.02266
9.244,-0.06584
9.248,0.02496
9.252,-0.06391
9.256,0.02516
9.26,-0.01402
9.264,-0.06847
9.268,-0.07148
9.272,0.00968
9.276,-0.03303
9.28,-0.01477
9.284,-0.02106
9.288,0.00953
9.292,-0.00978
9.296,-0.03955
9.3,-0.02168
9.304,-0.09516
9.308,-0.0101
9.312,-0.02271
9.316,0.02151
9.32,-0.05209
9.324,0.03437
9.328,-0.05067
9.332,-0.02814
9.336,-0.03097
9.34,0.02469
9.344,-0.00505
9.348,0.01281
9.352,0.02881
9.356,-0.02389
9.36,0.02098
9.364,0.05334
9.368,0.04731
9.372,0.03335
9.376,0.08272
9.38,0.08021
9.384,0.066
9.388,0.04725
9.392,0.04164
9.396,0.04198
9.4,0.0626
9.404,0.0147
9.408,0.00164
9.412,-0.05482
9.416,0.00266
9.42,-0.00212
9.424,0.02613
9.428,-0.00417
9.432,-0.02092
9.436,0.01535
9.44,0.00013
9.444,-0.06959
9.448,-0.08034
9.452,-0.04546
9.456,0.03638
9.46,-0.0467
9.464,0.0011
9.468,-0.00174
9.472,-0.08319
9.476,-0.06297
9.48,-0.03989
9.484,-0.00314
9.488,-0.05365
9.492,-0.06665
9.496,-0.00698
9.5,-0.07817
9.504,-0.17581
9.508,-0.13912
9.512,-0.08975
9.516,-0.01487
9.52,0.19584
9.524,0.3237
9.528,0.57702
9.532,0.65099
9.536,0.81712
9.54,1.00642
9.544,0.92577
9.548,0.83413
9.552,0.60163
9.556,0.34396
9.56,0.14476
9.564,0.00198
9.568,-0.15605
9.572,-0.18169
9.576,-0.216
9.58,-0.17682
9.584,-0.15193
9.588,-0.05568
9.592,-0.02936
9.596,-0.00106
9.6,-0.03381
9.604,-0.02926
9.608,-0.02679
9.612,-0.02359
9.616,-0.01003
9.62,0.01404
9.624,-0.06711
9.628,-0.00271
9.632,-0.02688
9.636,-0.03556
9.64,-0.01218
9.644,-0.09695
9.648,0.00257
9.652,-0.04424
9.656,-0.05854
9.66,0.01341
9.664,-0.01412
9.668,-0.02824
9.672,0.04209
9.676,-0.05597
9.68,-0.01363
9.684,-0.05874
9.688,-0.01772
9.692,-0.06394
9.696,0.01704
9.7,-0.0524
9.704,-0.01338
9.708,0.03241
9.712,-0.06191
9.716,-0.00095
9.72,-0.04805
9.724,-0.05233
9.728,0.03471
9.732,-0.03689
9.736,0.02718
9.74,0.01913
9.744,0.04075
9.748,-0.02043
9.752,-0.00295
9.756,-6e-05
9.76,0.03949
9.764,0.06951
9.768,0.08874
9.772,0.0949
9.776,0.13265
9.78,0.10324
9.784,0.07977
9.788,0.09548
9.792,0.20492
9.796,0.16339
9.8,0.18755
9.804,0.11842
9.808,0.2101
9.812,0.15864
9.816,0.23235
9.82,0.27278
9.824,0.15807
9.828,0.14672
9.832,0.21505
9.836,0.21884
9.84,0.18748
9.844,0.19256
9.848,0.1928
9.852,0.13891
9.856,0.16577
9.86,0.14116
9.864,0.1395
9.868,0.14103
9.872,0.06136
9.876,0.06693
9.88,0.065
9.884,0.06572
9.888,0.10661
9.892,0.04775
9.896,0.00812
9.9,-0.01961
9.904,-0.02973
9.908,-0.00724
9.912,0.01437
9.916,0.01339
9.92,-0.03345
9.924,0.06796
9.928,-0.03426
9.932,-0.05791
9.936,0.01732
9.94,-0.03382
9.944,0.02272
9.948,-0.00595
9.952,-0.07014
9.956,-0.00796
9.96,0.08105
9.964,-0.02911
9.968,-0.03405
9.972,-0.01544
9.976,0.04201
9.98,-0.07231
9.984,0.00371
9.988,-0.05735
9.992,-0.03682
9.996,0.02212
