t_seg,ecg_mV
0.0,0.03045
0.004,0.00765
0.008,-0.00339
0.012,0.04241
0.016,0.02192
0.02,0.02905
0.024,-0.0111
0.028,0.01003
0.032,0.00943
0.036,0.0229
0.04,0.00146
0.044,0.01455
0.048,0.02652
0.052,0.01009
0.056,-0.00306
0.06,0.0269
0.064,0.01959
0.068,0.04053
0.072,-0.00341
0.076,0.00673
0.08,0.01438
0.084,0.03992
0.088,0.03849
0.092,0.03194
0.096,0.03574
0.1,0.01193
0.104,0.02228
0.108,0.02784
0.112,0.00416
0.116,0.02917
0.12,0.00226
0.124,0.00323
0.128,0.03155
0.132,0.01893
0.136,0.05409
0.14,0.02642
0.144,0.02833
0.148,0.00672
0.152,0.01572
0.156,0.00234
0.16,0.00485
0.164,0.03246
0.168,-0.01443
0.172,0.02244
0.176,-0.01642
0.18,0.0231
0.184,-0.00445
0.188,-0.00281
0.192,-0.00116
0.196,0.04104
0.2,0.00947
0.204,0.04663
0.208,0.01773
0.212,0.00194
0.216,0.0324
0.22,0.0127
0.224,0.00837
0.228,0.03303
0.232,0.03583
0.236,0.03081
0.24,0.05139
0.244,0.0741
0.248,0.06422
0.252,0.05749
0.256,0.08941
0.26,0.1088
0.264,0.1229
0.268,0.12396
0.272,0.12377
0.276,0.08954
0.28,0.10587
0.284,0.10104
0.288,0.08035
0.292,0.07761
0.296,0.03472
0.3,0.04232
0.304,0.0102
0.308,0.02413
0.312,0.00732
0.316,-0.04174
0.32,0.0091
0.324,0.0002
0.328,0.00545
0.332,0.00161
0.336,0.01024
0.34,0.03083
0.344,0.01536
0.348,0.02073
0.352,0.00116
0.356,0.01025
0.36,-0.00076
0.364,-0.02111
0.368,-0.00991
0.372,0.00749
0.376,-0.01184
0.38,-0.0318
0.384,0.00108
0.388,-0.02718
0.392,-0.08183
0.396,-0.12335
0.4,-0.08502
0.404,0.00179
0.408,0.15585
0.412,0.36551
0.416,0.58795
0.42,0.78964
0.424,0.94449
0.428,1.00035
0.432,0.93119
0.436,0.81121
0.44,0.60106
0.444,0.37562
0.448,0.12105
0.452,-0.0169
0.456,-0.10055
0.46,-0.17916
0.464,-0.16086
0.468,-0.12192
0.472,-0.10018
0.476,-0.02615
0.48,-0.00032
0.484,-0.0136
0.488,-0.01017
0.492,0.0126
0.496,0.0179
0.5,0.02274
0.504,-0.04403
0.508,-0.02011
0.512,0.02275
0.516,-0.0104
0.52,0.0178
0.524,-0.01259
0.528,-0.02337
0.532,-0.01018
0.536,-0.00252
0.54,0.00029
0.544,0.00094
0.548,0.00502
0.552,-0.00048
0.556,0.01317
0.56,-0.00748
0.564,-0.00314
0.568,-0.00103
0.572,0.02426
0.576,0.00744
0.58,0.00785
0.584,-0.00849
0.588,-0.01241
0.592,0.01702
0.596,0.03247
0.6,0.008
0.604,0.02676
0.608,0.01002
0.612,0.01339
0.616,0.03315
0.62,0.02984
0.624,0.0365
0.628,0.03841
0.632,0.05528
0.636,0.05697
0.64,0.04705
0.644,0.05819
0.648,0.11035
0.652,0.11658
0.656,0.12248
0.66,0.13018
0.664,0.12508
0.668,0.16354
0.672,0.19137
0.676,0.17757
0.68,0.19431
0.684,0.18369
0.688,0.19563
0.692,0.20384
0.696,0.21815
0.7,0.20397
0.704,0.20544
0.708,0.21828
0.712,0.18909
0.716,0.18059
0.72,0.21611
0.724,0.23065
0.728,0.19811
0.732,0.20264
0.736,0.19016
0.74,0.15261
0.744,0.13817
0.748,0.13642
0.752,0.13931
0.756,0.13508
0.76,0.10206
0.764,0.10128
0.768,0.06322
0.772,0.085
0.776,0.09102
0.78,0.05558
0.784,0.05345
0.788,0.05082
0.792,0.04418
0.796,0.03269
0.8,0.02854
0.804,0.01381
0.808,-0.01596
0.812,0.00633
0.816,-0.00453
0.82,-0.04234
0.824,-0.00234
0.828,0.00778
0.832,0.01461
0.836,-0.01159
0.84,0.01279
0.844,-0.02876
0.848,0.00443
0.852,0.04089
0.856,0.00366
0.86,-0.01592
0.864,-0.00827
0.868,0.00372
0.872,0.01427
0.876,0.0001
0.88,-0.03078
0.884,0.00296
0.888,0.00311
0.892,0.01653
0.896,0.0186
0.9,-0.00269
0.904,-0.01645
0.908,-0.00394
0.912,0.00186
0.916,-0.02975
0.92,0.01229
0.924,0.00301
0.928,-0.00559
0.932,-0.01937
0.936,-0.04501
0.94,-0.00609
0.944,-0.00669
0.948,-0.00576
0.952,-0.01031
0.956,-0.01892
0.96,0.00414
0.964,0.01532
0.968,-0.02571
0.972,-0.03545
0.976,-0.00233
0.98,-0.01977
0.984,-0.02631
0.988,0.00945
0.992,0.01198
0.996,-0.01832
1.0,-0.04044
1.004,0.01355
1.008,-0.01502
1.012,-0.02905
1.016,-0.01714
1.02,0.0112
1.024,0.00535
1.028,-0.01739
1.032,-0.00672
1.036,0.00265
1.04,-0.02997
1.044,-0.01103
1.048,0.00222
1.052,0.00018
1.056,-0.00236
1.06,0.00069
1.064,-0.01061
1.068,-0.03171
1.072,-0.00721
1.076,-0.0248
1.08,-0.02587
1.084,-0.02098
1.088,-0.00629
1.092,-0.00105
1.096,-0.0399
1.1,-0.00579
1.104,-0.00793
1.108,-0.00172
1.112,-0.024
1.116,-0.00898
1.12,-0.00051
1.124,0.03455
1.128,0.03354
1.132,0.03535
1.136,0.02087
1.14,0.05203
1.144,0.05831
1.148,0.06854
1.152,0.09874
1.156,0.09333
1.16,0.0914
1.164,0.08611
1.168,0.07877
1.172,0.05827
1.176,0.04892
1.18,0.04865
1.184,0.03271
1.188,0.00231
1.192,-0.0019
1.196,0.00324
1.2,-0.01317
1.204,0.02282
1.208,-0.03566
1.212,-0.02922
1.216,-0.04327
1.22,-0.02468
1.224,-0.03661
1.228,-0.01563
1.232,-0.00462
1.236,-0.03637
1.24,-0.02743
1.244,-0.00845
1.248,-0.0186
1.252,-0.02827
1.256,0.0101
1.26,-0.02521
1.264,-0.02443
1.268,-0.03331
1.272,-0.0273
1.276,-0.0569
1.28,-0.09915
1.284,-0.13756
1.288,-0.12258
1.292,-0.07785
1.296,0.05128
1.3,0.20367
1.304,0.42424
1.308,0.63426
1.312,0.82864
1.316,0.92357
1.32,0.9909
1.324,0.90423
1.328,0.74201
1.332,0.48245
1.336,0.25792
1.34,0.05164
1.344,-0.06359
1.348,-0.16675
1.352,-0.17029
1.356,-0.14264
1.36,-0.10562
1.364,-0.09578
1.368,-0.03077
1.372,-0.03514
1.376,-0.00628
1.38,-0.02856
1.384,-0.02747
1.388,-0.0439
1.392,-0.01943
1.396,-0.02131
1.4,-0.03216
1.404,-0.0412
1.408,-0.02893
1.412,-0.01633
1.416,-0.02975
1.42,0.00496
1.424,0.0013
1.428,-0.04844
1.432,-0.0306
1.436,-0.02206
1.44,-0.01947
1.444,-0.04215
1.448,-0.01954
1.452,-0.03308
1.456,-0.01213
1.46,-0.02802
1.464,-0.01974
1.468,-0.01716
1.472,-0.02654
1.476,-0.0351
1.48,0.00051
1.484,0.00963
1.488,-0.01373
1.492,0.00914
1.496,-0.01864
1.5,-0.0055
1.504,-0.01881
1.508,0.00677
1.512,-0.00064
1.516,0.0023
1.52,0.03915
1.524,0.05289
1.528,0.07739
1.532,0.04878
1.536,0.09482
1.54,0.06565
1.544,0.09328
1.548,0.10957
1.552,0.05775
1.556,0.14502
1.56,0.10765
1.564,0.12434
1.568,0.1257
1.572,0.1646
1.576,0.1796
1.58,0.17612
1.584,0.1957
1.588,0.2042
1.592,0.19615
1.596,0.17505
1.6,0.21065
1.604,0.19407
1.608,0.17655
1.612,0.16827
1.616,0.17382
1.62,0.16308
1.624,0.16216
1.628,0.13815
1.632,0.16274
1.636,0.13304
1.64,0.11134
1.644,0.09691
1.648,0.12678
1.652,0.09191
1.656,0.07712
1.66,0.08022
1.664,0.05362
1.668,0.04633
1.672,0.05527
1.676,0.03709
1.68,0.00422
1.684,-0.00319
1.688,-0.00334
1.692,0.00306
1.696,0.00477
1.7,-0.01673
1.704,-0.01286
1.708,0.02667
1.712,0.00147
1.716,-0.00145
1.72,-0.05271
1.724,0.00154
1.728,-0.0295
1.732,-0.01966
1.736,-0.00849
1.74,-0.01558
1.744,-0.0239
1.748,-0.02798
1.752,-0.032
1.756,-0.03354
1.76,-0.0253
1.764,-0.01917
1.768,-0.00955
1.772,-0.03189
1.776,-0.0243
1.78,-0.01138
1.784,-0.02656
1.788,-0.00385
1.792,-0.04108
1.796,-0.01796
1.8,-0.02811
1.804,-0.03668
1.808,-0.04227
1.812,-0.02748
1.816,-0.0155
1.82,-0.02793
1.824,-0.04857
1.828,-0.02052
1.832,-0.03762
1.836,-0.0244
1.84,-0.04386
1.844,-0.01542
1.848,-0.02756
1.852,-0.04176
1.856,-0.03487
1.86,-0.01779
1.864,-0.02552
1.868,-0.00742
1.872,-0.00799
1.876,-0.03144
1.88,-0.04568
1.884,-0.03143
1.888,-0.06776
1.892,-0.02679
1.896,-0.03675
1.9,-0.04667
1.904,-0.04019
1.908,-0.04252
1.912,-0.03205
1.916,-0.02663
1.92,-0.04502
1.924,-0.03522
1.928,-0.06329
1.932,-0.05145
1.936,-0.01436
1.94,-0.01016
1.944,-0.02797
1.948,-0.05041
1.952,-0.02188
1.956,-0.01958
1.96,-0.04317
1.964,-0.02675
1.968,-0.03121
1.972,-0.02375
1.976,-0.0409
1.98,-0.01379
1.984,0.00268
1.988,-0.0462
1.992,-0.03262
1.996,-0.00178
2.0,-0.02656
2.004,-0.02336
2.008,-0.03895
2.012,-0.03345
2.016,0.00402
2.02,-0.04581
2.024,-0.00345
2.028,-0.03016
2.032,-0.02751
2.036,-0.0381
2.04,-0.02135
2.044,-0.02854
2.048,0.00628
2.052,-0.03891
2.056,-0.03387
2.06,-0.02483
2.064,-0.01921
2.068,-0.01386
2.072,-0.00924
2.076,-0.0111
2.08,-0.03496
2.084,-0.01834
2.088,-0.03825
2.092,-0.01728
2.096,-0.01034
2.1,0.00184
2.104,-0.01344
2.108,0.01106
2.112,0.0033
2.116,0.00788
2.12,0.02646
2.124,0.03894
2.128,0.07418
2.132,0.04047
2.136,0.0415
2.14,0.08762
2.144,0.07569
2.148,0.06921
2.152,0.07044
2.156,0.0641
2.16,0.0243
2.164,0.02855
2.168,0.00971
2.172,0.01996
2.176,0.00418
2.18,0.01085
2.184,-0.0156
2.188,-0.02112
2.192,-0.02932
2.196,-0.01366
2.2,-0.02801
2.204,-0.00574
2.208,-0.04178
2.212,-0.05192
2.216,-0.04014
2.22,-0.0359
2.224,-0.02603
2.228,-0.02679
2.232,-0.03902
2.236,-0.05864
2.24,-0.02115
2.244,-0.02209
2.248,-0.05478
2.252,-0.04873
2.256,-0.0306
2.26,-0.07213
2.264,-0.13186
2.268,-0.13004
2.272,-0.14756
2.276,-0.1202
2.28,0.01657
2.284,0.2031
2.288,0.43949
2.292,0.63597
2.296,0.81475
2.3,0.93667
2.304,0.94482
2.308,0.86564
2.312,0.68189
2.316,0.45784
2.32,0.23918
2.324,0.00999
2.328,-0.11352
2.332,-0.23492
2.336,-0.18196
2.34,-0.18179
2.344,-0.1582
2.348,-0.08519
2.352,-0.07024
2.356,-0.06855
2.36,-0.03781
2.364,-0.03845
2.368,-0.01022
2.372,-0.02418
2.376,-0.02262
2.38,-0.00074
2.384,-0.02071
2.388,-0.0253
2.392,-0.04405
2.396,-0.02475
2.4,-0.02527
2.404,-0.04216
2.408,-0.0388
2.412,-0.01899
2.416,-0.03242
2.42,-0.02799
2.424,-0.01394
2.428,-0.04109
2.432,-0.03956
2.436,-0.02685
2.44,-0.03115
2.444,-0.03386
2.448,-0.00186
2.452,-0.0194
2.456,-0.02029
2.46,-0.03223
2.464,-0.00378
2.468,-0.01835
2.472,-0.03824
2.476,-0.00897
2.48,-0.0365
2.484,-0.01208
2.488,-0.0013
2.492,-0.0144
2.496,0.02849
2.5,0.02586
2.504,0.01164
2.508,0.02631
2.512,0.02909
2.516,0.04568
2.52,0.0668
2.524,0.07877
2.528,0.06548
2.532,0.10526
2.536,0.12236
2.54,0.12221
2.544,0.11941
2.548,0.12575
2.552,0.1681
2.556,0.15686
2.56,0.167
2.564,0.19857
2.568,0.17901
2.572,0.21266
2.576,0.18425
2.58,0.19432
2.584,0.22704
2.588,0.19363
2.592,0.1965
2.596,0.17211
2.6,0.21574
2.604,0.16574
2.608,0.15889
2.612,0.15704
2.616,0.12553
2.62,0.12805
2.624,0.13324
2.628,0.11133
2.632,0.08233
2.636,0.07464
2.64,0.10316
2.644,0.05848
2.648,0.0766
2.652,0.0392
2.656,0.02361
2.66,0.02933
2.664,0.00016
2.668,0.02616
2.672,0.02518
2.676,0.01221
2.68,0.01221
2.684,-0.02624
2.688,-0.00337
2.692,-0.01183
2.696,0.01216
2.7,-0.01566
2.704,-0.02557
2.708,-0.01543
2.712,-0.01122
2.716,-0.01924
2.72,-0.03279
2.724,-0.0084
2.728,-0.02938
2.732,-0.0246
2.736,-0.02046
2.74,-0.02964
2.744,-0.01628
2.748,0.00255
2.752,-0.01427
2.756,-0.05605
2.76,-0.01792
2.764,-0.00714
2.768,-0.03813
2.772,-0.0219
2.776,-0.02645
2.78,-0.02031
2.784,-0.0237
2.788,-0.03631
2.792,-0.04429
2.796,-0.03104
2.8,-0.03069
2.804,-0.01058
2.808,-0.02407
2.812,-0.01479
2.816,0.00018
2.82,-0.01702
2.824,-0.0172
2.828,-0.02966
2.832,-0.03619
2.836,-0.01034
2.84,-0.0188
2.844,-0.03841
2.848,-0.02145
2.852,0.0038
2.856,-0.03665
2.86,-0.0387
2.864,-0.03644
2.868,-0.01114
2.872,-0.02845
2.876,-0.02091
2.88,-0.03005
2.884,-0.03393
2.888,-0.03132
2.892,-0.02204
2.896,0.01165
2.9,-0.01107
2.904,-0.02417
2.908,-0.01568
2.912,-0.01612
2.916,-0.04537
2.92,-0.03007
2.924,-0.01661
2.928,-0.02578
2.932,-0.03489
2.936,-0.04735
2.94,-0.02811
2.944,-0.03555
2.948,-0.01487
2.952,-0.02716
2.956,0.02388
2.96,0.00477
2.964,0.05574
2.968,0.03135
2.972,0.04749
2.976,0.04982
2.98,0.05243
2.984,0.09052
2.988,0.09397
2.992,0.08007
2.996,0.03651
3.0,0.06439
3.004,0.01622
3.008,0.0204
3.012,0.02944
3.016,-0.00361
3.02,-0.00104
3.024,-0.02249
3.028,-0.0405
3.032,-0.02561
3.036,-0.02629
3.04,-0.01271
3.044,-0.02872
3.048,-0.02235
3.052,-0.00674
3.056,-0.03918
3.06,-0.00456
3.064,-0.0129
3.068,-0.00612
3.072,-0.0277
3.076,-0.01806
3.08,-0.03013
3.084,0.00393
3.088,-0.01942
3.092,-0.01336
3.096,0.00085
3.1,-0.05607
3.104,-0.05495
3.108,-0.10717
3.112,-0.12924
3.116,-0.12653
3.12,-0.08596
3.124,0.03756
3.128,0.19988
3.132,0.39623
3.136,0.60459
3.14,0.7754
3.144,0.93522
3.148,0.9795
3.152,0.90776
3.156,0.73979
3.16,0.537
3.164,0.28803
3.168,0.10292
3.172,-0.07196
3.176,-0.16717
3.18,-0.18882
3.184,-0.18743
3.188,-0.12426
3.192,-0.08605
3.196,-0.0527
3.2,-0.05707
3.204,-0.01295
3.208,-0.02713
3.212,-0.02755
3.216,-0.01363
3.22,-0.02352
3.224,-0.0557
3.228,-0.02392
3.232,-0.00232
3.236,-0.00141
3.24,-0.02767
3.244,-0.02199
3.248,-0.00038
3.252,-0.02537
3.256,-0.02861
3.26,0.00428
3.264,-0.0123
3.268,-0.02251
3.272,-0.00691
3.276,-0.02873
3.28,-0.02157
3.284,-0.00991
3.288,-0.01045
3.292,-0.00558
3.296,-0.02086
3.3,-0.03813
3.304,0.01007
3.308,-0.00468
3.312,-0.01341
3.316,-0.02593
3.32,-0.00605
3.324,0.00506
3.328,-0.00464
3.332,0.01466
3.336,0.00651
3.34,0.04653
3.344,0.03058
3.348,0.05985
3.352,0.01773
3.356,0.05879
3.36,0.04229
3.364,0.05035
3.368,0.07861
3.372,0.07776
3.376,0.09016
3.38,0.09546
3.384,0.13903
3.388,0.13003
3.392,0.13749
3.396,0.18087
3.4,0.16304
3.404,0.18504
3.408,0.18617
3.412,0.18183
3.416,0.2048
3.42,0.19979
3.424,0.1979
3.428,0.22033
3.432,0.2158
3.436,0.19125
3.44,0.20072
3.444,0.19632
3.448,0.17194
3.452,0.17923
3.456,0.18911
3.46,0.15296
3.464,0.1331
3.468,0.15015
3.472,0.11062
3.476,0.10857
3.48,0.11494
3.484,0.09098
3.488,0.08531
3.492,0.09624
3.496,0.05825
3.5,0.03188
3.504,0.0443
3.508,0.02721
3.512,0.03732
3.516,0.04479
3.52,0.01677
3.524,-0.0037
3.528,-0.00882
3.532,0.01098
3.536,-0.00848
3.54,0.00876
3.544,-0.00605
3.548,-0.0087
3.552,0.00833
3.556,0.00885
3.56,-0.01784
3.564,-0.01225
3.568,0.00582
3.572,-0.0019
3.576,0.00253
3.58,-0.02198
3.584,-0.00108
3.588,0.02391
3.592,0.02619
3.596,-0.02099
3.6,-0.03393
3.604,-0.03193
3.608,-0.00915
3.612,-0.02727
3.616,-0.00498
3.62,0.01617
3.624,-0.00866
3.628,0.02468
3.632,-0.00532
3.636,-0.00023
3.64,0.00483
3.644,-0.0134
3.648,-0.00058
3.652,-0.00505
3.656,-0.00866
3.66,0.00402
3.664,-0.01018
3.668,0.00699
3.672,-0.01872
3.676,-0.00778
3.68,-0.01104
3.684,-0.00403
3.688,-0.00929
3.692,-0.02493
3.696,0.01053
3.7,-0.03103
3.704,-0.00695
3.708,0.02219
3.712,-0.00518
3.716,0.01483
3.72,0.01699
3.724,-0.02209
3.728,-0.00281
3.732,3e-05
3.736,-0.00838
3.74,-0.02123
3.744,-0.00634
3.748,-0.01748
3.752,0.00255
3.756,-0.00093
3.76,0.00119
3.764,-0.00904
3.768,-0.00273
3.772,-0.00389
3.776,-0.02104
3.78,-0.01324
3.784,0.04202
3.788,0.01772
3.792,-0.01237
3.796,0.01113
3.8,0.01174
3.804,0.03693
3.808,0.03745
3.812,0.05929
3.816,0.07043
3.82,0.07367
3.824,0.06948
3.828,0.10442
3.832,0.10812
3.836,0.08394
3.84,0.08378
3.844,0.08093
3.848,0.09646
3.852,0.06595
3.856,0.05323
3.86,0.0468
3.864,0.03502
3.868,0.00661
3.872,0.01493
3.876,0.01973
3.88,-0.01557
3.884,0.01804
3.888,0.00951
3.892,0.00571
3.896,-0.01426
3.9,-0.03976
3.904,-0.00073
3.908,0.01812
3.912,0.00669
3.916,-0.00805
3.92,0.0159
3.924,0.00774
3.928,-0.00189
3.932,-0.00151
3.936,0.00482
3.94,-0.02002
3.944,0.00779
3.948,-0.0306
3.952,-0.03342
3.956,-0.04811
3.96,-0.13016
3.964,-0.09473
3.968,-0.07648
3.972,0.04234
3.976,0.23511
3.98,0.41307
3.984,0.59811
3.988,0.83235
3.992,0.95182
3.996,0.99483
4.0,0.90895
4.004,0.75265
4.008,0.52526
4.012,0.29667
4.016,0.1011
4.02,-0.02778
4.024,-0.12628
4.028,-0.16102
4.032,-0.14542
4.036,-0.1214
4.04,-0.05125
4.044,-0.04039
4.048,-0.00448
4.052,0.0155
4.056,-0.01278
4.06,0.00403
4.064,0.02267
4.068,0.00243
4.072,-0.01886
4.076,-0.00929
4.08,0.01477
4.084,0.01428
4.088,-0.01759
4.092,0.01397
4.096,-0.02667
4.1,-0.01132
4.104,-0.01437
4.108,-0.00977
4.112,0.00776
4.116,0.01596
4.12,-0.01476
4.124,0.01903
4.128,0.03215
4.132,-0.00611
4.136,0.0234
4.14,0.02185
4.144,-0.01686
4.148,-0.00494
4.152,0.02585
4.156,0.00333
4.16,0.01939
4.164,0.02736
4.168,0.01796
4.172,0.01297
4.176,0.04392
4.18,0.02891
4.184,0.04143
4.188,0.06227
4.192,0.04582
4.196,0.05335
4.2,0.05624
4.204,0.0684
4.208,0.09514
4.212,0.10526
4.216,0.10349
4.22,0.12311
4.224,0.12732
4.228,0.12362
4.232,0.16582
4.236,0.16016
4.24,0.16007
4.244,0.18677
4.248,0.19523
4.252,0.17307
4.256,0.20469
4.26,0.21242
4.264,0.21992
4.268,0.2339
4.272,0.2289
4.276,0.23775
4.28,0.26069
4.284,0.21927
4.288,0.21703
4.292,0.23269
4.296,0.20767
4.3,0.1895
4.304,0.20079
4.308,0.17668
4.312,0.16534
4.316,0.15346
4.32,0.13995
4.324,0.12383
4.328,0.13733
4.332,0.10338
4.336,0.09446
4.34,0.10349
4.344,0.10808
4.348,0.04646
4.352,0.06796
4.356,0.04517
4.36,0.05991
4.364,0.03163
4.368,0.05506
4.372,0.03946
4.376,0.02394
4.38,0.03158
4.384,0.01047
4.388,-0.0072
4.392,0.02251
4.396,0.00774
4.4,0.01675
4.404,0.01394
4.408,-0.00364
4.412,0.00798
4.416,-0.00118
4.42,-0.00012
4.424,0.03673
4.428,0.00297
4.432,0.02091
4.436,0.03636
4.44,0.01004
4.444,-0.003
4.448,0.01574
4.452,0.00079
4.456,0.01195
4.46,-0.02833
4.464,0.01401
4.468,0.01575
4.472,0.02636
4.476,0.02177
4.48,0.00941
4.484,0.01487
4.488,0.04265
4.492,-0.0005
4.496,0.03465
4.5,0.00315
4.504,0.02516
4.508,-0.00658
4.512,-0.00281
4.516,0.01898
4.52,-0.0043
4.524,0.02365
4.528,0.01202
4.532,0.03036
4.536,-0.00297
4.54,0.00812
4.544,0.02039
4.548,-0.01695
4.552,0.00605
4.556,0.03118
4.56,0.03008
4.564,0.01819
4.568,0.04015
4.572,-0.00334
4.576,0.0044
4.58,0.04037
4.584,0.0359
4.588,0.02096
4.592,0.03294
4.596,0.01745
4.6,0.02278
4.604,-0.00859
4.608,0.00733
4.612,0.01906
4.616,0.01538
4.62,0.00934
4.624,0.01199
4.628,0.03407
4.632,0.03142
4.636,-0.01095
4.64,0.00152
4.644,0.0189
4.648,0.00911
4.652,0.02587
4.656,0.02143
4.66,0.02545
4.664,0.00178
4.668,0.01783
4.672,0.02564
4.676,0.04443
4.68,0.0244
4.684,0.02856
4.688,-0.00501
4.692,0.01155
4.696,0.03794
4.7,0.02283
4.704,0.02365
4.708,0.01491
4.712,0.04865
4.716,0.0423
4.72,0.11452
4.724,0.08493
4.728,0.10068
4.732,0.10359
4.736,0.11559
4.74,0.11637
4.744,0.12166
4.748,0.12734
4.752,0.11169
4.756,0.1149
4.76,0.1019
4.764,0.06689
4.768,0.04263
4.772,0.09188
4.776,0.03994
4.78,0.04384
4.784,0.01538
4.788,0.02444
4.792,0.04335
4.796,0.03268
4.8,0.0195
4.804,0.03872
4.808,0.03151
4.812,0.04388
4.816,0.01719
4.82,0.0242
4.824,0.04201
4.828,0.0089
4.832,0.03059
4.836,0.03851
4.84,0.04306
4.844,0.00757
4.848,0.02574
4.852,0.03538
4.856,0.00821
4.86,-0.01728
4.864,-0.03685
4.868,-0.05179
4.872,-0.09194
4.876,-0.06479
4.88,0.02941
4.884,0.19135
4.888,0.36459
4.892,0.54936
4.896,0.77386
4.9,0.94119
4.904,1.01944
4.908,0.98438
4.912,0.84762
4.916,0.64239
4.92,0.42742
4.924,0.21053
4.928,0.01674
4.932,-0.07511
4.936,-0.14224
4.94,-0.13835
4.944,-0.12086
4.948,-0.05696
4.952,-0.04241
4.956,0.0139
4.96,0.03162
4.964,0.02214
4.968,0.01938
4.972,0.0189
4.976,0.01943
4.98,0.03612
4.984,0.01046
4.988,0.02533
4.992,0.04064
4.996,0.03587
5.0,0.04954
5.004,0.04191
5.008,0.0119
5.012,0.02872
5.016,0.02323
5.02,0.03918
5.024,0.02026
5.028,0.04315
5.032,0.02937
5.036,0.03957
5.04,0.02738
5.044,0.02081
5.048,0.04604
5.052,-0.00141
5.056,0.02712
5.06,0.05002
5.064,0.02903
5.068,0.04576
5.072,0.02806
5.076,0.01741
5.08,0.04356
5.084,0.04124
5.088,0.03783
5.092,0.04959
5.096,0.04394
5.1,0.0615
5.104,0.09379
5.108,0.08218
5.112,0.10314
5.116,0.0945
5.12,0.08668
5.124,0.1255
5.128,0.11101
5.132,0.11186
5.136,0.16013
5.14,0.16079
5.144,0.17628
5.148,0.1889
5.152,0.20594
5.156,0.22355
5.16,0.20952
5.164,0.2597
5.168,0.22692
5.172,0.24513
5.176,0.24617
5.18,0.23815
5.184,0.26814
5.188,0.25012
5.192,0.23837
5.196,0.23404
5.2,0.23948
5.204,0.22329
5.208,0.2536
5.212,0.21222
5.216,0.17945
5.22,0.17986
5.224,0.19464
5.228,0.15539
5.232,0.11776
5.236,0.17608
5.24,0.12203
5.244,0.13236
5.248,0.09769
5.252,0.07947
5.256,0.07888
5.26,0.05296
5.264,0.0692
5.268,0.04357
5.272,0.06152
5.276,0.07921
5.28,0.04946
5.284,0.03048
5.288,0.03009
5.292,0.0424
5.296,0.04207
5.3,0.03064
5.304,0.02714
5.308,0.01386
5.312,0.04802
5.316,0.03826
5.32,0.04563
5.324,0.02073
5.328,0.03284
5.332,0.02272
5.336,0.02809
5.34,0.0457
5.344,0.01746
5.348,0.05073
5.352,-0.00372
5.356,0.02025
5.36,0.01344
5.364,0.05951
5.368,0.01703
5.372,0.01728
5.376,0.02053
5.38,0.02914
5.384,0.02616
5.388,0.02658
5.392,0.02196
5.396,0.03362
5.4,0.01747
5.404,-0.0007
5.408,0.02446
5.412,0.02498
5.416,0.01239
5.42,0.02169
5.424,0.01318
5.428,0.0284
5.432,0.03427
5.436,0.01726
5.44,0.04567
5.444,0.01895
5.448,0.03124
5.452,0.02339
5.456,0.05239
5.46,0.03967
5.464,-0.00181
5.468,0.02466
5.472,0.03328
5.476,0.02556
5.48,0.01794
5.484,0.02878
5.488,0.01942
5.492,0.02546
5.496,0.01666
5.5,0.03313
5.504,0.04631
5.508,0.05382
5.512,0.04114
5.516,0.03078
5.52,0.04067
5.524,0.02246
5.528,0.02672
5.532,0.01178
5.536,0.03061
5.54,0.01323
5.544,0.02244
5.548,0.03106
5.552,0.01641
5.556,0.03528
5.56,0.03294
5.564,0.04218
5.568,0.03195
5.572,0.00838
5.576,0.03307
5.58,0.03045
5.584,0.02787
5.588,0.02276
5.592,-0.01528
5.596,0.03158
5.6,0.01479
5.604,0.0227
5.608,0.04659
5.612,0.00617
5.616,0.01405
5.62,0.0609
5.624,0.01521
5.628,0.035
5.632,0.04018
5.636,0.02719
5.64,0.02787
5.644,0.04547
5.648,0.0443
5.652,0.04061
5.656,0.05847
5.66,0.04108
5.664,0.02123
5.668,0.03808
5.672,0.03913
5.676,0.03478
5.68,0.05571
5.684,0.03764
5.688,0.04237
5.692,0.06499
5.696,0.06474
5.7,0.10628
5.704,0.10846
5.708,0.11772
5.712,0.12209
5.716,0.12263
5.72,0.10139
5.724,0.1152
5.728,0.10792
5.732,0.10916
5.736,0.07883
5.74,0.06198
5.744,0.05608
5.748,0.0405
5.752,0.06823
5.756,0.03613
5.76,0.03534
5.764,0.03542
5.768,0.01347
5.772,0.03389
5.776,0.03774
5.78,0.01947
5.784,0.03355
5.788,0.01337
5.792,0.05405
5.796,0.049
5.8,0.0114
5.804,0.02707
5.808,0.01919
5.812,0.03969
5.816,0.04147
5.82,0.03673
5.824,0.03767
5.828,0.02098
5.832,0.00864
5.836,-0.01081
5.84,-0.06457
5.844,-0.12177
5.848,-0.04672
5.852,0.04175
5.856,0.1776
5.86,0.38253
5.864,0.60445
5.868,0.80613
5.872,0.97743
5.876,1.0301
5.88,1.00489
5.884,0.83994
5.888,0.61194
5.892,0.37868
5.896,0.14995
5.9,0.01645
5.904,-0.10074
5.908,-0.1577
5.912,-0.13982
5.916,-0.08123
5.92,-0.05262
5.924,-0.01116
5.928,-0.00512
5.932,0.03739
5.936,0.02058
5.94,0.01961
5.944,0.03095
5.948,0.02737
5.952,0.06374
5.956,0.04412
5.96,0.0287
5.964,0.0176
5.968,0.03905
5.972,0.0394
5.976,0.04153
5.98,0.04019
5.984,0.02679
5.988,0.02694
5.992,0.00422
5.996,0.0226
6.0,0.00978
6.004,0.02654
6.008,0.02646
6.012,0.03026
6.016,0.0137
6.02,0.0305
6.024,0.07119
6.028,0.03209
6.032,0.04033
6.036,0.02487
6.04,0.04545
6.044,0.04056
6.048,0.03697
6.052,0.05564
6.056,0.05077
6.06,0.04581
6.064,0.05745
6.068,0.07384
6.072,0.05035
6.076,0.10453
6.08,0.06025
6.084,0.07779
6.088,0.10811
6.092,0.08738
6.096,0.11973
6.1,0.12186
6.104,0.13483
6.108,0.15004
6.112,0.13999
6.116,0.17537
6.12,0.1719
6.124,0.19052
6.128,0.1986
6.132,0.24118
6.136,0.22697
6.14,0.20679
6.144,0.26696
6.148,0.22653
6.152,0.22333
6.156,0.23976
6.16,0.2386
6.164,0.26389
6.168,0.23692
6.172,0.23633
6.176,0.22935
6.18,0.22474
6.184,0.20082
6.188,0.20365
6.192,0.17782
6.196,0.17929
6.2,0.15371
6.204,0.14002
6.208,0.13755
6.212,0.09698
6.216,0.09175
6.22,0.13136
6.224,0.11377
6.228,0.06437
6.232,0.06427
6.236,0.05576
6.24,0.04977
6.244,0.05486
6.248,0.04757
6.252,0.04374
6.256,0.02995
6.26,0.03087
6.264,0.03343
6.268,0.02834
6.272,0.06413
6.276,0.02237
6.28,0.00041
6.284,0.03712
6.288,0.02156
6.292,0.03889
6.296,-0.00259
6.3,-0.00493
6.304,0.01624
6.308,0.04331
6.312,0.01444
6.316,0.03503
6.32,0.01128
6.324,-0.00792
6.328,0.02124
6.332,0.04986
6.336,0.0296
6.34,0.02793
6.344,0.01025
6.348,0.01021
6.352,0.02362
6.356,0.01874
6.36,0.04143
6.364,0.00685
6.368,0.02548
6.372,0.01415
6.376,-0.00196
6.38,0.02941
6.384,-0.00913
6.388,0.02826
6.392,0.02719
6.396,0.02755
6.4,0.02225
6.404,0.03478
6.408,0.01249
6.412,0.04225
6.416,0.0138
6.42,0.00483
6.424,-0.00709
6.428,0.02691
6.432,0.00827
6.436,0.01496
6.44,0.00191
6.444,0.00512
6.448,0.02714
6.452,-0.00086
6.456,-0.00738
6.46,0.02363
6.464,0.03262
6.468,0.01275
6.472,0.02096
6.476,0.00869
6.48,0.01235
6.484,0.00781
6.488,0.01185
6.492,-0.00113
6.496,0.01417
6.5,0.00927
6.504,0.01271
6.508,0.02966
6.512,0.01384
6.516,0.00327
6.52,0.03091
6.524,0.03399
6.528,0.0158
6.532,0.03868
6.536,0.04174
6.54,0.01305
6.544,-0.01468
6.548,0.00811
6.552,0.04351
6.556,0.02081
6.56,0.01861
6.564,0.03432
6.568,0.01345
6.572,0.00947
6.576,0.03629
6.58,0.02666
6.584,0.00194
6.588,-0.00616
6.592,-0.02636
6.596,0.05026
6.6,0.02146
6.604,0.01725
6.608,0.0299
6.612,0.02813
6.616,0.02997
6.62,0.02831
6.624,0.01669
6.628,0.01944
6.632,0.03939
6.636,0.01615
6.64,0.02397
6.644,-0.00518
6.648,0.01308
6.652,0.01508
6.656,0.02715
6.66,0.00956
6.664,-0.00017
6.668,0.0239
6.672,0.04301
6.676,0.02725
6.68,0.00429
6.684,0.01151
6.688,-0.01104
6.692,0.02283
6.696,-0.01701
6.7,0.00595
6.704,0.04698
6.708,0.00908
6.712,0.01565
6.716,0.0171
6.72,0.02925
6.724,0.00093
6.728,0.02477
6.732,0.0161
6.736,-0.00142
6.74,0.024
6.744,0.04724
6.748,0.00389
6.752,0.03304
6.756,0.00717
6.76,-0.00951
6.764,0.01665
6.768,0.01741
6.772,0.01246
6.776,0.04145
6.78,0.00421
6.784,-0.00819
6.788,0.00295
6.792,0.01874
6.796,0.02498
6.8,-0.00134
6.804,0.02012
6.808,0.02857
6.812,0.01191
6.816,0.01263
6.82,0.01849
6.824,0.00751
6.828,0.01763
6.832,0.02074
6.836,0.01531
6.84,0.02394
6.844,-0.012
6.848,0.01914
6.852,-0.00206
6.856,0.00989
6.86,0.0134
6.864,0.01083
6.868,0.027
6.872,-0.00962
6.876,0.01918
6.88,0.00292
6.884,0.01964
6.888,0.00741
6.892,0.01494
6.896,-0.02178
6.9,-0.00333
6.904,0.01194
6.908,-0.01447
6.912,0.00116
6.916,0.0071
6.92,0.01437
6.924,0.00137
6.928,0.0174
6.932,0.00142
6.936,-0.00413
6.94,0.01816
6.944,0.01417
6.948,0.01065
6.952,-0.04049
6.956,-0.00828
6.96,-0.00093
6.964,0.01533
6.968,0.01077
6.972,0.00117
6.976,-0.01135
6.98,0.00641
6.984,0.03297
6.988,0.02097
6.992,0.06022
6.996,0.07962
7.0,0.06835
7.004,0.0585
7.008,0.08337
7.012,0.09996
7.016,0.11819
7.02,0.10123
7.024,0.11671
7.028,0.07333
7.032,0.1016
7.036,0.05901
7.04,0.08593
7.044,0.05679
7.048,0.07266
7.052,0.02832
7.056,0.03029
7.06,0.04092
7.064,0.00859
7.068,-0.00062
7.072,-0.00279
7.076,-0.00364
7.08,-0.0067
7.084,0.00838
7.088,0.01761
7.092,0.04315
7.096,-0.00415
7.1,-0.00293
7.104,-0.0078
7.108,0.02599
7.112,-0.00212
7.116,0.01102
7.12,0.03977
7.124,0.00767
7.128,-0.02272
7.132,0.01093
7.136,-0.03186
7.14,-0.02052
7.144,-0.08948
7.148,-0.10894
7.152,-0.10106
7.156,-0.00039
7.16,0.10003
7.164,0.32382
7.168,0.52086
7.172,0.7387
7.176,0.90871
7.18,0.98746
7.184,0.96511
7.188,0.82565
7.192,0.64122
7.196,0.41778
7.2,0.17439
7.204,0.02
7.208,-0.08758
7.212,-0.13472
7.216,-0.2023
7.22,-0.13952
7.224,-0.09301
7.228,-0.07261
7.232,-0.01552
7.236,0.00529
7.24,-0.00644
7.244,0.01059
7.248,0.00609
7.252,-0.02146
7.256,0.01048
7.26,-0.00994
7.264,0.01427
7.268,-0.02704
7.272,-0.01406
7.276,0.01271
7.28,-0.00844
7.284,0.02508
7.288,0.00044
7.292,0.00552
7.296,-0.02361
7.3,0.00406
7.304,-0.00459
7.308,0.01338
7.312,0.01618
7.316,0.02182
7.32,0.00697
7.324,-0.00015
7.328,-0.01471
7.332,0.03486
7.336,-0.00547
7.34,-0.00927
7.344,-0.00681
7.348,0.00138
7.352,0.00717
7.356,0.00668
7.36,0.01169
7.364,0.01962
7.368,0.02731
7.372,0.04237
7.376,0.0143
7.38,0.02493
7.384,0.08131
7.388,0.04917
7.392,0.0746
7.396,0.07485
7.4,0.09054
7.404,0.09201
7.408,0.10117
7.412,0.12395
7.416,0.14304
7.42,0.14174
7.424,0.18376
7.428,0.15757
7.432,0.18552
7.436,0.19977
7.44,0.22044
7.444,0.19809
7.448,0.21129
7.452,0.19227
7.456,0.20594
7.46,0.22043
7.464,0.22308
7.468,0.20359
7.472,0.2006
7.476,0.21393
7.48,0.19714
7.484,0.17561
7.488,0.15949
7.492,0.14447
7.496,0.15702
7.5,0.16308
7.504,0.16057
7.508,0.13088
7.512,0.12648
7.516,0.1113
7.52,0.09361
7.524,0.07258
7.528,0.05683
7.532,0.03666
7.536,0.02385
7.54,0.04539
7.544,0.02008
7.548,0.0229
7.552,0.03292
7.556,0.01714
7.56,0.01172
7.564,0.00349
7.568,0.00289
7.572,-0.01049
7.576,-0.02463
7.58,-0.01205
7.584,-0.00199
7.588,-0.01469
7.592,-0.01553
7.596,-0.01448
7.6,-0.00892
7.604,0.00272
7.608,-0.01834
7.612,-0.01554
7.616,-0.01195
7.62,-0.00604
7.624,-0.0245
7.628,0.01055
7.632,0.01403
7.636,-0.00375
7.64,-0.01354
7.644,0.00024
7.648,-0.00227
7.652,-0.02309
7.656,-0.01258
7.66,-0.01173
7.664,0.00605
7.668,-0.00224
7.672,-0.00466
7.676,-0.02231
7.68,-0.01541
7.684,-0.00894
7.688,-0.03837
7.692,-0.01139
7.696,-0.00123
7.7,-0.0079
7.704,-0.01284
7.708,-0.00136
7.712,0.00483
7.716,-0.00454
7.72,0.01768
7.724,-0.03997
7.728,-0.0115
7.732,-0.03589
7.736,0.00958
7.74,-0.03084
7.744,-0.00802
7.748,-0.0329
7.752,-0.00786
7.756,-0.01135
7.76,-0.00312
7.764,-0.00718
7.768,-0.02395
7.772,-0.04879
7.776,-0.00707
7.78,-0.00021
7.784,0.01808
7.788,-0.02418
7.792,-0.04174
7.796,-0.01428
7.8,0.00266
7.804,-0.03496
7.808,-0.0017
7.812,0.00206
7.816,-0.00728
7.82,-0.01308
7.824,-0.048
7.828,-0.00778
7.832,-0.04288
7.836,-0.00746
7.84,-0.02693
7.844,-0.0051
7.848,-0.0167
7.852,-0.00207
7.856,-0.01401
7.86,-0.01168
7.864,-0.02784
7.868,-0.02812
7.872,-0.01898
7.876,-0.00977
7.88,-0.01485
7.884,-0.00544
7.888,-0.01005
7.892,-0.02371
7.896,-0.03055
7.9,-0.04016
7.904,-0.02495
7.908,-0.01194
7.912,-0.01659
7.916,-0.01635
7.92,-0.04408
7.924,-0.04042
7.928,-0.01297
7.932,-0.04392
7.936,0.00715
7.94,-0.04523
7.944,-0.01937
7.948,-0.00557
7.952,-0.02354
7.956,-0.01069
7.96,-0.03376
7.964,-0.03914
7.968,-0.00958
7.972,-0.00612
7.976,-0.02041
7.98,-0.01661
7.984,0.00261
7.988,-0.00706
7.992,-0.01382
7.996,-0.02609
8.0,0.01614
8.004,-0.00761
8.008,-0.03299
8.012,-0.04075
8.016,-0.02653
8.02,-0.03075
8.024,-0.01211
8.028,-0.00371
8.032,-0.03365
8.036,-0.01585
8.04,-0.0038
8.044,-0.02123
8.048,-0.03335
8.052,-0.00817
8.056,-0.03247
8.06,-0.02752
8.064,-0.03093
8.068,-0.03402
8.072,-0.0488
8.076,-0.03208
8.08,-0.0297
8.084,-0.03074
8.088,-0.01251
8.092,-0.03632
8.096,0.00147
8.1,-0.04592
8.104,-0.00457
8.108,-0.0181
8.112,0.00855
8.116,-0.01098
8.12,0.00183
8.124,0.00761
8.128,0.00432
8.132,0.02885
8.136,0.05113
8.14,0.03986
8.144,0.04399
8.148,0.0805
8.152,0.08925
8.156,0.07296
8.16,0.05893
8.164,0.07982
8.168,0.07208
8.172,0.06466
8.176,0.05599
8.18,0.04094
8.184,0.01545
8.188,0.02465
8.192,0.01397
8.196,-0.01715
8.2,-0.00314
8.204,-0.01265
8.208,-0.0159
8.212,-0.01837
8.216,-0.02497
8.22,-0.03142
8.224,-0.02115
8.228,-0.03578
8.232,-0.03018
8.236,-0.02422
8.24,0.00192
8.244,-0.0198
8.248,-0.01905
8.252,-0.01929
8.256,-0.03483
8.26,-0.01257
8.264,-0.01361
8.268,-0.02549
8.272,-0.03989
8.276,-0.06943
8.28,-0.12443
8.284,-0.10477
8.288,-0.16465
8.292,-0.08618
8.296,0.01348
8.3,0.20359
8.304,0.42451
8.308,0.59245
8.312,0.83068
8.316,0.97494
8.32,0.96366
8.324,0.88024
8.328,0.7429
8.332,0.48417
8.336,0.25753
8.34,0.06677
8.344,-0.0898
8.348,-0.16923
8.352,-0.21731
8.356,-0.20268
8.36,-0.13574
8.364,-0.10526
8.368,-0.05617
8.372,-0.00107
8.376,-0.02438
8.38,-0.03939
8.384,-0.01061
8.388,-0.00198
8.392,-0.01014
8.396,-0.02099
8.4,-0.0294
8.404,-0.0142
8.408,-0.02567
8.412,-0.02827
8.416,-0.0244
8.42,-0.0232
8.424,-0.00748
8.428,-0.01927
8.432,-0.0568
8.436,-0.04466
8.44,-0.03295
8.444,-0.00672
8.448,-0.02615
8.452,-0.00813
8.456,-0.00769
8.46,-0.04058
8.464,-0.06058
8.468,0.00015
8.472,-0.03069
8.476,-0.0311
8.48,-0.04042
8.484,-0.00251
8.488,-0.028
8.492,-0.0113
8.496,0.01671
8.5,0.00153
8.504,-0.00671
8.508,-0.00775
8.512,0.00242
8.516,0.00202
8.52,0.01493
8.524,0.02065
8.528,0.01691
8.532,0.00375
8.536,0.03923
8.54,0.04084
8.544,0.07893
8.548,0.12685
8.552,0.08987
8.556,0.09753
8.56,0.11424
8.564,0.09932
8.568,0.13231
8.572,0.15844
8.576,0.16531
8.58,0.1863
8.584,0.17261
8.588,0.18514
8.592,0.1961
8.596,0.18178
8.6,0.2038
8.604,0.20418
8.608,0.18702
8.612,0.19643
8.616,0.16036
8.62,0.16992
8.624,0.129
8.628,0.16664
8.632,0.1344
8.636,0.12975
8.64,0.11496
8.644,0.0972
8.648,0.08065
8.652,0.09378
8.656,0.08371
8.66,0.07036
8.664,0.04307
8.668,0.03984
8.672,0.01722
8.676,0.02143
8.68,0.0048
8.684,0.01628
8.688,0.01444
8.692,-0.012
8.696,0.03121
8.7,-0.00549
8.704,-0.0466
8.708,-0.00126
8.712,-0.00275
8.716,-0.00754
8.72,-0.01511
8.724,-0.035
8.728,-0.01068
8.732,-0.02316
8.736,-0.01938
8.74,-0.02743
8.744,-0.03554
8.748,-0.00859
8.752,-0.03928
8.756,-0.03073
8.76,-0.04028
8.764,-0.01988
8.768,-0.02395
8.772,-0.01536
8.776,-0.01643
8.78,-0.01195
8.784,-0.02035
8.788,-0.0325
8.792,-0.02545
8.796,-0.03099
8.8,-0.04758
8.804,-0.03528
8.808,-0.02007
8.812,-0.01321
8.816,-0.03571
8.82,-0.02993
8.824,-0.04536
8.828,-0.01603
8.832,-0.00561
8.836,-0.02659
8.84,-0.07011
8.844,-0.02087
8.848,-0.02305
8.852,-0.0396
8.856,-0.03386
8.86,-0.03916
8.864,-0.02829
8.868,-0.04269
8.872,-0.03639
8.876,0.0049
8.88,-0.05584
8.884,-0.02128
8.888,-0.02082
8.892,-0.04652
8.896,-0.04397
8.9,-0.02415
8.904,-0.0328
8.908,-0.01818
8.912,-0.02473
8.916,-0.01891
8.92,-0.0485
8.924,-0.03686
8.928,-0.03683
8.932,-0.0114
8.936,-0.02272
8.94,-0.03232
8.944,-0.00824
8.948,-0.01386
8.952,-0.01125
8.956,-0.01184
8.96,-0.02061
8.964,-0.01133
8.968,-0.03141
8.972,-0.04658
8.976,-0.03582
8.98,-0.02469
8.984,-0.03742
8.988,-0.03508
8.992,-0.05208
8.996,-0.02084
9.0,-0.02335
9.004,-0.04449
9.008,-0.02575
9.012,-0.04254
9.016,-0.04509
9.02,-0.00513
9.024,-0.01275
9.028,-0.02701
9.032,-0.02514
9.036,-0.04305
9.04,-0.0208
9.044,-0.00495
9.048,-0.02374
9.052,0.00269
9.056,-0.03593
9.06,-0.03733
9.064,-0.05393
9.068,-0.00737
9.072,-0.05019
9.076,-0.03024
9.08,0.0008
9.084,-0.0272
9.088,-0.04068
9.092,-0.01847
9.096,-0.01169
9.1,-0.02276
9.104,-0.04575
9.108,-0.0442
9.112,-0.03196
9.116,-0.02668
9.12,-0.03463
9.124,-0.02646
9.128,-0.0246
9.132,-0.02557
9.136,-0.04538
9.14,-0.01056
9.144,-0.01015
9.148,-0.01692
9.152,-0.00076
9.156,0.04463
9.16,0.04951
9.164,0.05249
9.168,0.07335
9.172,0.09339
9.176,0.06323
9.18,0.07394
9.184,0.07127
9.188,0.05535
9.192,0.04843
9.196,0.05057
9.2,0.01943
9.204,0.01716
9.208,-0.01464
9.212,-0.03666
9.216,-0.00727
9.22,-0.02572
9.224,-0.01354
9.228,-0.00294
9.232,-0.04486
9.236,-0.02447
9.24,-0.00931
9.244,-0.03595
9.248,-0.05582
9.252,-0.03308
9.256,-0.0305
9.26,-0.00309
9.264,-0.03951
9.268,-0.02993
9.272,0.00929
9.276,-0.0356
9.28,-0.02633
9.284,-0.04834
9.288,-0.04062
9.292,-0.04294
9.296,-0.07908
9.3,-0.10485
9.304,-0.13398
9.308,-0.13233
9.312,-0.0746
9.316,0.08647
9.32,0.2367
9.324,0.44418
9.328,0.64768
9.332,0.84911
9.336,0.93434
9.34,0.98252
9.344,0.84045
9.348,0.65335
9.352,0.43138
9.356,0.19673
9.36,0.02959
9.364,-0.12191
9.368,-0.18934
9.372,-0.17807
9.376,-0.15548
9.38,-0.12992
9.384,-0.09117
9.388,-0.07957
9.392,-0.04689
9.396,-0.02727
9.4,-0.00642
9.404,-0.01401
9.408,-0.01679
9.412,-0.03329
9.416,-0.01513
9.42,-0.02225
9.424,-0.0407
9.428,-0.01363
9.432,-0.03275
9.436,-0.03986
9.44,-0.0327
9.444,-0.02995
9.448,-0.02392
9.452,-0.0311
9.456,-0.00917
9.46,-0.02422
9.464,-0.03073
9.468,-0.00881
9.472,-0.04836
9.476,-0.05411
9.48,-0.02493
9.484,-0.02161
9.488,-0.00905
9.492,-0.02138
9.496,-0.02429
9.5,0.0037
9.504,-0.02068
9.508,-0.03839
9.512,0.00808
9.516,-0.03438
9.52,0.01336
9.524,0.02004
9.528,-0.0087
9.532,0.01994
9.536,0.00995
9.54,0.00322
9.544,0.03455
9.548,0.02857
9.552,0.03564
9.556,0.06637
9.56,0.0433
9.564,0.06619
9.568,0.12385
9.572,0.12839
9.576,0.12277
9.58,0.13814
9.584,0.15718
9.588,0.1619
9.592,0.19207
9.596,0.17858
9.6,0.1548
9.604,0.18386
9.608,0.20761
9.612,0.23176
9.616,0.20042
9.62,0.20012
9.624,0.18397
9.628,0.1958
9.632,0.19303
9.636,0.18526
9.64,0.16739
9.644,0.17126
9.648,0.142
9.652,0.15561
9.656,0.12736
9.66,0.12153
9.664,0.0997
9.668,0.09253
9.672,0.0718
9.676,0.07493
9.68,0.06742
9.684,0.02264
9.688,0.02536
9.692,0.04773
9.696,0.03215
9.7,0.05404
9.704,0.04532
9.708,0.02638
9.712,-0.00291
9.716,-0.00138
9.72,-0.01648
9.724,0.01643
9.728,0.00993
9.732,-0.02363
9.736,-0.04136
9.74,-0.01525
9.744,-0.01494
9.748,-0.02939
9.752,-0.03069
9.756,-0.04035
9.76,-0.01429
9.764,-0.06768
9.768,-0.02422
9.772,-0.02146
9.776,-0.02287
9.78,-0.03763
9.784,-0.02573
9.788,-0.03454
9.792,-0.02676
9.796,-0.0141
9.8,-0.0156
9.804,-0.01325
9.808,-0.03544
9.812,-0.03136
9.816,-0.00494
9.82,-0.03768
9.824,-0.01355
9.828,-0.0134
9.832,0.0052
9.836,-0.03372
9.84,-0.02763
9.844,0.00215
9.848,-0.02061
9.852,-0.00629
9.856,-0.01739
9.86,0.00583
9.864,-0.01186
9.868,-0.01406
9.872,-0.02133
9.876,-0.03189
9.88,-0.01455
9.884,-0.03126
9.888,-0.02449
9.892,-0.03782
9.896,-0.00103
9.9,-0.03699
9.904,-0.01888
9.908,-0.04856
9.912,-0.01418
9.916,-0.01485
9.92,-0.04193
9.924,-0.04769
9.928,-0.02533
9.932,-0.02674
9.936,-0.02433
9.94,-0.00766
9.944,-0.00625
9.948,0.00389
9.952,-0.02553
9.956,-0.01849
9.96,-0.00149
9.964,-0.01468
9.968,-0.01077
9.972,-0.04084
9.976,-0.02263
9.98,-0.0103
9.984,-0.04355
9.988,0.0025
9.992,0.01759
9.996,-0.04328
