t_seg,ecg_mV
0.0,0.64862
0.004,0.84306
0.008,0.97426
0.012,0.94454
0.016,0.84535
0.02,0.66663
0.024,0.40713
0.028,0.18089
0.032,0.02905
0.036,-0.09441
0.04,-0.20164
0.044,-0.1912
0.048,-0.16462
0.052,-0.10389
0.056,-0.07607
0.06,-0.06147
0.064,-0.05048
0.068,-0.02907
0.072,-0.01923
0.076,-0.0246
0.08,-0.03274
0.084,-0.01544
0.088,-0.03855
0.092,-0.0262
0.096,-0.06414
0.1,-0.02841
0.104,-0.01019
0.108,-0.03255
0.112,-0.0558
0.116,-0.02055
0.12,-0.03118
0.124,-0.0426
0.128,-0.0418
0.132,-0.05649
0.136,-0.01781
0.14,-0.04955
0.144,-0.03417
0.148,-0.04232
0.152,-0.00757
0.156,-0.0384
0.16,-0.0244
0.164,-0.01101
0.168,-0.03371
0.172,-0.03367
0.176,0.0092
0.18,0.00267
0.184,-0.03478
0.188,-0.01366
0.192,0.00542
0.196,-0.02421
0.2,-0.01174
0.204,0.00288
0.208,0.01829
0.212,0.03364
0.216,0.01038
0.22,0.07561
0.224,0.03624
0.228,0.04438
0.232,0.04527
0.236,0.06525
0.24,0.08503
0.244,0.11656
0.248,0.10893
0.252,0.14228
0.256,0.1145
0.26,0.14476
0.264,0.15058
0.268,0.16006
0.272,0.1877
0.276,0.20462
0.28,0.18917
0.284,0.17417
0.288,0.18781
0.292,0.18772
0.296,0.18375
0.3,0.18548
0.304,0.18156
0.308,0.19113
0.312,0.15991
0.316,0.17915
0.32,0.13641
0.324,0.15878
0.328,0.11016
0.332,0.13024
0.336,0.07562
0.34,0.07643
0.344,0.0854
0.348,0.06214
0.352,0.05993
0.356,0.04531
0.36,0.03828
0.364,0.03943
0.368,0.00203
0.372,0.0139
0.376,0.00606
0.38,0.00072
0.384,0.02034
0.388,-0.01062
0.392,-0.00966
0.396,-0.02624
0.4,-0.03116
0.404,-0.03304
0.408,-0.01987
0.412,-0.01894
0.416,-0.0238
0.42,-0.02131
0.424,-0.03852
0.428,-0.02497
0.432,-0.0304
0.436,-0.04648
0.44,-0.00421
0.444,-0.02448
0.448,-0.03525
0.452,-0.04249
0.456,-0.02595
0.46,-0.04063
0.464,-0.0095
0.468,-0.00829
0.472,-0.05339
0.476,-0.04455
0.48,-0.02095
0.484,-0.0171
0.488,-0.0466
0.492,-0.01986
0.496,-0.02681
0.5,-0.01342
0.504,-0.03009
0.508,0.00066
0.512,-0.04136
0.516,-0.0138
0.52,-0.03638
0.524,-0.04855
0.528,-0.02536
0.532,-0.02228
0.536,-0.0132
0.54,-0.02977
0.544,-0.04048
0.548,-0.03279
0.552,-0.00875
0.556,-0.00205
0.56,-0.03121
0.564,-0.01321
0.568,-0.02415
0.572,-0.02354
0.576,-0.04582
0.58,-0.00821
0.584,-0.04728
0.588,-0.05084
0.592,-0.01727
0.596,-0.03391
0.6,-0.01792
0.604,-0.02235
0.608,-0.0235
0.612,0.00631
0.616,0.02027
0.62,-0.0223
0.624,-0.01685
0.628,-0.0529
0.632,-0.025
0.636,-0.03722
0.64,-0.02289
0.644,-0.02154
0.648,-0.01662
0.652,-0.05096
0.656,-0.03462
0.66,-0.04845
0.664,-0.01614
0.668,-0.04148
0.672,-0.02068
0.676,-0.02121
0.68,-0.01417
0.684,-0.02102
0.688,-0.0324
0.692,-0.01673
0.696,-0.03973
0.7,-0.05879
0.704,-0.05657
0.708,-0.01359
0.712,-0.04291
0.716,-0.01252
0.72,-0.02006
0.724,-0.03638
0.728,-0.03983
0.732,-0.03773
0.736,-0.03213
0.74,-0.03205
0.744,-0.02846
0.748,-0.03297
0.752,-0.04699
0.756,0.00257
0.76,-0.0429
0.764,-0.00499
0.768,-0.05023
0.772,-0.01692
0.776,0.01432
0.78,0.02463
0.784,0.01775
0.788,0.03235
0.792,0.0272
0.796,0.04953
0.8,0.05472
0.804,0.08939
0.808,0.07404
0.812,0.06395
0.816,0.07157
0.82,0.08414
0.824,0.05579
0.828,0.03623
0.832,0.04057
0.836,0.00423
0.84,0.00835
0.844,0.01304
0.848,0.00432
0.852,-0.04346
0.856,-0.03056
0.86,-0.01915
0.864,0.00154
0.868,-0.01533
0.872,-0.05177
0.876,-0.01962
0.88,-0.03776
0.884,-0.01952
0.888,-0.03323
0.892,-0.04288
0.896,-0.03814
0.9,-0.0094
0.904,0.03007
0.908,-0.03366
0.912,-0.02553
0.916,-0.01878
0.92,-0.03595
0.924,-0.04004
0.928,-0.09218
0.932,-0.08169
0.936,-0.14547
0.94,-0.15551
0.944,-0.1018
0.948,0.03815
0.952,0.21327
0.956,0.40828
0.96,0.63651
0.964,0.83204
0.968,0.9314
0.972,0.97809
0.976,0.86842
0.98,0.73388
0.984,0.43254
0.988,0.25713
0.992,0.06316
0.996,-0.0725
1.0,-0.14069
1.004,-0.18767
1.008,-0.1645
1.012,-0.12653
1.016,-0.08833
1.02,-0.07632
1.024,-0.02308
1.028,-0.03045
1.032,-0.02401
1.036,-0.02735
1.04,-0.02022
1.044,-0.00434
1.048,-0.03213
1.052,-0.02905
1.056,-0.02076
1.06,-0.05075
1.064,-0.02845
1.068,-0.04661
1.072,-0.04908
1.076,-0.04863
1.08,-0.03166
1.084,-0.01029
1.088,-0.01932
1.092,-0.03903
1.096,-0.01699
1.1,-0.02245
1.104,-0.0431
1.108,-0.04356
1.112,-0.02146
1.116,-0.03936
1.12,-0.01422
1.124,-0.03732
1.128,-0.00242
1.132,-0.01167
1.136,-0.02324
1.14,0.00426
1.144,-0.0213
1.148,0.01638
1.152,0.00596
1.156,-0.01598
1.16,0.00492
1.164,0.00931
1.168,0.0246
1.172,0.03419
1.176,0.03922
1.18,0.03196
1.184,0.07179
1.188,0.0511
1.192,0.04662
1.196,0.07654
1.2,0.09646
1.204,0.10604
1.208,0.10647
1.212,0.11242
1.216,0.14124
1.22,0.14712
1.224,0.17684
1.228,0.16028
1.232,0.17499
1.236,0.20604
1.24,0.166
1.244,0.20824
1.248,0.18069
1.252,0.17119
1.256,0.19084
1.26,0.18733
1.264,0.2173
1.268,0.19119
1.272,0.18115
1.276,0.15379
1.28,0.17714
1.284,0.14365
1.288,0.14455
1.292,0.1155
1.296,0.1032
1.3,0.08989
1.304,0.12345
1.308,0.11752
1.312,0.05318
1.316,0.02686
1.32,0.04759
1.324,0.0479
1.328,0.06872
1.332,0.02341
1.336,0.00101
1.34,0.00802
1.344,0.00053
1.348,-0.00876
1.352,-0.0101
1.356,-0.00633
1.36,-0.03614
1.364,-0.01774
1.368,-0.01933
1.372,-0.03477
1.376,-0.01152
1.38,-0.00135
1.384,-0.02041
1.388,-0.00602
1.392,-0.0116
1.396,-0.04309
1.4,-0.01439
1.404,-0.01778
1.408,-0.04912
1.412,-0.04008
1.416,-0.01535
1.42,-0.03006
1.424,-0.02237
1.428,0.00576
1.432,0.00225
1.436,-0.01978
1.44,-0.00812
1.444,-0.01507
1.448,-0.007
1.452,-0.012
1.456,-0.01622
1.46,-0.03268
1.464,-0.01963
1.468,-0.02751
1.472,-0.01257
1.476,-0.0046
1.48,-0.03694
1.484,-0.01773
1.488,-0.02007
1.492,-0.02693
1.496,-0.00955
1.5,-0.00792
1.504,-0.02184
1.508,-0.01816
1.512,-0.00308
1.516,-0.01463
1.52,-0.00209
1.524,0.004
1.528,-0.00424
1.532,-0.01793
1.536,-0.02375
1.54,-0.03389
1.544,0.00681
1.548,-0.00947
1.552,0.00211
1.556,-0.04072
1.56,-0.04155
1.564,-0.04617
1.568,0.00747
1.572,-0.00739
1.576,-0.02386
1.58,-0.02248
1.584,-0.04317
1.588,-0.00506
1.592,-0.0014
1.596,-0.03271
1.6,-0.01789
1.604,-0.03914
1.608,-0.01195
1.612,-0.01373
1.616,-0.04305
1.62,-0.01344
1.624,0.0012
1.628,-0.02326
1.632,-0.00773
1.636,-0.01751
1.64,-0.02843
1.644,-0.01842
1.648,-0.00142
1.652,0.01257
1.656,-0.02673
1.66,-0.00485
1.664,-0.04273
1.668,-0.02559
1.672,0.01002
1.676,0.00022
1.68,0.0145
1.684,-0.02482
1.688,-0.03348
1.692,0.00783
1.696,-0.01128
1.7,0.00464
1.704,-0.00363
1.708,0.01612
1.712,-0.00852
1.716,-0.01345
1.72,-0.00915
1.724,-0.02462
1.728,-0.00565
1.732,-0.00135
1.736,-0.00817
1.74,0.02066
1.744,-0.01562
1.748,-0.02288
1.752,0.01613
1.756,-0.02256
1.76,0.0141
1.764,0.00907
1.768,-0.01559
1.772,-0.02848
1.776,-0.01797
1.78,0.01762
1.784,-0.01167
1.788,0.01481
1.792,-0.00195
1.796,0.00449
1.8,0.003
1.804,-0.01937
1.808,-0.00022
1.812,-0.0107
1.816,-0.00112
1.82,-0.02547
1.824,-0.03683
1.828,0.0068
1.832,-0.01877
1.836,-0.01617
1.84,0.02313
1.844,0.02053
1.848,-0.00688
1.852,0.03093
1.856,0.00267
1.86,0.0195
1.864,0.0308
1.868,0.07555
1.872,0.06696
1.876,0.0883
1.88,0.10905
1.884,0.08951
1.888,0.08909
1.892,0.07923
1.896,0.08514
1.9,0.07389
1.904,0.06231
1.908,0.05151
1.912,0.05816
1.916,0.0382
1.92,0.00553
1.924,0.01477
1.928,0.00398
1.932,0.02487
1.936,-0.02114
1.94,0.00527
1.944,0.01698
1.948,-0.00023
1.952,-0.01329
1.956,-0.01784
1.96,-0.01469
1.964,-0.00982
1.968,0.00265
1.972,-0.0104
1.976,0.00363
1.98,0.01105
1.984,0.01347
1.988,-0.01075
1.992,-0.00153
1.996,-0.00414
2.0,-0.02196
2.004,-0.02473
2.008,-0.08429
2.012,-0.12524
2.016,-0.12066
2.02,-0.06107
2.024,0.02637
2.028,0.22086
2.032,0.45959
2.036,0.66318
2.04,0.82838
2.044,0.95113
2.048,0.97577
2.052,0.88596
2.056,0.7101
2.06,0.47566
2.064,0.27296
2.068,0.10139
2.072,-0.07657
2.076,-0.16172
2.08,-0.18806
2.084,-0.14144
2.088,-0.11005
2.092,-0.06425
2.096,-0.03617
2.1,-0.01005
2.104,0.00062
2.108,-0.00255
2.112,-0.01171
2.116,-0.0306
2.12,0.01493
2.124,0.01219
2.128,-0.00765
2.132,0.0026
2.136,0.00365
2.14,0.01001
2.144,-0.00054
2.148,0.01528
2.152,-0.00112
2.156,0.00655
2.16,0.00355
2.164,-0.00416
2.168,0.0202
2.172,-0.01661
2.176,0.01384
2.18,0.01853
2.184,-0.0102
2.188,-0.0241
2.192,-0.01371
2.196,0.00074
2.2,0.01502
2.204,0.01181
2.208,-0.01041
2.212,0.00186
2.216,0.01791
2.22,0.00279
2.224,0.02591
2.228,0.01159
2.232,0.00069
2.236,0.00681
2.24,0.02766
2.244,0.01138
2.248,0.03276
2.252,0.06324
2.256,0.05747
2.26,0.0915
2.264,0.0651
2.268,0.08582
2.272,0.10331
2.276,0.0836
2.28,0.13651
2.284,0.13664
2.288,0.15078
2.292,0.19298
2.296,0.1723
2.3,0.20727
2.304,0.19749
2.308,0.20238
2.312,0.22683
2.316,0.22467
2.32,0.22979
2.324,0.22607
2.328,0.24206
2.332,0.21508
2.336,0.23585
2.34,0.2146
2.344,0.18091
2.348,0.21254
2.352,0.20773
2.356,0.20573
2.36,0.19867
2.364,0.11261
2.368,0.15485
2.372,0.13664
2.376,0.1055
2.38,0.1069
2.384,0.0758
2.388,0.10422
2.392,0.09167
2.396,0.08727
2.4,0.06104
2.404,0.04217
2.408,0.03669
2.412,0.01375
2.416,0.0322
2.42,0.03189
2.424,0.04198
2.428,0.04345
2.432,0.02107
2.436,0.00103
2.44,0.02619
2.444,0.02242
2.448,0.01493
2.452,-0.00624
2.456,-0.01745
2.46,0.02716
2.464,0.04094
2.468,0.02007
2.472,0.00152
2.476,0.00407
2.48,0.00115
2.484,0.02117
2.488,-0.00504
2.492,0.00916
2.496,0.01084
2.5,0.0257
2.504,-0.02279
2.508,-0.00221
2.512,0.01057
2.516,0.01299
2.52,0.00328
2.524,0.03356
2.528,0.00199
2.532,0.00853
2.536,0.0408
2.54,0.02369
2.544,0.00344
2.548,0.03709
2.552,0.01548
2.556,0.01877
2.56,0.02664
2.564,0.01579
2.568,0.03119
2.572,0.02105
2.576,0.03171
2.58,-0.0128
2.584,0.00962
2.588,0.00958
2.592,0.01645
2.596,0.02654
2.6,-0.00303
2.604,0.02087
2.608,0.00773
2.612,0.00571
2.616,0.00091
2.62,-0.01139
2.624,0.02378
2.628,0.00932
2.632,0.0175
2.636,-0.01652
2.64,0.02
2.644,0.02974
2.648,0.02107
2.652,0.01989
2.656,0.00957
2.66,0.02488
2.664,0.03097
2.668,0.01695
2.672,0.01168
2.676,0.01112
2.68,0.0279
2.684,-0.02855
2.688,0.01794
2.692,0.03515
2.696,0.02961
2.7,-0.01138
2.704,0.03116
2.708,0.03681
2.712,0.05657
2.716,0.02669
2.72,0.02821
2.724,0.00378
2.728,0.02643
2.732,0.04612
2.736,0.01754
2.74,0.02196
2.744,0.00652
2.748,0.03842
2.752,0.0142
2.756,0.03795
2.76,0.0075
2.764,0.01082
2.768,-0.00402
2.772,0.01435
2.776,0.01513
2.78,0.02091
2.784,0.00686
2.788,0.02523
2.792,0.02867
2.796,0.03786
2.8,0.03859
2.804,0.03854
2.808,0.08195
2.812,0.08953
2.816,0.08723
2.82,0.10839
2.824,0.08537
2.828,0.10849
2.832,0.13172
2.836,0.12352
2.84,0.12093
2.844,0.10316
2.848,0.08252
2.852,0.08735
2.856,0.08783
2.86,0.065
2.864,0.03214
2.868,0.02702
2.872,0.05095
2.876,0.02969
2.88,0.03204
2.884,0.0545
2.888,0.02482
2.892,0.01601
2.896,0.02375
2.9,0.03666
2.904,0.04155
2.908,0.01561
2.912,-0.0092
2.916,0.01594
2.92,0.0314
2.924,0.02977
2.928,0.03094
2.932,0.00972
2.936,0.00117
2.94,0.00096
2.944,0.01482
2.948,-0.01315
2.952,-0.02253
2.956,-0.08022
2.96,-0.11994
2.964,-0.05272
2.968,0.00972
2.972,0.16171
2.976,0.36926
2.98,0.56142
2.984,0.78779
2.988,0.96135
2.992,1.04858
2.996,0.95597
3.0,0.81547
3.004,0.63225
3.008,0.41328
3.012,0.15863
3.016,0.03193
3.02,-0.09187
3.024,-0.14591
3.028,-0.14457
3.032,-0.1371
3.036,-0.05482
3.04,-0.01103
3.044,0.01029
3.048,0.00692
3.052,0.0322
3.056,0.00627
3.06,0.02414
3.064,0.00158
3.068,0.01948
3.072,0.02314
3.076,0.00802
3.08,0.01744
3.084,-0.00292
3.088,0.00515
3.092,0.02315
3.096,0.0309
3.1,0.04087
3.104,0.03586
3.108,0.0391
3.112,0.02717
3.116,-0.00184
3.12,0.03053
3.124,0.03892
3.128,0.02967
3.132,0.04557
3.136,0.03153
3.14,0.01582
3.144,0.02944
3.148,0.05042
3.152,0.00309
3.156,0.03996
3.16,0.03803
3.164,0.02752
3.168,0.04655
3.172,0.05198
3.176,0.04391
3.18,0.0515
3.184,0.06465
3.188,0.02711
3.192,0.06048
3.196,0.06966
3.2,0.09731
3.204,0.09757
3.208,0.13163
3.212,0.09927
3.216,0.10916
3.22,0.14028
3.224,0.14798
3.228,0.16596
3.232,0.16347
3.236,0.18153
3.24,0.17325
3.244,0.2086
3.248,0.22069
3.252,0.22934
3.256,0.22303
3.26,0.23552
3.264,0.26013
3.268,0.24194
3.272,0.24758
3.276,0.23748
3.28,0.22924
3.284,0.22904
3.288,0.20612
3.292,0.23585
3.296,0.20226
3.3,0.20548
3.304,0.19518
3.308,0.19684
3.312,0.15593
3.316,0.15129
3.32,0.14346
3.324,0.12391
3.328,0.14591
3.332,0.10381
3.336,0.10983
3.34,0.09113
3.344,0.06754
3.348,0.08145
3.352,0.07837
3.356,0.08605
3.36,0.05442
3.364,0.06519
3.368,0.00891
3.372,0.03687
3.376,0.07359
3.38,0.01803
3.384,0.0629
3.388,0.04134
3.392,0.02163
3.396,0.01905
3.4,0.02096
3.404,0.03864
3.408,0.01724
3.412,0.02294
3.416,0.01495
3.42,0.01582
3.424,0.04032
3.428,0.04614
3.432,0.03354
3.436,0.03515
3.44,0.01608
3.444,0.02073
3.448,0.04371
3.452,0.01163
3.456,0.02551
3.46,0.00866
3.464,0.00042
3.468,0.03213
3.472,0.01291
3.476,0.02637
3.48,0.06052
3.484,0.02157
3.488,0.01717
3.492,0.01054
3.496,0.01724
3.5,0.0473
3.504,0.0255
3.508,0.03769
3.512,0.0321
3.516,0.03816
3.52,0.04936
3.524,0.03457
3.528,0.00866
3.532,0.00531
3.536,0.03175
3.54,0.02711
3.544,0.03742
3.548,0.01168
3.552,0.03183
3.556,0.02025
3.56,0.03954
3.564,0.0067
3.568,0.05331
3.572,0.03879
3.576,0.03386
3.58,0.03835
3.584,0.03407
3.588,0.04522
3.592,0.0204
3.596,0.01433
3.6,0.04396
3.604,0.02917
3.608,0.02083
3.612,0.01896
3.616,0.02296
3.62,0.03234
3.624,0.02662
3.628,0.03579
3.632,0.0365
3.636,0.04864
3.64,0.05572
3.644,0.02529
3.648,0.02144
3.652,-0.01018
3.656,0.03351
3.66,0.00595
3.664,0.00934
3.668,0.02342
3.672,0.01912
3.676,0.03252
3.68,0.03695
3.684,0.04243
3.688,0.02379
3.692,0.01357
3.696,0.03009
3.7,0.03209
3.704,0.02303
3.708,0.05725
3.712,0.03535
3.716,0.03762
3.72,0.03165
3.724,0.02791
3.728,0.04734
3.732,0.04266
3.736,0.01947
3.74,0.06096
3.744,0.04617
3.748,0.02552
3.752,0.03868
3.756,0.06805
3.76,0.02705
3.764,-0.00488
3.768,0.01183
3.772,0.01392
3.776,0.01397
3.78,0.01609
3.784,0.02829
3.788,0.02975
3.792,0.03489
3.796,-0.00171
3.8,0.00394
3.804,0.03361
3.808,0.03414
3.812,0.0432
3.816,0.03028
3.82,0.05435
3.824,0.00667
3.828,0.03853
3.832,0.01715
3.836,0.0432
3.84,0.02518
3.844,0.05622
3.848,0.00557
3.852,0.03699
3.856,0.02626
3.86,-0.00636
3.864,0.02083
3.868,0.03092
3.872,-0.00544
3.876,0.00958
3.88,0.0428
3.884,0.01061
3.888,0.07326
3.892,0.0394
3.896,0.03768
3.9,0.00929
3.904,-0.01278
3.908,0.02437
3.912,0.02922
3.916,0.05569
3.92,0.01147
3.924,0.03624
3.928,0.02707
3.932,0.0173
3.936,0.01643
3.94,0.02408
3.944,0.01568
3.948,0.04387
3.952,0.01525
3.956,0.03454
3.96,0.06326
3.964,0.03839
3.968,0.06457
3.972,0.07703
3.976,0.08921
3.98,0.08143
3.984,0.11578
3.988,0.10457
3.992,0.12915
3.996,0.12719
4.0,0.14723
4.004,0.11161
4.008,0.13144
4.012,0.11107
4.016,0.10653
4.02,0.10568
4.024,0.07024
4.028,0.06501
4.032,0.05529
4.036,0.01812
4.04,0.02238
4.044,0.04766
4.048,0.03034
4.052,0.04513
4.056,0.04284
4.06,0.06323
4.064,0.02102
4.068,0.02771
4.072,0.04753
4.076,0.01907
4.08,0.05439
4.084,0.03845
4.088,0.03791
4.092,0.02724
4.096,0.02355
4.1,0.03312
4.104,0.0353
4.108,0.00461
4.112,0.0228
4.116,-0.02295
4.12,-0.03883
4.124,-0.09594
4.128,-0.06951
4.132,0.05465
4.136,0.18838
4.14,0.35154
4.144,0.56645
4.148,0.78837
4.152,0.9452
4.156,1.03941
4.16,0.97698
4.164,0.8323
4.168,0.64692
4.172,0.41683
4.176,0.22118
4.18,0.03625
4.184,-0.0769
4.188,-0.13415
4.192,-0.13935
4.196,-0.11612
4.2,-0.06968
4.204,-0.02701
4.208,-0.00525
4.212,0.019
4.216,0.02691
4.22,0.02725
4.224,0.00996
4.228,0.01694
4.232,0.04296
4.236,-0.00557
4.24,0.02906
4.244,0.01963
4.248,0.03625
4.252,0.04973
4.256,0.03962
4.26,0.03071
4.264,0.03327
4.268,0.02934
4.272,0.01189
4.276,0.01431
4.28,0.04407
4.284,0.0234
4.288,0.01121
4.292,0.01963
4.296,0.0351
4.3,0.00296
4.304,0.04563
4.308,0.03271
4.312,0.04793
4.316,0.0329
4.32,0.03332
4.324,0.05099
4.328,0.04707
4.332,0.05855
4.336,0.04354
4.34,0.04876
4.344,0.06757
4.348,0.07837
4.352,0.04699
4.356,0.09346
4.36,0.07784
4.364,0.06005
4.368,0.06413
4.372,0.10468
4.376,0.12489
4.38,0.13929
4.384,0.15097
4.388,0.15766
4.392,0.1886
4.396,0.15294
4.4,0.18953
4.404,0.19746
4.408,0.21545
4.412,0.22055
4.416,0.21572
4.42,0.25173
4.424,0.24372
4.428,0.22102
4.432,0.23177
4.436,0.23473
4.44,0.26304
4.444,0.25124
4.448,0.22281
4.452,0.22595
4.456,0.22509
4.46,0.19923
4.464,0.19401
4.468,0.17937
4.472,0.16971
4.476,0.17071
4.48,0.16817
4.484,0.16218
4.488,0.15812
4.492,0.10832
4.496,0.13228
4.5,0.11545
4.504,0.10923
4.508,0.09396
4.512,0.05915
4.516,0.09065
4.52,0.04218
4.524,0.03745
4.528,0.04937
4.532,0.03086
4.536,0.04114
4.54,0.06091
4.544,0.03325
4.548,0.04139
4.552,0.0403
4.556,-0.00949
4.56,0.01089
4.564,0.0345
4.568,0.02266
4.572,0.01676
4.576,0.04718
4.58,0.05313
4.584,0.01952
4.588,0.03714
4.592,0.00351
4.596,0.02452
4.6,0.04553
4.604,0.01959
4.608,0.05218
4.612,0.04978
4.616,0.01126
4.62,0.02387
4.624,0.03096
4.628,-0.01514
4.632,0.00997
4.636,0.01489
4.64,0.03537
4.644,0.0329
4.648,-0.00285
4.652,-0.00319
4.656,0.02856
4.66,0.02397
4.664,0.00715
4.668,0.02594
4.672,0.01924
4.676,0.02266
4.68,0.01637
4.684,0.02012
4.688,-0.00133
4.692,0.03027
4.696,0.04575
4.7,0.00887
4.704,0.01405
4.708,0.01477
4.712,0.02466
4.716,-0.00106
4.72,0.03247
4.724,0.02713
4.728,0.01694
4.732,0.0312
4.736,0.02325
4.74,0.01345
4.744,0.01552
4.748,0.03054
4.752,0.00789
4.756,0.02104
4.76,0.03604
4.764,-0.02095
4.768,0.0075
4.772,0.05191
4.776,0.03192
4.78,-0.01196
4.784,0.02982
4.788,-0.00336
4.792,0.0036
4.796,0.00646
4.8,0.02669
4.804,0.02844
4.808,0.02943
4.812,0.04118
4.816,0.00915
4.82,-0.0288
4.824,0.00794
4.828,0.02093
4.832,0.01533
4.836,-0.00084
4.84,0.02113
4.844,0.04822
4.848,-0.01025
4.852,0.01806
4.856,0.02211
4.86,0.02724
4.864,0.03334
4.868,0.01816
4.872,0.01226
4.876,0.04024
4.88,0.0238
4.884,0.01027
4.888,0.0147
4.892,0.01033
4.896,0.02618
4.9,0.01362
4.904,0.0215
4.908,0.01649
4.912,0.03014
4.916,0.00436
4.92,0.0086
4.924,0.02005
4.928,0.02974
4.932,0.01743
4.936,0.04058
4.94,0.02328
4.944,-0.00597
4.948,0.02027
4.952,0.01307
4.956,0.0264
4.96,0.03032
4.964,0.036
4.968,-0.03768
4.972,0.00463
4.976,0.01751
4.98,-0.00929
4.984,0.01585
4.988,0.00623
4.992,0.00755
4.996,-0.0039
5.0,-0.01558
5.004,0.00216
5.008,0.0274
5.012,-0.01234
5.016,0.01909
5.02,0.0059
5.024,0.01958
5.028,-0.00839
5.032,0.01333
5.036,0.04114
5.04,0.00385
5.044,-0.00385
5.048,0.02105
5.052,-0.00035
5.056,0.02062
5.06,0.01443
5.064,0.03418
5.068,-0.02086
5.072,0.01304
5.076,0.01795
5.08,0.00279
5.084,0.01675
5.088,0.00186
5.092,0.01853
5.096,0.01666
5.1,0.02058
5.104,0.00053
5.108,0.01468
5.112,0.07899
5.116,0.06673
5.12,0.0531
5.124,0.03718
5.128,0.02322
5.132,0.10483
5.136,0.0949
5.14,0.12581
5.144,0.1079
5.148,0.12314
5.152,0.07735
5.156,0.11486
5.16,0.12105
5.164,0.06071
5.168,0.05609
5.172,0.04164
5.176,0.05019
5.18,0.02272
5.184,0.02041
5.188,0.04305
5.192,0.02183
5.196,0.01676
5.2,0.00449
5.204,0.01666
5.208,-0.01313
5.212,0.00792
5.216,0.02522
5.22,0.01178
5.224,-0.00059
5.228,-0.03357
5.232,0.00241
5.236,0.01477
5.24,0.00489
5.244,0.00698
5.248,0.00909
5.252,-0.00601
5.256,0.02954
5.26,-0.01451
5.264,-0.02883
5.268,-0.06191
5.272,-0.10376
5.276,-0.10491
5.28,-0.05311
5.284,0.04708
5.288,0.20377
5.292,0.39827
5.296,0.63587
5.3,0.81579
5.304,0.98267
5.308,1.00992
5.312,0.91446
5.316,0.74202
5.32,0.54581
5.324,0.30764
5.328,0.10007
5.332,-0.05489
5.336,-0.13842
5.34,-0.169
5.344,-0.14752
5.348,-0.11937
5.352,-0.07258
5.356,-0.03831
5.36,0.00701
5.364,0.00937
5.368,-0.00074
5.372,-0.00171
5.376,0.00992
5.38,0.02341
5.384,-0.00639
5.388,0.0098
5.392,0.01252
5.396,0.00219
5.4,0.0007
5.404,0.01774
5.408,-0.00241
5.412,0.00926
5.416,0.02421
5.42,-0.01719
5.424,-0.00937
5.428,0.00202
5.432,0.00381
5.436,-0.02385
5.44,0.00207
5.444,-0.0021
5.448,0.0282
5.452,0.00428
5.456,-0.0065
5.46,-0.0121
5.464,-0.02297
5.468,0.03102
5.472,0.02355
5.476,0.00436
5.48,0.02063
5.484,0.01043
5.488,0.01108
5.492,0.03852
5.496,0.01672
5.5,0.04568
5.504,0.03928
5.508,0.05514
5.512,0.02909
5.516,0.05638
5.52,0.07592
5.524,0.0982
5.528,0.1251
5.532,0.11908
5.536,0.09605
5.54,0.12261
5.544,0.16028
5.548,0.14058
5.552,0.12449
5.556,0.15711
5.56,0.16325
5.564,0.18233
5.568,0.21225
5.572,0.20103
5.576,0.2219
5.58,0.23707
5.584,0.2158
5.588,0.21862
5.592,0.20796
5.596,0.19629
5.6,0.22612
5.604,0.21521
5.608,0.17658
5.612,0.19021
5.616,0.17071
5.62,0.1616
5.624,0.16839
5.628,0.12878
5.632,0.13769
5.636,0.13665
5.64,0.11281
5.644,0.06817
5.648,0.10509
5.652,0.09144
5.656,0.0743
5.66,0.07354
5.664,0.04606
5.668,0.02868
5.672,0.03026
5.676,0.00487
5.68,0.02496
5.684,0.01955
5.688,-0.00417
5.692,0.01333
5.696,0.0189
5.7,0.00447
5.704,0.00541
5.708,-0.00769
5.712,0.02371
5.716,-0.02369
5.72,0.0085
5.724,-0.00705
5.728,-0.01338
5.732,0.00821
5.736,-0.02243
5.74,0.00749
5.744,-0.00217
5.748,-0.0002
5.752,-0.02276
5.756,0.02936
5.76,0.00308
5.764,0.00217
5.768,-0.00726
5.772,-0.0034
5.776,-0.0337
5.78,-0.00183
5.784,-0.01447
5.788,0.01435
5.792,-0.00311
5.796,-0.02168
5.8,0.00558
5.804,-0.04541
5.808,-0.02731
5.812,-0.01624
5.816,0.00249
5.82,-0.00028
5.824,0.00661
5.828,-0.02315
5.832,0.01155
5.836,0.03019
5.84,-0.03166
5.844,-0.02379
5.848,-0.03821
5.852,-0.03699
5.856,-0.00452
5.86,0.00205
5.864,-0.01526
5.868,0.0037
5.872,-0.0079
5.876,-0.02217
5.88,-0.02018
5.884,-0.0209
5.888,-0.00488
5.892,-0.02082
5.896,-0.00773
5.9,-0.00056
5.904,-0.0172
5.908,-0.03238
5.912,-0.00794
5.916,-0.02748
5.92,-0.03231
5.924,-0.00013
5.928,-0.01032
5.932,0.01287
5.936,-0.0058
5.94,0.01773
5.944,-0.02029
5.948,-0.03215
5.952,-0.01929
5.956,-0.04574
5.96,-0.00992
5.964,-0.03314
5.968,-0.02261
5.972,-0.01068
5.976,-0.0396
5.98,-0.01112
5.984,-0.02637
5.988,-0.01307
5.992,-0.02527
5.996,-0.02084
6.0,-0.01247
6.004,-0.02411
6.008,0.00822
6.012,-0.02744
6.016,-0.00555
6.02,-0.02662
6.024,0.00811
6.028,-0.01991
6.032,-0.02854
6.036,0.00975
6.04,-0.01318
6.044,-0.00364
6.048,-0.02632
6.052,-0.00943
6.056,-0.00266
6.06,0.0036
6.064,-0.01358
6.068,-0.03038
6.072,-0.02195
6.076,-0.01424
6.08,-0.00782
6.084,-0.02342
6.088,-0.00039
6.092,-0.02874
6.096,-0.01202
6.1,0.00941
6.104,-0.00968
6.108,-0.02545
6.112,-0.01578
6.116,-0.00927
6.12,-0.02085
6.124,-0.01402
6.128,-0.02603
6.132,0.005
6.136,-0.01148
6.14,-0.01071
6.144,0.01592
6.148,-0.03675
6.152,0.00752
6.156,-0.00042
6.16,0.00308
6.164,0.02707
6.168,0.03285
6.172,0.03565
6.176,0.05716
6.18,0.05558
6.184,0.06727
6.188,0.07706
6.192,0.07445
6.196,0.07776
6.2,0.07091
6.204,0.06585
6.208,0.05898
6.212,0.03187
6.216,0.03354
6.22,-2e-05
6.224,0.03266
6.228,0.00825
6.232,-0.0134
6.236,-0.01742
6.24,-0.02506
6.244,-0.02816
6.248,0.00886
6.252,-0.01701
6.256,-0.01486
6.26,-0.0292
6.264,-0.03168
6.268,-0.02921
6.272,-0.02469
6.276,-0.03854
6.28,-0.01758
6.284,-0.02619
6.288,-0.04252
6.292,-0.03616
6.296,-0.02811
6.3,-0.03391
6.304,-0.03332
6.308,-0.06498
6.312,-0.10955
6.316,-0.11713
6.32,-0.10561
6.324,-0.10367
6.328,-0.00694
6.332,0.17563
6.336,0.38604
6.34,0.58798
6.344,0.81645
6.348,0.9357
6.352,0.98589
6.356,0.90988
6.36,0.74437
6.364,0.52042
6.368,0.27483
6.372,0.08791
6.376,-0.0796
6.38,-0.13649
6.384,-0.16912
6.388,-0.16825
6.392,-0.13603
6.396,-0.11431
6.4,-0.05046
6.404,-0.0285
6.408,-0.00252
6.412,-0.00692
6.416,-0.02818
6.42,-0.00779
6.424,-0.00837
6.428,-0.02273
6.432,-0.03839
6.436,-0.04011
6.44,-0.01994
6.444,-0.03399
6.448,-0.03618
6.452,-0.0273
6.456,-0.01692
6.46,-0.02651
6.464,-0.03595
6.468,-0.01723
6.472,-0.01268
6.476,-0.01671
6.48,-0.02987
6.484,-0.00556
6.488,-0.01307
6.492,-0.01501
6.496,-0.048
6.5,-0.03811
6.504,-0.03028
6.508,-0.02497
6.512,-0.00622
6.516,-0.01741
6.52,-0.03942
6.524,-0.02149
6.528,-0.01725
6.532,-0.03284
6.536,-0.00798
6.54,0.01123
6.544,0.02011
6.548,0.02342
6.552,0.00335
6.556,0.0371
6.56,0.03687
6.564,0.05966
6.568,0.03659
6.572,0.07258
6.576,0.06838
6.58,0.07371
6.584,0.08837
6.588,0.13388
6.592,0.13588
6.596,0.12857
6.6,0.12382
6.604,0.14497
6.608,0.14303
6.612,0.17627
6.616,0.17193
6.62,0.19542
6.624,0.19103
6.628,0.20054
6.632,0.22034
6.636,0.20042
6.64,0.18101
6.644,0.18824
6.648,0.16612
6.652,0.16056
6.656,0.20154
6.66,0.17336
6.664,0.11462
6.668,0.1504
6.672,0.11226
6.676,0.10379
6.68,0.07995
6.684,0.07277
6.688,0.0609
6.692,0.05719
6.696,0.06156
6.7,0.03317
6.704,0.06415
6.708,0.02719
6.712,0.01514
6.716,-0.00602
6.72,0.01496
6.724,-0.00486
6.728,0.01439
6.732,-0.02378
6.736,-0.01878
6.74,-0.02066
6.744,-0.04394
6.748,-0.01067
6.752,-0.04347
6.756,-0.04546
6.76,-0.013
6.764,-0.03104
6.768,-0.01772
6.772,0.00789
6.776,-0.04362
6.78,-0.0074
6.784,-0.03582
6.788,-0.02245
6.792,-0.03339
6.796,-0.02806
6.8,-0.02894
6.804,-0.03372
6.808,-0.03396
6.812,-0.0346
6.816,-0.0553
6.82,-0.04002
6.824,-0.05333
6.828,-0.0147
6.832,-0.01831
6.836,-0.05038
6.84,-0.02413
6.844,-0.04056
6.848,-0.01126
6.852,-0.03461
6.856,-0.02651
6.86,-0.03566
6.864,-0.02568
6.868,-0.02307
6.872,-0.04274
6.876,-0.02327
6.88,-0.03026
6.884,-0.04402
6.888,-0.04103
6.892,-0.03379
6.896,-0.04486
6.9,-0.02806
6.904,-0.00753
6.908,-0.01504
6.912,-0.04057
6.916,-0.03865
6.92,-0.05815
6.924,-0.03505
6.928,-0.03545
6.932,-0.01403
6.936,-0.03002
6.94,-0.03791
6.944,-0.03527
6.948,-0.04024
6.952,-0.02302
6.956,-0.02843
6.96,-0.0038
6.964,-0.03081
6.968,-0.01747
6.972,-0.04548
6.976,-0.0246
6.98,-0.01838
6.984,-0.05507
6.988,-0.01872
6.992,-0.0057
6.996,-0.07051
7.0,-0.03434
7.004,-0.03276
7.008,-0.03785
7.012,0.00145
7.016,-0.03444
7.02,-0.02279
7.024,-0.03218
7.028,-0.01677
7.032,-0.01936
7.036,0.0018
7.04,-0.03317
7.044,-0.02124
7.048,-0.04069
7.052,-0.03006
7.056,-0.02843
7.06,-0.01811
7.064,-0.0186
7.068,-0.01725
7.072,-0.04503
7.076,-0.03816
7.08,-0.03003
7.084,-0.05612
7.088,-0.02897
7.092,-0.00131
7.096,-0.01774
7.1,-0.02258
7.104,-0.02155
7.108,-0.00717
7.112,-0.03876
7.116,-0.02655
7.12,-0.05085
7.124,-0.03211
7.128,-0.02515
7.132,-0.04851
7.136,-0.04775
7.14,-0.01703
7.144,-0.04139
7.148,-0.037
7.152,-0.01105
7.156,-0.02318
7.16,-0.02579
7.164,-0.04727
7.168,-0.00842
7.172,-0.05572
7.176,-0.02663
7.18,-0.00847
7.184,-0.01971
7.188,-0.01621
7.192,-0.02953
7.196,-0.02679
7.2,-0.02672
7.204,-0.01715
7.208,0.03037
7.212,0.02717
7.216,0.02109
7.22,0.0496
7.224,0.06221
7.228,0.08104
7.232,0.05243
7.236,0.09308
7.24,0.07536
7.244,0.05017
7.248,0.06835
7.252,0.0328
7.256,0.03997
7.26,0.01859
7.264,0.02032
7.268,0.01408
7.272,-0.00926
7.276,-0.01834
7.28,-0.01488
7.284,-0.01142
7.288,-0.03785
7.292,-0.03242
7.296,-0.05124
7.3,-0.02213
7.304,-0.0606
7.308,-0.04291
7.312,-0.02181
7.316,-0.0346
7.32,-0.03132
7.324,-0.03579
7.328,-0.04096
7.332,-0.03498
7.336,-0.00232
7.34,-0.06773
7.344,-0.03192
7.348,-0.04214
7.352,-0.05128
7.356,-0.08051
7.36,-0.13051
7.364,-0.15514
7.368,-0.13277
7.372,-0.03753
7.376,0.14152
7.38,0.32728
7.384,0.51954
7.388,0.72815
7.392,0.91745
7.396,0.94897
7.4,0.92944
7.404,0.75788
7.408,0.55078
7.412,0.33324
7.416,0.12032
7.42,-0.02488
7.424,-0.1443
7.428,-0.204
7.432,-0.20006
7.436,-0.16319
7.44,-0.10107
7.444,-0.03662
7.448,-0.02313
7.452,-0.03344
7.456,-0.0542
7.46,-0.03104
7.464,-0.04769
7.468,-0.02777
7.472,-0.03058
7.476,-0.06978
7.48,-0.01443
7.484,-0.01112
7.488,-0.05351
7.492,-0.04764
7.496,-0.01351
7.5,-0.01699
7.504,-0.01736
7.508,-0.03513
7.512,-0.01873
7.516,-0.02681
7.52,-0.04699
7.524,-0.0285
7.528,-0.06878
7.532,-0.02564
7.536,-0.0498
7.54,-0.03082
7.544,-0.01769
7.548,0.00968
7.552,-0.02057
7.556,-0.01178
7.56,-0.01801
7.564,-0.02221
7.568,-0.03739
7.572,-0.01038
7.576,-0.03557
7.58,0.01665
7.584,-0.00555
7.588,0.02626
7.592,0.03553
7.596,0.03865
7.6,-0.01605
7.604,0.01867
7.608,0.06651
7.612,0.02824
7.616,0.05965
7.62,0.0835
7.624,0.08275
7.628,0.11167
7.632,0.09271
7.636,0.12301
7.64,0.14838
7.644,0.13322
7.648,0.17337
7.652,0.17058
7.656,0.16027
7.66,0.20704
7.664,0.18389
7.668,0.17752
7.672,0.22353
7.676,0.19873
7.68,0.21685
7.684,0.16952
7.688,0.19824
7.692,0.16662
7.696,0.17214
7.7,0.16191
7.704,0.14846
7.708,0.13037
7.712,0.11837
7.716,0.10287
7.72,0.0883
7.724,0.12815
7.728,0.07042
7.732,0.09758
7.736,0.05436
7.74,0.06683
7.744,0.04999
7.748,0.02979
7.752,0.03839
7.756,0.00164
7.76,-0.01044
7.764,-0.01617
7.768,0.00659
7.772,-0.02097
7.776,0.00258
7.78,-0.00365
7.784,-0.0335
7.788,-0.02039
7.792,-0.01675
7.796,-0.01353
7.8,-0.01546
7.804,-0.02734
7.808,-0.02707
7.812,-0.03315
7.816,-0.01212
7.82,-0.01338
7.824,-0.02052
7.828,-0.02128
7.832,-0.01977
7.836,-0.02962
7.84,-0.02829
7.844,-0.01287
7.848,-0.02302
7.852,-0.00308
7.856,-0.0128
7.86,-0.01453
7.864,-0.03063
7.868,-0.01938
7.872,-0.0214
7.876,-0.0276
7.88,-0.02108
7.884,-0.03436
7.888,-0.02833
7.892,-0.01132
7.896,-0.03409
7.9,-0.04179
7.904,-0.03061
7.908,-0.03995
7.912,-0.02954
7.916,-0.00728
7.92,-0.01815
7.924,-0.01007
7.928,-0.02284
7.932,-0.02394
7.936,-0.01856
7.94,-0.02496
7.944,-0.03217
7.948,-0.0447
7.952,0.00062
7.956,-0.01241
7.96,-0.05946
7.964,-0.01665
7.968,-0.01687
7.972,-0.01519
7.976,0.00223
7.98,-0.01668
7.984,-0.01518
7.988,-0.03292
7.992,-0.03014
7.996,-0.01523
8.0,-0.0312
8.004,-0.01829
8.008,-0.01533
8.012,-0.03114
8.016,-0.01879
8.02,-0.04428
8.024,0.00103
8.028,-0.01045
8.032,-0.02029
8.036,-0.01773
8.04,-0.02792
8.044,-0.0171
8.048,-0.01069
8.052,-0.00551
8.056,0.00982
8.06,-0.02849
8.064,-0.02546
8.068,-0.01713
8.072,-0.00075
8.076,-0.0118
8.08,-0.02163
8.084,-0.01957
8.088,-0.02115
8.092,-0.0365
8.096,-0.04501
8.1,-0.00979
8.104,0.0031
8.108,-0.02496
8.112,-0.02748
8.116,-0.02864
8.12,-0.02372
8.124,-0.02084
8.128,-0.00557
8.132,-0.05299
8.136,0.00286
8.14,-0.01413
8.144,-0.02049
8.148,-0.01911
8.152,0.00965
8.156,-0.03586
8.16,-0.03602
8.164,0.00257
8.168,0.0067
8.172,0.01228
8.176,-0.02533
8.18,0.00057
8.184,-0.02588
8.188,-0.03903
8.192,-0.00321
8.196,-0.00892
8.2,-0.01905
8.204,0.01236
8.208,-0.04384
8.212,-0.02282
8.216,-0.02773
8.22,-0.01822
8.224,-0.01939
8.228,0.00429
8.232,-0.01323
8.236,0.02
8.24,-0.00051
8.244,-0.01837
8.248,-0.02649
8.252,0.0079
8.256,-0.02474
8.26,-0.0277
8.264,-0.02365
8.268,0.02414
8.272,-0.01601
8.276,0.01282
8.28,-0.00528
8.284,-0.00014
8.288,0.01629
8.292,-0.01734
8.296,0.01335
8.3,-0.01054
8.304,-0.02056
8.308,0.00429
8.312,-0.03703
8.316,0.00622
8.32,0.00588
8.324,0.00528
8.328,0.0029
8.332,0.00571
8.336,0.00155
8.34,0.03871
8.344,0.0363
8.348,0.03648
8.352,0.04849
8.356,0.07722
8.36,0.07512
8.364,0.07066
8.368,0.08071
8.372,0.0805
8.376,0.09184
8.38,0.06775
8.384,0.05142
8.388,0.07293
8.392,0.0177
8.396,0.0312
8.4,-0.01302
8.404,0.03184
8.408,0.01262
8.412,0.01756
8.416,-0.01013
8.42,-0.00447
8.424,-0.02902
8.428,-0.00874
8.432,-0.0233
8.436,0.00405
8.44,-0.02193
8.444,0.00949
8.448,-0.01328
8.452,-0.00273
8.456,0.00058
8.46,-0.00903
8.464,-0.01097
8.468,0.01438
8.472,-0.01064
8.476,-0.03009
8.48,-0.01448
8.484,-0.0281
8.488,-0.08541
8.492,-0.11082
8.496,-0.11985
8.5,-0.09223
8.504,-0.03103
8.508,0.12301
8.512,0.31789
8.516,0.53432
8.52,0.73094
8.524,0.89888
8.528,0.96999
8.532,0.95512
8.536,0.82459
8.54,0.59641
8.544,0.39605
8.548,0.17128
8.552,0.01448
8.556,-0.12192
8.56,-0.1722
8.564,-0.16382
8.568,-0.15561
8.572,-0.11545
8.576,-0.05368
8.58,-0.02914
8.584,-0.01126
8.588,-0.02384
8.592,-0.00729
8.596,-0.01863
8.6,0.00675
8.604,-0.01569
8.608,-0.02743
8.612,-0.0053
8.616,-0.01884
8.62,-0.02166
8.624,-0.03262
8.628,0.01784
8.632,-0.01272
8.636,0.03008
8.64,-0.00539
8.644,-0.01567
8.648,-0.01451
8.652,-0.02192
8.656,-0.00564
8.66,0.00036
8.664,0.01025
8.668,0.00365
8.672,0.01088
8.676,-0.02586
8.68,-0.00216
8.684,-0.01309
8.688,0.00651
8.692,0.02718
8.696,0.00365
8.7,0.00047
8.704,0.01704
8.708,-0.00691
8.712,0.03275
8.716,0.04439
8.72,0.02081
8.724,0.04869
8.728,0.04197
8.732,0.06836
8.736,0.04329
8.74,0.06469
8.744,0.05889
8.748,0.09339
8.752,0.07721
8.756,0.11315
8.76,0.09082
8.764,0.1535
8.768,0.15208
8.772,0.18166
8.776,0.16018
8.78,0.19861
8.784,0.17311
8.788,0.1816
8.792,0.19475
8.796,0.22017
8.8,0.21779
8.804,0.2074
8.808,0.22901
8.812,0.22634
8.816,0.23802
8.82,0.20506
8.824,0.20426
8.828,0.18474
8.832,0.17627
8.836,0.19517
8.84,0.16512
8.844,0.16528
8.848,0.13879
8.852,0.15782
8.856,0.14387
8.86,0.10177
8.864,0.1227
8.868,0.09351
8.872,0.0841
8.876,0.0389
8.88,0.045
8.884,0.07871
8.888,0.06111
8.892,0.06691
8.896,0.06138
8.9,0.04792
8.904,0.02229
8.908,0.01902
8.912,0.01584
8.916,0.02327
8.92,0.01288
8.924,0.00706
8.928,0.01616
8.932,0.02382
8.936,0.01319
8.94,0.00487
8.944,-0.00504
8.948,0.01048
8.952,0.00276
8.956,0.01164
8.96,-0.00454
8.964,-0.00521
8.968,0.00958
8.972,-0.00247
8.976,0.00684
8.98,-0.00614
8.984,0.013
8.988,0.02648
8.992,0.01366
8.996,0.02009
9.0,0.00186
9.004,-0.00285
9.008,-0.00429
9.012,0.01181
9.016,0.0169
9.02,0.02335
9.024,0.015
9.028,-0.00614
9.032,0.0139
9.036,0.00617
9.04,-0.00127
9.044,0.00949
9.048,0.00703
9.052,0.00359
9.056,0.01207
9.06,-0.00044
9.064,0.0109
9.068,0.01844
9.072,0.01646
9.076,0.02624
9.08,-0.00716
9.084,0.00791
9.088,0.02309
9.092,0.02261
9.096,-0.00914
9.1,0.00507
9.104,-0.01193
9.108,-0.00188
9.112,0.00815
9.116,-0.0004
9.12,0.01286
9.124,-0.00549
9.128,0.04001
9.132,-0.00136
9.136,0.00195
9.14,-0.00269
9.144,-0.00902
9.148,0.00391
9.152,0.02194
9.156,-0.01451
9.16,-0.00211
9.164,0.01198
9.168,0.02023
9.172,-0.0065
9.176,0.02639
9.18,0.00371
9.184,0.01232
9.188,0.01654
9.192,0.00966
9.196,-0.0002
9.2,-0.00289
9.204,0.00776
9.208,0.0284
9.212,-0.00389
9.216,-0.01495
9.22,0.0023
9.224,0.00091
9.228,0.01427
9.232,0.01178
9.236,0.01902
9.24,0.04086
9.244,0.0281
9.248,-0.00488
9.252,0.01225
9.256,0.03477
9.26,0.02178
9.264,0.00928
9.268,0.04905
9.272,0.04595
9.276,0.02472
9.28,0.01054
9.284,0.01535
9.288,0.01645
9.292,5e-05
9.296,0.00221
9.3,0.02013
9.304,0.03033
9.308,0.0366
9.312,0.04981
9.316,0.02215
9.32,0.04199
9.324,0.0625
9.328,0.06463
9.332,0.06913
9.336,0.09113
9.34,0.09831
9.344,0.10638
9.348,0.09792
9.352,0.08805
9.356,0.1147
9.36,0.10921
9.364,0.08587
9.368,0.09392
9.372,0.0977
9.376,0.06924
9.38,0.04849
9.384,0.02037
9.388,0.0501
9.392,-0.00332
9.396,0.03569
9.4,0.0216
9.404,0.00223
9.408,-0.0011
9.412,0.02569
9.416,0.01192
9.42,0.03909
9.424,0.02809
9.428,0.01035
9.432,0.02326
9.436,0.01695
9.44,-0.01226
9.444,0.03535
9.448,0.02318
9.452,0.04313
9.456,0.03243
9.46,0.02733
9.464,0.01686
9.468,0.01084
9.472,-0.02881
9.476,-0.06492
9.48,-0.09093
9.484,-0.08089
9.488,0.03694
9.492,0.18253
9.496,0.36973
9.5,0.58206
9.504,0.75361
9.508,0.93339
9.512,1.01591
9.516,0.96856
9.52,0.8252
9.524,0.6162
9.528,0.38064
9.532,0.17304
9.536,-0.00533
9.54,-0.06007
9.544,-0.16015
9.548,-0.13015
9.552,-0.09836
9.556,-0.03875
9.56,-0.04924
9.564,0.01899
9.568,0.01365
9.572,0.03414
9.576,0.01728
9.58,0.00983
9.584,0.02975
9.588,0.00207
9.592,0.0115
9.596,0.02049
9.6,0.00873
9.604,0.02001
9.608,-0.02131
9.612,0.02373
9.616,0.00276
9.62,0.018
9.624,0.0266
9.628,0.02482
9.632,-0.01092
9.636,0.01819
9.64,0.02259
9.644,0.03034
9.648,-0.00513
9.652,0.03136
9.656,0.03052
9.66,0.01043
9.664,0.02406
9.668,0.05185
9.672,0.0217
9.676,0.03828
9.68,0.04729
9.684,0.0362
9.688,0.04004
9.692,0.0603
9.696,0.05119
9.7,0.05295
9.704,0.07535
9.708,0.05688
9.712,0.07266
9.716,0.07213
9.72,0.09016
9.724,0.1122
9.728,0.12637
9.732,0.10143
9.736,0.11509
9.74,0.14786
9.744,0.13622
9.748,0.14725
9.752,0.16769
9.756,0.18544
9.76,0.17304
9.764,0.20908
9.768,0.22202
9.772,0.21849
9.776,0.21653
9.78,0.24313
9.784,0.26101
9.788,0.21963
9.792,0.25329
9.796,0.23617
9.8,0.25155
9.804,0.23506
9.808,0.23124
9.812,0.23713
9.816,0.21261
9.82,0.1947
9.824,0.18903
9.828,0.16833
9.832,0.16913
9.836,0.16048
9.84,0.11669
9.844,0.14882
9.848,0.10928
9.852,0.12829
9.856,0.07854
9.86,0.08029
9.864,0.06477
9.868,0.08694
9.872,0.07521
9.876,0.0437
9.88,0.0553
9.884,0.0631
9.888,0.03577
9.892,0.04619
9.896,0.03137
9.9,0.06904
9.904,0.00875
9.908,0.04114
9.912,0.03776
9.916,0.0362
9.92,0.03085
9.924,0.04936
9.928,0.01995
9.932,0.03035
9.936,0.01513
9.94,0.01411
9.944,0.02481
9.948,0.04187
9.952,0.02367
9.956,0.01074
9.96,0.02744
9.964,0.00595
9.968,0.02528
9.972,0.02401
9.976,-0.00557
9.98,0.0204
9.984,0.02123
9.988,0.037
9.992,0.01643
9.996,0.01913
