t_seg,ecg_mV
0.0,-0.03394
0.004,-0.03522
0.008,-0.02305
0.012,-0.01038
0.016,-0.02736
0.02,-0.02272
0.024,-0.02588
0.028,-0.03786
0.032,-0.02979
0.036,-0.03824
0.04,-0.001
0.044,-0.04248
0.048,0.00492
0.052,-0.04895
0.056,-0.03545
0.06,-0.05013
0.064,-0.04113
0.068,-0.03529
0.072,-0.0361
0.076,-0.03737
0.08,-0.01889
0.084,-0.0285
0.088,0.00644
0.092,-0.02516
0.096,-0.03895
0.1,-0.01648
0.104,-0.01008
0.108,-0.00423
0.112,-0.03631
0.116,-0.03462
0.12,-0.01598
0.124,-0.04441
0.128,-0.03503
0.132,-0.03686
0.136,-0.02975
0.14,-0.04226
0.144,-0.01464
0.148,-0.02489
0.152,-0.03397
0.156,-0.03534
0.16,-0.00768
0.164,-0.03985
0.168,-0.01115
0.172,-0.04227
0.176,-0.01766
0.18,-0.03694
0.184,-0.05033
0.188,-0.02491
0.192,-0.04558
0.196,-0.01807
0.2,-0.03451
0.204,-0.02759
0.208,-0.04323
0.212,-0.01822
0.216,-0.0197
0.22,-0.03084
0.224,-0.06025
0.228,-0.0265
0.232,-0.04239
0.236,-0.01155
0.24,-0.03167
0.244,0.00024
0.248,-0.02925
0.252,-0.01458
0.256,-0.03689
0.26,-0.01435
0.264,-0.03646
0.268,0.00845
0.272,-0.02109
0.276,-0.02568
0.28,-0.02973
0.284,-0.00445
0.288,-0.03656
0.292,-0.02413
0.296,-0.00385
0.3,-0.01226
0.304,-0.00615
0.308,-0.04544
0.312,-0.00306
0.316,-0.00275
0.32,-0.02892
0.324,-0.02807
0.328,-0.03184
0.332,-0.01942
0.336,-0.01253
0.34,-0.03364
0.344,-0.02693
0.348,-0.0199
0.352,-0.01084
0.356,0.00754
0.36,-0.02511
0.364,-0.04196
0.368,-0.02243
0.372,-0.00325
0.376,-0.02129
0.38,-0.02309
0.384,-0.00704
0.388,0.00086
0.392,-0.01874
0.396,-0.01389
0.4,-0.01025
0.404,-0.04742
0.408,-0.00854
0.412,-0.02915
0.416,-0.02969
0.42,-0.0548
0.424,-0.03559
0.428,-0.02198
0.432,-0.00319
0.436,-0.0005
0.44,-0.05326
0.444,-0.0255
0.448,-0.05885
0.452,-0.01185
0.456,-0.00219
0.46,-0.01948
0.464,-0.00744
0.468,-0.01098
0.472,-0.02477
0.476,-0.00362
0.48,-0.01233
0.484,-0.01507
0.488,-0.00844
0.492,-0.01039
0.496,-0.02372
0.5,-0.01929
0.504,-0.01883
0.508,-0.01369
0.512,-0.00691
0.516,-0.01159
0.52,-0.00458
0.524,-0.00751
0.528,-0.03083
0.532,-0.03341
0.536,-0.02741
0.54,-0.0205
0.544,-0.00697
0.548,-0.00813
0.552,-0.02485
0.556,-0.01806
0.56,-0.03304
0.564,-0.01032
0.568,-0.00247
0.572,-0.0027
0.576,-0.00498
0.58,0.0122
0.584,-0.0051
0.588,-0.0126
0.592,-0.01435
0.596,-0.05041
0.6,-0.02371
0.604,-0.02114
0.608,-0.01788
0.612,-0.00974
0.616,0.01815
0.62,-0.00348
0.624,0.04066
0.628,0.03283
0.632,0.04137
0.636,0.0463
0.64,0.06233
0.644,0.06919
0.648,0.09503
0.652,0.06754
0.656,0.09044
0.66,0.07384
0.664,0.06023
0.668,0.06049
0.672,0.05372
0.676,0.05143
0.68,0.03862
0.684,0.01649
0.688,0.01159
0.692,-0.00067
0.696,-0.02472
0.7,-0.00031
0.704,-0.00381
0.708,-0.01711
0.712,-0.03827
0.716,0.03125
0.72,0.00601
0.724,-0.00826
0.728,-0.00915
0.732,0.00141
0.736,1e-05
0.74,-0.02552
0.744,-0.02866
0.748,-0.01927
0.752,-0.02448
0.756,-0.01048
0.76,-0.02447
0.764,-0.03237
0.768,-0.05248
0.772,-0.05306
0.776,-0.09402
0.78,-0.12476
0.784,-0.11758
0.788,-0.02271
0.792,0.10793
0.796,0.26279
0.8,0.49574
0.804,0.69752
0.808,0.86638
0.812,0.98004
0.816,0.96624
0.82,0.87521
0.824,0.69058
0.828,0.45178
0.832,0.20771
0.836,0.01811
0.84,-0.09404
0.844,-0.16505
0.848,-0.18949
0.852,-0.12885
0.856,-0.10456
0.86,-0.07443
0.864,-0.00887
0.868,-0.03445
0.872,0.00688
0.876,-0.00049
0.88,-0.00483
0.884,-0.00935
0.888,-0.02286
0.892,-0.00075
0.896,-0.00109
0.9,0.00066
0.904,-0.02739
0.908,0.01956
0.912,0.00764
0.916,0.00272
0.92,0.00273
0.924,0.00763
0.928,0.00587
0.932,-6e-05
0.936,-0.01748
0.94,0.01103
0.944,-0.02102
0.948,-0.00461
0.952,-0.03041
0.956,-0.01483
0.96,-0.02076
0.964,0.036
0.968,-0.02203
0.972,-0.00316
0.976,0.01043
0.98,0.00296
0.984,0.0037
0.988,0.02607
0.992,0.00946
0.996,0.03241
1.0,-0.01095
1.004,0.03592
1.008,0.0471
1.012,0.0462
1.016,0.03868
1.02,0.05398
1.024,0.06868
1.028,0.08717
1.032,0.08247
1.036,0.06939
1.04,0.11701
1.044,0.12064
1.048,0.11815
1.052,0.13754
1.056,0.15098
1.06,0.14057
1.064,0.17337
1.068,0.17724
1.072,0.17475
1.076,0.20865
1.08,0.21466
1.084,0.20969
1.088,0.21547
1.092,0.21007
1.096,0.22033
1.1,0.21862
1.104,0.2037
1.108,0.22991
1.112,0.21424
1.116,0.19205
1.12,0.19138
1.124,0.16369
1.128,0.15396
1.132,0.14211
1.136,0.11773
1.14,0.15794
1.144,0.10577
1.148,0.11926
1.152,0.08178
1.156,0.06983
1.16,0.07763
1.164,0.07181
1.168,0.04986
1.172,0.05575
1.176,0.03515
1.18,0.01885
1.184,0.02157
1.188,0.03366
1.192,0.01044
1.196,0.02876
1.2,0.01145
1.204,-0.00254
1.208,0.01442
1.212,0.00686
1.216,-0.00722
1.22,0.00888
1.224,0.01455
1.228,-0.02112
1.232,0.00689
1.236,-0.01649
1.24,0.01665
1.244,-0.02727
1.248,-0.01348
1.252,-0.005
1.256,-0.01433
1.26,-0.00571
1.264,0.01554
1.268,-0.00614
1.272,0.01317
1.276,0.01033
1.28,-0.02187
1.284,-0.01967
1.288,-0.01299
1.292,0.01174
1.296,0.01732
1.3,0.00049
1.304,-0.00075
1.308,-0.01731
1.312,-0.00476
1.316,0.00739
1.32,-0.00936
1.324,0.00886
1.328,0.001
1.332,0.0163
1.336,0.03472
1.34,-0.00963
1.344,-0.00227
1.348,0.04031
1.352,0.00618
1.356,0.01508
1.36,-0.00415
1.364,0.01074
1.368,-0.011
1.372,0.00254
1.376,0.01721
1.38,0.02197
1.384,0.00235
1.388,0.01433
1.392,0.0054
1.396,0.02694
1.4,0.03777
1.404,0.0048
1.408,0.0075
1.412,0.03072
1.416,0.00998
1.42,0.02176
1.424,0.00857
1.428,0.00764
1.432,0.00569
1.436,0.01738
1.44,0.0394
1.444,-0.00304
1.448,0.00866
1.452,0.00415
1.456,0.0004
1.46,0.00099
1.464,0.0181
1.468,0.02135
1.472,0.031
1.476,-0.00588
1.48,-0.01494
1.484,0.009
1.488,0.01831
1.492,-0.00353
1.496,0.00632
1.5,0.01817
1.504,-0.0117
1.508,0.02899
1.512,0.01289
1.516,0.03603
1.52,0.0079
1.524,0.04354
1.528,0.04701
1.532,0.05429
1.536,0.08836
1.54,0.10932
1.544,0.0883
1.548,0.09046
1.552,0.11187
1.556,0.11228
1.56,0.11483
1.564,0.09853
1.568,0.11109
1.572,0.09293
1.576,0.06943
1.58,0.09586
1.584,0.10601
1.588,0.03598
1.592,0.0409
1.596,0.01819
1.6,0.03264
1.604,0.04011
1.608,0.04218
1.612,0.03777
1.616,0.05185
1.62,0.00526
1.624,0.02215
1.628,0.01504
1.632,-0.00773
1.636,0.01515
1.64,0.01735
1.644,0.00399
1.648,-0.0054
1.652,0.01626
1.656,0.01302
1.66,0.01466
1.664,0.01009
1.668,0.01447
1.672,0.01001
1.676,-0.0398
1.68,-0.08218
1.684,-0.09381
1.688,-0.06932
1.692,-0.01691
1.696,0.13541
1.7,0.3386
1.704,0.52192
1.708,0.75679
1.712,0.94545
1.716,1.00688
1.72,0.96291
1.724,0.87142
1.728,0.65853
1.732,0.39602
1.736,0.17558
1.74,0.03227
1.744,-0.09571
1.748,-0.14335
1.752,-0.14536
1.756,-0.14314
1.76,-0.07786
1.764,-0.0288
1.768,-0.00046
1.772,-0.01766
1.776,0.04654
1.78,0.00448
1.784,0.02408
1.788,0.00297
1.792,0.03525
1.796,-0.02376
1.8,0.02514
1.804,0.01767
1.808,0.01847
1.812,0.02848
1.816,0.01054
1.82,-0.00357
1.824,0.04887
1.828,0.03067
1.832,0.03421
1.836,-0.01509
1.84,-0.0116
1.844,0.03476
1.848,-0.00382
1.852,0.00582
1.856,0.02734
1.86,0.02708
1.864,0.03407
1.868,0.00293
1.872,0.0303
1.876,0.02314
1.88,0.03587
1.884,0.01753
1.888,0.02787
1.892,0.04362
1.896,0.00562
1.9,0.0056
1.904,0.06901
1.908,0.02725
1.912,0.05662
1.916,0.05844
1.92,0.08137
1.924,0.0705
1.928,0.05594
1.932,0.10351
1.936,0.08333
1.94,0.13046
1.944,0.12876
1.948,0.14803
1.952,0.16821
1.956,0.1413
1.96,0.16109
1.964,0.19231
1.968,0.20456
1.972,0.19971
1.976,0.20588
1.98,0.19913
1.984,0.20622
1.988,0.23292
1.992,0.22859
1.996,0.25247
2.0,0.24399
2.004,0.25229
2.008,0.25218
2.012,0.21916
2.016,0.23616
2.02,0.22356
2.024,0.18613
2.028,0.1758
2.032,0.17809
2.036,0.15654
2.04,0.15586
2.044,0.1472
2.048,0.12211
2.052,0.12848
2.056,0.09755
2.06,0.08052
2.064,0.093
2.068,0.0843
2.072,0.09512
2.076,0.082
2.08,0.0541
2.084,0.07844
2.088,0.03374
2.092,0.02161
2.096,0.05281
2.1,0.05483
2.104,0.02933
2.108,0.06483
2.112,0.05487
2.116,0.05531
2.12,0.05336
2.124,0.02784
2.128,0.01689
2.132,0.00883
2.136,0.01178
2.14,0.04963
2.144,0.01493
2.148,0.02987
2.152,0.03923
2.156,0.0241
2.16,0.03592
2.164,0.03383
2.168,0.02816
2.172,0.04369
2.176,0.04364
2.18,0.06316
2.184,0.02839
2.188,0.03647
2.192,0.00719
2.196,0.02852
2.2,0.02242
2.204,0.06152
2.208,0.02927
2.212,-0.00312
2.216,-0.00433
2.22,0.00467
2.224,0.02061
2.228,0.03827
2.232,0.03072
2.236,0.04506
2.24,0.05231
2.244,0.04002
2.248,0.03715
2.252,0.04989
2.256,0.02268
2.26,0.00582
2.264,0.0636
2.268,0.00528
2.272,0.01151
2.276,0.03223
2.28,0.01157
2.284,0.0237
2.288,0.05204
2.292,0.01177
2.296,0.02642
2.3,0.00266
2.304,0.00969
2.308,0.02528
2.312,0.02841
2.316,0.04332
2.32,0.04511
2.324,0.01773
2.328,0.03525
2.332,0.05981
2.336,0.03266
2.34,0.02923
2.344,0.0384
2.348,0.03006
2.352,0.03708
2.356,0.02091
2.36,0.00263
2.364,0.0424
2.368,0.04239
2.372,0.06762
2.376,0.07108
2.38,0.06267
2.384,0.08156
2.388,0.12059
2.392,0.10135
2.396,0.13323
2.4,0.11782
2.404,0.12507
2.408,0.09667
2.412,0.10875
2.416,0.09821
2.42,0.08295
2.424,0.073
2.428,0.0844
2.432,0.06358
2.436,0.06631
2.44,0.04869
2.444,0.03306
2.448,0.03915
2.452,0.02172
2.456,0.03801
2.46,0.0114
2.464,0.03242
2.468,0.03318
2.472,0.03596
2.476,0.04259
2.48,0.02374
2.484,0.04404
2.488,0.03009
2.492,-0.00124
2.496,0.03234
2.5,0.05173
2.504,0.01483
2.508,0.02731
2.512,0.04624
2.516,0.01198
2.52,-0.015
2.524,-0.04959
2.528,-0.06829
2.532,-0.04818
2.536,-0.02554
2.54,0.11736
2.544,0.27907
2.548,0.5167
2.552,0.71102
2.556,0.89973
2.56,1.00386
2.564,1.03606
2.568,0.94105
2.572,0.74746
2.576,0.49616
2.58,0.28593
2.584,0.08563
2.588,-0.05243
2.592,-0.14484
2.596,-0.17251
2.6,-0.14907
2.604,-0.07416
2.608,-0.00669
2.612,0.01984
2.616,0.03323
2.62,-0.0076
2.624,0.0195
2.628,0.0438
2.632,0.0163
2.636,-0.00504
2.64,0.06411
2.644,0.01341
2.648,-0.01147
2.652,0.03224
2.656,0.00182
2.66,0.02887
2.664,0.00819
2.668,0.01028
2.672,0.02571
2.676,0.03495
2.68,0.02335
2.684,0.04846
2.688,0.01741
2.692,0.02796
2.696,0.02324
2.7,0.0403
2.704,0.03629
2.708,0.02899
2.712,0.02288
2.716,0.0321
2.72,0.02134
2.724,0.03628
2.728,0.04145
2.732,0.05393
2.736,0.0359
2.74,0.02721
2.744,0.0403
2.748,0.06945
2.752,0.07543
2.756,0.0742
2.76,0.04974
2.764,0.05228
2.768,0.09208
2.772,0.12331
2.776,0.11255
2.78,0.13943
2.784,0.11657
2.788,0.15949
2.792,0.16582
2.796,0.17633
2.8,0.21083
2.804,0.19262
2.808,0.22947
2.812,0.21888
2.816,0.23354
2.82,0.21423
2.824,0.22755
2.828,0.24499
2.832,0.24474
2.836,0.25083
2.84,0.21947
2.844,0.23648
2.848,0.24672
2.852,0.23989
2.856,0.24057
2.86,0.24981
2.864,0.25435
2.868,0.20603
2.872,0.19934
2.876,0.191
2.88,0.22876
2.884,0.15993
2.888,0.16125
2.892,0.16657
2.896,0.13738
2.9,0.11055
2.904,0.11829
2.908,0.11098
2.912,0.12361
2.916,0.09691
2.92,0.0727
2.924,0.09234
2.928,0.07357
2.932,0.08393
2.936,0.03463
2.94,0.05911
2.944,0.0394
2.948,0.02035
2.952,0.04644
2.956,0.01391
2.96,0.04538
2.964,0.06084
2.968,0.04315
2.972,0.03878
2.976,0.01694
2.98,0.0471
2.984,0.05344
2.988,0.04748
2.992,0.04153
2.996,0.01432
3.0,0.00355
3.004,0.02775
3.008,0.02715
3.012,0.02052
3.016,0.03481
3.02,0.02725
3.024,0.01641
3.028,0.02839
3.032,0.03523
3.036,0.0415
3.04,0.0154
3.044,0.04506
3.048,0.0322
3.052,0.05985
3.056,0.03545
3.06,0.01333
3.064,0.00325
3.068,0.01104
3.072,0.03004
3.076,0.02793
3.08,0.02955
3.084,0.0065
3.088,0.01955
3.092,0.00556
3.096,0.04979
3.1,0.02205
3.104,-0.00494
3.108,0.01792
3.112,0.0379
3.116,0.02646
3.12,0.04195
3.124,0.04541
3.128,0.02622
3.132,0.02961
3.136,0.03046
3.14,0.04617
3.144,0.02772
3.148,0.02393
3.152,0.02467
3.156,0.0079
3.16,0.04879
3.164,0.0304
3.168,0.03508
3.172,0.01236
3.176,0.03815
3.18,0.02496
3.184,0.0262
3.188,0.04145
3.192,0.00786
3.196,0.03276
3.2,0.03452
3.204,0.03677
3.208,0.01041
3.212,0.01497
3.216,0.01941
3.22,-0.01241
3.224,0.02813
3.228,0.01262
3.232,0.03373
3.236,0.03677
3.24,0.01025
3.244,0.02169
3.248,0.03797
3.252,0.04053
3.256,0.03371
3.26,0.00945
3.264,0.03132
3.268,0.0221
3.272,0.03272
3.276,0.00297
3.28,0.00045
3.284,0.04202
3.288,0.03867
3.292,0.037
3.296,0.02585
3.3,0.03564
3.304,0.03917
3.308,0.04422
3.312,0.02285
3.316,0.05061
3.32,0.03092
3.324,0.01698
3.328,0.04414
3.332,0.02712
3.336,0.04398
3.34,0.01635
3.344,0.02944
3.348,0.03242
3.352,0.01463
3.356,0.01191
3.36,0.01987
3.364,0.03405
3.368,0.02457
3.372,0.00768
3.376,0.01473
3.38,0.0365
3.384,0.02541
3.388,0.04361
3.392,0.02631
3.396,0.02552
3.4,0.01402
3.404,0.00815
3.408,0.04973
3.412,0.0362
3.416,0.03758
3.42,0.0313
3.424,0.05489
3.428,0.00839
3.432,0.02185
3.436,0.03026
3.44,0.01372
3.444,0.04291
3.448,0.03753
3.452,0.00951
3.456,0.04765
3.46,0.0393
3.464,0.03912
3.468,0.02408
3.472,0.05235
3.476,0.08362
3.48,0.09223
3.484,0.07502
3.488,0.12927
3.492,0.09748
3.496,0.15709
3.5,0.12902
3.504,0.13926
3.508,0.11478
3.512,0.12045
3.516,0.10804
3.52,0.07995
3.524,0.08197
3.528,0.07347
3.532,0.03113
3.536,0.04827
3.54,0.01484
3.544,0.02662
3.548,0.04196
3.552,0.01502
3.556,-0.01501
3.56,0.03621
3.564,0.01431
3.568,0.02257
3.572,0.0323
3.576,0.03391
3.58,0.02163
3.584,0.00444
3.588,0.01712
3.592,0.0158
3.596,0.03274
3.6,0.03131
3.604,0.02049
3.608,0.01445
3.612,0.02297
3.616,-0.02515
3.62,-0.05786
3.624,-0.07176
3.628,-0.10575
3.632,-0.04607
3.636,0.04006
3.64,0.21411
3.644,0.39994
3.648,0.61279
3.652,0.83522
3.656,0.95961
3.66,1.03123
3.664,0.93053
3.668,0.81456
3.672,0.58977
3.676,0.3487
3.68,0.14637
3.684,0.00257
3.688,-0.12869
3.692,-0.17039
3.696,-0.1169
3.7,-0.11687
3.704,-0.05604
3.708,0.00895
3.712,0.00919
3.716,-0.00089
3.72,0.03325
3.724,0.03418
3.728,-0.00404
3.732,0.04573
3.736,0.03827
3.74,0.02541
3.744,-0.0003
3.748,0.00679
3.752,0.00138
3.756,0.01387
3.76,0.01689
3.764,-0.00771
3.768,0.01165
3.772,0.01023
3.776,0.03489
3.78,0.02573
3.784,0.03268
3.788,-0.01734
3.792,-0.01373
3.796,0.02924
3.8,-0.00256
3.804,0.03468
3.808,0.00906
3.812,0.00383
3.816,0.01394
3.82,0.05377
3.824,0.00155
3.828,0.02563
3.832,0.01225
3.836,0.00345
3.84,0.04243
3.844,0.0392
3.848,0.04264
3.852,0.00601
3.856,0.05377
3.86,0.0545
3.864,0.07005
3.868,0.07368
3.872,0.09489
3.876,0.09127
3.88,0.0761
3.884,0.11363
3.888,0.12704
3.892,0.14824
3.896,0.12951
3.9,0.15386
3.904,0.16658
3.908,0.17638
3.912,0.17942
3.916,0.21381
3.92,0.21149
3.924,0.22083
3.928,0.20222
3.932,0.23324
3.936,0.24251
3.94,0.22478
3.944,0.23001
3.948,0.25975
3.952,0.23339
3.956,0.21053
3.96,0.21217
3.964,0.16756
3.968,0.16319
3.972,0.18738
3.976,0.17159
3.98,0.19532
3.984,0.13754
3.988,0.12692
3.992,0.0934
3.996,0.10398
4.0,0.09909
4.004,0.07436
4.008,0.08694
4.012,0.08914
4.016,0.07635
4.02,0.06368
4.024,0.0476
4.028,0.02869
4.032,0.04942
4.036,0.00288
4.04,0.02928
4.044,0.03247
4.048,-0.00192
4.052,0.02181
4.056,0.02996
4.06,0.01002
4.064,0.01323
4.068,0.01513
4.072,0.0021
4.076,0.01674
4.08,0.02719
4.084,0.00185
4.088,0.00847
4.092,0.01034
4.096,0.00952
4.1,0.00339
4.104,0.00828
4.108,-0.00232
4.112,0.00786
4.116,0.00102
4.12,0.01503
4.124,0.02245
4.128,0.01926
4.132,0.00926
4.136,-0.0172
4.14,-0.01005
4.144,0.01555
4.148,0.00637
4.152,0.00854
4.156,-0.01523
4.16,0.00108
4.164,-0.02116
4.168,0.00906
4.172,0.00457
4.176,-0.01702
4.18,-0.0054
4.184,0.01394
4.188,0.03584
4.192,0.01184
4.196,-0.01054
4.2,-0.00136
4.204,-0.02437
4.208,0.01523
4.212,0.02742
4.216,0.02304
4.22,0.00016
4.224,0.02768
4.228,0.01383
4.232,0.00342
4.236,-0.01728
4.24,0.01033
4.244,0.01354
4.248,0.01173
4.252,0.01051
4.256,0.02599
4.26,0.03015
4.264,0.02609
4.268,-0.02615
4.272,0.01666
4.276,0.03457
4.28,-0.01035
4.284,7e-05
4.288,-0.02106
4.292,0.02986
4.296,0.01423
4.3,0.01015
4.304,0.02249
4.308,0.00493
4.312,-0.01278
4.316,-0.00143
4.32,0.00982
4.324,0.00905
4.328,-0.01105
4.332,0.0176
4.336,0.00766
4.34,-0.00184
4.344,-0.02795
4.348,0.01529
4.352,-0.02517
4.356,-0.00871
4.36,0.00891
4.364,0.01357
4.368,0.00547
4.372,0.00189
4.376,0.003
4.38,0.00403
4.384,-0.00107
4.388,0.00225
4.392,-0.01251
4.396,-0.01308
4.4,-0.01713
4.404,-0.00468
4.408,0.03307
4.412,-0.03878
4.416,0.03046
4.42,0.01028
4.424,0.01408
4.428,0.00679
4.432,-0.00327
4.436,-0.00299
4.44,0.0034
4.444,0.00174
4.448,-0.01092
4.452,0.00749
4.456,0.00663
4.46,0.01593
4.464,0.01543
4.468,0.00501
4.472,0.016
4.476,0.01354
4.48,0.00989
4.484,0.01102
4.488,0.03579
4.492,0.05225
4.496,0.06034
4.5,0.04943
4.504,0.05628
4.508,0.07576
4.512,0.09587
4.516,0.0774
4.52,0.09928
4.524,0.06846
4.528,0.08162
4.532,0.09023
4.536,0.09522
4.54,0.0927
4.544,0.04773
4.548,0.05014
4.552,0.02951
4.556,0.0053
4.56,0.03131
4.564,0.02727
4.568,-0.00191
4.572,-0.01298
4.576,-0.00374
4.58,0.01879
4.584,-0.0063
4.588,0.00278
4.592,-0.00699
4.596,0.01458
4.6,0.03387
4.604,-0.02077
4.608,-0.02996
4.612,-0.01714
4.616,-0.01796
4.62,-0.00372
4.624,-0.00644
4.628,0.00187
4.632,-0.00025
4.636,-0.01647
4.64,-0.04722
4.644,-0.06357
4.648,-0.11568
4.652,-0.11603
4.656,-0.04101
4.66,0.06276
4.664,0.24646
4.668,0.4701
4.672,0.69125
4.676,0.87386
4.68,0.99844
4.684,0.98981
4.688,0.86545
4.692,0.67547
4.696,0.42664
4.7,0.2268
4.704,0.01546
4.708,-0.08592
4.712,-0.1581
4.716,-0.18728
4.72,-0.13263
4.724,-0.10853
4.728,-0.04316
4.732,-0.05091
4.736,-0.01749
4.74,-0.00202
4.744,-0.00767
4.748,-0.03076
4.752,0.02983
4.756,-0.00655
4.76,0.0059
4.764,-0.00304
4.768,-0.01762
4.772,-0.01485
4.776,-0.0025
4.78,-0.01676
4.784,-0.01018
4.788,0.02041
4.792,0.00966
4.796,-0.0198
4.8,-0.0156
4.804,-0.01878
4.808,0.01706
4.812,-0.01808
4.816,-0.01299
4.82,-0.01605
4.824,0.00225
4.828,-0.01485
4.832,0.0063
4.836,-0.00725
4.84,-0.01786
4.844,0.01692
4.848,-0.00801
4.852,-0.00211
4.856,0.00125
4.86,-0.01181
4.864,0.02564
4.868,-0.01036
4.872,0.01057
4.876,0.02967
4.88,0.06234
4.884,0.02081
4.888,0.05616
4.892,0.05324
4.896,0.06748
4.9,0.0757
4.904,0.09829
4.908,0.09313
4.912,0.07929
4.916,0.12493
4.92,0.10737
4.924,0.13961
4.928,0.15386
4.932,0.15813
4.936,0.18313
4.94,0.20051
4.944,0.18193
4.948,0.18462
4.952,0.18981
4.956,0.21629
4.96,0.20509
4.964,0.24054
4.968,0.16875
4.972,0.203
4.976,0.18466
4.98,0.17855
4.984,0.19299
4.988,0.18394
4.992,0.14403
4.996,0.14777
5.0,0.13446
5.004,0.14638
5.008,0.14475
5.012,0.09675
5.016,0.08497
5.02,0.0922
5.024,0.08542
5.028,0.04979
5.032,0.05573
5.036,0.05376
5.04,0.02469
5.044,0.01635
5.048,0.04387
5.052,0.02698
5.056,0.00513
5.06,0.00795
5.064,0.0026
5.068,-0.02387
5.072,-0.01048
5.076,-0.02353
5.08,-0.02443
5.084,-0.0091
5.088,-0.03849
5.092,-0.04883
5.096,0.01975
5.1,-0.00971
5.104,-0.0111
5.108,-0.03174
5.112,0.01367
5.116,-0.00888
5.12,-0.0444
5.124,-0.01268
5.128,-0.01095
5.132,-0.03095
5.136,-0.02687
5.14,-0.02329
5.144,-0.0193
5.148,-0.02117
5.152,-0.01716
5.156,-0.02003
5.16,-0.00849
5.164,-0.02318
5.168,-0.0191
5.172,-0.02315
5.176,0.00576
5.18,-0.00988
5.184,-0.00509
5.188,-0.00388
5.192,-0.01463
5.196,-0.01345
5.2,-0.0265
5.204,-0.01484
5.208,-0.00128
5.212,-0.00496
5.216,-0.02177
5.22,-0.01986
5.224,-0.01888
5.228,-0.00883
5.232,-0.01481
5.236,0.00533
5.24,0.00615
5.244,-0.01366
5.248,-0.02688
5.252,0.01119
5.256,-0.0482
5.26,-0.02853
5.264,0.00983
5.268,-0.03282
5.272,-0.0387
5.276,-0.00735
5.28,-0.04719
5.284,-0.00293
5.288,0.00539
5.292,-0.03891
5.296,-0.01056
5.3,-0.00914
5.304,-0.00555
5.308,-0.0144
5.312,-0.0167
5.316,-0.00654
5.32,-0.03415
5.324,-0.00281
5.328,-0.01355
5.332,-0.02554
5.336,-0.04887
5.34,-0.00109
5.344,0.01491
5.348,-0.01873
5.352,-0.02717
5.356,-0.02409
5.36,0.00107
5.364,-0.02237
5.368,-0.02651
5.372,-0.01511
5.376,-0.03234
5.38,-0.02874
5.384,-0.0001
5.388,-0.01399
5.392,0.01722
5.396,0.00495
5.4,-0.01879
5.404,0.00988
5.408,0.04678
5.412,0.04798
5.416,0.07174
5.42,0.06921
5.424,0.06316
5.428,0.07787
5.432,0.07289
5.436,0.0736
5.44,0.05249
5.444,0.06433
5.448,0.05654
5.452,0.03063
5.456,0.01791
5.46,0.02238
5.464,0.01818
5.468,0.00573
5.472,-0.02208
5.476,0.00471
5.48,-0.00917
5.484,-0.05774
5.488,-0.03338
5.492,-0.04023
5.496,0.00212
5.5,-0.02295
5.504,-0.03563
5.508,-0.02061
5.512,-0.02949
5.516,-0.04838
5.52,-0.03226
5.524,-0.03619
5.528,-0.03779
5.532,-0.02968
5.536,-0.00564
5.54,-0.02782
5.544,-0.04613
5.548,-0.06748
5.552,-0.08422
5.556,-0.13153
5.56,-0.12594
5.564,-0.12698
5.568,0.01211
5.572,0.19751
5.576,0.34608
5.58,0.56155
5.584,0.74366
5.588,0.92552
5.592,0.96927
5.596,0.93978
5.6,0.75156
5.604,0.53615
5.608,0.27265
5.612,0.09745
5.616,-0.03693
5.62,-0.14824
5.624,-0.20403
5.628,-0.19635
5.632,-0.12048
5.636,-0.08996
5.64,-0.08654
5.644,-0.05849
5.648,-0.03811
5.652,0.00029
5.656,-0.04068
5.66,-0.01224
5.664,-0.04434
5.668,-0.03186
5.672,-0.03798
5.676,-0.02403
5.68,-0.0364
5.684,-0.02994
5.688,-0.03892
5.692,-0.02937
5.696,-0.02212
5.7,-0.03983
5.704,-0.01698
5.708,-0.02115
5.712,-0.03549
5.716,-0.03125
5.72,-0.01065
5.724,-0.03087
5.728,-0.02192
5.732,-0.0244
5.736,-0.0289
5.74,-0.0014
5.744,-0.01842
5.748,0.00067
5.752,-0.01813
5.756,-0.0046
5.76,-0.01793
5.764,-0.00738
5.768,-0.00125
5.772,0.00398
5.776,0.01593
5.78,0.01957
5.784,-0.00017
5.788,-0.0004
5.792,0.03508
5.796,0.04349
5.8,0.01955
5.804,0.04625
5.808,0.04256
5.812,0.0668
5.816,0.08115
5.82,0.0595
5.824,0.08116
5.828,0.10828
5.832,0.11923
5.836,0.11938
5.84,0.14872
5.844,0.16323
5.848,0.15826
5.852,0.15561
5.856,0.18771
5.86,0.14739
5.864,0.21745
5.868,0.19426
5.872,0.17485
5.876,0.17276
5.88,0.19763
5.884,0.18557
5.888,0.18656
5.892,0.15877
5.896,0.15479
5.9,0.14272
5.904,0.12661
5.908,0.1257
5.912,0.11005
5.916,0.09659
5.92,0.10164
5.924,0.071
5.928,0.08484
5.932,0.05933
5.936,0.06125
5.94,0.04415
5.944,0.04153
5.948,0.04422
5.952,0.02093
5.956,0.02053
5.96,-0.00024
5.964,0.0153
5.968,0.00388
5.972,-0.00328
5.976,-0.01282
5.98,-0.01004
5.984,-0.00939
5.988,-0.0117
5.992,-0.02335
5.996,-0.04051
6.0,-0.01726
6.004,-0.05411
6.008,-0.03623
6.012,-0.05949
6.016,-0.03599
6.02,-0.05499
6.024,-0.05586
6.028,-0.00909
6.032,-0.02934
6.036,-0.03976
6.04,-0.02118
6.044,0.00814
6.048,0.00877
6.052,-0.03521
6.056,-0.01174
6.06,-0.03527
6.064,-0.02922
6.068,-0.03448
6.072,-0.03098
6.076,-0.01197
6.08,-0.03262
6.084,-0.05393
6.088,-0.02918
6.092,-0.03415
6.096,-0.03071
6.1,-0.01711
6.104,-0.01181
6.108,-0.00493
6.112,-0.03402
6.116,-0.01951
6.12,-0.03621
6.124,-0.01859
6.128,-0.04516
6.132,-0.04339
6.136,-0.04342
6.14,-0.05014
6.144,-0.03096
6.148,-0.00482
6.152,-0.02639
6.156,-0.02034
6.16,-0.01891
6.164,-0.02161
6.168,-0.01301
6.172,-0.0372
6.176,-0.04034
6.18,-0.0222
6.184,-0.04291
6.188,-0.0119
6.192,-0.03396
6.196,-0.04152
6.2,-0.04356
6.204,-0.03714
6.208,-0.01671
6.212,-0.01857
6.216,-0.0415
6.22,-0.026
6.224,-0.01486
6.228,0.0019
6.232,-0.01451
6.236,0.00397
6.24,0.02438
6.244,0.03882
6.248,0.06753
6.252,0.04208
6.256,0.05131
6.26,0.09355
6.264,0.04675
6.268,0.06385
6.272,0.06933
6.276,0.05718
6.28,0.0216
6.284,0.02866
6.288,0.02073
6.292,0.00422
6.296,-0.01445
6.3,-0.02635
6.304,-0.01009
6.308,-0.01484
6.312,-0.00349
6.316,-0.03355
6.32,-0.01723
6.324,-0.0313
6.328,-0.02826
6.332,-0.06175
6.336,-0.0325
6.34,-0.04873
6.344,-0.03106
6.348,-0.05567
6.352,-0.02637
6.356,-0.0274
6.36,-0.00327
6.364,-0.03849
6.368,-0.04375
6.372,-0.04278
6.376,-0.03122
6.38,-0.06288
6.384,-0.08251
6.388,-0.08925
6.392,-0.12858
6.396,-0.13704
6.4,-0.04838
6.404,0.08434
6.408,0.26127
6.412,0.47612
6.416,0.68601
6.42,0.85816
6.424,0.97085
6.428,0.96308
6.432,0.8201
6.436,0.60373
6.44,0.39787
6.444,0.16577
6.448,-0.00426
6.452,-0.12143
6.456,-0.18587
6.46,-0.1829
6.464,-0.15069
6.468,-0.12184
6.472,-0.07663
6.476,-0.05564
6.48,-0.03191
6.484,-0.06799
6.488,-0.01218
6.492,-0.0094
6.496,-0.02843
6.5,-0.0211
6.504,-0.02373
6.508,-0.03728
6.512,-0.00472
6.516,-0.0427
6.52,-0.03538
6.524,0.00647
6.528,-0.01924
6.532,-0.02089
6.536,0.00073
6.54,-0.02903
6.544,-0.02438
6.548,-0.04673
6.552,-0.02758
6.556,-0.05666
6.56,-0.03076
6.564,-0.04992
6.568,-0.01269
6.572,-0.024
6.576,-0.02378
6.58,-0.04478
6.584,-0.03084
6.588,-0.03088
6.592,-0.02701
6.596,-0.02931
6.6,-0.00041
6.604,0.02587
6.608,0.00763
6.612,-0.00821
6.616,-0.00966
6.62,-0.01558
6.624,0.02033
6.628,0.01337
6.632,0.05857
6.636,0.04569
6.64,0.07612
6.644,0.0775
6.648,0.05949
6.652,0.06504
6.656,0.06915
6.66,0.14749
6.664,0.12087
6.668,0.13993
6.672,0.12229
6.676,0.16553
6.68,0.16652
6.684,0.17306
6.688,0.1792
6.692,0.20589
6.696,0.17915
6.7,0.19149
6.704,0.19155
6.708,0.20897
6.712,0.19026
6.716,0.20014
6.72,0.19192
6.724,0.17477
6.728,0.19072
6.732,0.15551
6.736,0.16369
6.74,0.13959
6.744,0.1034
6.748,0.11249
6.752,0.10728
6.756,0.09525
6.76,0.07364
6.764,0.08351
6.768,0.03709
6.772,0.06887
6.776,0.07224
6.78,0.0303
6.784,0.05473
6.788,0.0323
6.792,0.02616
6.796,0.01903
6.8,0.00531
6.804,-0.02005
6.808,-0.00067
6.812,-0.0028
6.816,-0.0236
6.82,-0.01099
6.824,-0.01142
6.828,-0.01842
6.832,-0.02797
6.836,-0.02631
6.84,-0.05495
6.844,-0.01513
6.848,-0.03198
6.852,-0.02095
6.856,-0.05409
6.86,-0.01458
6.864,-0.04937
6.868,-0.01574
6.872,-0.0236
6.876,-0.02425
6.88,-0.03331
6.884,-0.01269
6.888,-0.03915
6.892,-0.02453
6.896,-0.00618
6.9,0.00032
6.904,-0.02879
6.908,-0.0314
6.912,-0.00784
6.916,-0.03261
6.92,-0.01828
6.924,-0.03984
6.928,-0.03924
6.932,-0.02597
6.936,-0.0784
6.94,-0.0038
6.944,-0.01057
6.948,-0.04121
6.952,0.01193
6.956,-0.0139
6.96,-0.0273
6.964,-0.02477
6.968,-0.01227
6.972,-0.02088
6.976,-0.03393
6.98,-0.027
6.984,-0.01984
6.988,-0.02399
6.992,-0.05441
6.996,-0.01766
7.0,-0.00991
7.004,-0.02452
7.008,-0.00654
7.012,-0.01313
7.016,-0.04141
7.02,-0.01058
7.024,-0.02441
7.028,0.01071
7.032,-0.02772
7.036,0.00096
7.04,-0.02234
7.044,-0.006
7.048,-0.0331
7.052,-0.00793
7.056,-0.01238
7.06,-0.00102
7.064,-0.00462
7.068,-0.01689
7.072,-0.01457
7.076,-0.0235
7.08,-0.00361
7.084,0.01526
7.088,-0.01564
7.092,-0.00959
7.096,-0.01456
7.1,-0.02952
7.104,-0.01434
7.108,-0.0196
7.112,-0.0082
7.116,-0.01959
7.12,-0.03587
7.124,-0.02134
7.128,-0.01907
7.132,-0.03155
7.136,-0.02865
7.14,-0.0117
7.144,0.02178
7.148,0.01232
7.152,-0.01402
7.156,-0.03889
7.16,-0.03142
7.164,-0.02648
7.168,-0.0367
7.172,-0.04274
7.176,-0.03544
7.18,-6e-05
7.184,-0.01601
7.188,-0.03033
7.192,-0.01007
7.196,0.01835
7.2,0.03503
7.204,0.04354
7.208,0.01689
7.212,0.03002
7.216,0.05062
7.22,0.02298
7.224,0.0724
7.228,0.09004
7.232,0.10201
7.236,0.08624
7.24,0.11472
7.244,0.07347
7.248,0.0769
7.252,0.05856
7.256,0.03183
7.26,-0.00108
7.264,0.02345
7.268,0.00791
7.272,0.00626
7.276,-0.02511
7.28,-0.00097
7.284,-0.04562
7.288,-0.02755
7.292,-0.0028
7.296,-0.00589
7.3,-0.00351
7.304,-0.02483
7.308,-0.01753
7.312,-0.01944
7.316,-0.02714
7.32,-0.00691
7.324,-0.01194
7.328,-0.01037
7.332,-0.02825
7.336,-0.01189
7.34,-0.03866
7.344,-0.00448
7.348,-0.04
7.352,-0.06117
7.356,-0.10146
7.36,-0.12351
7.364,-0.14395
7.368,-0.03992
7.372,0.05636
7.376,0.24424
7.38,0.44754
7.384,0.68258
7.388,0.8616
7.392,0.97135
7.396,0.9898
7.4,0.88755
7.404,0.703
7.408,0.45308
7.412,0.29546
7.416,0.04215
7.42,-0.1015
7.424,-0.15408
7.428,-0.19531
7.432,-0.16569
7.436,-0.07515
7.44,-0.06303
7.444,-0.06237
7.448,-0.02212
7.452,-0.00588
7.456,-0.03328
7.46,-0.01592
7.464,-0.00577
7.468,-0.02184
7.472,-0.00501
7.476,-0.01336
7.48,0.01571
7.484,0.00204
7.488,0.03845
7.492,-0.00839
7.496,-0.00201
7.5,-0.03471
7.504,-0.00168
7.508,-0.03183
7.512,0.01066
7.516,0.00115
7.52,-0.0186
7.524,0.01442
7.528,-0.01992
7.532,-0.02842
7.536,0.00779
7.54,0.00044
7.544,0.00444
7.548,-0.02726
7.552,0.00886
7.556,0.00138
7.56,-0.00048
7.564,0.00089
7.568,-0.01782
7.572,-0.00046
7.576,0.03993
7.58,0.01655
7.584,0.03392
7.588,0.04328
7.592,0.04254
7.596,0.04335
7.6,0.06428
7.604,0.06014
7.608,0.04432
7.612,0.0893
7.616,0.06281
7.62,0.09094
7.624,0.1055
7.628,0.09439
7.632,0.12849
7.636,0.13804
7.64,0.15045
7.644,0.17497
7.648,0.19485
7.652,0.184
7.656,0.1854
7.66,0.22813
7.664,0.19777
7.668,0.20564
7.672,0.20487
7.676,0.20132
7.68,0.19093
7.684,0.22298
7.688,0.19907
7.692,0.19911
7.696,0.18999
7.7,0.19321
7.704,0.14977
7.708,0.14801
7.712,0.13799
7.716,0.14468
7.72,0.12949
7.724,0.12664
7.728,0.10677
7.732,0.11891
7.736,0.06351
7.74,0.08933
7.744,0.10145
7.748,0.04929
7.752,0.03687
7.756,0.05428
7.76,0.05202
7.764,0.03599
7.768,0.0256
7.772,0.01757
7.776,0.0276
7.78,0.01807
7.784,0.01587
7.788,-0.00934
7.792,0.00474
7.796,0.02398
7.8,0.0016
7.804,-0.01095
7.808,-0.0068
7.812,0.01844
7.816,-0.01843
7.82,0.02649
7.824,0.00785
7.828,-0.02004
7.832,-0.02876
7.836,0.01425
7.84,-0.02279
7.844,0.01548
7.848,-0.02512
7.852,-0.0052
7.856,0.01356
7.86,0.00488
7.864,0.02019
7.868,-0.00189
7.872,-0.00681
7.876,-0.01897
7.88,0.01154
7.884,0.01075
7.888,0.00539
7.892,0.00694
7.896,0.0058
7.9,-0.003
7.904,-0.01127
7.908,8e-05
7.912,0.02848
7.916,0.02368
7.92,-0.01572
7.924,0.01682
7.928,-0.00634
7.932,0.01198
7.936,-0.0151
7.94,0.01058
7.944,-0.00251
7.948,-0.00319
7.952,0.02196
7.956,0.02577
7.96,0.01029
7.964,0.02018
7.968,-0.02887
7.972,0.00104
7.976,0.02403
7.98,0.00651
7.984,-0.01545
7.988,-0.01198
7.992,-0.0055
7.996,0.01848
8.0,0.00534
8.004,0.0128
8.008,0.0052
8.012,-0.00338
8.016,-0.00619
8.02,0.0123
8.024,-0.02822
8.028,0.0037
8.032,0.00498
8.036,0.00806
8.04,-0.02017
8.044,0.03492
8.048,0.0145
8.052,-0.00421
8.056,0.01946
8.06,-0.0066
8.064,0.01694
8.068,-0.0176
8.072,0.00859
8.076,-0.01094
8.08,0.00846
8.084,0.00428
8.088,0.01938
8.092,0.00162
8.096,0.00972
8.1,0.03382
8.104,0.03043
8.108,-0.02561
8.112,0.01216
8.116,0.01815
8.12,0.01549
8.124,0.00877
8.128,0.00986
8.132,0.0179
8.136,0.03164
8.14,0.04103
8.144,0.03746
8.148,0.07584
8.152,0.05941
8.156,0.08353
8.16,0.09223
8.164,0.11362
8.168,0.08818
8.172,0.10078
8.176,0.13055
8.18,0.09812
8.184,0.09168
8.188,0.08047
8.192,0.06297
8.196,0.05268
8.2,0.03569
8.204,0.0564
8.208,0.05249
8.212,-0.0061
8.216,0.0082
8.22,0.01674
8.224,0.01509
8.228,0.0121
8.232,0.01539
8.236,0.01889
8.24,0.01005
8.244,0.04886
8.248,0.0039
8.252,0.01477
8.256,-0.01173
8.26,-0.01875
8.264,0.01519
8.268,0.00287
8.272,0.03661
8.276,0.00787
8.28,0.03403
8.284,-0.01937
8.288,-0.01204
8.292,-0.04621
8.296,-0.0667
8.3,-0.1148
8.304,-0.03651
8.308,0.07699
8.312,0.20461
8.316,0.40861
8.32,0.65471
8.324,0.83065
8.328,0.97559
8.332,0.99517
8.336,0.95703
8.34,0.78053
8.344,0.54981
8.348,0.31545
8.352,0.10649
8.356,-0.01348
8.36,-0.12522
8.364,-0.15621
8.368,-0.15016
8.372,-0.09015
8.376,-0.05706
8.38,-0.00768
8.384,-0.00832
8.388,0.01619
8.392,0.00163
8.396,0.00744
8.4,0.00153
8.404,0.00637
8.408,0.02836
8.412,0.02356
8.416,0.03127
8.42,0.03793
8.424,0.01489
8.428,0.04347
8.432,0.00988
8.436,0.02682
8.44,0.02833
8.444,0.0106
8.448,0.00039
8.452,0.02426
8.456,0.02526
8.46,0.01465
8.464,0.02918
8.468,0.02724
8.472,0.03144
8.476,0.01845
8.48,0.01063
8.484,0.00595
8.488,0.01769
8.492,0.03306
8.496,0.03544
8.5,0.02433
8.504,0.05011
8.508,0.01901
8.512,0.03987
8.516,0.04227
8.52,0.05216
8.524,0.05486
8.528,0.04301
8.532,0.07931
8.536,0.0759
8.54,0.07471
8.544,0.08768
8.548,0.11005
8.552,0.11554
8.556,0.09945
8.56,0.1295
8.564,0.14931
8.568,0.17296
8.572,0.14592
8.576,0.15995
8.58,0.20418
8.584,0.21287
8.588,0.22647
8.592,0.2158
8.596,0.22132
8.6,0.22419
8.604,0.23782
8.608,0.23202
8.612,0.26416
8.616,0.22188
8.62,0.24672
8.624,0.24186
8.628,0.23084
8.632,0.21956
8.636,0.20003
8.64,0.21759
8.644,0.18738
8.648,0.19198
8.652,0.18222
8.656,0.1546
8.66,0.15993
8.664,0.11421
8.668,0.12779
8.672,0.10767
8.676,0.11667
8.68,0.07872
8.684,0.11328
8.688,0.07557
8.692,0.03966
8.696,0.04737
8.7,0.05932
8.704,0.01666
8.708,0.05586
8.712,0.05934
8.716,0.01323
8.72,0.02288
8.724,0.03319
8.728,0.04986
8.732,0.02427
8.736,0.0104
8.74,0.0221
8.744,0.04492
8.748,0.01497
8.752,0.00326
8.756,0.03464
8.76,0.03983
8.764,0.02157
8.768,0.04003
8.772,0.0083
8.776,0.02722
8.78,0.01063
8.784,0.00826
8.788,-0.01237
8.792,0.05218
8.796,0.01355
8.8,0.0329
8.804,0.05397
8.808,0.01037
8.812,0.02328
8.816,0.02034
8.82,0.00207
8.824,0.02088
8.828,0.00443
8.832,0.02791
8.836,0.02642
8.84,0.03079
8.844,0.06086
8.848,0.0034
8.852,0.0134
8.856,-0.01061
8.86,0.02456
8.864,0.03434
8.868,0.04564
8.872,0.03388
8.876,0.01638
8.88,0.02518
8.884,0.01973
8.888,0.00767
8.892,0.04463
8.896,7e-05
8.9,0.05321
8.904,0.02985
8.908,0.02505
8.912,0.02263
8.916,0.04505
8.92,0.03717
8.924,0.0227
8.928,-0.01075
8.932,0.01104
8.936,0.01906
8.94,0.02474
8.944,0.02462
8.948,0.03847
8.952,0.0224
8.956,0.01531
8.96,0.02732
8.964,0.01914
8.968,0.02691
8.972,0.02929
8.976,0.02416
8.98,0.02842
8.984,0.04334
8.988,0.00094
8.992,0.02936
8.996,0.02429
9.0,0.03654
9.004,0.03496
9.008,0.03544
9.012,0.02588
9.016,0.03246
9.02,0.06615
9.024,0.02197
9.028,0.02483
9.032,0.02882
9.036,0.0383
9.04,0.04478
9.044,0.02062
9.048,0.0264
9.052,0.03113
9.056,0.02331
9.06,0.02686
9.064,0.03447
9.068,0.00797
9.072,0.04169
9.076,0.04985
9.08,0.015
9.084,0.01658
9.088,0.01239
9.092,0.00928
9.096,0.0461
9.1,0.02866
9.104,0.03412
9.108,0.03975
9.112,-0.00444
9.116,0.0165
9.12,0.01892
9.124,0.05749
9.128,0.01765
9.132,0.04548
9.136,0.00796
9.14,0.03519
9.144,0.0314
9.148,0.03068
9.152,0.0161
9.156,0.01864
9.16,0.00282
9.164,0.03986
9.168,0.03569
9.172,0.02285
9.176,0.03924
9.18,0.06174
9.184,-0.00035
9.188,0.01612
9.192,0.04085
9.196,0.02048
9.2,0.0217
9.204,0.08112
9.208,0.05499
9.212,0.0434
9.216,0.04279
9.22,0.06218
9.224,0.10642
9.228,0.0937
9.232,0.09867
9.236,0.13182
9.24,0.11992
9.244,0.16401
9.248,0.14785
9.252,0.12557
9.256,0.14389
9.26,0.12491
9.264,0.08927
9.268,0.09251
9.272,0.07886
9.276,0.06469
9.28,0.04111
9.284,0.03743
9.288,0.02164
9.292,0.04211
9.296,0.03614
9.3,0.00785
9.304,0.04445
9.308,0.02334
9.312,0.058
9.316,0.02281
9.32,0.02803
9.324,0.04537
9.328,0.01028
9.332,0.03031
9.336,0.03068
9.34,0.02333
9.344,0.01842
9.348,0.03378
9.352,0.02329
9.356,0.06252
9.36,-0.00932
9.364,-0.0066
9.368,-0.03174
9.372,-0.06953
9.376,-0.09282
9.38,-0.01896
9.384,0.05624
9.388,0.25365
9.392,0.44979
9.396,0.64152
9.4,0.87515
9.404,0.98393
9.408,1.04973
9.412,0.93364
9.416,0.76394
9.42,0.57418
9.424,0.32065
9.428,0.1377
9.432,-0.02647
9.436,-0.13073
9.44,-0.11409
9.444,-0.10499
9.448,-0.05266
9.452,-0.04355
9.456,0.02654
9.46,0.02776
9.464,0.02578
9.468,0.01321
9.472,0.04489
9.476,0.02865
9.48,0.01574
9.484,0.0484
9.488,0.01194
9.492,0.04928
9.496,0.0364
9.5,0.01489
9.504,0.0143
9.508,0.02058
9.512,0.01958
9.516,0.05761
9.52,0.02632
9.524,0.04045
9.528,0.0267
9.532,0.04987
9.536,0.02612
9.54,0.03259
9.544,0.01866
9.548,0.04028
9.552,0.02186
9.556,0.05876
9.56,0.05669
9.564,0.0231
9.568,0.03014
9.572,0.04138
9.576,0.02907
9.58,0.06643
9.584,0.02339
9.588,0.06222
9.592,0.04719
9.596,0.0342
9.6,0.05495
9.604,0.0561
9.608,0.0789
9.612,0.07684
9.616,0.09937
9.62,0.10725
9.624,0.12002
9.628,0.14637
9.632,0.14236
9.636,0.14406
9.64,0.13557
9.644,0.18316
9.648,0.18646
9.652,0.16215
9.656,0.17833
9.66,0.22344
9.664,0.22171
9.668,0.23893
9.672,0.26366
9.676,0.2444
9.68,0.25745
9.684,0.25479
9.688,0.24324
9.692,0.24948
9.696,0.25386
9.7,0.26367
9.704,0.22798
9.708,0.22789
9.712,0.2076
9.716,0.23059
9.72,0.22149
9.724,0.20099
9.728,0.16959
9.732,0.15618
9.736,0.14313
9.74,0.13199
9.744,0.12015
9.748,0.10725
9.752,0.08248
9.756,0.08196
9.76,0.07944
9.764,0.08516
9.768,0.07699
9.772,0.08952
9.776,0.05391
9.78,0.05592
9.784,0.04984
9.788,0.05131
9.792,0.04255
9.796,0.03862
9.8,0.03911
9.804,0.03256
9.808,0.03821
9.812,0.00928
9.816,0.05308
9.82,0.0415
9.824,0.03214
9.828,0.01497
9.832,0.02167
9.836,0.02557
9.84,0.02299
9.844,0.03375
9.848,0.0355
9.852,0.02022
9.856,0.04129
9.86,0.03143
9.864,0.02926
9.868,0.03325
9.872,0.02257
9.876,0.03201
9.88,0.04352
9.884,0.02899
9.888,0.02054
9.892,0.05574
9.896,0.01081
9.9,0.02894
9.904,0.02402
9.908,0.0309
9.912,0.06461
9.916,0.03387
9.92,0.00971
9.924,0.04695
9.928,0.0423
9.932,0.01398
9.936,0.0326
9.94,0.01353
9.944,0.031
9.948,0.03228
9.952,0.02614
9.956,0.02969
9.96,0.03878
9.964,0.04345
9.968,0.00299
9.972,0.03487
9.976,0.03386
9.98,0.00821
9.984,0.03647
9.988,0.0307
9.992,0.00825
9.996,0.03521
