t_seg,ecg_mV
0.0,0.94399
0.004,1.0597
0.008,0.87027
0.012,0.70416
0.016,0.46947
0.02,0.29801
0.024,0.09938
0.028,-0.1224
0.032,-0.17424
0.036,-0.17365
0.04,-0.14599
0.044,-0.12052
0.048,-0.08612
0.052,0.02666
0.056,-0.02543
0.06,-0.00276
0.064,-0.01412
0.068,0.00201
0.072,-0.01303
0.076,0.00308
0.08,-0.04513
0.084,-0.01649
0.088,-0.04834
0.092,-0.03211
0.096,-0.01726
0.1,-0.0121
0.104,0.01789
0.108,0.00085
0.112,-0.04422
0.116,-0.00367
0.12,-0.07492
0.124,-0.0389
0.128,0.03222
0.132,-0.01355
0.136,0.02008
0.14,-0.02916
0.144,-0.08479
0.148,0.01077
0.152,0.00164
0.156,-0.0836
0.16,-0.00645
0.164,-0.00799
0.168,0.02411
0.172,0.01559
0.176,0.06113
0.18,0.0427
0.184,-0.02305
0.188,0.00361
0.192,0.01442
0.196,0.01104
0.2,0.04234
0.204,0.05784
0.208,0.07124
0.212,0.0583
0.216,0.05759
0.22,0.09555
0.224,0.05084
0.228,0.09242
0.232,0.02954
0.236,0.09
0.24,0.07375
0.244,0.17108
0.248,0.18917
0.252,0.15033
0.256,0.15707
0.26,0.17262
0.264,0.2295
0.268,0.22033
0.272,0.16683
0.276,0.21926
0.28,0.23757
0.284,0.25247
0.288,0.19918
0.292,0.17534
0.296,0.21904
0.3,0.19235
0.304,0.16686
0.308,0.18684
0.312,0.08836
0.316,0.07064
0.32,0.21938
0.324,0.10963
0.328,0.16535
0.332,0.04456
0.336,0.08994
0.34,0.04152
0.344,-0.00796
0.348,0.02909
0.352,-0.02568
0.356,0.03164
0.36,0.02886
0.364,0.00399
0.368,0.07909
0.372,-0.02031
0.376,-0.05094
0.38,0.01657
0.384,-0.00911
0.388,0.01597
0.392,0.0731
0.396,-0.03675
0.4,-0.00377
0.404,0.00393
0.408,0.0804
0.412,0.11758
0.416,0.02659
0.42,0.00365
0.424,0.07127
0.428,0.11542
0.432,0.02747
0.436,0.04329
0.44,0.11495
0.444,0.0794
0.448,0.10245
0.452,-0.02117
0.456,0.04461
0.46,-0.02881
0.464,-0.01024
0.468,0.01174
0.472,-0.05672
0.476,-0.00321
0.48,0.00661
0.484,0.01228
0.488,-0.02699
0.492,0.00952
0.496,0.01414
0.5,-0.05131
0.504,0.02691
0.508,-0.04883
0.512,-0.00198
0.516,-0.03192
0.52,0.02348
0.524,0.01437
0.528,0.03622
0.532,-0.04487
0.536,-0.02751
0.54,-0.0316
0.544,-0.10889
0.548,-0.14718
0.552,-0.13524
0.556,-0.13382
0.56,0.00795
0.564,0.05158
0.568,0.24983
0.572,0.52597
0.576,0.66792
0.58,0.8452
0.584,0.95189
0.588,1.00198
0.592,0.80801
0.596,0.62768
0.6,0.42708
0.604,0.21697
0.608,-0.00168
0.612,-0.13279
0.616,-0.22043
0.62,-0.19301
0.624,-0.17659
0.628,-0.08417
0.632,-0.03403
0.636,-0.10877
0.64,-0.0822
0.644,0.00689
0.648,-0.03072
0.652,0.05486
0.656,0.00718
0.66,-0.0409
0.664,-0.0003
0.668,-0.00405
0.672,-0.01591
0.676,-0.0131
0.68,-0.04223
0.684,-0.08447
0.688,-0.01587
0.692,-0.02086
0.696,0.0686
0.7,-0.0347
0.704,-0.02375
0.708,-0.0654
0.712,-0.05816
0.716,-0.03423
0.72,-0.02457
0.724,-0.06056
0.728,-0.08119
0.732,-0.06655
0.736,-0.10369
0.74,-0.04117
0.744,-0.07146
0.748,-0.05566
0.752,0.00242
0.756,0.02249
0.76,-0.02406
0.764,-0.04156
0.768,0.04418
0.772,0.00442
0.776,0.10654
0.78,-0.00568
0.784,0.07991
0.788,0.03688
0.792,0.03626
0.796,-0.04092
0.8,0.02614
0.804,0.09166
0.808,0.07132
0.812,0.10974
0.816,0.13624
0.82,0.0734
0.824,0.09686
0.828,0.13959
0.832,0.17508
0.836,0.1963
0.84,0.1464
0.844,0.13919
0.848,0.19973
0.852,0.1528
0.856,0.19189
0.86,0.2249
0.864,0.21808
0.868,0.16086
0.872,0.17448
0.876,0.1636
0.88,0.18602
0.884,0.16423
0.888,0.21707
0.892,0.15863
0.896,0.12056
0.9,0.10068
0.904,0.11129
0.908,0.07835
0.912,0.10942
0.916,0.10327
0.92,0.07953
0.924,0.10984
0.928,0.03582
0.932,0.04566
0.936,0.00423
0.94,0.01606
0.944,-0.00388
0.948,0.01416
0.952,0.04234
0.956,0.03103
0.96,-0.0589
0.964,-0.02507
0.968,-0.02138
0.972,0.03227
0.976,0.03555
0.98,-0.01501
0.984,0.00185
0.988,-0.05123
0.992,-0.01778
0.996,0.00806
1.0,-0.05833
1.004,-0.06234
1.008,-0.02064
1.012,-0.05193
1.016,0.01868
1.02,-0.08239
1.024,-0.05556
1.028,-0.04849
1.032,-0.01407
1.036,-0.0588
1.04,-0.08084
1.044,-0.03478
1.048,-0.02274
1.052,0.02326
1.056,0.04478
1.06,-0.08317
1.064,-0.01891
1.068,-0.08282
1.072,-0.02753
1.076,-0.03914
1.08,-0.07639
1.084,-0.02703
1.088,-0.06875
1.092,-0.0869
1.096,-0.05102
1.1,-0.01722
1.104,-0.04062
1.108,0.00956
1.112,-0.01419
1.116,-0.01766
1.12,-0.06165
1.124,-0.0551
1.128,-0.04986
1.132,-0.05251
1.136,-0.06692
1.14,-0.0405
1.144,-0.10838
1.148,0.0235
1.152,-0.07528
1.156,0.03773
1.16,-0.03082
1.164,0.00171
1.168,0.05881
1.172,0.05937
1.176,0.03334
1.18,0.07491
1.184,0.04452
1.188,0.03811
1.192,-0.01519
1.196,0.07914
1.2,0.00544
1.204,0.04552
1.208,0.04716
1.212,0.02154
1.216,-0.06528
1.22,-0.03951
1.224,0.07419
1.228,-0.03421
1.232,-0.00073
1.236,-0.05863
1.24,-0.08023
1.244,0.0152
1.248,-0.03329
1.252,0.02032
1.256,-0.0639
1.26,-0.06107
1.264,-0.12282
1.268,-0.03367
1.272,0.00465
1.276,0.02527
1.28,0.00934
1.284,-0.04104
1.288,-0.04806
1.292,-0.00394
1.296,-0.08535
1.3,-0.06611
1.304,-0.09452
1.308,-0.14212
1.312,-0.1687
1.316,-0.09386
1.32,0.03518
1.324,0.15187
1.328,0.31626
1.332,0.53323
1.336,0.69081
1.34,0.90402
1.344,0.96937
1.348,0.9354
1.352,0.79964
1.356,0.66248
1.36,0.29563
1.364,0.13406
1.368,0.00359
1.372,-0.1951
1.376,-0.15517
1.38,-0.14696
1.384,-0.19961
1.388,-0.14021
1.392,-0.08293
1.396,-0.09177
1.4,-0.01769
1.404,-0.08324
1.408,0.00853
1.412,0.00468
1.416,-0.08203
1.42,-0.05016
1.424,-0.03729
1.428,0.00505
1.432,-0.05004
1.436,0.02362
1.44,-0.0144
1.444,0.04457
1.448,-0.0066
1.452,-0.00572
1.456,-0.00857
1.46,0.00086
1.464,-0.03738
1.468,-0.05064
1.472,-0.05689
1.476,0.01475
1.48,-0.06176
1.484,-0.01183
1.488,-0.01081
1.492,-0.02591
1.496,-0.04702
1.5,-0.06109
1.504,0.00446
1.508,-0.03524
1.512,0.04925
1.516,-0.02017
1.52,-0.03599
1.524,0.013
1.528,-0.06892
1.532,-0.01713
1.536,-0.0758
1.54,0.00013
1.544,0.0119
1.548,0.03274
1.552,0.03395
1.556,0.05406
1.56,0.05126
1.564,0.04326
1.568,0.06243
1.572,0.16676
1.576,0.07031
1.58,0.10274
1.584,0.16226
1.588,0.24297
1.592,0.24116
1.596,0.24612
1.6,0.26241
1.604,0.22243
1.608,0.26894
1.612,0.32101
1.616,0.23055
1.62,0.28596
1.624,0.20948
1.628,0.22626
1.632,0.19813
1.636,0.19754
1.64,0.21568
1.644,0.20038
1.648,0.16003
1.652,0.19669
1.656,0.12246
1.66,0.14197
1.664,0.15033
1.668,0.14906
1.672,0.0364
1.676,0.07814
1.68,0.02773
1.684,0.01557
1.688,0.04974
1.692,0.04976
1.696,0.04078
1.7,0.07161
1.704,-0.02106
1.708,-0.06371
1.712,-0.04189
1.716,-0.00301
1.72,0.04642
1.724,-0.05824
1.728,-0.06843
1.732,-0.11741
1.736,-0.13559
1.74,-0.11448
1.744,0.00581
1.748,0.13592
1.752,0.34598
1.756,0.55831
1.76,0.79419
1.764,0.88772
1.768,0.9733
1.772,0.95027
1.776,0.75523
1.78,0.51084
1.784,0.41234
1.788,0.12467
1.792,-0.04046
1.796,-0.09434
1.8,-0.16573
1.804,-0.12149
1.808,-0.13925
1.812,-0.13584
1.816,-0.01751
1.82,-0.06634
1.824,-0.02797
1.828,-0.10343
1.832,-0.053
1.836,-0.06454
1.84,-0.04741
1.844,-0.0466
1.848,-0.00144
1.852,-0.03884
1.856,-0.09148
1.86,-0.01153
1.864,0.03433
1.868,-0.00469
1.872,-0.04138
1.876,-0.03497
1.88,0.02013
1.884,-0.02334
1.888,-0.02917
1.892,-0.00232
1.896,-0.07346
1.9,-0.06543
1.904,-0.04785
1.908,-0.08849
1.912,0.0123
1.916,-0.03905
1.92,0.01925
1.924,-0.08865
1.928,0.03
1.932,-0.02083
1.936,-0.03841
1.94,-0.00862
1.944,0.03598
1.948,0.06048
1.952,-0.01387
1.956,0.01277
1.96,-0.02283
1.964,0.01515
1.968,0.10751
1.972,0.05628
1.976,0.0402
1.98,0.0347
1.984,0.09741
1.988,0.03464
1.992,0.10247
1.996,0.12271
2.0,0.1418
2.004,0.13248
2.008,0.10828
2.012,0.05679
2.016,0.14308
2.02,0.21925
2.024,0.12551
2.028,0.15704
2.032,0.16194
2.036,0.17998
2.04,0.20913
2.044,0.21487
2.048,0.15217
2.052,0.17372
2.056,0.16195
2.06,0.20843
2.064,0.19439
2.068,0.18119
2.072,0.20335
2.076,0.19049
2.08,0.16551
2.084,0.12234
2.088,0.10698
2.092,0.13992
2.096,0.14818
2.1,0.06864
2.104,0.06846
2.108,0.07605
2.112,0.07361
2.116,0.06641
2.12,0.05054
2.124,0.05127
2.128,0.11432
2.132,0.15888
2.136,0.09853
2.14,0.1545
2.144,0.07857
2.148,0.0815
2.152,0.0915
2.156,0.1172
2.16,0.08086
2.164,0.04052
2.168,0.05597
2.172,0.0375
2.176,0.00749
2.18,-0.01898
2.184,-0.0476
2.188,-0.00874
2.192,-0.00096
2.196,-0.02114
2.2,0.01435
2.204,-0.01194
2.208,-0.04478
2.212,0.02046
2.216,-0.05901
2.22,-0.03943
2.224,0.00864
2.228,-0.02719
2.232,-0.04076
2.236,-0.0485
2.24,0.01
2.244,-0.06469
2.248,-0.05667
2.252,-0.02992
2.256,-0.02198
2.26,-0.11165
2.264,-0.02195
2.268,-0.11744
2.272,-0.09609
2.276,-0.09152
2.28,-0.11005
2.284,0.06887
2.288,0.22486
2.292,0.4786
2.296,0.64304
2.3,0.88739
2.304,0.97639
2.308,0.95901
2.312,0.87058
2.316,0.69684
2.32,0.43358
2.324,0.20051
2.328,0.04595
2.332,-0.08571
2.336,-0.21395
2.34,-0.16312
2.344,-0.11733
2.348,-0.12442
2.352,-0.04837
2.356,-0.0584
2.36,-0.07857
2.364,-0.01518
2.368,-0.02727
2.372,0.00341
2.376,0.02036
2.38,-0.02016
2.384,-0.02758
2.388,-0.0541
2.392,-0.05241
2.396,-0.05364
2.4,-0.02255
2.404,0.00726
2.408,0.01376
2.412,-0.03436
2.416,-0.0127
2.42,-0.00977
2.424,-0.05348
2.428,-0.06798
2.432,-0.02525
2.436,0.00778
2.44,0.05897
2.444,0.01174
2.448,0.00657
2.452,-0.03349
2.456,-0.0178
2.46,0.01606
2.464,0.00686
2.468,0.01002
2.472,-0.07496
2.476,0.09236
2.48,0.00445
2.484,0.00569
2.488,-0.00923
2.492,-0.0568
2.496,0.0809
2.5,0.02048
2.504,0.04184
2.508,0.02292
2.512,0.01496
2.516,0.1139
2.52,0.04586
2.524,0.08666
2.528,0.11376
2.532,0.10446
2.536,0.10309
2.54,0.12559
2.544,0.15542
2.548,0.15322
2.552,0.21775
2.556,0.23845
2.56,0.23019
2.564,0.29312
2.568,0.30311
2.572,0.23809
2.576,0.34607
2.58,0.2829
2.584,0.34095
2.588,0.31892
2.592,0.23913
2.596,0.24788
2.6,0.22994
2.604,0.20465
2.608,0.22344
2.612,0.18931
2.616,0.24855
2.62,0.14458
2.624,0.11386
2.628,0.20303
2.632,0.16907
2.636,0.12109
2.64,0.12351
2.644,0.05203
2.648,0.07419
2.652,0.02072
2.656,0.01872
2.66,0.03622
2.664,0.01791
2.668,0.01466
2.672,0.06565
2.676,0.02721
2.68,-0.02177
2.684,0.0581
2.688,0.02001
2.692,-0.04866
2.696,-0.12013
2.7,-0.03243
2.704,-0.09539
2.708,-0.08523
2.712,-0.1003
2.716,0.00924
2.72,0.18568
2.724,0.42354
2.728,0.66948
2.732,0.78459
2.736,0.89211
2.74,1.03873
2.744,0.93255
2.748,0.7315
2.752,0.60144
2.756,0.29125
2.76,0.07931
2.764,-0.05762
2.768,-0.14415
2.772,-0.1898
2.776,-0.20191
2.78,-0.16816
2.784,-0.05018
2.788,-0.00677
2.792,-0.08593
2.796,0.0563
2.8,-0.01657
2.804,-0.00735
2.808,0.0962
2.812,-0.0252
2.816,0.00912
2.82,-0.05312
2.824,-0.00891
2.828,-0.03811
2.832,0.02865
2.836,0.00173
2.84,0.01442
2.844,0.00739
2.848,-0.02869
2.852,-0.03501
2.856,-0.03047
2.86,0.04785
2.864,-0.03066
2.868,-0.00412
2.872,0.02015
2.876,-0.01159
2.88,-0.02603
2.884,-0.04754
2.888,0.04212
2.892,-0.03044
2.896,0.01953
2.9,0.01623
2.904,0.0574
2.908,-0.02171
2.912,0.07265
2.916,0.0614
2.92,0.00501
2.924,0.05811
2.928,0.00465
2.932,0.052
2.936,0.01637
2.94,0.04136
2.944,0.01023
2.948,0.05515
2.952,0.06356
2.956,0.08127
2.96,0.10189
2.964,0.16326
2.968,0.17716
2.972,0.16891
2.976,0.24783
2.98,0.26526
2.984,0.28901
2.988,0.23727
2.992,0.3081
2.996,0.29556
3.0,0.29714
3.004,0.35428
3.008,0.22705
3.012,0.32268
3.016,0.29049
3.02,0.2635
3.024,0.21896
3.028,0.23918
3.032,0.22505
3.036,0.20471
3.04,0.25113
3.044,0.17828
3.048,0.19605
3.052,0.21155
3.056,0.14304
3.06,0.11915
3.064,0.20007
3.068,0.12058
3.072,0.12776
3.076,0.1052
3.08,0.13228
3.084,0.06208
3.088,0.08509
3.092,0.04816
3.096,0.05751
3.1,0.03892
3.104,0.00922
3.108,0.0183
3.112,-0.10134
3.116,-0.04611
3.12,-0.10864
3.124,-0.00293
3.128,0.1907
3.132,0.29889
3.136,0.45054
3.14,0.62804
3.144,0.67102
3.148,0.67567
3.152,0.57389
3.156,0.5716
3.16,0.31043
3.164,0.09734
3.168,0.01891
3.172,-0.14619
3.176,-0.14076
3.18,-0.17005
3.184,-0.1317
3.188,-0.03454
3.192,-0.01847
3.196,-0.0567
3.2,0.04786
3.204,-0.01255
3.208,-0.00921
3.212,0.00335
3.216,0.01134
3.22,0.02414
3.224,0.04788
3.228,0.05596
3.232,-0.00333
3.236,-0.06891
3.24,0.05319
3.244,0.08464
3.248,0.03708
3.252,0.03153
3.256,0.03043
3.26,0.01923
3.264,0.0083
3.268,-0.02959
3.272,0.03976
3.276,0.00074
3.28,0.04947
3.284,-0.03167
3.288,0.03956
3.292,0.07035
3.296,-0.03287
3.3,0.01772
3.304,-0.0011
3.308,0.02531
3.312,0.02003
3.316,-0.0026
3.32,0.00505
3.324,0.03862
3.328,-0.00022
3.332,0.04261
3.336,0.11311
3.34,0.05697
3.344,0.02495
3.348,0.04547
3.352,0.04559
3.356,0.08369
3.36,0.10853
3.364,0.13446
3.368,0.08311
3.372,0.06988
3.376,0.11699
3.38,0.18817
3.384,0.10727
3.388,0.19286
3.392,0.12613
3.396,0.19691
3.4,0.217
3.404,0.21803
3.408,0.2192
3.412,0.16949
3.416,0.23017
3.42,0.21872
3.424,0.25061
3.428,0.26722
3.432,0.24593
3.436,0.27512
3.44,0.1848
3.444,0.27757
3.448,0.21897
3.452,0.24689
3.456,0.21849
3.46,0.23294
3.464,0.12847
3.468,0.14023
3.472,0.09889
3.476,0.14155
3.48,0.15348
3.484,0.13493
3.488,0.10009
3.492,0.12661
3.496,0.16587
3.5,0.09251
3.504,0.12535
3.508,0.11539
3.512,0.10219
3.516,0.13355
3.52,0.12773
3.524,0.10122
3.528,0.14613
3.532,0.11898
3.536,0.08902
3.54,0.0191
3.544,0.09697
3.548,0.04056
3.552,0.03806
3.556,0.00242
3.56,0.13407
3.564,-0.02646
3.568,-0.02114
3.572,0.02355
3.576,0.029
3.58,0.01685
3.584,0.06262
3.588,0.04413
3.592,0.03102
3.596,-0.03881
3.6,-0.00854
3.604,0.00383
3.608,0.059
3.612,0.04337
3.616,0.0394
3.62,0.00786
3.624,0.00205
3.628,-0.00564
3.632,0.07911
3.636,-0.02549
3.64,0.01294
3.644,0.00147
3.648,-0.10528
3.652,-0.11385
3.656,-0.10304
3.66,-0.01863
3.664,0.08452
3.668,0.17483
3.672,0.30281
3.676,0.42687
3.68,0.54234
3.684,0.52105
3.688,0.48301
3.692,0.48607
3.696,0.32464
3.7,0.16713
3.704,0.06857
3.708,-0.04571
3.712,-0.1354
3.716,-0.15232
3.72,-0.15272
3.724,-0.12714
3.728,-0.10127
3.732,-0.02046
3.736,-0.05936
3.74,-0.05052
3.744,0.11011
3.748,0.0869
3.752,-0.00025
3.756,0.00105
3.76,-0.00943
3.764,-0.04972
3.768,0.02039
3.772,0.01362
3.776,0.04886
3.78,0.01261
3.784,0.01384
3.788,0.05462
3.792,0.03402
3.796,-0.01459
3.8,0.0752
3.804,0.11228
3.808,0.08842
3.812,0.13883
3.816,0.17047
3.82,0.15691
3.824,0.06377
3.828,0.11179
3.832,0.14456
3.836,0.11942
3.84,0.12542
3.844,0.13216
3.848,0.13132
3.852,0.08614
3.856,0.04921
3.86,0.05494
3.864,0.10079
3.868,0.09466
3.872,0.05929
3.876,0.07458
3.88,0.0016
3.884,0.06685
3.888,0.03054
3.892,0.02532
3.896,0.10665
3.9,0.09011
3.904,0.09281
3.908,0.14158
3.912,0.06902
3.916,0.16183
3.92,0.17663
3.924,0.20569
3.928,0.20976
3.932,0.16919
3.936,0.14361
3.94,0.19491
3.944,0.14395
3.948,0.12467
3.952,0.05614
3.956,0.11653
3.96,0.23054
3.964,0.38213
3.968,0.53612
3.972,0.66104
3.976,0.90318
3.98,1.108
3.984,1.19966
3.988,1.20692
3.992,1.04163
3.996,0.96732
4.0,0.61586
4.004,0.42366
4.008,0.1323
4.012,0.10685
4.016,-0.03837
4.02,-0.03755
4.024,-0.12681
4.028,0.04257
4.032,0.04175
4.036,0.03699
4.04,0.07811
4.044,0.1108
4.048,0.11869
4.052,0.10422
4.056,0.0969
4.06,0.05694
4.064,-0.01056
4.068,0.04533
4.072,0.01612
4.076,0.01788
4.08,0.04384
4.084,0.03908
4.088,0.03484
4.092,-0.01645
4.096,-0.02037
4.1,0.04285
4.104,0.01118
4.108,-0.03392
4.112,0.00824
4.116,0.02845
4.12,0.02563
4.124,0.04673
4.128,0.00447
4.132,-0.03868
4.136,-0.01889
4.14,0.02197
4.144,0.03707
4.148,0.08214
4.152,0.02688
4.156,0.06126
4.16,-0.01155
4.164,0.10978
4.168,0.05761
4.172,0.0374
4.176,0.04172
4.18,0.11032
4.184,0.06383
4.188,0.12077
4.192,0.08909
4.196,0.09271
4.2,0.12439
4.204,0.07091
4.208,0.08169
4.212,0.14284
4.216,0.20104
4.22,0.1325
4.224,0.22213
4.228,0.2918
4.232,0.25354
4.236,0.21324
4.24,0.2122
4.244,0.28982
4.248,0.1792
4.252,0.24788
4.256,0.19742
4.26,0.18849
4.264,0.31074
4.268,0.27294
4.272,0.24511
4.276,0.22533
4.28,0.16177
4.284,0.20831
4.288,0.23795
4.292,0.18831
4.296,0.1762
4.3,0.2316
4.304,0.25191
4.308,0.09504
4.312,0.16496
4.316,0.13984
4.32,0.13512
4.324,0.08924
4.328,0.08914
4.332,0.13135
4.336,0.11119
4.34,0.06444
4.344,0.14701
4.348,0.08567
4.352,0.03551
4.356,0.11593
4.36,0.04936
4.364,0.00221
4.368,0.0515
4.372,0.09966
4.376,0.04375
4.38,0.06511
4.384,0.00569
4.388,0.06343
4.392,-0.00594
4.396,-0.03819
4.4,-0.01108
4.404,0.02443
4.408,0.03312
4.412,-0.01713
4.416,0.00316
4.42,0.09587
4.424,0.05991
4.428,0.07359
4.432,0.01839
4.436,0.05611
4.44,-0.02253
4.444,0.02656
4.448,-0.00208
4.452,0.0189
4.456,0.00099
4.46,0.10116
4.464,0.04235
4.468,0.0657
4.472,0.00718
4.476,0.07306
4.48,-0.02363
4.484,0.02795
4.488,0.10236
4.492,0.04443
4.496,-0.03222
4.5,0.02849
4.504,0.02172
4.508,0.04391
4.512,-0.01616
4.516,-0.00977
4.52,0.00636
4.524,0.02176
4.528,0.02845
4.532,0.09174
4.536,-0.00753
4.54,0.02296
4.544,-0.02396
4.548,0.03471
4.552,0.05354
4.556,-0.04065
4.56,0.00777
4.564,-0.01099
4.568,0.00508
4.572,0.01315
4.576,0.00998
4.58,0.03529
4.584,0.08929
4.588,0.02492
4.592,0.07369
4.596,0.02243
4.6,0.04062
4.604,0.00027
4.608,0.00705
4.612,0.05419
4.616,-0.00982
4.62,0.07208
4.624,0.00322
4.628,-0.00977
4.632,0.00016
4.636,0.01728
4.64,0.02194
4.644,-0.00241
4.648,-0.06728
4.652,0.03454
4.656,0.03393
4.66,0.02338
4.664,0.02731
4.668,0.08245
4.672,0.02519
4.676,0.04747
4.68,0.02207
4.684,0.02525
4.688,0.04538
4.692,0.0199
4.696,0.00098
4.7,0.10313
4.704,0.04286
4.708,0.01279
4.712,-0.01422
4.716,0.00332
4.72,0.02559
4.724,0.06365
4.728,0.07469
4.732,0.05413
4.736,0.13195
4.74,0.11694
4.744,0.06734
4.748,0.12308
4.752,0.15398
4.756,0.11305
4.76,0.10246
4.764,0.12506
4.768,0.12529
4.772,0.15094
4.776,0.08011
4.78,0.02939
4.784,0.05705
4.788,0.10071
4.792,0.07098
4.796,0.02248
4.8,0.03524
4.804,0.00637
4.808,0.04182
4.812,0.06187
4.816,0.10214
4.82,0.02929
4.824,0.02777
4.828,0.00326
4.832,0.02868
4.836,-0.02735
4.84,0.05667
4.844,-0.0156
4.848,-0.01728
4.852,0.10624
4.856,0.08643
4.86,0.01391
4.864,0.10425
4.868,0.02377
4.872,-0.02207
4.876,-0.12639
4.88,-0.10429
4.884,-0.052
4.888,-0.07811
4.892,0.11977
4.896,0.28923
4.9,0.49461
4.904,0.67425
4.908,0.89101
4.912,0.98475
4.916,1.07258
4.92,0.89966
4.924,0.68603
4.928,0.50462
4.932,0.27999
4.936,0.08653
4.94,-0.03913
4.944,-0.10919
4.948,-0.12229
4.952,-0.10987
4.956,-0.1054
4.96,-0.0579
4.964,-0.01567
4.968,-0.0475
4.972,0.00414
4.976,0.02059
4.98,-0.00749
4.984,0.0687
4.988,0.04319
4.992,0.0365
4.996,0.05786
5.0,0.0394
5.004,0.01241
5.008,0.05014
5.012,0.0676
5.016,0.05288
5.02,0.02025
5.024,0.05122
5.028,0.0239
5.032,-0.01451
5.036,-0.01383
5.04,0.04344
5.044,0.02256
5.048,0.08084
5.052,0.00228
5.056,0.05631
5.06,0.03897
5.064,-0.0006
5.068,0.06462
5.072,-0.00897
5.076,0.03039
5.08,0.03448
5.084,0.0252
5.088,-0.01712
5.092,0.06411
5.096,0.04173
5.1,0.06285
5.104,0.04587
5.108,0.05064
5.112,0.03573
5.116,0.14573
5.12,0.09891
5.124,0.14568
5.128,0.042
5.132,0.0923
5.136,0.11183
5.14,0.14962
5.144,0.13729
5.148,0.13471
5.152,0.18943
5.156,0.20778
5.16,0.19508
5.164,0.2026
5.168,0.15711
5.172,0.17831
5.176,0.21044
5.18,0.17899
5.184,0.17897
5.188,0.22227
5.192,0.26241
5.196,0.17593
5.2,0.25065
5.204,0.17447
5.208,0.2478
5.212,0.18347
5.216,0.20372
5.22,0.24884
5.224,0.15298
5.228,0.14146
5.232,0.20588
5.236,0.11025
5.24,0.1043
5.244,0.21708
5.248,0.14477
5.252,0.09949
5.256,0.07123
5.26,0.09493
5.264,0.01748
5.268,0.10426
5.272,0.07218
5.276,0.00597
5.28,0.0635
5.284,0.06842
5.288,-0.00326
5.292,0.05037
5.296,0.06289
5.3,0.01168
5.304,0.02748
5.308,-0.00885
5.312,0.06322
5.316,0.01375
5.32,0.03305
5.324,-0.02531
5.328,-0.01015
5.332,0.04437
5.336,0.07671
5.34,-0.08256
5.344,0.09184
5.348,0.04392
5.352,0.0002
5.356,-0.01623
5.36,0.00554
5.364,0.00723
5.368,0.02828
5.372,0.01901
5.376,0.03876
5.38,0.05143
5.384,0.02496
5.388,0.01171
5.392,0.00746
5.396,0.0629
5.4,0.03268
5.404,-0.0474
5.408,0.06882
5.412,-0.00646
5.416,0.00977
5.42,0.03298
5.424,-0.01713
5.428,0.06114
5.432,-0.01769
5.436,0.01833
5.44,0.04519
5.444,0.05037
5.448,0.02264
5.452,-0.00931
5.456,0.01246
5.46,0.02756
5.464,-0.0165
5.468,0.0406
5.472,0.01908
5.476,-0.02086
5.48,0.00844
5.484,0.03272
5.488,0.05631
5.492,0.08185
5.496,0.01729
5.5,0.14238
5.504,0.0986
5.508,0.0514
5.512,0.09747
5.516,0.19272
5.52,0.10569
5.524,0.1303
5.528,0.15094
5.532,0.03773
5.536,0.07703
5.54,0.07578
5.544,0.076
5.548,0.08669
5.552,0.07299
5.556,-0.00364
5.56,0.0796
5.564,-0.03014
5.568,-0.01026
5.572,0.04764
5.576,0.03978
5.58,-0.02234
5.584,0.02144
5.588,0.03082
5.592,0.022
5.596,0.03184
5.6,0.03853
5.604,0.0254
5.608,-0.03003
5.612,0.00224
5.616,0.06076
5.62,0.05759
5.624,-0.00129
5.628,0.00291
5.632,0.00161
5.636,0.02094
5.64,-0.02861
5.644,-0.05171
5.648,-0.1625
5.652,-0.08482
5.656,-0.0773
5.66,0.00709
5.664,0.227
5.668,0.39352
5.672,0.65379
5.676,0.75717
5.68,0.97004
5.684,1.03158
5.688,0.98509
5.692,0.77949
5.696,0.52289
5.7,0.36186
5.704,0.16791
5.708,-0.02839
5.712,-0.14336
5.716,-0.11042
5.72,-0.14879
5.724,-0.06116
5.728,-0.0479
5.732,-0.0293
5.736,0.06582
5.74,0.03359
5.744,0.00359
5.748,0.04248
5.752,0.05053
5.756,0.02426
5.76,0.05565
5.764,-0.00304
5.768,0.02753
5.772,-0.00115
5.776,-0.04443
5.78,0.03897
5.784,0.00232
5.788,0.07542
5.792,0.04747
5.796,-0.01175
5.8,0.01246
5.804,-0.02795
5.808,-0.04366
5.812,-0.01647
5.816,0.03324
5.82,0.02027
5.824,6e-05
5.828,0.00577
5.832,-0.01789
5.836,0.01562
5.84,0.0025
5.844,-0.02705
5.848,-0.02088
5.852,-0.02893
5.856,-0.04352
5.86,0.02088
5.864,0.05557
5.868,0.08264
5.872,0.0189
5.876,0.01036
5.88,0.06846
5.884,0.05626
5.888,0.09493
5.892,0.13119
5.896,0.02703
5.9,0.07542
5.904,0.07512
5.908,0.07235
5.912,0.11159
5.916,0.11349
5.92,0.20868
5.924,0.15189
5.928,0.14274
5.932,0.21734
5.936,0.21153
5.94,0.18841
5.944,0.21564
5.948,0.21935
5.952,0.2731
5.956,0.21841
5.96,0.19673
5.964,0.20631
5.968,0.22299
5.972,0.23996
5.976,0.22289
5.98,0.22308
5.984,0.20493
5.988,0.18845
5.992,0.2126
5.996,0.19856
6.0,0.20697
6.004,0.21594
6.008,0.18575
6.012,0.127
6.016,0.09219
6.02,0.05164
6.024,0.14319
6.028,0.1439
6.032,0.04274
6.036,0.06699
6.04,0.06046
6.044,0.05273
6.048,0.01476
6.052,0.01454
6.056,0.06898
6.06,0.00111
6.064,0.03423
6.068,0.00435
6.072,0.05157
6.076,-0.03109
6.08,-0.04639
6.084,-0.00414
6.088,-0.00649
6.092,0.03397
6.096,-0.05661
6.1,0.1114
6.104,0.01185
6.108,0.01115
6.112,0.08662
6.116,0.02047
6.12,0.09501
6.124,0.05354
6.128,0.11103
6.132,0.1065
6.136,0.11907
6.14,0.15902
6.144,0.12809
6.148,0.08288
6.152,0.13276
6.156,0.1428
6.16,-0.0033
6.164,0.11531
6.168,0.03412
6.172,0.01089
6.176,0.00062
6.18,0.01781
6.184,0.00902
6.188,0.03883
6.192,0.05917
6.196,0.05262
6.2,0.02577
6.204,-0.00898
6.208,-0.06436
6.212,-0.05451
6.216,0.01775
6.22,0.05414
6.224,-0.05115
6.228,0.03373
6.232,-0.0023
6.236,-0.00382
6.24,-0.06006
6.244,0.02362
6.248,-0.00128
6.252,-0.01596
6.256,-0.03599
6.26,-0.09938
6.264,-0.11476
6.268,-0.05991
6.272,-0.01676
6.276,0.15645
6.28,0.36648
6.284,0.5719
6.288,0.63802
6.292,0.89604
6.296,0.98971
6.3,0.95499
6.304,0.87898
6.308,0.6935
6.312,0.40743
6.316,0.13065
6.32,0.02372
6.324,-0.07993
6.328,-0.19831
6.332,-0.18116
6.336,-0.1538
6.34,-0.12164
6.344,0.01278
6.348,-0.03261
6.352,0.03107
6.356,-0.01738
6.36,0.00856
6.364,0.02136
6.368,0.03019
6.372,0.02784
6.376,-0.06602
6.38,0.01976
6.384,-0.01525
6.388,0.00076
6.392,-0.03576
6.396,0.01126
6.4,-0.0443
6.404,-0.04677
6.408,-0.02295
6.412,0.0164
6.416,-0.0104
6.42,0.04505
6.424,-0.03198
6.428,-0.02343
6.432,-0.05298
6.436,-0.01054
6.44,-0.02506
6.444,-0.0262
6.448,-0.02366
6.452,0.04086
6.456,-0.02901
6.46,0.04126
6.464,0.08903
6.468,-0.04924
6.472,0.05355
6.476,-0.00806
6.48,0.04542
6.484,0.01685
6.488,-0.00795
6.492,0.06556
6.496,0.04841
6.5,-0.02115
6.504,0.01319
6.508,0.00051
6.512,0.11642
6.516,0.11931
6.52,0.1002
6.524,0.10958
6.528,0.02856
6.532,0.08798
6.536,0.11898
6.54,0.12227
6.544,0.11221
6.548,0.14457
6.552,0.23718
6.556,0.23747
6.56,0.15939
6.564,0.24471
6.568,0.23021
6.572,0.25936
6.576,0.18164
6.58,0.25464
6.584,0.18601
6.588,0.26238
6.592,0.22826
6.596,0.19356
6.6,0.26072
6.604,0.24945
6.608,0.21463
6.612,0.21381
6.616,0.21177
6.62,0.14784
6.624,0.2003
6.628,0.28902
6.632,0.1456
6.636,0.20524
6.64,0.19187
6.644,0.09338
6.648,0.17229
6.652,0.17375
6.656,0.09091
6.66,0.09273
6.664,0.00983
6.668,-0.01955
6.672,0.02572
6.676,0.05036
6.68,0.02983
6.684,-0.01908
6.688,0.01836
6.692,-0.00495
6.696,-0.04721
6.7,0.00276
6.704,-0.03271
6.708,0.01386
6.712,-0.05013
6.716,-0.06319
6.72,-0.04085
6.724,-0.00342
6.728,0.03982
6.732,-0.04091
6.736,-0.07612
6.74,-0.04116
6.744,-0.09067
6.748,-0.06165
6.752,-0.03095
6.756,-0.10591
6.76,-0.08525
6.764,-0.15025
6.768,-0.10301
6.772,-0.03524
6.776,0.17513
6.78,0.34485
6.784,0.56365
6.788,0.72935
6.792,0.90809
6.796,0.99364
6.8,1.00037
6.804,0.8156
6.808,0.60353
6.812,0.38737
6.816,0.13671
6.82,-0.01594
6.824,-0.09175
6.828,-0.18063
6.832,-0.16001
6.836,-0.15284
6.84,-0.10494
6.844,-0.11393
6.848,-0.07295
6.852,-0.03299
6.856,0.02456
6.86,-0.01552
6.864,-0.01301
6.868,-0.05663
6.872,-0.06414
6.876,-0.04818
6.88,-0.01233
6.884,-0.07207
6.888,-0.0015
6.892,-0.03237
6.896,-0.03154
6.9,-0.02028
6.904,-0.03806
6.908,-0.01993
6.912,-0.01527
6.916,-0.00806
6.92,0.01074
6.924,-0.02606
6.928,-0.05899
6.932,-0.01833
6.936,0.02627
6.94,0.00784
6.944,-0.02547
6.948,-0.03152
6.952,-0.0095
6.956,-0.02468
6.96,0.01287
6.964,-0.03351
6.968,0.02451
6.972,-0.04491
6.976,-0.02136
6.98,0.01794
6.984,-0.01687
6.988,-0.03876
6.992,0.00557
6.996,-0.0129
7.0,0.04793
7.004,0.07758
7.008,0.06068
7.012,0.0559
7.016,0.04346
7.02,0.1504
7.024,0.14253
7.028,0.07253
7.032,0.12666
7.036,0.17332
7.04,0.09337
7.044,0.15306
7.048,0.17297
7.052,0.12503
7.056,0.18226
7.06,0.18162
7.064,0.23756
7.068,0.19737
7.072,0.08439
7.076,0.19848
7.08,0.1912
7.084,0.20547
7.088,0.19543
7.092,0.11308
7.096,0.14751
7.1,0.12308
7.104,0.12429
7.108,0.0778
7.112,0.21725
7.116,0.12227
7.12,0.14031
7.124,-0.00026
7.128,0.10053
7.132,0.09915
7.136,0.15504
7.14,0.02109
7.144,0.12782
7.148,0.05033
7.152,0.05129
7.156,0.08184
7.16,0.09337
7.164,0.06982
7.168,0.18304
7.172,0.10554
7.176,0.04627
7.18,0.05542
7.184,0.10637
7.188,0.06174
7.192,0.04783
7.196,0.0632
7.2,0.04669
7.204,-0.00099
7.208,-0.00322
7.212,-0.03961
7.216,0.01505
7.22,0.03658
7.224,0.0297
7.228,0.04713
7.232,-0.03632
7.236,-0.01304
7.24,0.02774
7.244,-0.02299
7.248,-0.017
7.252,-0.05408
7.256,0.00864
7.26,-0.01655
7.264,-0.02385
7.268,0.00155
7.272,-0.0323
7.276,0.00108
7.28,-0.08987
7.284,-0.00355
7.288,-0.0238
7.292,-0.02466
7.296,-0.07201
7.3,-0.14461
7.304,-0.13967
7.308,-0.15159
7.312,-0.06852
7.316,-0.03275
7.32,0.08392
7.324,0.25272
7.328,0.39315
7.332,0.49716
7.336,0.50202
7.34,0.45708
7.344,0.42361
7.348,0.32109
7.352,0.16204
7.356,0.0263
7.36,-0.09785
7.364,-0.20335
7.368,-0.19578
7.372,-0.19024
7.376,-0.17013
7.38,-0.11772
7.384,-0.01522
7.388,-0.05894
7.392,-0.02263
7.396,-0.0547
7.4,-0.05793
7.404,-0.0986
7.408,-0.01709
7.412,-0.08969
7.416,-0.03728
7.42,0.00864
7.424,-0.01586
7.428,-0.11373
7.432,-0.05875
7.436,-0.05209
7.44,-0.05334
7.444,-0.0334
7.448,-0.03504
7.452,-0.0323
7.456,-0.01946
7.46,-0.05497
7.464,-0.0159
7.468,-0.01383
7.472,-0.03645
7.476,-0.03334
7.48,-0.03441
7.484,-0.03884
7.488,-0.02924
7.492,-0.02845
7.496,-0.03297
7.5,-0.00598
7.504,0.01836
7.508,-0.04654
7.512,-0.01521
7.516,0.00797
7.52,-0.00458
7.524,0.0375
7.528,-0.03062
7.532,-0.06304
7.536,-0.00263
7.54,0.00501
7.544,-0.00611
7.548,0.00701
7.552,0.06218
7.556,0.09602
7.56,0.11636
7.564,0.13334
7.568,0.19849
7.572,0.18279
7.576,0.20253
7.58,0.28066
7.584,0.26278
7.588,0.27854
7.592,0.29268
7.596,0.28625
7.6,0.3229
7.604,0.28448
7.608,0.28284
7.612,0.26117
7.616,0.24939
7.62,0.2785
7.624,0.16097
7.628,0.26025
7.632,0.11603
7.636,0.1759
7.64,0.15865
7.644,0.13644
7.648,0.21145
7.652,0.14478
7.656,0.1091
7.66,0.10958
7.664,0.08736
7.668,0.07541
7.672,0.07324
7.676,0.01497
7.68,0.04546
7.684,0.09098
7.688,0.0415
7.692,0.08551
7.696,-0.04478
7.7,-0.05327
7.704,-0.02023
7.708,0.03977
7.712,-0.04979
7.716,-0.16533
7.72,-0.10034
7.724,-0.09947
7.728,0.02602
7.732,0.11239
7.736,0.38879
7.74,0.61907
7.744,0.74879
7.748,0.95308
7.752,0.9812
7.756,0.87105
7.76,0.69121
7.764,0.51331
7.768,0.28983
7.772,0.07413
7.776,-0.04037
7.78,-0.154
7.784,-0.17905
7.788,-0.16073
7.792,-0.07226
7.796,-0.10486
7.8,0.0058
7.804,-0.01046
7.808,-0.10609
7.812,-0.02583
7.816,0.0154
7.82,-0.00349
7.824,0.00038
7.828,-0.0135
7.832,-0.07883
7.836,-0.03182
7.84,-0.01732
7.844,0.00111
7.848,-0.04494
7.852,0.03773
7.856,-0.01119
7.86,0.029
7.864,-0.01437
7.868,-0.04214
7.872,-0.05111
7.876,-0.07146
7.88,-0.02097
7.884,-0.02057
7.888,-0.05313
7.892,0.03851
7.896,-0.0098
7.9,-0.02801
7.904,-0.02267
7.908,-0.05754
7.912,-0.0408
7.916,-0.02813
7.92,-0.0067
7.924,-0.01727
7.928,0.01525
7.932,0.03953
7.936,-0.02247
7.94,0.0242
7.944,-0.00019
7.948,0.04516
7.952,-0.03419
7.956,0.03949
7.96,-0.00855
7.964,0.04279
7.968,0.04806
7.972,0.0064
7.976,0.04721
7.98,0.07429
7.984,0.12494
7.988,0.07816
7.992,0.15356
7.996,0.21616
8.0,0.0944
8.004,0.21144
8.008,0.19077
8.012,0.18927
8.016,0.22752
8.02,0.19698
8.024,0.25393
8.028,0.26176
8.032,0.33207
8.036,0.31201
8.04,0.31999
8.044,0.26404
8.048,0.29894
8.052,0.24313
8.056,0.15625
8.06,0.17762
8.064,0.25508
8.068,0.20115
8.072,0.11725
8.076,0.14462
8.08,0.05461
8.084,0.01833
8.088,0.09246
8.092,0.09854
8.096,0.09849
8.1,0.04656
8.104,0.00208
8.108,-0.06336
8.112,-0.03818
8.116,0.09097
8.12,0.03298
8.124,-0.02825
8.128,-0.01016
8.132,-0.01875
8.136,0.03877
8.14,-0.00994
8.144,-0.0539
8.148,-0.02154
8.152,0.03048
8.156,-0.00121
8.16,-0.06544
8.164,-0.11216
8.168,-0.14033
8.172,-0.14389
8.176,-0.08964
8.18,0.03077
8.184,0.23
8.188,0.41552
8.192,0.66295
8.196,0.89211
8.2,0.89244
8.204,0.97153
8.208,0.82981
8.212,0.7166
8.216,0.48868
8.22,0.18469
8.224,0.08477
8.228,-0.11481
8.232,-0.14131
8.236,-0.18731
8.24,-0.07303
8.244,-0.1645
8.248,-0.13171
8.252,0.0464
8.256,-0.04653
8.26,-0.02597
8.264,-0.08639
8.268,-0.10461
8.272,0.01453
8.276,-0.03881
8.28,-0.04402
8.284,-0.01461
8.288,-0.00387
8.292,-0.04687
8.296,-0.00893
8.3,-0.07334
8.304,-0.05596
8.308,-0.03486
8.312,-0.02973
8.316,-0.0017
8.32,-0.08579
8.324,-0.08112
8.328,-0.0376
8.332,-0.02797
8.336,-0.02639
8.34,-0.06138
8.344,-0.03706
8.348,0.01823
8.352,-0.01297
8.356,0.06011
8.36,-0.00758
8.364,-1e-05
8.368,-0.05129
8.372,0.05401
8.376,0.01872
8.38,0.02764
8.384,-0.0184
8.388,-0.03093
8.392,-0.00732
8.396,0.06351
8.4,0.0333
8.404,-0.01526
8.408,0.03543
8.412,0.00994
8.416,0.08709
8.42,-0.00305
8.424,0.08877
8.428,0.02449
8.432,0.07928
8.436,0.1178
8.44,0.06895
8.444,0.0776
8.448,0.08632
8.452,0.03799
8.456,0.21172
8.46,0.18285
8.464,0.16904
8.468,0.10955
8.472,0.17096
8.476,0.23127
8.48,0.24474
8.484,0.25145
8.488,0.23445
8.492,0.23868
8.496,0.21583
8.5,0.16744
8.504,0.10868
8.508,0.1662
8.512,0.1576
8.516,0.11514
8.52,0.10151
8.524,0.12573
8.528,0.08715
8.532,0.02173
8.536,0.06234
8.54,0.07334
8.544,0.11028
8.548,0.03954
8.552,0.05358
8.556,0.05139
8.56,0.04967
8.564,0.05021
8.568,0.05944
8.572,0.0586
8.576,0.04347
8.58,-0.06036
8.584,-0.03045
8.588,-0.05473
8.592,0.01539
8.596,-0.04124
8.6,0.01886
8.604,0.00626
8.608,-0.03751
8.612,-0.03736
8.616,-0.00822
8.62,-0.00938
8.624,-0.03081
8.628,-0.01046
8.632,0.02176
8.636,0.00537
8.64,-0.02285
8.644,-0.02221
8.648,-0.02773
8.652,-0.01711
8.656,0.03946
8.66,0.06439
8.664,0.09699
8.668,-0.00059
8.672,0.11898
8.676,0.06557
8.68,0.08799
8.684,0.04455
8.688,0.10034
8.692,0.11111
8.696,0.03124
8.7,0.10737
8.704,0.08254
8.708,0.00886
8.712,0.03435
8.716,0.02073
8.72,-0.00159
8.724,-0.0006
8.728,-0.06346
8.732,0.0013
8.736,-0.03637
8.74,-0.0291
8.744,-0.06431
8.748,-0.0063
8.752,-0.01223
8.756,-0.06413
8.76,-0.01141
8.764,-0.07348
8.768,-0.01393
8.772,0.00833
8.776,-0.08368
8.78,0.01668
8.784,-0.03203
8.788,0.01346
8.792,-0.04349
8.796,-0.06916
8.8,-0.08402
8.804,-0.12826
8.808,-0.13859
8.812,-0.09078
8.816,0.13295
8.82,0.25662
8.824,0.43715
8.828,0.66294
8.832,0.80895
8.836,0.95192
8.84,0.94874
8.844,0.82403
8.848,0.659
8.852,0.49899
8.856,0.2172
8.86,0.00676
8.864,-0.09148
8.868,-0.22305
8.872,-0.17054
8.876,-0.16275
8.88,-0.063
8.884,-0.13016
8.888,-0.06581
8.892,-0.01654
8.896,-0.04101
8.9,0.00612
8.904,-0.02408
8.908,-0.04446
8.912,0.00529
8.916,0.0003
8.92,0.01318
8.924,-0.0239
8.928,0.00789
8.932,-0.01415
8.936,-0.02237
8.94,0.07077
8.944,-0.03501
8.948,-0.03175
8.952,-0.03464
8.956,-0.00573
8.96,-0.00834
8.964,0.00616
8.968,-0.0107
8.972,-0.01822
8.976,0.01547
8.98,-0.01899
8.984,-0.00881
8.988,-0.05992
8.992,0.02161
8.996,0.00601
9.0,-0.003
9.004,-0.05513
9.008,-0.08654
9.012,-0.01851
9.016,0.02043
9.02,-0.01367
9.024,-0.02707
9.028,0.02247
9.032,0.04312
9.036,0.11054
9.04,0.03246
9.044,-0.00056
9.048,0.02442
9.052,0.0008
9.056,0.08661
9.06,0.06313
9.064,0.08068
9.068,0.09019
9.072,0.11963
9.076,0.06363
9.08,0.14461
9.084,0.15968
9.088,0.157
9.092,0.16946
9.096,0.13449
9.1,0.15322
9.104,0.19366
9.108,0.25279
9.112,0.15959
9.116,0.20473
9.12,0.22033
9.124,0.17524
9.128,0.21831
9.132,0.17915
9.136,0.15037
9.14,0.14353
9.144,0.18004
9.148,0.18808
9.152,0.13057
9.156,0.18344
9.16,0.15206
9.164,0.20664
9.168,0.08563
9.172,0.14081
9.176,0.07575
9.18,0.08006
9.184,0.09228
9.188,0.12219
9.192,0.10516
9.196,0.17246
9.2,0.14848
9.204,0.09689
9.208,0.09483
9.212,0.07149
9.216,0.12601
9.22,0.1066
9.224,0.06754
9.228,0.07699
9.232,0.09784
9.236,0.07061
9.24,0.03422
9.244,0.05104
9.248,0.0056
9.252,-0.01097
9.256,0.02116
9.26,-0.015
9.264,-0.09804
9.268,-0.03485
9.272,-0.04769
9.276,-0.00228
9.28,0.02025
9.284,-0.0019
9.288,-0.0028
9.292,0.03228
9.296,-0.0386
9.3,0.0184
9.304,0.03456
9.308,0.04027
9.312,0.04779
9.316,-0.04598
9.32,0.00222
9.324,-0.02344
9.328,-0.08493
9.332,-0.07313
9.336,-0.10786
9.34,-0.12232
9.344,-0.08272
9.348,0.0685
9.352,0.23328
9.356,0.51707
9.36,0.69678
9.364,0.81994
9.368,1.01927
9.372,0.98392
9.376,0.82577
9.38,0.67699
9.384,0.47045
9.388,0.2348
9.392,0.0485
9.396,-0.102
9.4,-0.17724
9.404,-0.15478
9.408,-0.19359
9.412,-0.08334
9.416,-0.08687
9.42,0.02061
9.424,-0.06969
9.428,0.02529
9.432,0.07737
9.436,0.08993
9.44,-0.01445
9.444,0.03591
9.448,0.11476
9.452,0.09125
9.456,0.07481
9.46,0.10965
9.464,0.08314
9.468,0.04439
9.472,0.07064
9.476,0.07524
9.48,0.06945
9.484,0.02681
9.488,0.02532
9.492,0.05196
9.496,-0.00844
9.5,0.04523
9.504,0.01058
9.508,-0.02521
9.512,-0.00547
9.516,0.00313
9.52,0.03167
9.524,0.02766
9.528,-0.02977
9.532,0.00755
9.536,0.04625
9.54,-0.04335
9.544,0.05262
9.548,0.02151
9.552,0.03719
9.556,0.03278
9.56,0.01691
9.564,0.02632
9.568,0.08224
9.572,0.06657
9.576,0.05052
9.58,0.00459
9.584,-0.02334
9.588,-0.00878
9.592,0.03134
9.596,0.17203
9.6,0.34087
9.604,0.52643
9.608,0.74399
9.612,0.93008
9.616,1.13361
9.62,1.13108
9.624,1.12508
9.628,1.0139
9.632,0.81103
9.636,0.61956
9.64,0.344
9.644,0.17966
9.648,0.05128
9.652,0.01919
9.656,0.12631
9.66,0.13925
9.664,0.15299
9.668,0.18549
9.672,0.16471
9.676,0.20097
9.68,0.19242
9.684,0.17076
9.688,0.14944
9.692,0.12285
9.696,0.08985
9.7,0.06678
9.704,0.04996
9.708,0.13393
9.712,0.03942
9.716,0.05633
9.72,0.05625
9.724,0.05832
9.728,0.0087
9.732,0.05453
9.736,0.03787
9.74,0.06761
9.744,0.00537
9.748,0.0118
9.752,0.00854
9.756,0.02884
9.76,0.05364
9.764,0.00234
9.768,0.03615
9.772,-0.04682
9.776,-0.00702
9.78,0.08692
9.784,-0.0243
9.788,0.01191
9.792,-0.00679
9.796,0.01802
9.8,-0.01582
9.804,0.01646
9.808,0.09435
9.812,0.02394
9.816,0.05905
9.82,0.04887
9.824,0.02819
9.828,0.06739
9.832,0.15722
9.836,0.1485
9.84,0.10772
9.844,0.15951
9.848,0.13908
9.852,0.1941
9.856,0.14968
9.86,0.11991
9.864,0.21026
9.868,0.21334
9.872,0.21732
9.876,0.22364
9.88,0.18759
9.884,0.26263
9.888,0.2424
9.892,0.27011
9.896,0.27555
9.9,0.25594
9.904,0.25342
9.908,0.2874
9.912,0.22365
9.916,0.23688
9.92,0.20428
9.924,0.21073
9.928,0.24877
9.932,0.22465
9.936,0.25123
9.94,0.15494
9.944,0.17174
9.948,0.17619
9.952,0.07246
9.956,0.10168
9.96,0.07703
9.964,0.12323
9.968,0.12999
9.972,0.05279
9.976,0.12357
9.98,0.10067
9.984,0.06131
9.988,0.05958
9.992,-0.03661
9.996,0.05394
