t_seg,ecg_mV
0.0,-0.02568
0.004,-0.02707
0.008,-0.04059
0.012,-0.03323
0.016,-0.03397
0.02,-0.03841
0.024,-0.04196
0.028,-0.05173
0.032,-0.03172
0.036,-0.03552
0.04,-0.01572
0.044,-0.0118
0.048,-0.02576
0.052,-0.04845
0.056,-0.02315
0.06,-0.01564
0.064,-0.0161
0.068,-0.05632
0.072,-0.00919
0.076,-0.01713
0.08,-0.02418
0.084,-0.02046
0.088,-0.00017
0.092,-0.01864
0.096,-0.04086
0.1,-0.00465
0.104,-0.02179
0.108,-0.04153
0.112,-0.04309
0.116,-0.02285
0.12,-0.03436
0.124,-0.03227
0.128,-0.0124
0.132,-0.04171
0.136,-0.03389
0.14,-0.01931
0.144,-0.02921
0.148,-0.03697
0.152,-0.02821
0.156,-0.03096
0.16,0.00239
0.164,-0.02245
0.168,-0.04104
0.172,-0.0456
0.176,-0.04824
0.18,-0.05079
0.184,-0.03137
0.188,-0.01378
0.192,-0.01726
0.196,-0.04849
0.2,-0.01975
0.204,-0.02801
0.208,0.00596
0.212,-0.03715
0.216,-0.0125
0.22,-0.01244
0.224,-0.03012
0.228,-0.00532
0.232,-0.00968
0.236,-0.04268
0.24,-0.02656
0.244,0.00631
0.248,-0.02165
0.252,-0.03879
0.256,-0.0096
0.26,-0.03401
0.264,-0.03137
0.268,-0.04213
0.272,-0.03285
0.276,-0.05264
0.28,-0.01994
0.284,-0.03162
0.288,-0.01584
0.292,-0.02818
0.296,-0.03039
0.3,-0.04317
0.304,-0.04139
0.308,-0.00113
0.312,-0.0098
0.316,-0.01249
0.32,-0.02258
0.324,-0.00287
0.328,-0.03618
0.332,-0.00803
0.336,-0.02776
0.34,-0.04093
0.344,-0.02476
0.348,-0.03419
0.352,-0.02776
0.356,-0.03521
0.36,0.00031
0.364,-0.04013
0.368,-0.04075
0.372,-0.00169
0.376,-0.00278
0.38,-0.03064
0.384,-0.01714
0.388,-0.00934
0.392,-0.00639
0.396,-0.03536
0.4,-0.03674
0.404,-0.02579
0.408,-0.02199
0.412,-0.02798
0.416,-0.03098
0.42,-0.02596
0.424,-0.02199
0.428,-0.00586
0.432,-0.01402
0.436,-0.01208
0.44,-0.0113
0.444,-0.00878
0.448,0.01648
0.452,-0.00036
0.456,-0.00467
0.46,0.01802
0.464,0.0193
0.468,0.03649
0.472,0.0629
0.476,0.06838
0.48,0.0859
0.484,0.06287
0.488,0.07149
0.492,0.07323
0.496,0.08415
0.5,0.04038
0.504,0.03858
0.508,0.01529
0.512,0.03669
0.516,-0.00036
0.52,0.01427
0.524,0.01759
0.528,0.01913
0.532,-0.02431
0.536,-0.02416
0.54,-0.02663
0.544,0.01001
0.548,-0.0208
0.552,-0.01614
0.556,-0.03239
0.56,-0.04107
0.564,-0.01669
0.568,0.01067
0.572,-0.01519
0.576,-0.02476
0.58,-0.02268
0.584,-0.04636
0.588,-0.02923
0.592,0.00238
0.596,-0.0216
0.6,-0.0232
0.604,-0.09388
0.608,-0.11759
0.612,-0.17352
0.616,-0.12512
0.62,-0.05753
0.624,0.07544
0.628,0.28177
0.632,0.48005
0.636,0.69926
0.64,0.88387
0.644,0.95362
0.648,0.95112
0.652,0.84964
0.656,0.64833
0.66,0.43488
0.664,0.17021
0.668,0.02989
0.672,-0.13662
0.676,-0.15504
0.68,-0.20164
0.684,-0.19243
0.688,-0.10418
0.692,-0.07856
0.696,-0.05079
0.7,-0.02584
0.704,-0.03338
0.708,-0.05179
0.712,-0.01437
0.716,-0.01919
0.72,-0.02022
0.724,-0.00558
0.728,-0.01131
0.732,-0.04646
0.736,-0.01861
0.74,0.00017
0.744,-0.03089
0.748,-0.02535
0.752,-0.00238
0.756,-0.0228
0.76,-0.03505
0.764,-0.01184
0.768,-0.03762
0.772,-0.0014
0.776,-0.00959
0.78,-0.01483
0.784,-0.02276
0.788,-0.03108
0.792,-0.00652
0.796,-0.03035
0.8,0.00063
0.804,-0.01187
0.808,0.01014
0.812,-0.02757
0.816,0.00103
0.82,-0.01874
0.824,-0.01063
0.828,-0.01133
0.832,-0.01538
0.836,0.01587
0.84,0.03521
0.844,0.01766
0.848,0.02003
0.852,0.0186
0.856,0.05247
0.86,0.08359
0.864,0.06753
0.868,0.09082
0.872,0.11076
0.876,0.12257
0.88,0.09637
0.884,0.10228
0.888,0.12183
0.892,0.14323
0.896,0.15695
0.9,0.15921
0.904,0.16362
0.908,0.17154
0.912,0.18469
0.916,0.18737
0.92,0.19293
0.924,0.18973
0.928,0.21592
0.932,0.19821
0.936,0.16932
0.94,0.22264
0.944,0.16403
0.948,0.1958
0.952,0.18669
0.956,0.16759
0.96,0.10835
0.964,0.15893
0.968,0.13693
0.972,0.12366
0.976,0.10115
0.98,0.08614
0.984,0.07576
0.988,0.0779
0.992,0.04172
0.996,0.02555
1.0,0.0565
1.004,0.04356
1.008,0.0222
1.012,0.01879
1.016,0.03236
1.02,0.02388
1.024,0.02457
1.028,-0.01672
1.032,0.00429
1.036,-0.01053
1.04,0.01498
1.044,0.00092
1.048,0.00186
1.052,0.01551
1.056,-0.01307
1.06,-0.00286
1.064,-0.04438
1.068,-0.00434
1.072,-0.0116
1.076,-0.02416
1.08,0.00437
1.084,-0.04335
1.088,-0.00842
1.092,-0.02633
1.096,-0.02021
1.1,-0.00539
1.104,-0.02454
1.108,-0.00847
1.112,-0.02255
1.116,0.00664
1.12,-0.01844
1.124,-0.00925
1.128,-0.00897
1.132,-0.0467
1.136,-0.01922
1.14,-0.01828
1.144,-0.00686
1.148,0.01403
1.152,-0.01425
1.156,0.00057
1.16,-0.01225
1.164,-0.02042
1.168,-0.03784
1.172,0.01952
1.176,0.00095
1.18,-0.04018
1.184,-0.00162
1.188,-0.03628
1.192,0.0019
1.196,-0.00628
1.2,0.00282
1.204,-0.00359
1.208,-0.03187
1.212,-0.03162
1.216,-0.02127
1.22,0.00468
1.224,0.00673
1.228,-0.02477
1.232,-0.02939
1.236,-0.00764
1.24,-0.00896
1.244,-0.0145
1.248,-0.00898
1.252,-0.00797
1.256,-0.00599
1.26,-0.01082
1.264,-0.02304
1.268,-0.03611
1.272,0.02921
1.276,-5e-05
1.28,-0.01692
1.284,-0.02014
1.288,-0.02514
1.292,-0.00545
1.296,-0.0013
1.3,-0.00416
1.304,-0.01961
1.308,0.00405
1.312,0.04214
1.316,0.01133
1.32,-0.00064
1.324,0.02967
1.328,0.01208
1.332,0.07645
1.336,0.07011
1.34,0.07679
1.344,0.09647
1.348,0.06914
1.352,0.13472
1.356,0.09562
1.36,0.09608
1.364,0.08133
1.368,0.09052
1.372,0.07403
1.376,0.05568
1.38,0.04921
1.384,0.05101
1.388,0.03299
1.392,0.01552
1.396,0.01189
1.4,-0.00308
1.404,-0.00032
1.408,-0.00248
1.412,-0.01243
1.416,0.02297
1.42,-0.01086
1.424,-0.02317
1.428,-0.00861
1.432,0.00056
1.436,0.01392
1.44,-0.00877
1.444,-0.00844
1.448,-0.02118
1.452,-0.01078
1.456,-0.00348
1.46,-0.01844
1.464,0.01022
1.468,-0.02889
1.472,-0.00491
1.476,-0.09594
1.48,-0.10623
1.484,-0.12267
1.488,-0.07438
1.492,0.06594
1.496,0.25831
1.5,0.44868
1.504,0.67664
1.508,0.86986
1.512,0.95999
1.516,1.01021
1.52,0.88162
1.524,0.72983
1.528,0.47419
1.532,0.24236
1.536,0.03239
1.54,-0.09016
1.544,-0.16721
1.548,-0.15641
1.552,-0.13698
1.556,-0.08243
1.56,-0.05943
1.564,-0.03618
1.568,0.00371
1.572,-0.03278
1.576,0.00226
1.58,0.01033
1.584,0.0143
1.588,0.00547
1.592,-0.00586
1.596,-0.02374
1.6,0.00166
1.604,0.0074
1.608,-0.01285
1.612,-0.00538
1.616,-0.02353
1.62,0.01219
1.624,0.01944
1.628,0.01378
1.632,0.01693
1.636,-0.01263
1.64,0.01647
1.644,0.0191
1.648,0.01673
1.652,0.00391
1.656,0.03636
1.66,0.02756
1.664,-0.0062
1.668,0.01784
1.672,0.03097
1.676,0.02104
1.68,0.02206
1.684,0.02274
1.688,0.00265
1.692,0.03095
1.696,0.03194
1.7,0.00394
1.704,0.04342
1.708,0.01617
1.712,0.03087
1.716,0.06386
1.72,0.03005
1.724,0.07778
1.728,0.10829
1.732,0.1122
1.736,0.10275
1.74,0.10742
1.744,0.13315
1.748,0.14327
1.752,0.14652
1.756,0.14797
1.76,0.15393
1.764,0.17723
1.768,0.20521
1.772,0.21293
1.776,0.21923
1.78,0.21225
1.784,0.23794
1.788,0.24007
1.792,0.20686
1.796,0.20429
1.8,0.21361
1.804,0.19194
1.808,0.21139
1.812,0.18705
1.816,0.19244
1.82,0.20228
1.824,0.1815
1.828,0.18956
1.832,0.18663
1.836,0.14818
1.84,0.14538
1.844,0.11669
1.848,0.12052
1.852,0.13023
1.856,0.09175
1.86,0.10002
1.864,0.06498
1.868,0.09209
1.872,0.09086
1.876,0.04053
1.88,0.06316
1.884,0.03725
1.888,0.03972
1.892,0.0262
1.896,0.01276
1.9,0.02303
1.904,0.00849
1.908,0.02853
1.912,0.03895
1.916,0.0218
1.92,0.01636
1.924,0.01637
1.928,0.01731
1.932,0.02658
1.936,0.01116
1.94,0.01266
1.944,0.01891
1.948,0.03784
1.952,0.01703
1.956,0.01675
1.96,-0.00677
1.964,0.00407
1.968,0.02213
1.972,0.01805
1.976,0.01515
1.98,0.01716
1.984,0.0134
1.988,0.01838
1.992,0.02099
1.996,0.03308
2.0,0.02827
2.004,0.03145
2.008,0.00189
2.012,0.00393
2.016,0.02437
2.02,0.02208
2.024,-0.0013
2.028,-0.00107
2.032,0.01233
2.036,0.04213
2.04,-0.00011
2.044,0.00371
2.048,0.01717
2.052,0.0204
2.056,0.02986
2.06,0.02042
2.064,0.03678
2.068,-0.00867
2.072,-0.00087
2.076,0.01982
2.08,-0.0056
2.084,0.02833
2.088,0.02242
2.092,-0.00983
2.096,-0.00374
2.1,0.03231
2.104,0.00774
2.108,0.02664
2.112,-0.01702
2.116,0.01238
2.12,0.0095
2.124,0.02946
2.128,0.0093
2.132,0.01258
2.136,0.01204
2.14,0.02427
2.144,0.04376
2.148,0.00625
2.152,0.032
2.156,0.01747
2.16,0.02692
2.164,0.01135
2.168,-0.003
2.172,0.04793
2.176,0.06507
2.18,0.01135
2.184,0.06694
2.188,0.04022
2.192,0.05355
2.196,0.09218
2.2,0.08266
2.204,0.11112
2.208,0.11611
2.212,0.12007
2.216,0.12346
2.22,0.12389
2.224,0.12492
2.228,0.07713
2.232,0.09202
2.236,0.11317
2.24,0.06054
2.244,0.04344
2.248,0.06121
2.252,0.04254
2.256,0.03372
2.26,0.0319
2.264,0.01735
2.268,0.04581
2.272,0.04238
2.276,0.02421
2.28,0.01842
2.284,0.01963
2.288,0.04306
2.292,0.04939
2.296,0.0043
2.3,0.01694
2.304,0.00412
2.308,0.02906
2.312,0.00989
2.316,-0.00591
2.32,0.03038
2.324,0.03755
2.328,0.00258
2.332,-0.02533
2.336,-0.05289
2.34,-0.06394
2.344,-0.08085
2.348,-0.05196
2.352,0.0451
2.356,0.19297
2.36,0.41681
2.364,0.63091
2.368,0.84719
2.372,0.98355
2.376,1.01738
2.38,0.94974
2.384,0.77943
2.388,0.56015
2.392,0.31093
2.396,0.13056
2.4,-0.02217
2.404,-0.1179
2.408,-0.13752
2.412,-0.11587
2.416,-0.08948
2.42,-0.05102
2.424,-0.02033
2.428,0.01484
2.432,-0.02067
2.436,0.01452
2.44,0.02251
2.444,0.0392
2.448,-0.00084
2.452,0.02882
2.456,0.0205
2.46,0.01181
2.464,0.02455
2.468,0.02707
2.472,0.02355
2.476,0.04431
2.48,0.02931
2.484,0.04783
2.488,-0.0046
2.492,0.00593
2.496,-0.00077
2.5,0.01364
2.504,0.0222
2.508,0.02512
2.512,0.02546
2.516,0.04176
2.52,0.02962
2.524,0.01851
2.528,0.04482
2.532,0.0208
2.536,0.03609
2.54,0.01104
2.544,0.02429
2.548,0.05374
2.552,0.02987
2.556,0.04606
2.56,0.05188
2.564,0.06247
2.568,0.05683
2.572,0.07219
2.576,0.07506
2.58,0.06142
2.584,0.0968
2.588,0.10401
2.592,0.11596
2.596,0.1051
2.6,0.13159
2.604,0.11408
2.608,0.17377
2.612,0.1633
2.616,0.20505
2.62,0.1884
2.624,0.18792
2.628,0.21789
2.632,0.21358
2.636,0.23449
2.64,0.23355
2.644,0.24897
2.648,0.25396
2.652,0.24594
2.656,0.24362
2.66,0.26107
2.664,0.24619
2.668,0.25627
2.672,0.22967
2.676,0.22
2.68,0.19389
2.684,0.22511
2.688,0.23023
2.692,0.17312
2.696,0.19907
2.7,0.16459
2.704,0.1346
2.708,0.13887
2.712,0.11422
2.716,0.09365
2.72,0.12133
2.724,0.11926
2.728,0.08449
2.732,0.08081
2.736,0.04344
2.74,0.09115
2.744,0.04803
2.748,0.02979
2.752,0.064
2.756,0.03582
2.76,0.01917
2.764,0.03356
2.768,0.03163
2.772,0.05129
2.776,0.04341
2.78,0.05415
2.784,0.01447
2.788,-8e-05
2.792,0.02046
2.796,0.01767
2.8,0.04705
2.804,0.04154
2.808,0.02082
2.812,-0.00071
2.816,0.01209
2.82,0.01954
2.824,0.03158
2.828,0.02684
2.832,0.02678
2.836,0.02708
2.84,0.04754
2.844,0.02049
2.848,0.01619
2.852,0.03913
2.856,0.03064
2.86,0.01633
2.864,0.03904
2.868,0.02182
2.872,0.00916
2.876,0.02849
2.88,0.04528
2.884,0.02862
2.888,0.04995
2.892,0.03928
2.896,0.01752
2.9,0.04276
2.904,0.01291
2.908,0.05438
2.912,0.04612
2.916,0.03435
2.92,0.02101
2.924,0.03141
2.928,0.03447
2.932,0.0186
2.936,0.0203
2.94,0.04221
2.944,0.01412
2.948,0.03519
2.952,0.037
2.956,0.00866
2.96,0.03119
2.964,0.02223
2.968,0.02716
2.972,0.03689
2.976,0.00818
2.98,0.01588
2.984,0.01499
2.988,0.02246
2.992,0.02776
2.996,0.0303
3.0,0.03045
3.004,0.0307
3.008,0.05127
3.012,0.05659
3.016,0.04991
3.02,0.05107
3.024,0.02261
3.028,0.04875
3.032,0.02621
3.036,0.0628
3.04,0.0222
3.044,0.03478
3.048,0.05471
3.052,0.02237
3.056,0.05419
3.06,0.0314
3.064,0.02506
3.068,0.07471
3.072,0.0759
3.076,0.08243
3.08,0.09486
3.084,0.09016
3.088,0.09552
3.092,0.1172
3.096,0.10244
3.1,0.12846
3.104,0.11201
3.108,0.12614
3.112,0.10563
3.116,0.08026
3.12,0.06745
3.124,0.06632
3.128,0.07757
3.132,0.0622
3.136,0.03319
3.14,0.05543
3.144,0.0775
3.148,0.03994
3.152,0.02582
3.156,0.02345
3.16,0.03404
3.164,0.04322
3.168,0.0568
3.172,0.00963
3.176,0.02849
3.18,0.03749
3.184,0.04751
3.188,0.00869
3.192,0.03746
3.196,0.03096
3.2,0.03927
3.204,0.01697
3.208,0.04784
3.212,0.02816
3.216,0.01228
3.22,-0.01177
3.224,-0.08565
3.228,-0.10109
3.232,-0.0744
3.236,0.01121
3.24,0.17717
3.244,0.34029
3.248,0.53357
3.252,0.73853
3.256,0.9489
3.26,1.01575
3.264,1.01634
3.268,0.86423
3.272,0.68109
3.276,0.46622
3.28,0.21124
3.284,0.03846
3.288,-0.06075
3.292,-0.14516
3.296,-0.13954
3.3,-0.11177
3.304,-0.0406
3.308,-0.00119
3.312,0.01844
3.316,0.00832
3.32,0.04567
3.324,0.01051
3.328,0.04232
3.332,0.03838
3.336,0.0435
3.34,0.0542
3.344,0.04274
3.348,0.00763
3.352,0.02116
3.356,0.03677
3.36,0.0173
3.364,0.02216
3.368,0.03793
3.372,-0.00087
3.376,0.02522
3.38,0.02704
3.384,0.01654
3.388,0.01093
3.392,0.03331
3.396,0.03502
3.4,0.03383
3.404,0.05678
3.408,0.03241
3.412,0.05226
3.416,0.02508
3.42,0.02744
3.424,0.02958
3.428,0.04194
3.432,0.0555
3.436,0.04708
3.44,0.07191
3.444,0.05142
3.448,0.07325
3.452,0.04751
3.456,0.07169
3.46,0.08571
3.464,0.06905
3.468,0.09246
3.472,0.09195
3.476,0.09147
3.48,0.10682
3.484,0.11255
3.488,0.13325
3.492,0.14909
3.496,0.16998
3.5,0.16455
3.504,0.19121
3.508,0.21534
3.512,0.18799
3.516,0.20653
3.52,0.22585
3.524,0.25922
3.528,0.23809
3.532,0.23998
3.536,0.25624
3.54,0.2246
3.544,0.25314
3.548,0.23688
3.552,0.25074
3.556,0.24124
3.56,0.19353
3.564,0.19545
3.568,0.23546
3.572,0.21438
3.576,0.18213
3.58,0.17808
3.584,0.14375
3.588,0.18977
3.592,0.14459
3.596,0.15199
3.6,0.11964
3.604,0.11986
3.608,0.11104
3.612,0.09894
3.616,0.05756
3.62,0.04902
3.624,0.06045
3.628,0.06998
3.632,0.04199
3.636,0.07063
3.64,0.05926
3.644,0.04529
3.648,0.01966
3.652,0.04063
3.656,0.0432
3.66,0.04317
3.664,0.02313
3.668,0.04655
3.672,0.01896
3.676,-0.00506
3.68,0.03867
3.684,0.01841
3.688,0.04069
3.692,0.00882
3.696,0.0198
3.7,0.02039
3.704,0.03631
3.708,0.04785
3.712,0.03298
3.716,0.04005
3.72,0.03476
3.724,0.04849
3.728,0.01782
3.732,0.0371
3.736,0.02937
3.74,0.00768
3.744,0.01499
3.748,0.01436
3.752,0.04334
3.756,0.01921
3.76,0.03916
3.764,0.02781
3.768,0.01178
3.772,0.00335
3.776,0.02809
3.78,0.04385
3.784,0.02608
3.788,0.03764
3.792,0.02825
3.796,0.02517
3.8,0.01132
3.804,0.02651
3.808,0.05315
3.812,0.02859
3.816,0.02794
3.82,0.02479
3.824,0.02518
3.828,0.00782
3.832,-0.00697
3.836,0.0024
3.84,0.0377
3.844,0.04414
3.848,0.00078
3.852,0.00216
3.856,0.0158
3.86,0.0331
3.864,0.005
3.868,0.00974
3.872,0.03436
3.876,0.01683
3.88,0.02405
3.884,0.03394
3.888,0.03043
3.892,0.0141
3.896,0.01583
3.9,0.00586
3.904,0.01443
3.908,0.00878
3.912,0.01662
3.916,0.01662
3.92,0.02519
3.924,0.03646
3.928,0.03036
3.932,0.022
3.936,-0.00229
3.94,-0.001
3.944,0.00669
3.948,0.0184
3.952,0.03084
3.956,0.04448
3.96,-0.01084
3.964,0.02621
3.968,0.03313
3.972,0.03309
3.976,0.01726
3.98,0.03984
3.984,0.01931
3.988,-0.00186
3.992,0.01683
3.996,-0.0008
4.0,0.03228
4.004,0.03358
4.008,0.01783
4.012,0.00739
4.016,0.00782
4.02,0.00934
4.024,0.02825
4.028,0.01882
4.032,0.00859
4.036,0.02855
4.04,0.02688
4.044,0.01726
4.048,0.01135
4.052,-0.01372
4.056,-0.00947
4.06,0.0106
4.064,0.01482
4.068,0.02365
4.072,0.01687
4.076,0.01081
4.08,0.02339
4.084,0.02495
4.088,0.03924
4.092,0.01947
4.096,0.01353
4.1,0.0057
4.104,0.0117
4.108,0.01684
4.112,0.00795
4.116,0.00783
4.12,0.00213
4.124,0.00301
4.128,0.00698
4.132,0.00439
4.136,0.00896
4.14,0.0282
4.144,0.00504
4.148,0.02021
4.152,0.04251
4.156,0.01295
4.16,-0.00697
4.164,0.01592
4.168,0.01934
4.172,0.02259
4.176,0.01354
4.18,0.02658
4.184,-0.00203
4.188,0.03446
4.192,0.01854
4.196,-0.00313
4.2,0.02154
4.204,0.03415
4.208,0.01685
4.212,0.05922
4.216,0.01468
4.22,0.02938
4.224,0.00147
4.228,0.01038
4.232,0.05911
4.236,0.02756
4.24,0.05507
4.244,0.00367
4.248,0.02269
4.252,0.05706
4.256,0.06562
4.26,0.09972
4.264,0.09644
4.268,0.09824
4.272,0.11193
4.276,0.09045
4.28,0.15412
4.284,0.10525
4.288,0.07753
4.292,0.10359
4.296,0.07572
4.3,0.05393
4.304,0.04405
4.308,0.02052
4.312,0.02999
4.316,0.02608
4.32,0.04008
4.324,0.01467
4.328,0.03036
4.332,0.01763
4.336,-0.01108
4.34,0.02468
4.344,0.00902
4.348,0.01945
4.352,0.03618
4.356,-0.00385
4.36,-0.01058
4.364,0.00962
4.368,0.02196
4.372,0.01778
4.376,0.00657
4.38,0.00701
4.384,0.0266
4.388,-0.014
4.392,-0.00552
4.396,-0.04183
4.4,-0.08066
4.404,-0.07189
4.408,-0.08092
4.412,-0.03169
4.416,0.12003
4.42,0.32172
4.424,0.52673
4.428,0.72029
4.432,0.90259
4.436,0.99414
4.44,0.97895
4.444,0.84497
4.448,0.68377
4.452,0.45434
4.456,0.23484
4.46,0.03182
4.464,-0.09052
4.468,-0.13914
4.472,-0.13061
4.476,-0.13938
4.48,-0.07522
4.484,-0.04318
4.488,-0.01907
4.492,-0.00372
4.496,0.01461
4.5,-0.01124
4.504,0.01066
4.508,0.00702
4.512,0.01701
4.516,0.00759
4.52,0.00887
4.524,0.01131
4.528,0.03477
4.532,0.02259
4.536,0.00042
4.54,-0.02019
4.544,-0.01392
4.548,0.00507
4.552,0.00717
4.556,0.00578
4.56,0.0131
4.564,0.02696
4.568,0.03985
4.572,-0.01044
4.576,0.00977
4.58,0.02518
4.584,0.02579
4.588,0.00262
4.592,-0.00436
4.596,0.02279
4.6,0.00024
4.604,0.04321
4.608,0.03343
4.612,0.00092
4.616,0.01422
4.62,0.01939
4.624,0.04305
4.628,0.04599
4.632,0.05109
4.636,0.04737
4.64,0.04246
4.644,0.04461
4.648,0.07678
4.652,0.05831
4.656,0.08656
4.66,0.11331
4.664,0.11367
4.668,0.09599
4.672,0.13346
4.676,0.13046
4.68,0.16876
4.684,0.18562
4.688,0.17829
4.692,0.18447
4.696,0.2233
4.7,0.20813
4.704,0.23453
4.708,0.227
4.712,0.26543
4.716,0.21703
4.72,0.19384
4.724,0.20327
4.728,0.23189
4.732,0.21422
4.736,0.1956
4.74,0.18118
4.744,0.18456
4.748,0.18826
4.752,0.1826
4.756,0.16336
4.76,0.14126
4.764,0.11693
4.768,0.10955
4.772,0.12199
4.776,0.1031
4.78,0.07583
4.784,0.06423
4.788,0.07814
4.792,0.05304
4.796,0.04778
4.8,0.04126
4.804,0.0403
4.808,0.00791
4.812,0.02779
4.816,0.03573
4.82,0.02757
4.824,0.01511
4.828,0.01234
4.832,0.00158
4.836,0.0134
4.84,0.01624
4.844,0.00782
4.848,-0.02416
4.852,-0.0134
4.856,0.01288
4.86,0.01429
4.864,-0.00572
4.868,0.0033
4.872,-0.05642
4.876,-0.01143
4.88,-0.02359
4.884,-0.02169
4.888,0.00175
4.892,0.01969
4.896,0.00061
4.9,0.00669
4.904,0.00079
4.908,0.0035
4.912,-0.01091
4.916,0.01004
4.92,0.02842
4.924,0.00987
4.928,-0.0422
4.932,0.00118
4.936,-0.01
4.94,0.01545
4.944,-0.0052
4.948,0.00632
4.952,0.00152
4.956,0.00652
4.96,-0.01872
4.964,-0.00763
4.968,-0.01315
4.972,0.00338
4.976,0.00701
4.98,0.02656
4.984,0.01107
4.988,-0.008
4.992,-0.0079
4.996,0.01379
5.0,0.00716
5.004,-0.03027
5.008,-0.00627
5.012,-0.01757
5.016,-0.01018
5.02,-0.01837
5.024,-0.00501
5.028,-0.0101
5.032,0.00192
5.036,-0.00876
5.04,0.00328
5.044,0.01775
5.048,0.0105
5.052,0.03568
5.056,0.02195
5.06,0.04399
5.064,0.01887
5.068,0.05145
5.072,0.07826
5.076,0.07425
5.08,0.10224
5.084,0.08893
5.088,0.085
5.092,0.11842
5.096,0.04404
5.1,0.0745
5.104,0.08456
5.108,0.08128
5.112,0.03363
5.116,0.01171
5.12,0.0103
5.124,0.00205
5.128,0.00498
5.132,0.01689
5.136,0.0086
5.14,0.01079
5.144,-0.00646
5.148,-0.00819
5.152,-0.01815
5.156,-0.01742
5.16,-0.01522
5.164,-0.01834
5.168,0.00123
5.172,-0.02617
5.176,0.00386
5.18,0.0159
5.184,-0.0006
5.188,-0.0144
5.192,-0.00562
5.196,-0.0398
5.2,-0.00884
5.204,-0.04666
5.208,-0.1106
5.212,-0.13329
5.216,-0.12177
5.22,-0.06847
5.224,0.07798
5.228,0.22107
5.232,0.44692
5.236,0.67834
5.24,0.86273
5.244,0.95784
5.248,0.98206
5.252,0.89596
5.256,0.71698
5.26,0.49728
5.264,0.2442
5.268,0.06747
5.272,-0.08528
5.276,-0.14765
5.28,-0.16273
5.284,-0.18674
5.288,-0.09377
5.292,-0.09111
5.296,-0.04202
5.3,-0.0181
5.304,-0.028
5.308,0.01082
5.312,0.02052
5.316,-0.01218
5.32,-0.00756
5.324,-0.00179
5.328,-0.03855
5.332,0.02215
5.336,0.00222
5.34,-0.01832
5.344,-0.02024
5.348,0.00228
5.352,-0.01395
5.356,-0.00323
5.36,-0.03075
5.364,-0.01198
5.368,-0.0183
5.372,-0.00735
5.376,-0.01493
5.38,-0.01354
5.384,-0.03927
5.388,-0.02718
5.392,-0.0217
5.396,-0.00055
5.4,-0.01672
5.404,-0.03235
5.408,-0.00718
5.412,-0.0427
5.416,-0.01929
5.42,0.01687
5.424,0.01646
5.428,0.01491
5.432,0.00472
5.436,0.00878
5.44,0.05101
5.444,0.0149
5.448,0.0183
5.452,0.02375
5.456,0.05317
5.46,0.08354
5.464,0.06725
5.468,0.08849
5.472,0.10636
5.476,0.10204
5.48,0.11663
5.484,0.11321
5.488,0.14862
5.492,0.13789
5.496,0.16894
5.5,0.16622
5.504,0.17073
5.508,0.1963
5.512,0.1888
5.516,0.20841
5.52,0.18715
5.524,0.19399
5.528,0.20191
5.532,0.2051
5.536,0.21248
5.54,0.18206
5.544,0.18921
5.548,0.15372
5.552,0.16803
5.556,0.16646
5.56,0.12504
5.564,0.12381
5.568,0.11299
5.572,0.11251
5.576,0.09373
5.58,0.08374
5.584,0.10605
5.588,0.05614
5.592,0.06359
5.596,0.04935
5.6,0.02112
5.604,0.00554
5.608,0.02003
5.612,-0.00994
5.616,-0.00784
5.62,0.02042
5.624,0.00169
5.628,-0.01544
5.632,-0.02078
5.636,-0.00185
5.64,0.0332
5.644,-0.00419
5.648,-0.01835
5.652,0.00083
5.656,-0.01693
5.66,-0.03008
5.664,-0.01766
5.668,-0.03562
5.672,-0.00458
5.676,-0.04358
5.68,-0.03919
5.684,-0.01449
5.688,-0.03309
5.692,-0.00529
5.696,0.00635
5.7,-0.02244
5.704,-0.0336
5.708,0.0134
5.712,-0.05519
5.716,-0.03887
5.72,-0.03735
5.724,0.02826
5.728,0.00316
5.732,-0.00371
5.736,-0.01072
5.74,-0.02691
5.744,-0.02066
5.748,-0.01386
5.752,-0.01705
5.756,-0.01413
5.76,-0.01532
5.764,-0.03869
5.768,-0.03071
5.772,-0.03599
5.776,-0.0399
5.78,-0.03052
5.784,-0.00913
5.788,-0.03049
5.792,-0.02095
5.796,-0.02394
5.8,-0.03637
5.804,-0.04132
5.808,0.00202
5.812,-0.00015
5.816,0.01655
5.82,-0.01875
5.824,-0.02384
5.828,-0.0209
5.832,-0.01969
5.836,-0.01556
5.84,-0.02275
5.844,-0.03587
5.848,0.01097
5.852,-0.01348
5.856,-0.03238
5.86,-0.03334
5.864,-0.04798
5.868,-0.0439
5.872,-0.0403
5.876,-0.04035
5.88,-0.0505
5.884,-0.02388
5.888,-0.05086
5.892,-0.00407
5.896,-0.02844
5.9,-0.00819
5.904,-0.01544
5.908,-0.03421
5.912,-0.01338
5.916,-0.0057
5.92,-0.0248
5.924,-0.03411
5.928,-0.00688
5.932,-0.03594
5.936,-0.02185
5.94,-0.0151
5.944,6e-05
5.948,-0.03281
5.952,-0.02308
5.956,-0.00267
5.96,0.01222
5.964,0.00109
5.968,0.00283
5.972,-0.00787
5.976,-0.02571
5.98,-0.03398
5.984,-0.03048
5.988,-0.0225
5.992,-0.00039
5.996,-0.02478
6.0,-0.048
6.004,-0.01191
6.008,-0.05017
6.012,-0.04881
6.016,-0.03465
6.02,-0.01365
6.024,-0.01782
6.028,-0.03874
6.032,-0.00582
6.036,-0.03408
6.04,-0.02843
6.044,-0.01799
6.048,-0.04444
6.052,-0.05426
6.056,-0.00177
6.06,-0.01245
6.064,-0.01275
6.068,-0.0205
6.072,-0.04102
6.076,-0.03889
6.08,-0.0525
6.084,-0.01079
6.088,-0.02712
6.092,-0.02972
6.096,-0.03255
6.1,-0.02198
6.104,-0.03049
6.108,-0.01071
6.112,-0.02647
6.116,-0.03314
6.12,-0.02794
6.124,-0.02118
6.128,0.01027
6.132,0.01966
6.136,-0.0043
6.14,0.03771
6.144,0.03919
6.148,0.05335
6.152,0.07676
6.156,0.06908
6.16,0.06209
6.164,0.10451
6.168,0.07849
6.172,0.04777
6.176,0.04472
6.18,0.03602
6.184,0.02233
6.188,0.01514
6.192,0.02265
6.196,-0.00149
6.2,-0.01856
6.204,-0.02355
6.208,-0.05616
6.212,-0.01071
6.216,-0.02114
6.22,-0.0378
6.224,-0.05329
6.228,-0.03499
6.232,-0.03096
6.236,-0.02677
6.24,-0.03378
6.244,-0.00922
6.248,-0.03776
6.252,-0.0275
6.256,-0.04093
6.26,-0.04263
6.264,-0.02684
6.268,-0.0262
6.272,-0.02374
6.276,-0.04753
6.28,-0.06839
6.284,-0.13265
6.288,-0.15251
6.292,-0.12813
6.296,-0.05484
6.3,0.08009
6.304,0.29639
6.308,0.49775
6.312,0.68801
6.316,0.87895
6.32,0.97328
6.324,0.95195
6.328,0.82265
6.332,0.63671
6.336,0.38249
6.34,0.17138
6.344,-0.01463
6.348,-0.13299
6.352,-0.19166
6.356,-0.19804
6.36,-0.15133
6.364,-0.13209
6.368,-0.10873
6.372,-0.04953
6.376,-0.0416
6.38,-0.02621
6.384,-0.0288
6.388,-0.046
6.392,-0.03743
6.396,-0.04602
6.4,-0.04104
6.404,-0.04168
6.408,-0.02583
6.412,-0.03136
6.416,-0.02614
6.42,-0.02456
6.424,-0.03445
6.428,-0.03086
6.432,-0.01985
6.436,-0.01652
6.44,-0.01836
6.444,-0.02339
6.448,-0.03359
6.452,-0.01478
6.456,-0.0242
6.46,-0.01731
6.464,-0.01339
6.468,-0.04287
6.472,-0.02296
6.476,-0.02794
6.48,-0.03359
6.484,-0.01312
6.488,-0.00284
6.492,-0.02882
6.496,-0.00198
6.5,-0.00666
6.504,-0.00664
6.508,-0.00363
6.512,0.00028
6.516,-0.00221
6.52,0.01037
6.524,0.03032
6.528,0.02785
6.532,0.04139
6.536,0.0439
6.54,0.04674
6.544,0.08571
6.548,0.07778
6.552,0.11437
6.556,0.10903
6.56,0.11595
6.564,0.13756
6.568,0.15502
6.572,0.13035
6.576,0.14858
6.58,0.16302
6.584,0.16783
6.588,0.16795
6.592,0.18088
6.596,0.19789
6.6,0.17946
6.604,0.1874
6.608,0.20423
6.612,0.18102
6.616,0.15334
6.62,0.15177
6.624,0.15965
6.628,0.15387
6.632,0.14915
6.636,0.14692
6.64,0.13718
6.644,0.12587
6.648,0.10465
6.652,0.06733
6.656,0.06862
6.66,0.05676
6.664,0.04789
6.668,0.02741
6.672,0.04697
6.676,0.03706
6.68,0.02767
6.684,0.02567
6.688,0.02178
6.692,-0.0042
6.696,-0.00443
6.7,-0.04026
6.704,-0.01083
6.708,-0.03822
6.712,-0.03253
6.716,-0.01629
6.72,-0.01957
6.724,-0.02535
6.728,0.00421
6.732,-0.01548
6.736,-0.03713
6.74,-0.03444
6.744,-0.02374
6.748,-0.03203
6.752,-0.02474
6.756,-0.03728
6.76,-0.03255
6.764,-0.03156
6.768,-0.05568
6.772,-0.03014
6.776,-0.06247
6.78,-0.02051
6.784,-0.02011
6.788,-0.03474
6.792,-7e-05
6.796,-0.03862
6.8,-0.0277
6.804,-0.01987
6.808,-0.02718
6.812,-0.02202
6.816,-0.03301
6.82,-0.01823
6.824,-0.01384
6.828,-0.00864
6.832,-0.02829
6.836,0.00251
6.84,-0.02812
6.844,-0.03087
6.848,-0.00993
6.852,-0.04301
6.856,-0.06855
6.86,-0.02466
6.864,-0.03541
6.868,-0.0548
6.872,-0.05793
6.876,-0.0452
6.88,-0.02039
6.884,-0.01307
6.888,-0.04508
6.892,-0.02889
6.896,-0.01441
6.9,-0.04833
6.904,-0.02671
6.908,-0.01073
6.912,-0.03792
6.916,-0.03388
6.92,-0.0339
6.924,-0.03477
6.928,-0.03095
6.932,-0.02594
6.936,-0.03044
6.94,-0.02824
6.944,-0.00239
6.948,-0.03924
6.952,-0.03499
6.956,-0.02501
6.96,-0.01677
6.964,-0.04987
6.968,-0.04221
6.972,-0.01437
6.976,-0.00766
6.98,-0.04902
6.984,-0.03816
6.988,-0.02824
6.992,-0.03652
6.996,-0.04254
7.0,-0.0407
7.004,-0.0162
7.008,-0.0184
7.012,-0.02995
7.016,-0.03393
7.02,-0.05158
7.024,-0.03222
7.028,-0.02327
7.032,-0.01993
7.036,-0.03558
7.04,-0.05784
7.044,-0.02118
7.048,-0.03235
7.052,-0.04017
7.056,-0.01406
7.06,-0.01413
7.064,-0.01244
7.068,-0.03477
7.072,-0.01694
7.076,-0.02188
7.08,-0.01808
7.084,-0.03194
7.088,-0.01706
7.092,-0.01698
7.096,-0.00726
7.1,-0.01711
7.104,-0.03435
7.108,-0.03091
7.112,-0.01326
7.116,-0.03978
7.12,-0.04416
7.124,0.04411
7.128,0.0117
7.132,-0.00307
7.136,0.02936
7.14,0.02619
7.144,0.04253
7.148,0.06352
7.152,0.05776
7.156,0.07068
7.16,0.08829
7.164,0.05856
7.168,0.07338
7.172,0.04124
7.176,0.06135
7.18,0.01981
7.184,0.01435
7.188,-0.00275
7.192,0.00456
7.196,0.00103
7.2,0.0013
7.204,-0.02052
7.208,-0.03253
7.212,-0.0459
7.216,-0.0008
7.22,-0.04196
7.224,-0.03202
7.228,-0.03939
7.232,-0.03262
7.236,-0.04255
7.24,-0.0292
7.244,-0.01943
7.248,-0.0289
7.252,-0.01193
7.256,-0.04581
7.26,-0.03198
7.264,-0.01307
7.268,-0.01754
7.272,-0.05782
7.276,-0.05277
7.28,-0.11382
7.284,-0.13162
7.288,-0.13426
7.292,-0.09533
7.296,0.03778
7.3,0.2377
7.304,0.43693
7.308,0.63938
7.312,0.81188
7.316,0.94839
7.32,0.9776
7.324,0.86812
7.328,0.69377
7.332,0.49586
7.336,0.26336
7.34,0.06566
7.344,-0.07237
7.348,-0.17636
7.352,-0.20604
7.356,-0.15299
7.36,-0.12262
7.364,-0.08258
7.368,-0.0268
7.372,-0.03924
7.376,-0.06551
7.38,-0.01652
7.384,-0.01185
7.388,-0.01517
7.392,-0.03707
7.396,-0.05123
7.4,-0.04653
7.404,-0.02234
7.408,-0.02829
7.412,-0.02925
7.416,-0.01753
7.42,-0.02974
7.424,-0.02014
7.428,-0.03317
7.432,-0.02182
7.436,-0.01947
7.44,-0.01764
7.444,-0.01753
7.448,-0.04646
7.452,-0.02064
7.456,-0.02479
7.46,-0.03154
7.464,-0.01902
7.468,-0.01768
7.472,-0.02039
7.476,-0.01868
7.48,0.00341
7.484,-0.00358
7.488,-0.0097
7.492,-0.0161
7.496,-0.01204
7.5,0.00334
7.504,-0.00435
7.508,0.01499
7.512,0.03599
7.516,0.01455
7.52,0.03477
7.524,0.04993
7.528,0.06335
7.532,0.0604
7.536,0.06866
7.54,0.06115
7.544,0.08249
7.548,0.10289
7.552,0.08773
7.556,0.14396
7.56,0.13671
7.564,0.13403
7.568,0.16447
7.572,0.16084
7.576,0.1878
7.58,0.18049
7.584,0.18137
7.588,0.19799
7.592,0.20982
7.596,0.20312
7.6,0.21185
7.604,0.20663
7.608,0.21687
7.612,0.18331
7.616,0.19173
7.62,0.17307
7.624,0.18393
7.628,0.169
7.632,0.13247
7.636,0.15535
7.64,0.14256
7.644,0.10899
7.648,0.11046
7.652,0.09944
7.656,0.07853
7.66,0.07119
7.664,0.066
7.668,0.07236
7.672,0.02705
7.676,0.02036
7.68,0.01869
7.684,0.01816
7.688,0.0279
7.692,0.01098
7.696,0.02509
7.7,0.01223
7.704,0.01159
7.708,0.01374
7.712,-0.00079
7.716,-0.00926
7.72,-0.01753
7.724,0.01889
7.728,0.01165
7.732,-0.01357
7.736,-0.02604
7.74,0.0041
7.744,-0.01542
7.748,-0.02029
7.752,0.0043
7.756,-0.01597
7.76,0.00551
7.764,-0.04971
7.768,-0.02566
7.772,-0.01039
7.776,-0.00862
7.78,0.00813
7.784,-0.01089
7.788,-0.01791
7.792,-0.01596
7.796,-0.02665
7.8,-0.02915
7.804,-0.01044
7.808,0.00122
7.812,0.01779
7.816,0.02827
7.82,0.00236
7.824,-0.00699
7.828,-0.03113
7.832,-0.00946
7.836,-0.0331
7.84,-0.01422
7.844,-0.02296
7.848,-0.02498
7.852,-0.02606
7.856,-0.00873
7.86,-0.00877
7.864,-0.01162
7.868,-0.01288
7.872,0.00131
7.876,-0.01044
7.88,-0.02224
7.884,-0.02204
7.888,-0.00716
7.892,0.0077
7.896,-0.03395
7.9,-0.01658
7.904,-0.0166
7.908,-0.00202
7.912,-0.00648
7.916,0.01381
7.92,-0.01526
7.924,-0.01895
7.928,0.00058
7.932,0.02145
7.936,0.01145
7.94,-0.00432
7.944,-0.00766
7.948,-0.01465
7.952,0.00634
7.956,-0.00457
7.96,0.00219
7.964,0.00571
7.968,-0.01969
7.972,-0.01399
7.976,0.00817
7.98,0.00362
7.984,-0.02616
7.988,0.01095
7.992,-0.00765
7.996,0.02169
8.0,-0.0441
8.004,-0.00788
8.008,-0.00267
8.012,0.01127
8.016,0.00718
8.02,-0.01391
8.024,-0.0256
8.028,-0.01526
8.032,-0.03792
8.036,-5e-05
8.04,-0.00123
8.044,0.00771
8.048,0.01384
8.052,-0.01681
8.056,9e-05
8.06,-0.00304
8.064,0.00225
8.068,-0.00223
8.072,-0.00325
8.076,-0.02875
8.08,0.02509
8.084,-4e-05
8.088,-0.01236
8.092,0.00121
8.096,-0.00057
8.1,0.01168
8.104,0.0214
8.108,0.00668
8.112,0.01309
8.116,0.00554
8.12,0.05626
8.124,0.0044
8.128,0.03042
8.132,0.0551
8.136,0.03206
8.14,0.0429
8.144,0.05958
8.148,0.08577
8.152,0.07923
8.156,0.09224
8.16,0.11148
8.164,0.08444
8.168,0.09399
8.172,0.07884
8.176,0.09281
8.18,0.05263
8.184,0.02169
8.188,0.04506
8.192,0.05866
8.196,0.01744
8.2,0.00777
8.204,0.00867
8.208,0.02148
8.212,-0.00977
8.216,-0.01448
8.22,0.01317
8.224,0.0244
8.228,-0.01466
8.232,0.00304
8.236,0.01416
8.24,0.01216
8.244,-0.01402
8.248,0.02835
8.252,-0.01519
8.256,-0.00492
8.26,-0.01036
8.264,-0.01009
8.268,-0.00706
8.272,-0.00081
8.276,-0.02263
8.28,-0.04618
8.284,-0.09188
8.288,-0.11429
8.292,-0.06545
8.296,0.03638
8.3,0.19525
8.304,0.40242
8.308,0.63169
8.312,0.8054
8.316,0.94996
8.32,0.99924
8.324,0.93537
8.328,0.77552
8.332,0.5698
8.336,0.34912
8.34,0.11751
8.344,-0.02792
8.348,-0.09712
8.352,-0.18868
8.356,-0.1491
8.36,-0.11228
8.364,-0.04855
8.368,-0.03425
8.372,-0.02283
8.376,0.02659
8.38,-0.00178
8.384,0.01816
8.388,-0.00246
8.392,-0.00068
8.396,0.00249
8.4,0.00663
8.404,0.00267
8.408,0.02323
8.412,0.02346
8.416,0.00726
8.42,0.03624
8.424,0.01357
8.428,0.00418
8.432,0.00199
8.436,-0.01181
8.44,-1e-05
8.444,0.01055
8.448,0.01058
8.452,0.02017
8.456,0.0015
8.46,-0.00764
8.464,0.00432
8.468,0.01953
8.472,0.00049
8.476,0.02859
8.48,0.02422
8.484,0.01602
8.488,0.0149
8.492,-0.00124
8.496,0.04856
8.5,0.02263
8.504,0.00904
8.508,0.05532
8.512,0.05674
8.516,0.02772
8.52,0.04326
8.524,0.06707
8.528,0.07416
8.532,0.07713
8.536,0.10369
8.54,0.09421
8.544,0.10264
8.548,0.13213
8.552,0.1511
8.556,0.15704
8.56,0.1614
8.564,0.16018
8.568,0.20314
8.572,0.19934
8.576,0.23357
8.58,0.21656
8.584,0.18662
8.588,0.2073
8.592,0.21868
8.596,0.23928
8.6,0.25148
8.604,0.20128
8.608,0.22533
8.612,0.23274
8.616,0.24737
8.62,0.21999
8.624,0.19516
8.628,0.18226
8.632,0.18727
8.636,0.18261
8.64,0.14097
8.644,0.17286
8.648,0.13093
8.652,0.12016
8.656,0.12604
8.66,0.12845
8.664,0.11299
8.668,0.07464
8.672,0.07582
8.676,0.07122
8.68,0.05386
8.684,0.05354
8.688,0.0437
8.692,0.05862
8.696,0.0315
8.7,0.02686
8.704,0.03099
8.708,0.03786
8.712,-0.00681
8.716,0.02831
8.72,0.02842
8.724,0.00216
8.728,0.01315
8.732,0.02601
8.736,0.04306
8.74,0.01202
8.744,0.03066
8.748,0.00984
8.752,0.01424
8.756,0.03466
8.76,0.0051
8.764,0.00568
8.768,0.01499
8.772,0.03499
8.776,0.03348
8.78,0.0499
8.784,0.00537
8.788,0.01824
8.792,0.0299
8.796,0.01107
8.8,-0.00221
8.804,0.00673
8.808,-0.00499
8.812,0.01448
8.816,-0.00247
8.82,0.04363
8.824,-0.00372
8.828,0.01719
8.832,0.03996
8.836,0.02116
8.84,0.03
8.844,-0.00272
8.848,0.03864
8.852,0.01214
8.856,0.00244
8.86,0.02849
8.864,0.0012
8.868,0.00864
8.872,0.02903
8.876,0.00238
8.88,0.04353
8.884,0.0054
8.888,-0.00564
8.892,0.00539
8.896,0.04556
8.9,0.05154
8.904,0.03998
8.908,0.00863
8.912,0.02085
8.916,0.01928
8.92,0.0248
8.924,0.02311
8.928,0.04231
8.932,0.02343
8.936,0.02149
8.94,0.00872
8.944,0.00742
8.948,0.01351
8.952,0.02005
8.956,0.01614
8.96,0.03952
8.964,0.03497
8.968,0.02175
8.972,0.003
8.976,0.03151
8.98,0.03501
8.984,0.02451
8.988,0.01081
8.992,0.01662
8.996,0.01455
9.0,0.02362
9.004,0.02317
9.008,0.0054
9.012,0.03613
9.016,0.00291
9.02,0.01935
9.024,0.02868
9.028,0.03548
9.032,0.01215
9.036,0.04414
9.04,0.03487
9.044,0.01813
9.048,0.02605
9.052,0.02337
9.056,0.01968
9.06,0.04897
9.064,0.01517
9.068,-0.0004
9.072,0.03519
9.076,0.04704
9.08,0.03642
9.084,0.03513
9.088,0.01573
9.092,0.05159
9.096,0.05204
9.1,0.059
9.104,0.07629
9.108,0.13015
9.112,0.09909
9.116,0.12003
9.12,0.10429
9.124,0.12883
9.128,0.08705
9.132,0.12142
9.136,0.11889
9.14,0.09381
9.144,0.0794
9.148,0.07336
9.152,0.10044
9.156,0.07513
9.16,0.05169
9.164,0.04748
9.168,0.02819
9.172,0.04617
9.176,0.02486
9.18,0.03541
9.184,0.0478
9.188,0.02942
9.192,0.00176
9.196,0.01686
9.2,0.04484
9.204,0.04588
9.208,0.02329
9.212,0.02601
9.216,0.03322
9.22,0.02632
9.224,0.03506
9.228,0.03968
9.232,0.04388
9.236,0.01471
9.24,0.01643
9.244,-0.00386
9.248,-0.04977
9.252,-0.0537
9.256,-0.09756
9.26,-0.07716
9.264,0.05662
9.268,0.18349
9.272,0.38837
9.276,0.58495
9.28,0.81549
9.284,0.9474
9.288,1.00687
9.292,0.95964
9.296,0.82768
9.3,0.6109
9.304,0.36673
9.308,0.1632
9.312,0.02245
9.316,-0.10232
9.32,-0.14768
9.324,-0.11399
9.328,-0.10922
9.332,-0.07217
9.336,0.00101
9.34,-0.01866
9.344,0.0277
9.348,0.02577
9.352,0.05541
9.356,0.00918
9.36,0.01889
9.364,0.02339
9.368,0.0161
9.372,0.04073
9.376,0.01447
9.38,0.02279
9.384,0.0279
9.388,0.0151
9.392,0.0354
9.396,0.05682
9.4,0.01374
9.404,0.03908
9.408,0.03877
9.412,0.05149
9.416,0.05307
9.42,0.03207
9.424,0.03905
9.428,0.03982
9.432,0.02972
9.436,0.01257
9.44,0.02948
9.444,0.04015
9.448,0.00545
9.452,0.03379
9.456,0.0733
9.46,0.04853
9.464,0.06294
9.468,0.0455
9.472,0.0671
9.476,0.04097
9.48,0.0432
9.484,0.05812
9.488,0.07888
9.492,0.09135
9.496,0.08225
9.5,0.1116
9.504,0.1116
9.508,0.11025
9.512,0.12003
9.516,0.12298
9.52,0.16716
9.524,0.1429
9.528,0.16961
9.532,0.17088
9.536,0.19998
9.54,0.19428
9.544,0.22826
9.548,0.24592
9.552,0.22014
9.556,0.22203
9.56,0.25808
9.564,0.2679
9.568,0.23669
9.572,0.21325
9.576,0.25524
9.58,0.23735
9.584,0.20904
9.588,0.20864
9.592,0.22776
9.596,0.22656
9.6,0.22694
9.604,0.1882
9.608,0.16248
9.612,0.18022
9.616,0.15401
9.62,0.1389
9.624,0.11339
9.628,0.14019
9.632,0.10009
9.636,0.12708
9.64,0.07159
9.644,0.05516
9.648,0.06397
9.652,0.06832
9.656,0.06443
9.66,0.04982
9.664,0.05087
9.668,0.03737
9.672,0.03529
9.676,0.05951
9.68,0.06439
9.684,0.03748
9.688,0.04465
9.692,0.02667
9.696,0.05327
9.7,0.03987
9.704,0.03473
9.708,0.04214
9.712,0.02214
9.716,0.02525
9.72,0.02622
9.724,0.04559
9.728,0.02285
9.732,0.03749
9.736,0.00679
9.74,0.02638
9.744,0.02006
9.748,0.00221
9.752,0.01993
9.756,0.02941
9.76,0.04276
9.764,0.03685
9.768,0.0507
9.772,0.05496
9.776,0.02093
9.78,0.02735
9.784,0.05172
9.788,0.02722
9.792,0.02285
9.796,0.02157
9.8,0.04262
9.804,0.03863
9.808,0.01026
9.812,0.04251
9.816,0.01917
9.82,0.05248
9.824,0.02736
9.828,0.02164
9.832,0.01766
9.836,0.0078
9.84,0.02858
9.844,0.03408
9.848,0.04217
9.852,0.0631
9.856,0.0368
9.86,0.03409
9.864,0.03054
9.868,-0.00186
9.872,0.04199
9.876,0.0545
9.88,0.01779
9.884,0.02876
9.888,0.04109
9.892,0.0392
9.896,0.03362
9.9,0.04707
9.904,0.01566
9.908,0.03835
9.912,0.02008
9.916,0.01696
9.92,-0.00309
9.924,0.06494
9.928,0.02406
9.932,0.02737
9.936,0.05473
9.94,0.01111
9.944,0.02579
9.948,0.05631
9.952,0.02976
9.956,0.00867
9.96,0.02959
9.964,0.03935
9.968,0.04515
9.972,0.0668
9.976,0.03993
9.98,0.03144
9.984,0.02889
9.988,0.00158
9.992,0.00626
9.996,0.01977
