t_seg,ecg_mV
0.0,0.01775
0.004,0.05595
0.008,0.03296
0.012,0.06965
0.016,0.09942
0.02,0.09931
0.024,0.11198
0.028,0.11553
0.032,0.08407
0.036,0.13487
0.04,0.11251
0.044,0.12709
0.048,0.11552
0.052,0.09521
0.056,0.08875
0.06,0.06859
0.064,0.03841
0.068,0.04628
0.072,0.05273
0.076,0.02218
0.08,0.05317
0.084,0.01773
0.088,0.01285
0.092,0.01322
0.096,0.01475
0.1,0.02688
0.104,0.04222
0.108,0.03606
0.112,0.03763
0.116,0.02607
0.12,-0.00334
0.124,0.03077
0.128,0.02969
0.132,0.00282
0.136,0.024
0.14,0.02706
0.144,0.02083
0.148,0.02679
0.152,-0.03403
0.156,-0.03075
0.16,-0.0967
0.164,-0.07734
0.168,-0.0878
0.172,0.01295
0.176,0.17627
0.18,0.36438
0.184,0.56995
0.188,0.79446
0.192,0.8935
0.196,1.04485
0.2,0.97527
0.204,0.83613
0.208,0.63824
0.212,0.38556
0.216,0.17636
0.22,0.00486
0.224,-0.09863
0.228,-0.13835
0.232,-0.15912
0.236,-0.10418
0.24,-0.0593
0.244,-0.03965
0.248,0.0128
0.252,0.01168
0.256,0.03396
0.26,-0.00886
0.264,0.0346
0.268,0.02349
0.272,0.01331
0.276,0.00901
0.28,-0.00148
0.284,0.01217
0.288,0.01687
0.292,0.02832
0.296,0.0201
0.3,-0.00098
0.304,0.0367
0.308,0.00286
0.312,0.02719
0.316,0.01211
0.32,0.02754
0.324,0.01964
0.328,0.01009
0.332,0.01429
0.336,0.00801
0.34,0.01131
0.344,0.02687
0.348,-0.00857
0.352,0.02745
0.356,0.0203
0.36,0.0386
0.364,0.04371
0.368,0.05124
0.372,0.0376
0.376,0.02223
0.38,0.04901
0.384,0.03599
0.388,0.04738
0.392,0.06485
0.396,0.05614
0.4,0.06834
0.404,0.06117
0.408,0.06525
0.412,0.05955
0.416,0.10474
0.42,0.12672
0.424,0.15161
0.428,0.14226
0.432,0.13253
0.436,0.15125
0.44,0.20133
0.444,0.17659
0.448,0.21188
0.452,0.20903
0.456,0.24089
0.46,0.21822
0.464,0.2403
0.468,0.24041
0.472,0.24249
0.476,0.24139
0.48,0.20238
0.484,0.24422
0.488,0.24605
0.492,0.2253
0.496,0.20271
0.5,0.20079
0.504,0.18164
0.508,0.18863
0.512,0.18655
0.516,0.16558
0.52,0.14974
0.524,0.12755
0.528,0.14873
0.532,0.10863
0.536,0.07248
0.54,0.0942
0.544,0.11273
0.548,0.06649
0.552,0.03639
0.556,0.04763
0.56,0.0433
0.564,0.06052
0.568,0.03047
0.572,0.0557
0.576,0.02622
0.58,0.0147
0.584,0.02743
0.588,0.0398
0.592,0.00149
0.596,-0.00813
0.6,0.00891
0.604,0.00068
0.608,0.00201
0.612,0.02935
0.616,0.02379
0.62,0.01149
0.624,0.00222
0.628,0.0054
0.632,0.01925
0.636,-0.01388
0.64,-0.02897
0.644,-0.01004
0.648,0.00859
0.652,0.03471
0.656,-0.0078
0.66,0.00655
0.664,0.01549
0.668,0.00376
0.672,0.01771
0.676,-0.03547
0.68,0.00722
0.684,-0.0185
0.688,-0.01396
0.692,0.03338
0.696,0.02073
0.7,0.03875
0.704,0.00023
0.708,0.01029
0.712,-0.01345
0.716,0.0089
0.72,0.03758
0.724,0.00456
0.728,0.01465
0.732,0.02499
0.736,0.03935
0.74,0.06299
0.744,0.06377
0.748,0.07637
0.752,0.09439
0.756,0.11846
0.76,0.11714
0.764,0.10162
0.768,0.0861
0.772,0.07469
0.776,0.06057
0.78,0.10789
0.784,0.07965
0.788,0.06906
0.792,0.0352
0.796,0.02546
0.8,0.01438
0.804,0.01271
0.808,0.03109
0.812,0.03152
0.816,0.00431
0.82,-0.00798
0.824,0.00316
0.828,0.0359
0.832,0.04011
0.836,-0.00818
0.84,0.00571
0.844,0.03134
0.848,-0.00899
0.852,-0.0024
0.856,0.02952
0.86,-0.00359
0.864,-0.02018
0.868,-0.01188
0.872,-0.00471
0.876,0.00237
0.88,-0.04975
0.884,-0.06533
0.888,-0.08224
0.892,-0.10227
0.896,-0.08602
0.9,-0.00936
0.904,0.17053
0.908,0.32833
0.912,0.55475
0.916,0.80445
0.92,0.92625
0.924,1.00557
0.928,0.95126
0.932,0.79713
0.936,0.60191
0.94,0.37092
0.944,0.15214
0.948,0.00845
0.952,-0.11473
0.956,-0.16381
0.96,-0.14823
0.964,-0.11344
0.968,-0.07962
0.972,-0.02914
0.976,-0.02353
0.98,-0.00596
0.984,0.00901
0.988,0.00826
0.992,-0.00504
0.996,0.00687
1.0,0.00741
1.004,0.00655
1.008,0.00488
1.012,0.01779
1.016,0.0049
1.02,-0.0044
1.024,0.00663
1.028,-0.00195
1.032,-0.02113
1.036,0.03161
1.04,0.0121
1.044,-2e-05
1.048,-0.01436
1.052,-0.00605
1.056,0.00018
1.06,0.0316
1.064,0.00419
1.068,0.01722
1.072,-0.00728
1.076,0.02843
1.08,0.01245
1.084,-0.0237
1.088,0.02432
1.092,0.00226
1.096,0.01336
1.1,0.01665
1.104,0.01822
1.108,0.02896
1.112,0.02482
1.116,0.00673
1.12,0.00883
1.124,0.0475
1.128,0.04883
1.132,0.05392
1.136,0.05826
1.14,0.10024
1.144,0.10982
1.148,0.08219
1.152,0.11014
1.156,0.12041
1.16,0.13569
1.164,0.15559
1.168,0.16946
1.172,0.1542
1.176,0.1897
1.18,0.18295
1.184,0.1793
1.188,0.17824
1.192,0.20955
1.196,0.19197
1.2,0.22648
1.204,0.23561
1.208,0.20962
1.212,0.20598
1.216,0.20911
1.22,0.1636
1.224,0.1741
1.228,0.20195
1.232,0.18401
1.236,0.17661
1.24,0.14263
1.244,0.12933
1.248,0.12407
1.252,0.11554
1.256,0.10408
1.26,0.10354
1.264,0.10198
1.268,0.07533
1.272,0.0689
1.276,0.05212
1.28,0.0386
1.284,0.06963
1.288,0.03234
1.292,0.01673
1.296,0.01744
1.3,0.02129
1.304,-0.00759
1.308,0.01332
1.312,-0.00074
1.316,0.00557
1.32,-0.00573
1.324,-0.00973
1.328,-0.0159
1.332,0.01219
1.336,0.00073
1.34,-0.01306
1.344,-0.01945
1.348,-0.01323
1.352,-0.01039
1.356,-0.01867
1.36,-0.03947
1.364,-0.01346
1.368,-0.02606
1.372,-0.0227
1.376,-0.01129
1.38,-0.04381
1.384,-0.03668
1.388,-0.00083
1.392,-0.03153
1.396,-0.01909
1.4,-0.05438
1.404,0.0123
1.408,-0.0514
1.412,-0.02023
1.416,-0.03395
1.42,-0.01148
1.424,0.00337
1.428,0.00687
1.432,-0.02467
1.436,-0.01059
1.44,-0.00998
1.444,-0.04531
1.448,0.00852
1.452,0.00918
1.456,-0.00916
1.46,-0.00925
1.464,-0.02606
1.468,-0.01227
1.472,0.02002
1.476,-0.03237
1.48,-0.01925
1.484,-0.00805
1.488,-0.00527
1.492,-0.00166
1.496,-0.00859
1.5,-0.00153
1.504,-0.01759
1.508,-0.03277
1.512,-0.0064
1.516,-0.02969
1.52,-0.01463
1.524,-0.00502
1.528,-0.00611
1.532,0.01014
1.536,-0.0199
1.54,-0.01679
1.544,0.00989
1.548,-0.02385
1.552,0.02107
1.556,0.04095
1.56,0.03556
1.564,0.04269
1.568,0.04366
1.572,0.07335
1.576,0.07263
1.58,0.08338
1.584,0.07649
1.588,0.08815
1.592,0.08935
1.596,0.08292
1.6,0.08407
1.604,0.07903
1.608,0.02929
1.612,0.01015
1.616,-0.00037
1.62,0.01011
1.624,0.01574
1.628,-0.0211
1.632,0.01244
1.636,-0.02623
1.64,0.00628
1.644,-0.01858
1.648,0.00146
1.652,-0.00572
1.656,-0.00611
1.66,-0.01764
1.664,-0.00766
1.668,-0.0219
1.672,-0.0403
1.676,-0.02358
1.68,-0.02318
1.684,-0.02011
1.688,-0.01744
1.692,-0.02365
1.696,-0.02962
1.7,-0.05935
1.704,-0.09587
1.708,-0.1448
1.712,-0.12833
1.716,-0.09968
1.72,-0.00074
1.724,0.13042
1.728,0.35849
1.732,0.59102
1.736,0.7631
1.74,0.94186
1.744,0.95642
1.748,0.92468
1.752,0.78628
1.756,0.57493
1.76,0.33086
1.764,0.11108
1.768,-0.04539
1.772,-0.1306
1.776,-0.19082
1.78,-0.17743
1.784,-0.13929
1.788,-0.08015
1.792,-0.04934
1.796,-0.0252
1.8,-0.01691
1.804,-0.0162
1.808,0.0008
1.812,-0.04795
1.816,-0.03447
1.82,-0.02573
1.824,-0.01163
1.828,-0.03013
1.832,-0.02455
1.836,-0.02039
1.84,-0.01893
1.844,-0.03239
1.848,-0.00716
1.852,-0.01726
1.856,-0.01122
1.86,-0.00305
1.864,-0.0345
1.868,-0.01142
1.872,-0.03834
1.876,-0.0193
1.88,-0.03292
1.884,-0.01679
1.888,0.00451
1.892,0.00572
1.896,-0.02015
1.9,-0.01994
1.904,-0.00597
1.908,-0.03977
1.912,-0.02873
1.916,0.00212
1.92,-0.02322
1.924,-0.02894
1.928,0.01485
1.932,0.0179
1.936,0.0073
1.94,0.01519
1.944,0.01695
1.948,0.01092
1.952,0.01886
1.956,0.07801
1.96,0.05215
1.964,0.06496
1.968,0.06928
1.972,0.09167
1.976,0.08482
1.98,0.10777
1.984,0.1326
1.988,0.1406
1.992,0.15571
1.996,0.19727
2.0,0.13753
2.004,0.19246
2.008,0.17984
2.012,0.16603
2.016,0.17506
2.02,0.21738
2.024,0.20491
2.028,0.20845
2.032,0.1924
2.036,0.19819
2.04,0.18223
2.044,0.17516
2.048,0.18163
2.052,0.15646
2.056,0.14575
2.06,0.10938
2.064,0.13794
2.068,0.08602
2.072,0.10068
2.076,0.07417
2.08,0.0587
2.084,0.0648
2.088,0.04568
2.092,0.08152
2.096,0.06863
2.1,0.02486
2.104,0.03733
2.108,0.01741
2.112,-0.00222
2.116,-0.01866
2.12,0.01573
2.124,-0.01784
2.128,-0.00641
2.132,-0.01357
2.136,0.00049
2.14,-0.00983
2.144,-0.01252
2.148,-0.01107
2.152,-0.03117
2.156,-0.03713
2.16,-0.00366
2.164,-0.03306
2.168,-0.0261
2.172,-0.00958
2.176,0.00571
2.18,-0.04352
2.184,-0.03736
2.188,-0.0333
2.192,-0.02977
2.196,-0.03575
2.2,-0.0221
2.204,-0.01539
2.208,-0.04732
2.212,-0.02393
2.216,-0.06548
2.22,-0.03135
2.224,0.00705
2.228,-0.02885
2.232,-0.00487
2.236,-0.03433
2.24,-0.01149
2.244,-0.0168
2.248,-0.01424
2.252,-0.02836
2.256,-0.06571
2.26,-0.03526
2.264,-0.04193
2.268,-0.03373
2.272,-0.02645
2.276,-0.04633
2.28,-0.02138
2.284,-0.02104
2.288,-0.01911
2.292,-0.02039
2.296,-0.0248
2.3,-0.02019
2.304,-0.02869
2.308,-0.03975
2.312,-0.01992
2.316,-0.03762
2.32,-0.0384
2.324,-0.00013
2.328,-0.02393
2.332,-0.03877
2.336,-0.02207
2.34,-0.0307
2.344,-0.01412
2.348,-0.03028
2.352,-0.03224
2.356,-0.04192
2.36,-0.03139
2.364,-0.02828
2.368,-0.03122
2.372,-0.04934
2.376,-0.02632
2.38,-0.05144
2.384,-0.04044
2.388,-0.0345
2.392,-0.04966
2.396,-0.04281
2.4,-0.03599
2.404,-0.01852
2.408,-0.02028
2.412,-0.00678
2.416,-0.01404
2.42,0.00149
2.424,0.00891
2.428,0.04493
2.432,0.03049
2.436,0.05239
2.44,0.04188
2.444,0.06871
2.448,0.03612
2.452,0.10076
2.456,0.05721
2.46,0.04936
2.464,0.02355
2.468,0.0359
2.472,0.04297
2.476,0.00745
2.48,0.00078
2.484,-0.01673
2.488,-0.01178
2.492,-0.02263
2.496,-0.02762
2.5,-0.01023
2.504,-0.03987
2.508,-0.01328
2.512,-0.02976
2.516,-0.01569
2.52,-0.03218
2.524,-0.04187
2.528,-0.03051
2.532,-0.02174
2.536,-0.021
2.54,-0.05121
2.544,-0.00787
2.548,-0.01965
2.552,-0.03278
2.556,-0.03533
2.56,-0.07663
2.564,-0.08061
2.568,-0.11839
2.572,-0.15689
2.576,-0.11487
2.58,-0.08696
2.584,0.06296
2.588,0.21896
2.592,0.45253
2.596,0.66973
2.6,0.82979
2.604,0.93959
2.608,0.98404
2.612,0.84556
2.616,0.66107
2.62,0.45367
2.624,0.20788
2.628,0.04757
2.632,-0.11427
2.636,-0.17905
2.64,-0.20161
2.644,-0.16745
2.648,-0.13645
2.652,-0.07943
2.656,-0.09069
2.66,-0.01983
2.664,-0.044
2.668,-0.02504
2.672,-0.0256
2.676,-0.03121
2.68,-0.02036
2.684,-0.03848
2.688,-0.01677
2.692,-0.01438
2.696,-0.03086
2.7,-0.02979
2.704,-0.01962
2.708,-0.02628
2.712,-0.03772
2.716,-0.03467
2.72,-0.02125
2.724,-0.05184
2.728,-0.03792
2.732,-0.03597
2.736,-0.008
2.74,-0.01912
2.744,-0.03158
2.748,-0.04027
2.752,-0.02255
2.756,-0.01499
2.76,-0.01487
2.764,-0.01231
2.768,-0.03621
2.772,-0.0301
2.776,-0.04905
2.78,-0.05694
2.784,-0.03198
2.788,-0.0113
2.792,-0.01126
2.796,-0.00326
2.8,-0.01814
2.804,0.03393
2.808,0.03687
2.812,0.03648
2.816,0.02287
2.82,0.03303
2.824,0.06908
2.828,0.07008
2.832,0.10758
2.836,0.11086
2.84,0.08134
2.844,0.12109
2.848,0.12394
2.852,0.13825
2.856,0.14653
2.86,0.17618
2.864,0.16368
2.868,0.15319
2.872,0.17648
2.876,0.17833
2.88,0.19312
2.884,0.19098
2.888,0.19888
2.892,0.19089
2.896,0.21452
2.9,0.18885
2.904,0.1689
2.908,0.17255
2.912,0.16851
2.916,0.13561
2.92,0.13733
2.924,0.12738
2.928,0.13667
2.932,0.13028
2.936,0.09338
2.94,0.08141
2.944,0.06142
2.948,0.07899
2.952,0.06041
2.956,0.01747
2.96,0.04279
2.964,0.00973
2.968,0.02811
2.972,0.00333
2.976,-0.01119
2.98,-0.02551
2.984,0.00347
2.988,-0.03619
2.992,-0.02729
2.996,-0.03163
3.0,-0.0209
3.004,-0.02292
3.008,-0.04786
3.012,-0.02241
3.016,-0.00814
3.02,-0.02248
3.024,-0.0363
3.028,-0.0517
3.032,-0.04367
3.036,-0.01666
3.04,-0.0243
3.044,-0.03358
3.048,-0.02793
3.052,-0.04013
3.056,-0.02435
3.06,0.0049
3.064,-0.03068
3.068,-0.04719
3.072,-0.02546
3.076,-0.02302
3.08,-0.01695
3.084,-0.04207
3.088,-0.02408
3.092,-0.05489
3.096,-0.0241
3.1,-0.01961
3.104,-0.02123
3.108,-0.02672
3.112,-0.04066
3.116,-0.01539
3.12,-0.02738
3.124,-0.0371
3.128,-0.04547
3.132,-0.02467
3.136,-0.01134
3.14,-0.01267
3.144,-0.02972
3.148,-0.03178
3.152,-0.02462
3.156,-0.01544
3.16,-0.02772
3.164,-0.04474
3.168,0.00927
3.172,0.00633
3.176,-0.02244
3.18,-0.03527
3.184,-0.02839
3.188,0.00106
3.192,-0.03775
3.196,-0.02237
3.2,-0.02276
3.204,-0.01435
3.208,-0.0328
3.212,-0.00294
3.216,-0.04491
3.22,-0.03275
3.224,-0.03092
3.228,-0.014
3.232,-0.02956
3.236,-0.01024
3.24,-0.05312
3.244,-0.04298
3.248,-0.05339
3.252,-0.00493
3.256,-0.02672
3.26,-0.0221
3.264,-0.01877
3.268,-0.03626
3.272,-0.02081
3.276,-0.01998
3.28,-0.04305
3.284,-0.04386
3.288,-0.01057
3.292,-0.03993
3.296,-0.02283
3.3,-0.01855
3.304,-0.04213
3.308,0.01078
3.312,-0.01991
3.316,0.0059
3.32,0.00263
3.324,0.02055
3.328,0.04149
3.332,0.03761
3.336,0.06255
3.34,0.04634
3.344,0.06851
3.348,0.05763
3.352,0.07084
3.356,0.06076
3.36,0.06036
3.364,0.04771
3.368,0.02309
3.372,0.05568
3.376,-0.00033
3.38,-0.0042
3.384,0.01405
3.388,0.01045
3.392,-0.00872
3.396,-0.03875
3.4,-0.01296
3.404,-0.03073
3.408,-0.01856
3.412,-0.02718
3.416,-0.03088
3.42,-0.01479
3.424,-0.02003
3.428,-0.04497
3.432,-0.03079
3.436,-0.00639
3.44,-0.02357
3.444,-0.00877
3.448,-0.03707
3.452,-0.01938
3.456,-0.02973
3.46,-0.04054
3.464,-0.06387
3.468,-0.08026
3.472,-0.11627
3.476,-0.14439
3.48,-0.08981
3.484,-0.02231
3.488,0.14444
3.492,0.34769
3.496,0.57326
3.5,0.75586
3.504,0.90399
3.508,0.96664
3.512,0.9196
3.516,0.78856
3.52,0.61039
3.524,0.3304
3.528,0.12507
3.532,-0.037
3.536,-0.14335
3.54,-0.18547
3.544,-0.18547
3.548,-0.12887
3.552,-0.09098
3.556,-0.0762
3.56,-0.04953
3.564,-0.0101
3.568,-0.02237
3.572,-0.00412
3.576,-0.01082
3.58,-0.00069
3.584,-0.01995
3.588,-0.00579
3.592,-0.03691
3.596,-0.01859
3.6,-0.0436
3.604,0.00797
3.608,-0.02431
3.612,0.00908
3.616,-0.02059
3.62,-0.02917
3.624,-0.00243
3.628,-0.00582
3.632,-0.05103
3.636,-0.00428
3.64,-0.01793
3.644,-0.0329
3.648,-0.023
3.652,-0.03361
3.656,-0.04685
3.66,-0.00526
3.664,-0.00125
3.668,-0.01986
3.672,0.01485
3.676,-0.02899
3.68,-0.00345
3.684,-0.0045
3.688,0.0011
3.692,0.0214
3.696,-0.00153
3.7,0.02043
3.704,0.03695
3.708,0.03869
3.712,0.02281
3.716,0.02242
3.72,0.05773
3.724,0.04025
3.728,0.0788
3.732,0.07082
3.736,0.1126
3.74,0.11726
3.744,0.11407
3.748,0.10979
3.752,0.14183
3.756,0.1743
3.76,0.15665
3.764,0.19043
3.768,0.18893
3.772,0.17257
3.776,0.197
3.78,0.18386
3.784,0.18532
3.788,0.18972
3.792,0.20597
3.796,0.19698
3.8,0.18927
3.804,0.19674
3.808,0.19698
3.812,0.19468
3.816,0.18692
3.82,0.17149
3.824,0.13734
3.828,0.13384
3.832,0.1262
3.836,0.08932
3.84,0.10621
3.844,0.08659
3.848,0.06848
3.852,0.05023
3.856,0.03963
3.86,0.05719
3.864,0.00976
3.868,0.01412
3.872,0.02131
3.876,0.03941
3.88,0.0065
3.884,0.01098
3.888,0.03395
3.892,0.002
3.896,-0.00061
3.9,-0.00553
3.904,-0.02603
3.908,0.01501
3.912,-0.01563
3.916,0.00994
3.92,-0.00128
3.924,-0.01054
3.928,-0.016
3.932,-0.01015
3.936,0.01865
3.94,0.02363
3.944,-0.0225
3.948,-0.0108
3.952,0.00597
3.956,-0.03895
3.96,-0.01496
3.964,-0.02149
3.968,-0.02254
3.972,-0.0074
3.976,-0.00734
3.98,-0.01185
3.984,-0.00905
3.988,-0.01556
3.992,0.0178
3.996,-0.0149
4.0,-0.01438
4.004,-0.00012
4.008,-0.00642
4.012,-0.02008
4.016,-0.01472
4.02,-0.01183
4.024,-0.01026
4.028,-0.04262
4.032,0.00016
4.036,-0.02363
4.04,-0.02054
4.044,0.0063
4.048,-0.01456
4.052,-0.04699
4.056,0.00906
4.06,0.00853
4.064,-0.00289
4.068,-0.01932
4.072,0.01463
4.076,0.0079
4.08,-0.01358
4.084,0.02102
4.088,0.01609
4.092,0.00033
4.096,-0.01669
4.1,-0.00528
4.104,-0.01261
4.108,-0.01613
4.112,-0.00656
4.116,0.00445
4.12,-0.01462
4.124,0.00806
4.128,-0.0134
4.132,-0.04477
4.136,-0.03699
4.14,-0.01843
4.144,-0.02881
4.148,0.01763
4.152,0.00173
4.156,-0.01081
4.16,0.00291
4.164,-0.01344
4.168,0.02507
4.172,-0.01091
4.176,0.00165
4.18,0.01823
4.184,0.01223
4.188,0.00301
4.192,0.02305
4.196,0.02558
4.2,0.0437
4.204,0.06696
4.208,0.08777
4.212,0.07618
4.216,0.08237
4.22,0.09843
4.224,0.10809
4.228,0.10183
4.232,0.11105
4.236,0.09788
4.24,0.09222
4.244,0.06865
4.248,0.01081
4.252,0.05216
4.256,0.02408
4.26,0.03172
4.264,0.04196
4.268,0.04521
4.272,0.01221
4.276,0.00975
4.28,-0.0141
4.284,0.01165
4.288,-0.01351
4.292,-0.01036
4.296,0.00236
4.3,-0.00837
4.304,-0.0018
4.308,0.00255
4.312,0.0198
4.316,-0.0139
4.32,0.03162
4.324,0.01126
4.328,-0.02503
4.332,-0.00874
4.336,-0.01491
4.34,-0.02971
4.344,-0.04547
4.348,-0.0799
4.352,-0.12566
4.356,-0.09615
4.36,-0.00869
4.364,0.13127
4.368,0.33997
4.372,0.57059
4.376,0.7491
4.38,0.90473
4.384,1.00033
4.388,0.96111
4.392,0.81475
4.396,0.59436
4.4,0.36932
4.404,0.16787
4.408,-0.0107
4.412,-0.12067
4.416,-0.16043
4.42,-0.15338
4.424,-0.15429
4.428,-0.0649
4.432,-0.05506
4.436,-0.03649
4.44,-0.00924
4.444,-0.01569
4.448,-0.0019
4.452,0.0002
4.456,0.01714
4.46,0.0172
4.464,-0.00557
4.468,0.00394
4.472,-0.02259
4.476,0.008
4.48,0.00269
4.484,-0.01894
4.488,-0.0076
4.492,-0.01523
4.496,0.00699
4.5,0.00432
4.504,0.0079
4.508,0.01441
4.512,-0.00171
4.516,0.01097
4.52,0.01727
4.524,0.0066
4.528,0.01127
4.532,-0.00593
4.536,0.03166
4.54,-0.01641
4.544,0.03477
4.548,0.00234
4.552,0.01552
4.556,0.01275
4.56,0.00648
4.564,0.01113
4.568,0.0114
4.572,0.03445
4.576,0.03512
4.58,0.03648
4.584,0.0545
4.588,0.01355
4.592,0.06189
4.596,0.07048
4.6,0.08981
4.604,0.0859
4.608,0.11681
4.612,0.09345
4.616,0.13141
4.62,0.12413
4.624,0.14343
4.628,0.15441
4.632,0.14783
4.636,0.181
4.64,0.17566
4.644,0.20765
4.648,0.18857
4.652,0.22823
4.656,0.2357
4.66,0.23705
4.664,0.22647
4.668,0.2466
4.672,0.23029
4.676,0.20873
4.68,0.22362
4.684,0.19426
4.688,0.2428
4.692,0.18573
4.696,0.20307
4.7,0.13672
4.704,0.15658
4.708,0.13024
4.712,0.10578
4.716,0.12437
4.72,0.13743
4.724,0.11847
4.728,0.09051
4.732,0.08806
4.736,0.07621
4.74,0.06506
4.744,0.07403
4.748,0.06616
4.752,0.03057
4.756,0.0367
4.76,0.02995
4.764,0.0423
4.768,0.02938
4.772,0.03872
4.776,0.01271
4.78,0.00182
4.784,0.02225
4.788,0.03379
4.792,-0.00346
4.796,0.04569
4.8,0.01901
4.804,0.00924
4.808,-0.01991
4.812,0.00095
4.816,0.01835
4.82,0.02936
4.824,0.00421
4.828,0.00623
4.832,-0.02211
4.836,0.03314
4.84,-0.00591
4.844,0.0162
4.848,0.0134
4.852,0.04968
4.856,0.04461
4.86,0.00753
4.864,0.00272
4.868,0.03746
4.872,0.01621
4.876,0.00982
4.88,0.0078
4.884,0.01575
4.888,0.00962
4.892,0.00615
4.896,0.01124
4.9,0.00814
4.904,0.00892
4.908,0.01136
4.912,0.02174
4.916,0.01354
4.92,0.04464
4.924,0.01391
4.928,0.01725
4.932,0.00398
4.936,0.01019
4.94,0.02603
4.944,0.02772
4.948,-0.00361
4.952,0.01187
4.956,0.01865
4.96,0.04225
4.964,0.00191
4.968,0.00408
4.972,0.00856
4.976,0.0168
4.98,0.03381
4.984,0.03482
4.988,-0.00504
4.992,0.02295
4.996,0.01642
5.0,0.02071
5.004,0.01207
5.008,0.03492
5.012,0.01714
5.016,0.00542
5.02,0.01879
5.024,0.03509
5.028,0.01322
5.032,0.01097
5.036,0.03656
5.04,0.00758
5.044,0.01014
5.048,0.03935
5.052,0.04395
5.056,0.0291
5.06,0.03226
5.064,0.07805
5.068,0.11732
5.072,0.08626
5.076,0.1319
5.08,0.10819
5.084,0.10561
5.088,0.09941
5.092,0.1027
5.096,0.09661
5.1,0.11124
5.104,0.06248
5.108,0.05401
5.112,0.06178
5.116,0.04857
5.12,0.03785
5.124,0.01958
5.128,0.02205
5.132,0.04364
5.136,0.03944
5.14,0.00721
5.144,0.02672
5.148,0.00441
5.152,0.01707
5.156,0.02256
5.16,0.00924
5.164,0.03621
5.168,0.04238
5.172,0.02255
5.176,0.03302
5.18,0.01507
5.184,0.00268
5.188,0.00724
5.192,0.02527
5.196,0.03151
5.2,0.02474
5.204,-0.02474
5.208,-0.04089
5.212,-0.10209
5.216,-0.09226
5.22,-0.01893
5.224,0.10332
5.228,0.29002
5.232,0.51632
5.236,0.72388
5.24,0.91452
5.244,0.98492
5.248,0.97219
5.252,0.92307
5.256,0.68862
5.26,0.47924
5.264,0.28083
5.268,0.09489
5.272,-0.07921
5.276,-0.11096
5.28,-0.15473
5.284,-0.098
5.288,-0.09758
5.292,-0.05975
5.296,0.00136
5.3,0.02874
5.304,0.04516
5.308,0.01412
5.312,0.01392
5.316,0.00145
5.32,0.01083
5.324,0.0607
5.328,0.04525
5.332,0.04042
5.336,0.04729
5.34,0.04464
5.344,0.02114
5.348,0.01306
5.352,-0.00782
5.356,0.01639
5.36,0.03079
5.364,0.02465
5.368,0.03654
5.372,0.02323
5.376,0.0527
5.38,0.01976
5.384,-0.01009
5.388,0.031
5.392,0.02406
5.396,0.02056
5.4,0.0101
5.404,0.03147
5.408,0.05408
5.412,0.03107
5.416,0.0585
5.42,0.03357
5.424,0.03359
5.428,0.0657
5.432,0.0674
5.436,0.04442
5.44,0.05965
5.444,0.06006
5.448,0.06916
5.452,0.088
5.456,0.09416
5.46,0.13252
5.464,0.11015
5.468,0.11254
5.472,0.15158
5.476,0.14908
5.48,0.17206
5.484,0.15408
5.488,0.16172
5.492,0.19516
5.496,0.21183
5.5,0.20537
5.504,0.21809
5.508,0.23652
5.512,0.22906
5.516,0.25317
5.52,0.28267
5.524,0.27204
5.528,0.23998
5.532,0.22648
5.536,0.24508
5.54,0.25427
5.544,0.21738
5.548,0.23654
5.552,0.24233
5.556,0.17491
5.56,0.19145
5.564,0.18118
5.568,0.16498
5.572,0.14709
5.576,0.1431
5.58,0.1242
5.584,0.14235
5.588,0.10507
5.592,0.0873
5.596,0.09062
5.6,0.10916
5.604,0.04456
5.608,0.06981
5.612,0.06764
5.616,0.03165
5.62,0.05207
5.624,0.03823
5.628,0.02635
5.632,0.03768
5.636,0.054
5.64,0.00598
5.644,0.03478
5.648,0.02957
5.652,0.05128
5.656,0.02341
5.66,0.04082
5.664,0.02432
5.668,0.00952
5.672,0.01248
5.676,0.0379
5.68,0.02995
5.684,0.01681
5.688,0.00853
5.692,0.04868
5.696,0.04503
5.7,0.01468
5.704,0.04613
5.708,0.04742
5.712,0.00836
5.716,0.00954
5.72,0.03042
5.724,0.01683
5.728,0.02744
5.732,0.02616
5.736,0.02795
5.74,0.01475
5.744,0.02751
5.748,0.04112
5.752,0.03859
5.756,0.05522
5.76,0.0125
5.764,0.04134
5.768,0.03677
5.772,0.05582
5.776,0.04057
5.78,0.02302
5.784,0.01345
5.788,0.03666
5.792,0.0221
5.796,0.01166
5.8,0.04011
5.804,0.03718
5.808,0.04167
5.812,0.02819
5.816,0.01674
5.82,0.04094
5.824,0.04031
5.828,0.00921
5.832,0.044
5.836,0.03092
5.84,0.03649
5.844,0.03681
5.848,0.01745
5.852,0.00796
5.856,0.04032
5.86,0.01589
5.864,0.02715
5.868,0.04062
5.872,0.04186
5.876,0.01274
5.88,0.04908
5.884,0.04792
5.888,0.06023
5.892,0.02091
5.896,-0.00251
5.9,0.02737
5.904,0.03296
5.908,0.02676
5.912,0.03331
5.916,0.03211
5.92,0.01371
5.924,0.02777
5.928,0.03831
5.932,0.04758
5.936,0.02734
5.94,0.02112
5.944,0.02232
5.948,0.05422
5.952,0.03625
5.956,0.05988
5.96,0.06778
5.964,0.06404
5.968,0.04378
5.972,0.09925
5.976,0.11865
5.98,0.12102
5.984,0.12934
5.988,0.14392
5.992,0.12106
5.996,0.13125
6.0,0.11552
6.004,0.14088
6.008,0.08677
6.012,0.09504
6.016,0.06437
6.02,0.07282
6.024,0.04318
6.028,0.05224
6.032,0.0471
6.036,0.06968
6.04,0.03733
6.044,0.03343
6.048,0.01306
6.052,0.0344
6.056,0.02699
6.06,0.02772
6.064,0.01314
6.068,0.02999
6.072,0.02535
6.076,0.01597
6.08,0.04198
6.084,0.05138
6.088,0.02693
6.092,0.03528
6.096,0.02575
6.1,0.02301
6.104,0.01521
6.108,-0.00244
6.112,-0.03364
6.116,-0.07715
6.12,-0.07307
6.124,-0.07114
6.128,0.02251
6.132,0.19077
6.136,0.4055
6.14,0.58934
6.144,0.80178
6.148,0.97198
6.152,1.03193
6.156,0.99233
6.16,0.86332
6.164,0.61075
6.168,0.3766
6.172,0.17376
6.176,-0.00279
6.18,-0.07101
6.184,-0.15019
6.188,-0.11414
6.192,-0.06014
6.196,-0.04755
6.2,0.01569
6.204,-0.00247
6.208,0.02783
6.212,0.02984
6.216,0.03873
6.22,0.02936
6.224,0.04155
6.228,0.0136
6.232,0.0238
6.236,0.03219
6.24,0.04263
6.244,0.02845
6.248,0.02599
6.252,0.02635
6.256,0.02151
6.26,0.02886
6.264,0.02555
6.268,0.04206
6.272,0.07409
6.276,0.03442
6.28,0.03295
6.284,0.02857
6.288,0.02848
6.292,0.02672
6.296,0.03168
6.3,0.02593
6.304,0.05861
6.308,0.04243
6.312,0.04156
6.316,0.03466
6.32,0.02275
6.324,0.0462
6.328,0.03269
6.332,0.0369
6.336,0.04041
6.34,0.05214
6.344,0.0457
6.348,0.05769
6.352,0.0774
6.356,0.09928
6.36,0.10226
6.364,0.08974
6.368,0.10481
6.372,0.10286
6.376,0.1667
6.38,0.12728
6.384,0.14349
6.388,0.12235
6.392,0.18849
6.396,0.19829
6.4,0.19593
6.404,0.2002
6.408,0.21241
6.412,0.19227
6.416,0.21383
6.42,0.26092
6.424,0.24466
6.428,0.26751
6.432,0.25865
6.436,0.2482
6.44,0.24714
6.444,0.24306
6.448,0.23195
6.452,0.24385
6.456,0.24309
6.46,0.23296
6.464,0.20139
6.468,0.15576
6.472,0.17815
6.476,0.14837
6.48,0.15489
6.484,0.14363
6.488,0.13268
6.492,0.12515
6.496,0.11376
6.5,0.09314
6.504,0.09795
6.508,0.07424
6.512,0.07743
6.516,0.06034
6.52,0.03601
6.524,0.04318
6.528,0.03937
6.532,0.06923
6.536,0.0444
6.54,0.05497
6.544,0.04462
6.548,0.05386
6.552,0.02942
6.556,0.02382
6.56,0.02313
6.564,0.03676
6.568,0.01979
6.572,0.04775
6.576,0.02643
6.58,0.05114
6.584,0.0409
6.588,0.00801
6.592,0.02047
6.596,0.01184
6.6,0.00901
6.604,0.01421
6.608,0.00968
6.612,-0.00179
6.616,0.02181
6.62,0.04446
6.624,0.009
6.628,0.00406
6.632,0.04674
6.636,0.01103
6.64,0.01492
6.644,0.04688
6.648,0.02123
6.652,0.03579
6.656,0.02247
6.66,-0.0016
6.664,0.02699
6.668,0.01357
6.672,0.03991
6.676,-0.00483
6.68,0.03778
6.684,0.00532
6.688,0.03371
6.692,0.0393
6.696,0.02244
6.7,0.03502
6.704,0.03824
6.708,0.01946
6.712,0.02045
6.716,0.01512
6.72,0.01981
6.724,0.02315
6.728,0.02237
6.732,0.0355
6.736,0.01624
6.74,0.02468
6.744,0.03031
6.748,0.03186
6.752,0.03824
6.756,0.05952
6.76,0.06558
6.764,0.04422
6.768,0.0843
6.772,0.07692
6.776,0.12109
6.78,0.093
6.784,0.09928
6.788,0.07262
6.792,0.1144
6.796,0.1123
6.8,0.12482
6.804,0.11281
6.808,0.08777
6.812,0.08904
6.816,0.07343
6.82,0.0628
6.824,0.05106
6.828,0.06031
6.832,0.02531
6.836,0.02227
6.84,0.01338
6.844,0.04499
6.848,0.03086
6.852,0.02398
6.856,0.03361
6.86,0.02236
6.864,0.04688
6.868,0.02799
6.872,0.04079
6.876,-0.00215
6.88,0.00494
6.884,0.00205
6.888,0.01797
6.892,0.01403
6.896,0.02203
6.9,0.04372
6.904,0.00998
6.908,-0.01175
6.912,-0.04792
6.916,-0.06973
6.92,-0.08525
6.924,-0.01838
6.928,0.02852
6.932,0.18139
6.936,0.36521
6.94,0.58795
6.944,0.77973
6.948,0.94843
6.952,0.98975
6.956,0.97518
6.96,0.80273
6.964,0.63386
6.968,0.40893
6.972,0.1922
6.976,0.00559
6.98,-0.12151
6.984,-0.15685
6.988,-0.12459
6.992,-0.09706
6.996,-0.06447
7.0,-0.04494
7.004,0.00605
7.008,-0.00058
7.012,0.02264
7.016,0.02562
7.02,0.01068
7.024,0.00615
7.028,0.01708
7.032,-0.00031
7.036,0.00636
7.04,0.0288
7.044,-0.02658
7.048,-0.00864
7.052,0.01025
7.056,0.00997
7.06,0.0081
7.064,0.02556
7.068,-0.00433
7.072,0.00583
7.076,0.01573
7.08,0.01865
7.084,-0.01511
7.088,0.01505
7.092,0.01495
7.096,0.02124
7.1,0.01544
7.104,0.01441
7.108,0.02146
7.112,0.0115
7.116,0.02284
7.12,0.02349
7.124,0.0262
7.128,0.03425
7.132,0.0388
7.136,0.03047
7.14,0.05389
7.144,0.03085
7.148,0.02943
7.152,0.06028
7.156,0.0868
7.16,0.06753
7.164,0.06575
7.168,0.11145
7.172,0.11806
7.176,0.08378
7.18,0.12901
7.184,0.14702
7.188,0.15499
7.192,0.1594
7.196,0.16852
7.2,0.17233
7.204,0.19101
7.208,0.19835
7.212,0.20539
7.216,0.21529
7.22,0.2119
7.224,0.23761
7.228,0.25121
7.232,0.24483
7.236,0.19789
7.24,0.23562
7.244,0.21982
7.248,0.2403
7.252,0.19078
7.256,0.18523
7.26,0.18581
7.264,0.18451
7.268,0.16154
7.272,0.15079
7.276,0.15966
7.28,0.15951
7.284,0.11708
7.288,0.10639
7.292,0.10489
7.296,0.07799
7.3,0.11793
7.304,0.06844
7.308,0.08279
7.312,0.07816
7.316,0.05127
7.32,0.04181
7.324,0.05256
7.328,0.0705
7.332,0.01686
7.336,0.01801
7.34,0.01679
7.344,-0.00357
7.348,0.0381
7.352,0.03057
7.356,0.02776
7.36,-0.00888
7.364,0.02413
7.368,-0.00701
7.372,0.01583
7.376,0.00598
7.38,0.00708
7.384,0.01355
7.388,0.02635
7.392,0.02936
7.396,0.00439
7.4,0.01705
7.404,0.01035
7.408,0.01333
7.412,0.02476
7.416,0.00424
7.42,0.00547
7.424,0.00631
7.428,0.02531
7.432,-0.0002
7.436,-0.00793
7.44,-0.00428
7.444,0.00286
7.448,0.01925
7.452,0.02069
7.456,0.01739
7.46,0.01736
7.464,0.01412
7.468,-0.0116
7.472,-0.00071
7.476,-0.00133
7.48,-0.00073
7.484,0.0006
7.488,0.00468
7.492,0.00404
7.496,-0.00065
7.5,0.02328
7.504,-0.00665
7.508,-0.0269
7.512,0.02062
7.516,-0.01339
7.52,0.02274
7.524,0.02239
7.528,-0.0011
7.532,0.02691
7.536,0.01325
7.54,0.0157
7.544,0.00411
7.548,0.0272
7.552,-0.01776
7.556,0.00237
7.56,0.02146
7.564,0.00675
7.568,-0.0099
7.572,-0.0085
7.576,0.02715
7.58,0.02115
7.584,0.02681
7.588,0.03957
7.592,0.02926
7.596,0.04836
7.6,0.0919
7.604,0.09663
7.608,0.1065
7.612,0.0899
7.616,0.13638
7.62,0.0917
7.624,0.07942
7.628,0.05049
7.632,0.06868
7.636,0.06945
7.64,0.04351
7.644,0.02678
7.648,0.03372
7.652,0.03192
7.656,0.01789
7.66,0.01778
7.664,-0.00685
7.668,0.02959
7.672,0.03098
7.676,-0.00839
7.68,0.01674
7.684,0.00865
7.688,0.0006
7.692,0.00188
7.696,-0.00315
7.7,0.02041
7.704,-0.02622
7.708,-0.01171
7.712,-0.01653
7.716,-0.0408
7.72,0.00369
7.724,0.00174
7.728,-0.01012
7.732,-0.03765
7.736,-0.06879
7.74,-0.12275
7.744,-0.11674
7.748,-0.03884
7.752,0.03895
7.756,0.19102
7.76,0.39744
7.764,0.61992
7.768,0.84061
7.772,0.93576
7.776,0.98436
7.78,0.9203
7.784,0.78971
7.788,0.55641
7.792,0.32464
7.796,0.09279
7.8,-0.04089
7.804,-0.12825
7.808,-0.16897
7.812,-0.16358
7.816,-0.12748
7.82,-0.05548
7.824,-0.05308
7.828,-0.0091
7.832,-0.0003
7.836,0.01368
7.84,-0.00433
7.844,0.0158
7.848,0.01218
7.852,-0.00346
7.856,0.00558
7.86,0.01065
7.864,0.00852
7.868,-0.00284
7.872,0.01371
7.876,0.00676
7.88,0.03348
7.884,-0.01125
7.888,0.0056
7.892,0.00802
7.896,0.00956
7.9,-0.00167
7.904,-0.01773
7.908,0.00889
7.912,0.01227
7.916,0.00536
7.92,0.00976
7.924,-0.00127
7.928,-0.00557
7.932,-0.00843
7.936,0.04204
7.94,-0.02136
7.944,0.00185
7.948,0.02328
7.952,-0.02371
7.956,-0.00442
7.96,0.03829
7.964,0.04139
7.968,-0.0085
7.972,0.04566
7.976,0.02056
7.98,0.03003
7.984,0.06394
7.988,0.0532
7.992,0.07264
7.996,0.08077
8.0,0.09127
8.004,0.09923
8.008,0.14151
8.012,0.12305
8.016,0.14758
8.02,0.13833
8.024,0.16851
8.028,0.16291
8.032,0.18325
8.036,0.18409
8.04,0.21865
8.044,0.19061
8.048,0.23903
8.052,0.1934
8.056,0.19895
8.06,0.19696
8.064,0.23175
8.068,0.17148
8.072,0.20881
8.076,0.17567
8.08,0.17366
8.084,0.13788
8.088,0.15799
8.092,0.14255
8.096,0.1268
8.1,0.14099
8.104,0.10942
8.108,0.09157
8.112,0.10297
8.116,0.09498
8.12,0.08108
8.124,0.05001
8.128,0.06605
8.132,0.0528
8.136,0.00512
8.14,0.02739
8.144,0.01187
8.148,-0.00125
8.152,-0.01444
8.156,0.00658
8.16,-0.01051
8.164,-0.00286
8.168,-0.00018
8.172,-0.01074
8.176,-0.01113
8.18,-0.00467
8.184,-0.01294
8.188,0.0054
8.192,-0.01956
8.196,-0.00492
8.2,-0.01513
8.204,0.01426
8.208,-0.02075
8.212,-0.02587
8.216,-0.00437
8.22,0.0027
8.224,-0.0127
8.228,-0.01043
8.232,-0.00874
8.236,-0.02854
8.24,-0.0044
8.244,-0.00249
8.248,-0.03016
8.252,-0.04527
8.256,-0.03206
8.26,-0.02077
8.264,-0.01152
8.268,-0.03781
8.272,-0.01631
8.276,-0.00237
8.28,-0.00068
8.284,-0.0095
8.288,-0.00607
8.292,-0.02088
8.296,-0.02079
8.3,-0.03067
8.304,0.00113
8.308,-0.0338
8.312,-0.02934
8.316,-0.03223
8.32,0.00608
8.324,-0.03467
8.328,-0.02209
8.332,-0.03502
8.336,-0.04485
8.34,0.00266
8.344,-0.01424
8.348,-0.02389
8.352,-0.01538
8.356,-0.0047
8.36,-0.00914
8.364,-0.02322
8.368,-0.0185
8.372,-0.03032
8.376,-0.02862
8.38,-0.02203
8.384,-0.02111
8.388,-0.02684
8.392,-0.0225
8.396,-0.02392
8.4,-0.02139
8.404,-0.03863
8.408,-0.03278
8.412,-0.01019
8.416,-0.05516
8.42,-0.03758
8.424,-0.04465
8.428,-0.01726
8.432,0.00235
8.436,-0.03168
8.44,-0.03137
8.444,-0.01548
8.448,-0.01072
8.452,-0.03449
8.456,-0.0114
8.46,-0.01005
8.464,-0.01765
8.468,-0.01323
8.472,-0.02277
8.476,0.02615
8.48,-0.02375
8.484,0.04633
8.488,0.01536
8.492,0.00722
8.496,0.03826
8.5,0.01973
8.504,0.05444
8.508,0.07923
8.512,0.0807
8.516,0.06177
8.52,0.10492
8.524,0.06519
8.528,0.0751
8.532,0.08136
8.536,0.06192
8.54,0.08272
8.544,0.02315
8.548,-0.00299
8.552,0.01426
8.556,0.01096
8.56,-0.01135
8.564,-0.00504
8.568,-0.03557
8.572,-0.02483
8.576,-0.02242
8.58,-0.04766
8.584,-0.03303
8.588,-0.00844
8.592,-0.02802
8.596,-0.02932
8.6,-0.03695
8.604,-0.03643
8.608,-0.04018
8.612,-0.03283
8.616,0.01624
8.62,-0.01774
8.624,-0.01318
8.628,-0.01042
8.632,-0.03268
8.636,-0.04563
8.64,-0.07695
8.644,-0.10669
8.648,-0.12493
8.652,-0.13232
8.656,-0.03783
8.66,0.09516
8.664,0.3009
8.668,0.49572
8.672,0.71923
8.676,0.85772
8.68,0.95737
8.684,0.93678
8.688,0.83031
8.692,0.62428
8.696,0.37332
8.7,0.19391
8.704,-0.02766
8.708,-0.13425
8.712,-0.1827
8.716,-0.16166
8.72,-0.13346
8.724,-0.11151
8.728,-0.10144
8.732,-0.03831
8.736,-0.0359
8.74,-0.0117
8.744,-0.01502
8.748,-0.02229
8.752,-0.05922
8.756,-0.03864
8.76,-0.03862
8.764,-0.0066
8.768,-0.01072
8.772,-0.0062
8.776,-0.02672
8.78,-0.01701
8.784,-0.02232
8.788,-0.04418
8.792,-0.00289
8.796,-0.02389
8.8,-0.01904
8.804,-0.01244
8.808,-0.04063
8.812,-0.02258
8.816,-0.04115
8.82,-0.00036
8.824,-0.02225
8.828,-0.04838
8.832,-0.04454
8.836,-0.02625
8.84,0.00282
8.844,-0.02832
8.848,-0.02129
8.852,-0.00034
8.856,-0.01529
8.86,-0.00458
8.864,-0.03615
8.868,-0.0063
8.872,0.01367
8.876,0.00669
8.88,0.00695
8.884,0.02923
8.888,0.04081
8.892,0.05498
8.896,0.0544
8.9,0.0466
8.904,0.04938
8.908,0.09751
8.912,0.11621
8.916,0.12737
8.92,0.12187
8.924,0.13829
8.928,0.17675
8.932,0.15257
8.936,0.14705
8.94,0.17974
8.944,0.16277
8.948,0.18185
8.952,0.18232
8.956,0.19155
8.96,0.17611
8.964,0.20273
8.968,0.18995
8.972,0.19236
8.976,0.18381
8.98,0.18421
8.984,0.19181
8.988,0.13967
8.992,0.13941
8.996,0.12957
9.0,0.13604
9.004,0.1051
9.008,0.08903
9.012,0.10207
9.016,0.08087
9.02,0.05407
9.024,0.04013
9.028,0.07364
9.032,0.04225
9.036,0.04923
9.04,0.00259
9.044,0.00831
9.048,-0.00454
9.052,-0.00447
9.056,0.01673
9.06,-0.01404
9.064,-0.02252
9.068,-0.02188
9.072,-0.04656
9.076,-0.03579
9.08,-0.01476
9.084,-0.03703
9.088,-0.03326
9.092,-0.01879
9.096,-0.01922
9.1,-0.02319
9.104,-0.00296
9.108,-0.03239
9.112,-0.02786
9.116,-0.0026
9.12,-0.04705
9.124,-0.04317
9.128,-0.04441
9.132,-0.01702
9.136,-0.0219
9.14,-0.02171
9.144,-0.03232
9.148,-0.03741
9.152,-0.02265
9.156,-0.02371
9.16,-0.00195
9.164,-0.02338
9.168,-0.0486
9.172,-0.02853
9.176,-0.03602
9.18,-0.03329
9.184,-0.03307
9.188,-0.03964
9.192,-0.01076
9.196,-0.0182
9.2,-0.02047
9.204,-0.02239
9.208,-0.01719
9.212,-0.00789
9.216,-0.01877
9.22,-0.02035
9.224,-0.00729
9.228,-0.04643
9.232,-0.01801
9.236,-0.02104
9.24,-0.02876
9.244,-0.00782
9.248,-0.02774
9.252,-0.02579
9.256,-0.04536
9.26,-0.01027
9.264,-0.0418
9.268,-0.04843
9.272,-0.02349
9.276,-0.03471
9.28,-0.01724
9.284,-0.02462
9.288,-0.04854
9.292,-0.03473
9.296,-0.03292
9.3,-0.0245
9.304,-0.0052
9.308,-0.02189
9.312,-0.05932
9.316,-0.03775
9.32,-0.05244
9.324,-0.02991
9.328,-0.01344
9.332,-0.01394
9.336,-0.03237
9.34,-0.02654
9.344,-0.03488
9.348,-0.01405
9.352,-0.04944
9.356,-0.00709
9.36,-0.03503
9.364,-0.0164
9.368,-0.04405
9.372,-0.03508
9.376,0.02119
9.38,-0.02963
9.384,-0.02507
9.388,0.01297
9.392,0.0309
9.396,0.02667
9.4,0.06556
9.404,0.05158
9.408,0.06813
9.412,0.06102
9.416,0.06045
9.42,0.08308
9.424,0.06661
9.428,0.05463
9.432,0.03469
9.436,0.02603
9.44,0.02149
9.444,0.03821
9.448,-0.03166
9.452,-0.00753
9.456,-0.01503
9.46,-0.01518
9.464,-0.02548
9.468,-0.02336
9.472,-0.03873
9.476,-0.02316
9.48,-0.04183
9.484,-0.02832
9.488,-0.02243
9.492,-0.02237
9.496,-0.06204
9.5,-0.02728
9.504,-0.01385
9.508,-0.01601
9.512,-0.03153
9.516,-0.01012
9.52,-0.04151
9.524,-0.00145
9.528,-0.03583
9.532,-0.04827
9.536,-0.08187
9.54,-0.14894
9.544,-0.11226
9.548,-0.08159
9.552,0.03208
9.556,0.16524
9.56,0.39218
9.564,0.59835
9.568,0.77437
9.572,0.92078
9.576,0.96447
9.58,0.86052
9.584,0.71119
9.588,0.47995
9.592,0.26241
9.596,0.05704
9.6,-0.09782
9.604,-0.17396
9.608,-0.17211
9.612,-0.16556
9.616,-0.15004
9.62,-0.09289
9.624,-0.07151
9.628,-0.02457
9.632,-0.04592
9.636,-0.0093
9.64,-0.01635
9.644,-0.03955
9.648,-0.03219
9.652,-0.03451
9.656,-0.01268
9.66,-0.04673
9.664,-0.02444
9.668,-0.03327
9.672,-0.033
9.676,-0.05819
9.68,-0.00997
9.684,-0.02572
9.688,-0.05405
9.692,-0.04176
9.696,-0.04412
9.7,-0.02086
9.704,-0.01888
9.708,-0.04848
9.712,-0.05149
9.716,-0.02767
9.72,-0.01238
9.724,-0.0219
9.728,-0.02602
9.732,-0.01548
9.736,-0.00271
9.74,-0.03493
9.744,-0.00202
9.748,-0.01205
9.752,0.02827
9.756,-0.01825
9.76,0.00554
9.764,0.00105
9.768,0.00859
9.772,0.01976
9.776,0.0339
9.78,0.02077
9.784,0.03549
9.788,0.03686
9.792,0.04294
9.796,0.08256
9.8,0.09367
9.804,0.10077
9.808,0.07481
9.812,0.11199
9.816,0.14885
9.82,0.156
9.824,0.13219
9.828,0.14807
9.832,0.15153
9.836,0.15602
9.84,0.18006
9.844,0.17797
9.848,0.17459
9.852,0.15455
9.856,0.21735
9.86,0.21522
9.864,0.18212
9.868,0.19148
9.872,0.1937
9.876,0.19796
9.88,0.16724
9.884,0.14765
9.888,0.11987
9.892,0.1205
9.896,0.12322
9.9,0.11766
9.904,0.06338
9.908,0.1031
9.912,0.07098
9.916,0.04729
9.92,0.04128
9.924,0.01801
9.928,0.01572
9.932,0.01872
9.936,0.00729
9.94,0.0113
9.944,0.03314
9.948,0.00707
9.952,-0.02493
9.956,-0.00321
9.96,-0.01711
9.964,-0.01411
9.968,-0.01616
9.972,-0.02113
9.976,-0.02471
9.98,0.01103
9.984,-0.0133
9.988,-0.01484
9.992,-0.00129
9.996,-0.02841
