t_seg,ecg_mV
0.0,-0.01251
0.004,-0.01606
0.008,0.00196
0.012,0.00115
0.016,-0.00453
0.02,-0.03635
0.024,-0.03597
0.028,-0.02308
0.032,-0.01696
0.036,-0.01732
0.04,-0.01121
0.044,-0.02697
0.048,-0.01455
0.052,-0.03668
0.056,-0.0431
0.06,-0.00592
0.064,-0.00788
0.068,-0.02279
0.072,-0.05882
0.076,-0.02688
0.08,-0.01987
0.084,-0.03234
0.088,-0.03857
0.092,-0.04876
0.096,-0.0373
0.1,-0.03557
0.104,-0.02909
0.108,-0.03856
0.112,-0.02451
0.116,-0.03383
0.12,-0.00749
0.124,-0.01848
0.128,-0.00636
0.132,-0.0203
0.136,-0.04184
0.14,-0.03643
0.144,-0.03102
0.148,-0.03572
0.152,-0.00899
0.156,-0.03871
0.16,-0.01319
0.164,-0.01965
0.168,-0.03793
0.172,-0.04158
0.176,-0.01357
0.18,-0.02125
0.184,-0.04446
0.188,-0.03321
0.192,-0.0265
0.196,-0.02026
0.2,-0.02682
0.204,-0.02362
0.208,-0.04492
0.212,-0.00505
0.216,-0.02298
0.22,0.00472
0.224,-0.01351
0.228,0.00484
0.232,-0.01668
0.236,0.02693
0.24,0.01379
0.244,0.01737
0.248,0.01413
0.252,0.03294
0.256,0.04932
0.26,0.08027
0.264,0.03649
0.268,0.09198
0.272,0.08618
0.276,0.06868
0.28,0.04169
0.284,0.01227
0.288,0.04148
0.292,-0.00681
0.296,0.00294
0.3,-0.00792
0.304,-0.04388
0.308,-0.01044
0.312,-0.02348
0.316,-0.01745
0.32,-0.04584
0.324,-0.02325
0.328,-0.00705
0.332,-0.03223
0.336,-0.02699
0.34,-0.05611
0.344,-0.02566
0.348,-0.03566
0.352,-0.02882
0.356,-0.04363
0.36,-0.02577
0.364,-0.02095
0.368,-0.01881
0.372,-0.0326
0.376,-0.07138
0.38,-0.06204
0.384,-0.07626
0.388,-0.13481
0.392,-0.14581
0.396,-0.13562
0.4,-0.04146
0.404,0.0873
0.408,0.31118
0.412,0.50083
0.416,0.71422
0.42,0.88156
0.424,0.97718
0.428,0.92233
0.432,0.79911
0.436,0.59229
0.44,0.36453
0.444,0.16294
0.448,-0.01105
0.452,-0.15125
0.456,-0.21248
0.46,-0.15225
0.464,-0.14152
0.468,-0.10588
0.472,-0.07505
0.476,-0.05678
0.48,-0.03308
0.484,-0.00589
0.488,-0.04342
0.492,-0.02366
0.496,-0.01345
0.5,-0.01008
0.504,-0.02413
0.508,-0.02627
0.512,-0.01198
0.516,-0.03168
0.52,0.00139
0.524,-0.02394
0.528,-0.02842
0.532,-0.04416
0.536,-0.02008
0.54,-0.04961
0.544,-0.03554
0.548,-0.01996
0.552,-0.05284
0.556,-0.03421
0.56,-0.00211
0.564,-0.00551
0.568,-0.04327
0.572,-0.05023
0.576,-0.02383
0.58,-0.01384
0.584,-0.03951
0.588,-0.0263
0.592,-0.0163
0.596,-0.03478
0.6,0.00424
0.604,-0.00878
0.608,0.02213
0.612,-0.00982
0.616,-0.01041
0.62,-0.00187
0.624,0.02969
0.628,0.0134
0.632,0.02434
0.636,0.01599
0.64,0.04462
0.644,0.0474
0.648,0.02873
0.652,0.08472
0.656,0.0872
0.66,0.10081
0.664,0.09462
0.668,0.07604
0.672,0.13061
0.676,0.15089
0.68,0.15698
0.684,0.16678
0.688,0.17727
0.692,0.18652
0.696,0.19432
0.7,0.18248
0.704,0.21004
0.708,0.19654
0.712,0.21763
0.716,0.15728
0.72,0.18389
0.724,0.18988
0.728,0.19228
0.732,0.1967
0.736,0.15643
0.74,0.1725
0.744,0.21039
0.748,0.18232
0.752,0.19091
0.756,0.17784
0.76,0.16011
0.764,0.17704
0.768,0.14877
0.772,0.13189
0.776,0.11112
0.78,0.11125
0.784,0.07497
0.788,0.05954
0.792,0.03984
0.796,0.03301
0.8,0.02368
0.804,-0.00604
0.808,-0.00698
0.812,0.00427
0.816,-0.04137
0.82,0.00408
0.824,0.01695
0.828,-0.03785
0.832,-0.03174
0.836,-0.01643
0.84,-0.02385
0.844,-0.03968
0.848,-0.03464
0.852,-0.0321
0.856,-0.0276
0.86,-0.03624
0.864,-0.03031
0.868,-0.01262
0.872,-0.04347
0.876,-0.01544
0.88,-0.05583
0.884,-0.08178
0.888,-0.1065
0.892,-0.11892
0.896,-0.15529
0.9,-0.02567
0.904,0.12746
0.908,0.28258
0.912,0.52165
0.916,0.699
0.92,0.85975
0.924,0.9649
0.928,0.94868
0.932,0.83173
0.936,0.60065
0.94,0.38082
0.944,0.16741
0.948,-0.01321
0.952,-0.146
0.956,-0.18728
0.96,-0.20506
0.964,-0.16934
0.968,-0.12839
0.972,-0.08006
0.976,-0.07151
0.98,-0.05218
0.984,-0.02422
0.988,-0.05493
0.992,-0.0579
0.996,-0.01861
1.0,-0.05126
1.004,-0.01913
1.008,-0.01481
1.012,-0.03435
1.016,-0.05185
1.02,-0.03811
1.024,-0.01827
1.028,-0.04103
1.032,-0.01686
1.036,-0.04977
1.04,-0.03027
1.044,-0.03063
1.048,-0.0329
1.052,-0.01785
1.056,-0.02943
1.06,-0.01207
1.064,-0.02447
1.068,0.01505
1.072,-0.02413
1.076,-0.0304
1.08,-0.01414
1.084,-0.03117
1.088,-0.01413
1.092,-0.0189
1.096,-0.02541
1.1,-0.00887
1.104,-0.01739
1.108,-0.00382
1.112,0.0139
1.116,0.03541
1.12,0.01412
1.124,0.00367
1.128,0.04491
1.132,0.0278
1.136,0.06038
1.14,0.05339
1.144,0.05722
1.148,0.10843
1.152,0.10178
1.156,0.09243
1.16,0.12169
1.164,0.11652
1.168,0.13569
1.172,0.14617
1.176,0.14777
1.18,0.17094
1.184,0.13956
1.188,0.16639
1.192,0.16949
1.196,0.18974
1.2,0.1848
1.204,0.1825
1.208,0.19671
1.212,0.2102
1.216,0.19845
1.22,0.20776
1.224,0.16074
1.228,0.18728
1.232,0.18007
1.236,0.16665
1.24,0.15875
1.244,0.16535
1.248,0.14034
1.252,0.14194
1.256,0.17597
1.26,0.15763
1.264,0.1793
1.268,0.14809
1.272,0.14472
1.276,0.15649
1.28,0.10778
1.284,0.10997
1.288,0.10635
1.292,0.07634
1.296,0.06201
1.3,0.04538
1.304,0.01888
1.308,0.00538
1.312,0.01111
1.316,-0.02282
1.32,-0.02397
1.324,-0.02261
1.328,-0.02563
1.332,0.00778
1.336,-0.01771
1.34,-0.03928
1.344,-0.04661
1.348,-0.02519
1.352,-0.0183
1.356,-0.02019
1.36,-0.04352
1.364,-0.0628
1.368,-0.02862
1.372,-0.03308
1.376,-0.02021
1.38,-0.01604
1.384,-0.01822
1.388,-0.04443
1.392,-0.06339
1.396,-0.1234
1.4,-0.15323
1.404,-0.10641
1.408,-0.02791
1.412,0.1319
1.416,0.27356
1.42,0.5392
1.424,0.73655
1.428,0.88031
1.432,0.97393
1.436,0.94336
1.44,0.85334
1.444,0.61993
1.448,0.36081
1.452,0.16061
1.456,-0.01537
1.46,-0.13461
1.464,-0.1959
1.468,-0.17639
1.472,-0.15415
1.476,-0.10175
1.48,-0.0817
1.484,-0.04523
1.488,-0.02326
1.492,-0.04092
1.496,0.00275
1.5,0.00555
1.504,-0.0332
1.508,-0.01794
1.512,-0.01043
1.516,-0.0071
1.52,-0.01199
1.524,-0.02699
1.528,-0.02601
1.532,-0.00371
1.536,-0.01543
1.54,-0.01555
1.544,-0.03485
1.548,-0.01165
1.552,-0.03095
1.556,-0.0415
1.56,-0.0273
1.564,-0.02914
1.568,-0.01453
1.572,-0.01476
1.576,-0.0074
1.58,-0.03411
1.584,-0.02251
1.588,-0.01464
1.592,-0.00421
1.596,0.01807
1.6,-0.01748
1.604,0.01239
1.608,0.02332
1.612,0.00179
1.616,-0.00473
1.62,0.01581
1.624,-0.01183
1.628,0.02075
1.632,0.03469
1.636,0.05132
1.64,0.04233
1.644,0.07983
1.648,0.04657
1.652,0.07212
1.656,0.07489
1.66,0.08736
1.664,0.10261
1.668,0.1359
1.672,0.13364
1.676,0.14756
1.68,0.14614
1.684,0.1629
1.688,0.19702
1.692,0.20495
1.696,0.19005
1.7,0.21225
1.704,0.19387
1.708,0.1897
1.712,0.22055
1.716,0.18849
1.72,0.18324
1.724,0.18988
1.728,0.18503
1.732,0.1667
1.736,0.1399
1.74,0.20116
1.744,0.14765
1.748,0.14283
1.752,0.18263
1.756,0.14058
1.76,0.11147
1.764,0.12136
1.768,0.06665
1.772,0.07645
1.776,0.0892
1.78,0.05293
1.784,0.06141
1.788,0.05423
1.792,0.03121
1.796,0.02053
1.8,0.01403
1.804,0.03508
1.808,-0.00233
1.812,-0.01148
1.816,-0.00964
1.82,-0.0248
1.824,-0.01046
1.828,0.00107
1.832,-0.00669
1.836,0.0097
1.84,-0.03926
1.844,-0.02318
1.848,0.00826
1.852,-0.00529
1.856,-0.0019
1.86,-0.01753
1.864,-0.00358
1.868,-0.00975
1.872,-0.01803
1.876,-0.01357
1.88,-0.00231
1.884,-0.00654
1.888,0.00996
1.892,-0.01151
1.896,-0.01546
1.9,-0.02072
1.904,-0.01253
1.908,-0.01397
1.912,-0.0184
1.916,0.00148
1.92,-0.01229
1.924,0.00143
1.928,0.02865
1.932,-0.03025
1.936,-0.02649
1.94,-9e-05
1.944,0.00219
1.948,-0.01005
1.952,-0.01834
1.956,0.01109
1.96,0.0137
1.964,0.00447
1.968,0.02623
1.972,0.06088
1.976,0.04443
1.98,0.09357
1.984,0.06452
1.988,0.08231
1.992,0.09632
1.996,0.12751
2.0,0.097
2.004,0.09635
2.008,0.08757
2.012,0.07431
2.016,0.06976
2.02,0.01498
2.024,0.03231
2.028,0.0191
2.032,-0.01722
2.036,0.00402
2.04,0.00507
2.044,0.02644
2.048,-0.01199
2.052,-0.01665
2.056,0.00321
2.06,-0.00179
2.064,0.00961
2.068,0.00656
2.072,-0.01215
2.076,-0.00321
2.08,-0.01773
2.084,0.01179
2.088,0.01489
2.092,0.05218
2.096,0.00209
2.1,0.00547
2.104,-0.01701
2.108,-0.01478
2.112,-0.05357
2.116,-0.06906
2.12,-0.13174
2.124,-0.10345
2.128,-0.0943
2.132,0.04196
2.136,0.1924
2.14,0.41576
2.144,0.62977
2.148,0.82521
2.152,0.95461
2.156,1.01052
2.16,0.89817
2.164,0.74857
2.168,0.52694
2.172,0.25694
2.176,0.06503
2.18,-0.05493
2.184,-0.13559
2.188,-0.1795
2.192,-0.13886
2.196,-0.09933
2.2,-0.04654
2.204,-0.01984
2.208,-0.03219
2.212,0.00378
2.216,-0.0198
2.22,-0.00945
2.224,-0.03341
2.228,-0.00885
2.232,0.01807
2.236,0.01923
2.24,-0.0014
2.244,-0.01179
2.248,0.03633
2.252,0.01414
2.256,-0.00553
2.26,-0.00645
2.264,0.00098
2.268,0.00622
2.272,0.00127
2.276,0.02796
2.28,-0.00501
2.284,0.00788
2.288,0.00274
2.292,0.0062
2.296,0.01025
2.3,0.02116
2.304,-0.01265
2.308,-0.02567
2.312,-0.03271
2.316,-0.00435
2.32,-0.00387
2.324,-0.00838
2.328,0.00976
2.332,0.02485
2.336,0.01421
2.34,0.03562
2.344,0.02347
2.348,0.02874
2.352,0.05934
2.356,0.05156
2.36,0.03114
2.364,0.05331
2.368,0.11004
2.372,0.07915
2.376,0.11195
2.38,0.12514
2.384,0.10611
2.388,0.11438
2.392,0.15916
2.396,0.18091
2.4,0.1503
2.404,0.18833
2.408,0.18853
2.412,0.19541
2.416,0.21045
2.42,0.20454
2.424,0.2357
2.428,0.2171
2.432,0.24589
2.436,0.23863
2.44,0.22539
2.444,0.22931
2.448,0.22506
2.452,0.22077
2.456,0.2284
2.46,0.17484
2.464,0.1777
2.468,0.17182
2.472,0.15864
2.476,0.17621
2.48,0.13567
2.484,0.17335
2.488,0.09421
2.492,0.1112
2.496,0.07571
2.5,0.07659
2.504,0.07382
2.508,0.03412
2.512,0.03857
2.516,0.02265
2.52,0.02246
2.524,0.01576
2.528,0.03019
2.532,0.0163
2.536,0.03496
2.54,0.04064
2.544,0.02888
2.548,-0.00844
2.552,0.04974
2.556,0.0149
2.56,0.04019
2.564,0.02441
2.568,-0.01594
2.572,0.00907
2.576,0.03457
2.58,0.00908
2.584,0.01285
2.588,0.02733
2.592,0.01697
2.596,0.00294
2.6,0.02957
2.604,0.02716
2.608,-0.00826
2.612,-0.01784
2.616,-0.0005
2.62,0.0115
2.624,0.03087
2.628,0.00643
2.632,0.02492
2.636,-0.01335
2.64,0.02485
2.644,-0.0079
2.648,0.03268
2.652,-0.00153
2.656,-0.00116
2.66,0.01235
2.664,0.05074
2.668,0.03948
2.672,0.0042
2.676,0.01408
2.68,-0.00903
2.684,0.00372
2.688,0.00723
2.692,0.03568
2.696,0.03152
2.7,0.02103
2.704,-0.00157
2.708,0.03215
2.712,0.02628
2.716,0.01952
2.72,0.01478
2.724,-0.00091
2.728,0.01437
2.732,0.00215
2.736,0.02006
2.74,0.02008
2.744,0.00884
2.748,0.02487
2.752,0.01765
2.756,0.01103
2.76,0.03496
2.764,0.01763
2.768,0.03812
2.772,0.02558
2.776,-0.01572
2.78,0.0246
2.784,0.04677
2.788,0.04203
2.792,0.08033
2.796,0.06716
2.8,0.085
2.804,0.10838
2.808,0.07395
2.812,0.14876
2.816,0.1318
2.82,0.13008
2.824,0.09215
2.828,0.09381
2.832,0.07504
2.836,0.07558
2.84,0.04543
2.844,0.05824
2.848,0.03142
2.852,0.03347
2.856,0.04427
2.86,0.03403
2.864,0.04536
2.868,0.00739
2.872,-7e-05
2.876,0.03002
2.88,0.02026
2.884,0.03897
2.888,0.0287
2.892,0.01982
2.896,0.01716
2.9,0.02965
2.904,0.0167
2.908,0.03352
2.912,0.02089
2.916,0.01884
2.92,0.00894
2.924,-0.00049
2.928,0.0013
2.932,-0.00853
2.936,-0.04683
2.94,-0.09147
2.944,-0.11282
2.948,-0.04151
2.952,0.05855
2.956,0.18388
2.96,0.40734
2.964,0.63687
2.968,0.81477
2.972,0.95016
2.976,1.04649
2.98,0.97383
2.984,0.82018
2.988,0.61687
2.992,0.34578
2.996,0.15041
3.0,-0.01091
3.004,-0.12347
3.008,-0.14271
3.012,-0.12566
3.016,-0.08663
3.02,-0.033
3.024,-0.02592
3.028,-0.00624
3.032,0.04829
3.036,0.01223
3.04,0.0162
3.044,-0.00645
3.048,-0.00075
3.052,0.04211
3.056,0.00675
3.06,0.00918
3.064,0.01371
3.068,0.05039
3.072,0.01915
3.076,0.01829
3.08,0.03697
3.084,0.0149
3.088,0.01217
3.092,-0.01208
3.096,0.00273
3.1,0.03179
3.104,0.04105
3.108,0.00321
3.112,0.03219
3.116,0.04429
3.12,0.01199
3.124,0.02855
3.128,0.04478
3.132,0.04806
3.136,0.03119
3.14,0.0185
3.144,0.04465
3.148,0.02598
3.152,0.03198
3.156,0.04957
3.16,0.03587
3.164,0.04808
3.168,0.05319
3.172,0.06835
3.176,0.09823
3.18,0.08787
3.184,0.08192
3.188,0.09233
3.192,0.09813
3.196,0.13321
3.2,0.12022
3.204,0.16469
3.208,0.16055
3.212,0.13821
3.216,0.1604
3.22,0.17892
3.224,0.20514
3.228,0.20639
3.232,0.22319
3.236,0.2016
3.24,0.21758
3.244,0.23996
3.248,0.23077
3.252,0.22464
3.256,0.24682
3.26,0.23432
3.264,0.23855
3.268,0.24418
3.272,0.22387
3.276,0.25204
3.28,0.2043
3.284,0.18962
3.288,0.19558
3.292,0.18899
3.296,0.17467
3.3,0.17708
3.304,0.12155
3.308,0.13361
3.312,0.11571
3.316,0.12617
3.32,0.12035
3.324,0.0888
3.328,0.08941
3.332,0.0874
3.336,0.06526
3.34,0.04194
3.344,0.07054
3.348,0.08744
3.352,0.02664
3.356,0.06474
3.36,0.04161
3.364,0.05477
3.368,0.00878
3.372,0.0568
3.376,0.01398
3.38,0.00332
3.384,0.05345
3.388,0.02256
3.392,0.04959
3.396,0.02215
3.4,0.03236
3.404,0.02653
3.408,0.0243
3.412,0.05088
3.416,0.02311
3.42,0.04777
3.424,0.04903
3.428,0.07774
3.432,0.10194
3.436,0.10489
3.44,0.09688
3.444,0.14497
3.448,0.13118
3.452,0.14641
3.456,0.13103
3.46,0.12574
3.464,0.14273
3.468,0.12388
3.472,0.08742
3.476,0.08453
3.48,0.0576
3.484,0.06348
3.488,0.06061
3.492,0.05442
3.496,0.05372
3.5,0.01505
3.504,0.05253
3.508,0.01309
3.512,0.05894
3.516,0.04712
3.52,0.04029
3.524,0.00999
3.528,0.00523
3.532,0.02578
3.536,0.01522
3.54,0.04173
3.544,0.02713
3.548,0.02689
3.552,0.00692
3.556,0.02511
3.56,0.03922
3.564,0.04068
3.568,0.00192
3.572,-0.00559
3.576,-0.0142
3.58,-0.05012
3.584,-0.09291
3.588,-0.08404
3.592,0.01131
3.596,0.14016
3.6,0.31427
3.604,0.55548
3.608,0.71405
3.612,0.9269
3.616,1.01784
3.62,1.002
3.624,0.88429
3.628,0.692
3.632,0.45768
3.636,0.20848
3.64,0.0324
3.644,-0.06971
3.648,-0.13453
3.652,-0.15031
3.656,-0.10378
3.66,-0.06647
3.664,-0.02467
3.668,0.00336
3.672,0.01883
3.676,0.0389
3.68,0.03581
3.684,0.0387
3.688,0.02465
3.692,0.04071
3.696,0.03297
3.7,0.03348
3.704,0.05481
3.708,0.02697
3.712,0.01655
3.716,0.02046
3.72,0.06617
3.724,0.01845
3.728,0.02344
3.732,0.03041
3.736,0.02971
3.74,0.03209
3.744,0.02661
3.748,0.01984
3.752,0.04381
3.756,0.03413
3.76,0.02872
3.764,0.0415
3.768,0.03192
3.772,0.04399
3.776,0.06391
3.78,0.0158
3.784,0.04168
3.788,0.035
3.792,0.03192
3.796,0.03432
3.8,0.04833
3.804,0.02353
3.808,0.05524
3.812,0.07087
3.816,0.04903
3.82,0.08907
3.824,0.10109
3.828,0.08979
3.832,0.09675
3.836,0.11774
3.84,0.1267
3.844,0.13331
3.848,0.15398
3.852,0.15478
3.856,0.18588
3.86,0.19783
3.864,0.22175
3.868,0.20062
3.872,0.24593
3.876,0.21491
3.88,0.23245
3.884,0.25369
3.888,0.23441
3.892,0.26201
3.896,0.25458
3.9,0.2243
3.904,0.24554
3.908,0.26704
3.912,0.23
3.916,0.20271
3.92,0.22239
3.924,0.19357
3.928,0.20215
3.932,0.16606
3.936,0.19042
3.94,0.15471
3.944,0.17325
3.948,0.15624
3.952,0.14413
3.956,0.11706
3.96,0.14063
3.964,0.09398
3.968,0.08645
3.972,0.10139
3.976,0.10189
3.98,0.0787
3.984,0.05018
3.988,0.04677
3.992,0.0506
3.996,0.02984
4.0,0.06815
4.004,0.01095
4.008,0.04807
4.012,0.01043
4.016,0.05197
4.02,0.03418
4.024,0.022
4.028,0.03999
4.032,0.0375
4.036,0.0215
4.04,0.03693
4.044,0.03579
4.048,0.05954
4.052,0.05871
4.056,0.06418
4.06,0.08295
4.064,0.07054
4.068,0.0996
4.072,0.08962
4.076,0.09279
4.08,0.12364
4.084,0.12523
4.088,0.15282
4.092,0.10882
4.096,0.12548
4.1,0.10108
4.104,0.10411
4.108,0.07571
4.112,0.10836
4.116,0.04575
4.12,0.06515
4.124,0.03348
4.128,0.03411
4.132,0.03203
4.136,0.02184
4.14,0.05537
4.144,0.01322
4.148,0.03365
4.152,0.03113
4.156,0.00837
4.16,0.03657
4.164,0.05836
4.168,0.03473
4.172,0.04847
4.176,0.01706
4.18,0.02219
4.184,0.02431
4.188,0.03175
4.192,0.04869
4.196,0.03426
4.2,0.0223
4.204,-0.03929
4.208,-0.03141
4.212,-0.08657
4.216,-0.08705
4.22,-0.01688
4.224,0.10706
4.228,0.2633
4.232,0.50772
4.236,0.71496
4.24,0.91175
4.244,1.01205
4.248,1.03027
4.252,0.93548
4.256,0.72717
4.26,0.51418
4.264,0.28257
4.268,0.08978
4.272,-0.03589
4.276,-0.13495
4.28,-0.10995
4.284,-0.14237
4.288,-0.03989
4.292,0.00147
4.296,0.00126
4.3,0.0112
4.304,0.02345
4.308,-0.01139
4.312,0.03836
4.316,0.02648
4.32,0.0336
4.324,0.04363
4.328,0.01752
4.332,0.0252
4.336,0.02171
4.34,0.03986
4.344,0.03463
4.348,0.0318
4.352,0.03695
4.356,0.03526
4.36,0.0133
4.364,0.02526
4.368,0.0201
4.372,0.02011
4.376,0.04662
4.38,0.04112
4.384,0.02677
4.388,0.03909
4.392,0.00985
4.396,0.02822
4.4,0.03033
4.404,0.0203
4.408,0.04504
4.412,0.03344
4.416,0.02182
4.42,0.02549
4.424,0.0281
4.428,0.03915
4.432,0.03845
4.436,0.03433
4.44,0.05297
4.444,0.04362
4.448,0.0738
4.452,0.08358
4.456,0.06322
4.46,0.12459
4.464,0.10857
4.468,0.11181
4.472,0.12025
4.476,0.1477
4.48,0.14628
4.484,0.14695
4.488,0.20278
4.492,0.18249
4.496,0.2056
4.5,0.21187
4.504,0.22166
4.508,0.2288
4.512,0.2198
4.516,0.24378
4.52,0.23989
4.524,0.2598
4.528,0.23704
4.532,0.2483
4.536,0.22261
4.54,0.21185
4.544,0.23374
4.548,0.24347
4.552,0.20049
4.556,0.19373
4.56,0.20195
4.564,0.17298
4.568,0.16912
4.572,0.14033
4.576,0.14472
4.58,0.13221
4.584,0.10531
4.588,0.12153
4.592,0.09768
4.596,0.07438
4.6,0.05935
4.604,0.06328
4.608,0.05069
4.612,0.04842
4.616,0.05216
4.62,0.04874
4.624,0.05834
4.628,0.04526
4.632,0.03024
4.636,0.05244
4.64,0.03213
4.644,0.02067
4.648,0.0385
4.652,0.01376
4.656,0.0404
4.66,0.03262
4.664,0.05221
4.668,0.01328
4.672,0.02469
4.676,0.02677
4.68,0.03352
4.684,-0.00132
4.688,0.02834
4.692,0.04687
4.696,0.04371
4.7,0.02189
4.704,0.03042
4.708,0.02277
4.712,0.04958
4.716,0.01283
4.72,0.02703
4.724,0.0128
4.728,0.01892
4.732,0.022
4.736,0.04171
4.74,0.01179
4.744,-0.01226
4.748,0.01684
4.752,0.0074
4.756,0.04133
4.76,0.0405
4.764,0.03654
4.768,0.01522
4.772,0.04914
4.776,0.02474
4.78,0.03958
4.784,0.0484
4.788,0.01734
4.792,0.05079
4.796,0.05151
4.8,0.06419
4.804,0.09465
4.808,0.08453
4.812,0.10813
4.816,0.1198
4.82,0.10991
4.824,0.12125
4.828,0.10389
4.832,0.12203
4.836,0.0979
4.84,0.10079
4.844,0.08531
4.848,0.04424
4.852,0.0438
4.856,0.06538
4.86,0.0163
4.864,-0.01036
4.868,0.03163
4.872,0.01878
4.876,0.01976
4.88,0.03475
4.884,0.0225
4.888,0.02729
4.892,0.00169
4.896,0.01271
4.9,0.00866
4.904,0.03973
4.908,0.03043
4.912,0.0156
4.916,0.00794
4.92,0.02578
4.924,0.01501
4.928,0.0044
4.932,0.02276
4.936,-0.0079
4.94,0.00109
4.944,-0.06767
4.948,-0.0477
4.952,-0.08162
4.956,-0.03573
4.96,0.02937
4.964,0.22161
4.968,0.43508
4.972,0.63419
4.976,0.8588
4.98,0.98613
4.984,1.01518
4.988,0.93723
4.992,0.76261
4.996,0.56316
5.0,0.31721
5.004,0.11699
5.008,-0.05159
5.012,-0.16136
5.016,-0.15262
5.02,-0.14504
5.024,-0.11793
5.028,-0.05128
5.032,-0.0286
5.036,0.01219
5.04,0.01244
5.044,0.00203
5.048,0.02806
5.052,0.0203
5.056,0.01945
5.06,0.00937
5.064,0.01461
5.068,0.0156
5.072,0.00641
5.076,0.0256
5.08,0.01421
5.084,0.00858
5.088,0.01491
5.092,0.01134
5.096,-0.00428
5.1,0.00026
5.104,0.03034
5.108,-0.00355
5.112,-0.00364
5.116,0.02052
5.12,-0.00314
5.124,0.00341
5.128,0.03754
5.132,-0.02287
5.136,0.02817
5.14,0.02132
5.144,0.02916
5.148,0.00548
5.152,0.00827
5.156,0.02605
5.16,0.04949
5.164,0.02447
5.168,0.03035
5.172,0.05942
5.176,0.02947
5.18,0.03232
5.184,0.05573
5.188,0.06298
5.192,0.04753
5.196,0.09891
5.2,0.08902
5.204,0.10441
5.208,0.13601
5.212,0.10917
5.216,0.11403
5.22,0.14169
5.224,0.15405
5.228,0.16412
5.232,0.20424
5.236,0.18876
5.24,0.20464
5.244,0.2241
5.248,0.18331
5.252,0.18819
5.256,0.23215
5.26,0.22535
5.264,0.23363
5.268,0.20882
5.272,0.218
5.276,0.2083
5.28,0.23738
5.284,0.21017
5.288,0.21187
5.292,0.1781
5.296,0.16288
5.3,0.16585
5.304,0.13069
5.308,0.12658
5.312,0.14949
5.316,0.12373
5.32,0.0924
5.324,0.07654
5.328,0.05785
5.332,0.04773
5.336,0.06147
5.34,0.09858
5.344,0.03416
5.348,0.01661
5.352,0.04434
5.356,0.02565
5.36,0.01318
5.364,0.0076
5.368,0.01415
5.372,0.0216
5.376,0.00026
5.38,-0.00495
5.384,0.03849
5.388,0.03819
5.392,0.0236
5.396,0.0239
5.4,0.04894
5.404,0.08022
5.408,0.0778
5.412,0.07633
5.416,0.10965
5.42,0.108
5.424,0.09315
5.428,0.13
5.432,0.13119
5.436,0.09539
5.44,0.08001
5.444,0.07292
5.448,0.04806
5.452,0.07127
5.456,0.04162
5.46,0.03924
5.464,0.01693
5.468,-0.01059
5.472,0.01125
5.476,0.01465
5.48,0.01474
5.484,-0.01225
5.488,0.00579
5.492,-0.03282
5.496,0.02314
5.5,-0.02178
5.504,-0.00189
5.508,0.00294
5.512,0.01649
5.516,-0.00028
5.52,0.00784
5.524,-0.00367
5.528,0.01237
5.532,-0.00046
5.536,-0.01827
5.54,-0.03814
5.544,-0.04896
5.548,-0.08889
5.552,-0.13194
5.556,-0.07293
5.56,-0.01205
5.564,0.09964
5.568,0.30197
5.572,0.51636
5.576,0.71754
5.58,0.91836
5.584,1.00105
5.588,0.9749
5.592,0.84153
5.596,0.65889
5.6,0.42584
5.604,0.20558
5.608,0.01066
5.612,-0.12188
5.616,-0.16284
5.62,-0.14599
5.624,-0.13598
5.628,-0.11191
5.632,-0.06531
5.636,-0.03265
5.64,-0.01119
5.644,-0.02726
5.648,-0.01784
5.652,0.00591
5.656,-0.01029
5.66,-0.0363
5.664,0.01148
5.668,0.00126
5.672,-0.0128
5.676,2e-05
5.68,0.00013
5.684,-0.02033
5.688,0.00392
5.692,-0.00101
5.696,0.04249
5.7,0.01951
5.704,-0.0161
5.708,-0.0008
5.712,-0.00516
5.716,0.01672
5.72,0.00787
5.724,0.01323
5.728,-0.02642
5.732,-0.03383
5.736,-0.01338
5.74,-0.00671
5.744,-0.00138
5.748,-0.01117
5.752,0.00274
5.756,-0.02077
5.76,-0.00341
5.764,0.00442
5.768,-0.00592
5.772,0.02988
5.776,0.0188
5.78,0.01525
5.784,0.03903
5.788,0.03488
5.792,0.0507
5.796,0.05989
5.8,0.08975
5.804,0.10077
5.808,0.10368
5.812,0.12394
5.816,0.12116
5.82,0.1171
5.824,0.14461
5.828,0.14611
5.832,0.17184
5.836,0.14388
5.84,0.17281
5.844,0.19951
5.848,0.21709
5.852,0.2041
5.856,0.19783
5.86,0.22374
5.864,0.20875
5.868,0.21595
5.872,0.20639
5.876,0.18136
5.88,0.19597
5.884,0.15865
5.888,0.20494
5.892,0.17779
5.896,0.13824
5.9,0.12762
5.904,0.13047
5.908,0.12218
5.912,0.11758
5.916,0.0959
5.92,0.07633
5.924,0.0823
5.928,0.08287
5.932,0.06555
5.936,0.04244
5.94,0.03981
5.944,0.0227
5.948,0.03975
5.952,0.03692
5.956,0.01376
5.96,0.02968
5.964,0.02443
5.968,-0.02228
5.972,-0.02209
5.976,0.00455
5.98,-0.00901
5.984,-0.00056
5.988,-0.02114
5.992,-0.00325
5.996,-0.02337
6.0,-0.01738
6.004,-0.01999
6.008,-0.0301
6.012,-0.0035
6.016,-0.00533
6.02,0.01149
6.024,-0.01749
6.028,0.01059
6.032,0.01293
6.036,-0.00743
6.04,-0.01503
6.044,-0.01104
6.048,-0.02102
6.052,0.01748
6.056,-0.00987
6.06,-0.01481
6.064,-0.01664
6.068,-0.02812
6.072,-0.05111
6.076,-0.03248
6.08,-0.03881
6.084,-0.01645
6.088,-0.02448
6.092,0.01442
6.096,-0.00293
6.1,-0.01576
6.104,-0.02477
6.108,-0.03621
6.112,-0.00207
6.116,-0.01848
6.12,-0.02683
6.124,-0.02736
6.128,-0.03094
6.132,-0.00814
6.136,-0.03148
6.14,-0.03654
6.144,0.00841
6.148,-0.00319
6.152,-0.01683
6.156,0.00044
6.16,-0.00838
6.164,0.00988
6.168,0.00902
6.172,0.04288
6.176,0.03631
6.18,0.06024
6.184,0.07748
6.188,0.07036
6.192,0.07071
6.196,0.06341
6.2,0.07852
6.204,0.10202
6.208,0.06868
6.212,0.06121
6.216,0.05205
6.22,0.00366
6.224,0.02914
6.228,0.0188
6.232,0.01753
6.236,-0.00965
6.24,-0.02553
6.244,-0.03508
6.248,-0.00504
6.252,-0.01075
6.256,-0.02236
6.26,-0.0162
6.264,-0.00951
6.268,-0.00384
6.272,-0.01315
6.276,-0.00741
6.28,-0.00968
6.284,-0.01821
6.288,-0.02735
6.292,-0.02441
6.296,-0.0066
6.3,-0.0311
6.304,-0.03478
6.308,-0.01555
6.312,-0.04918
6.316,-0.10005
6.32,-0.09638
6.324,-0.12231
6.328,-0.11849
6.332,-0.0563
6.336,0.07342
6.34,0.25395
6.344,0.48185
6.348,0.68264
6.352,0.87589
6.356,0.95333
6.36,0.97293
6.364,0.85053
6.368,0.65773
6.372,0.41191
6.376,0.20046
6.38,0.02885
6.384,-0.11547
6.388,-0.18451
6.392,-0.19795
6.396,-0.16851
6.4,-0.13048
6.404,-0.07981
6.408,-0.04054
6.412,-0.0382
6.416,-0.02353
6.42,-0.01331
6.424,-0.03045
6.428,-0.05025
6.432,-0.04409
6.436,-0.0418
6.44,-0.03053
6.444,-0.02953
6.448,-0.02075
6.452,-0.00524
6.456,-0.04047
6.46,-0.04303
6.464,-0.0401
6.468,-0.03621
6.472,-0.00798
6.476,-0.019
6.48,-0.02484
6.484,-0.00958
6.488,-0.00556
6.492,-0.00132
6.496,-0.03806
6.5,-0.00764
6.504,-0.02013
6.508,-0.01831
6.512,-0.03258
6.516,-0.00693
6.52,-0.0211
6.524,-0.01618
6.528,-0.01799
6.532,0.00846
6.536,-0.00323
6.54,-0.00655
6.544,-0.02897
6.548,-0.0096
6.552,0.03037
6.556,0.02161
6.56,0.02248
6.564,0.02714
6.568,0.0478
6.572,0.06482
6.576,0.04581
6.58,0.05598
6.584,0.08444
6.588,0.08238
6.592,0.09977
6.596,0.09576
6.6,0.12939
6.604,0.12633
6.608,0.16703
6.612,0.12048
6.616,0.17256
6.62,0.19606
6.624,0.18469
6.628,0.18481
6.632,0.18681
6.636,0.20059
6.64,0.19489
6.644,0.21107
6.648,0.20544
6.652,0.21567
6.656,0.18735
6.66,0.16369
6.664,0.14794
6.668,0.15473
6.672,0.15366
6.676,0.1056
6.68,0.11579
6.684,0.08516
6.688,0.09362
6.692,0.03257
6.696,0.06993
6.7,0.047
6.704,0.03449
6.708,0.0475
6.712,0.01783
6.716,0.02465
6.72,0.00257
6.724,-0.01127
6.728,0.01781
6.732,0.01701
6.736,-0.02572
6.74,-0.00945
6.744,-0.02801
6.748,-0.01887
6.752,0.01141
6.756,-0.03302
6.76,-0.01622
6.764,-0.02707
6.768,-0.04213
6.772,-0.02431
6.776,-0.01912
6.78,-0.01498
6.784,-0.02835
6.788,-0.0277
6.792,-0.04883
6.796,-0.00735
6.8,-0.03316
6.804,-0.04049
6.808,-0.02829
6.812,-0.04421
6.816,-0.02707
6.82,-0.01458
6.824,-0.04131
6.828,-0.05085
6.832,-0.01342
6.836,-0.01777
6.84,-0.03528
6.844,-0.02842
6.848,-0.00503
6.852,-0.03541
6.856,-0.04347
6.86,-0.02636
6.864,-0.03538
6.868,-0.01509
6.872,-0.01715
6.876,-0.05105
6.88,-0.01641
6.884,-0.04944
6.888,-0.01342
6.892,-0.03366
6.896,-0.02314
6.9,-0.00899
6.904,-0.02384
6.908,-0.02173
6.912,-0.01868
6.916,-0.02385
6.92,-0.01712
6.924,-0.02796
6.928,-0.01821
6.932,-0.03124
6.936,-0.06148
6.94,-0.00971
6.944,-0.03045
6.948,-0.0332
6.952,-0.05144
6.956,-0.0205
6.96,-0.01826
6.964,-0.05801
6.968,-0.04153
6.972,-0.05751
6.976,-0.04547
6.98,-0.00788
6.984,-0.03247
6.988,-0.02524
6.992,0.02265
6.996,0.00476
7.0,0.01646
7.004,0.03518
7.008,0.05191
7.012,0.05485
7.016,0.04163
7.02,0.06592
7.024,0.07661
7.028,0.08355
7.032,0.065
7.036,0.05632
7.04,0.04544
7.044,0.04415
7.048,0.03053
7.052,0.00032
7.056,-0.0066
7.06,-0.02351
7.064,0.00926
7.068,-0.0366
7.072,-0.01682
7.076,-0.01141
7.08,-0.02614
7.084,-0.01538
7.088,-0.03863
7.092,-0.02717
7.096,-0.00915
7.1,-0.04022
7.104,-0.02251
7.108,-0.02183
7.112,-0.02722
7.116,-0.01463
7.12,-0.02888
7.124,-0.00405
7.128,-0.03717
7.132,-0.02723
7.136,-0.00759
7.14,-0.05102
7.144,-0.07367
7.148,-0.11619
7.152,-0.12586
7.156,-0.16466
7.16,-0.0787
7.164,0.11233
7.168,0.2463
7.172,0.46645
7.176,0.66387
7.18,0.84169
7.184,0.95637
7.188,0.96205
7.192,0.85233
7.196,0.63216
7.2,0.43801
7.204,0.16022
7.208,0.02357
7.212,-0.12696
7.216,-0.1767
7.22,-0.18488
7.224,-0.15799
7.228,-0.13318
7.232,-0.09303
7.236,-0.05683
7.24,-0.01244
7.244,-0.0469
7.248,-0.00205
7.252,-0.03936
7.256,-0.0437
7.26,-0.0212
7.264,-0.02971
7.268,-0.05997
7.272,-0.0121
7.276,-0.02361
7.28,-0.0436
7.284,-0.02749
7.288,-0.01447
7.292,-0.01084
7.296,0.00612
7.3,-0.05218
7.304,-0.0434
7.308,-0.0228
7.312,-0.01417
7.316,-0.03996
7.32,-0.04526
7.324,-0.03419
7.328,-0.03115
7.332,-0.02815
7.336,-0.05252
7.34,-0.02822
7.344,-0.01019
7.348,-0.02341
7.352,-0.03809
7.356,-0.01946
7.36,-0.03836
7.364,-0.03247
7.368,0.01356
7.372,0.00268
7.376,0.00138
7.38,-0.0038
7.384,0.01355
7.388,0.04866
7.392,0.03103
7.396,0.05646
7.4,0.02416
7.404,0.08944
7.408,0.07795
7.412,0.09688
7.416,0.11949
7.42,0.13069
7.424,0.11233
7.428,0.12651
7.432,0.13866
7.436,0.13975
7.44,0.16153
7.444,0.16202
7.448,0.16307
7.452,0.18661
7.456,0.1573
7.46,0.20794
7.464,0.16167
7.468,0.1978
7.472,0.21657
7.476,0.16966
7.48,0.16826
7.484,0.15486
7.488,0.15564
7.492,0.15012
7.496,0.15189
7.5,0.12837
7.504,0.14258
7.508,0.12353
7.512,0.10566
7.516,0.11423
7.52,0.07661
7.524,0.07521
7.528,0.04028
7.532,0.03894
7.536,0.05021
7.54,0.0382
7.544,0.02783
7.548,0.02966
7.552,0.02654
7.556,-0.02085
7.56,-0.01973
7.564,-0.03048
7.568,-0.02135
7.572,0.02384
7.576,-0.00468
7.58,-0.02319
7.584,-0.02688
7.588,-0.0294
7.592,-0.02353
7.596,-0.01356
7.6,-0.01397
7.604,-0.02329
7.608,-0.02415
7.612,-0.04746
7.616,-0.02666
7.62,-0.00594
7.624,-0.03884
7.628,-0.0198
7.632,-0.00749
7.636,-0.01729
7.64,0.00469
7.644,-0.00338
7.648,0.01375
7.652,0.01378
7.656,0.03593
7.66,0.02234
7.664,0.06177
7.668,0.07648
7.672,0.07223
7.676,0.06604
7.68,0.05955
7.684,0.07849
7.688,0.06457
7.692,0.07209
7.696,0.02528
7.7,0.03081
7.704,0.01243
7.708,-0.0115
7.712,0.00692
7.716,-0.0027
7.72,-0.0102
7.724,-0.03272
7.728,-0.00584
7.732,-0.01318
7.736,0.0099
7.74,-0.02679
7.744,-0.03385
7.748,-0.04996
7.752,-0.04007
7.756,-0.03227
7.76,-0.02435
7.764,-0.01748
7.768,-0.0341
7.772,0.00305
7.776,-0.04244
7.78,-0.01824
7.784,-0.03944
7.788,-0.04998
7.792,-0.04543
7.796,-0.06863
7.8,-0.12214
7.804,-0.14377
7.808,-0.12684
7.812,-0.04099
7.816,0.06134
7.82,0.24693
7.824,0.46081
7.828,0.68146
7.832,0.88999
7.836,0.94297
7.84,0.94972
7.844,0.856
7.848,0.6794
7.852,0.42103
7.856,0.22394
7.86,0.01705
7.864,-0.09849
7.868,-0.16993
7.872,-0.21383
7.876,-0.15071
7.88,-0.13193
7.884,-0.058
7.888,-0.05775
7.892,-0.04098
7.896,-0.05836
7.9,-0.04162
7.904,-0.02867
7.908,-0.02816
7.912,-0.02268
7.916,-0.01302
7.92,-0.00413
7.924,-0.00947
7.928,-0.02574
7.932,-0.04476
7.936,-0.03377
7.94,-0.03045
7.944,-0.02029
7.948,-0.04155
7.952,-0.01612
7.956,-0.0348
7.96,0.00079
7.964,-0.03457
7.968,-0.02506
7.972,-0.00717
7.976,-0.01552
7.98,-0.01047
7.984,-0.03064
7.988,-0.01169
7.992,-0.03072
7.996,-0.01957
8.0,-0.00355
8.004,-0.01584
8.008,-0.00271
8.012,0.04062
8.016,-0.02135
8.02,0.01124
8.024,0.00142
8.028,0.00669
8.032,-0.00028
8.036,0.02287
8.04,0.04229
8.044,0.00948
8.048,0.04155
8.052,0.04129
8.056,0.06144
8.06,0.05617
8.064,0.11523
8.068,0.11146
8.072,0.12557
8.076,0.10529
8.08,0.15299
8.084,0.11803
8.088,0.16682
8.092,0.15515
8.096,0.18736
8.1,0.15365
8.104,0.20079
8.108,0.20641
8.112,0.18993
8.116,0.21627
8.12,0.19744
8.124,0.20394
8.128,0.19335
8.132,0.19274
8.136,0.18901
8.14,0.16266
8.144,0.15689
8.148,0.16607
8.152,0.14725
8.156,0.12412
8.16,0.10518
8.164,0.12006
8.168,0.12635
8.172,0.09979
8.176,0.07082
8.18,0.0894
8.184,0.04195
8.188,0.03612
8.192,0.03222
8.196,0.0471
8.2,0.03066
8.204,0.0282
8.208,0.00991
8.212,0.00493
8.216,0.00558
8.22,-0.01529
8.224,-0.02775
8.228,-0.03601
8.232,0.0003
8.236,-0.02131
8.24,-0.03175
8.244,0.00829
8.248,-0.00473
8.252,-0.01979
8.256,-0.01117
8.26,-0.02582
8.264,-0.02363
8.268,-0.01778
8.272,-0.00352
8.276,-0.01055
8.28,-0.02178
8.284,0.01557
8.288,0.00101
8.292,0.0041
8.296,-0.02628
8.3,-0.00966
8.304,-0.0129
8.308,-0.00776
8.312,0.00128
8.316,-0.03316
8.32,0.00999
8.324,-0.01197
8.328,-0.02324
8.332,-0.00073
8.336,-0.02102
8.34,-0.02524
8.344,-0.00403
8.348,-0.00883
8.352,-0.03884
8.356,-0.01641
8.36,0.01201
8.364,-0.00468
8.368,-0.04254
8.372,-0.02639
8.376,-0.00241
8.38,-0.01553
8.384,0.01228
8.388,-0.012
8.392,-0.0164
8.396,-0.00952
8.4,0.02112
8.404,-0.01642
8.408,0.00461
8.412,0.02951
8.416,0.04482
8.42,0.03614
8.424,0.0449
8.428,0.05964
8.432,0.05696
8.436,0.09207
8.44,0.11353
8.444,0.09633
8.448,0.08875
8.452,0.09025
8.456,0.0722
8.46,0.04511
8.464,0.04034
8.468,0.07066
8.472,0.03732
8.476,0.04425
8.48,0.00919
8.484,0.00876
8.488,0.01021
8.492,-0.03013
8.496,0.00706
8.5,-0.03298
8.504,-0.01842
8.508,0.01273
8.512,-0.01596
8.516,-0.017
8.52,-0.00827
8.524,-0.00915
8.528,0.00306
8.532,-0.00816
8.536,-0.03329
8.54,0.02283
8.544,0.00107
8.548,0.00366
8.552,-0.01805
8.556,-0.04822
8.56,-0.0503
8.564,-0.05811
8.568,-0.08617
8.572,-0.13454
8.576,-0.07157
8.58,-0.00473
8.584,0.19358
8.588,0.38025
8.592,0.60629
8.596,0.80414
8.6,0.97318
8.604,1.01852
8.608,0.92084
8.612,0.77977
8.616,0.55469
8.62,0.30511
8.624,0.12347
8.628,-0.03388
8.632,-0.12175
8.636,-0.14752
8.64,-0.15002
8.644,-0.1196
8.648,-0.05236
8.652,-0.03643
8.656,-0.01383
8.66,-0.00978
8.664,-0.02659
8.668,-0.02492
8.672,0.00274
8.676,-0.02777
8.68,-0.02831
8.684,0.00712
8.688,0.00684
8.692,-0.00937
8.696,0.006
8.7,0.00683
8.704,-0.01161
8.708,0.00513
8.712,-0.00546
8.716,-0.00758
8.72,-0.00013
8.724,-0.03068
8.728,-0.02622
8.732,0.01037
8.736,0.01885
8.74,0.00888
8.744,0.00276
8.748,-0.02144
8.752,0.01331
8.756,0.0019
8.76,0.00286
8.764,0.01446
8.768,0.02042
8.772,0.00462
8.776,0.01345
8.78,-0.01377
8.784,0.01227
8.788,0.00681
8.792,0.01264
8.796,0.04605
8.8,0.04192
8.804,0.02582
8.808,0.06614
8.812,0.06341
8.816,0.06778
8.82,0.11138
8.824,0.06449
8.828,0.07323
8.832,0.11759
8.836,0.11627
8.84,0.14999
8.844,0.15766
8.848,0.18213
8.852,0.14989
8.856,0.1876
8.86,0.18333
8.864,0.18995
8.868,0.22614
8.872,0.2245
8.876,0.20633
8.88,0.20449
8.884,0.20262
8.888,0.22781
8.892,0.24089
8.896,0.20817
8.9,0.20191
8.904,0.20143
8.908,0.19734
8.912,0.18742
8.916,0.18584
8.92,0.15972
8.924,0.14434
8.928,0.16832
8.932,0.14131
8.936,0.12041
8.94,0.11304
8.944,0.06448
8.948,0.10597
8.952,0.08643
8.956,0.07806
8.96,0.058
8.964,0.06974
8.968,0.03177
8.972,0.03311
8.976,0.03366
8.98,0.04105
8.984,0.02605
8.988,0.00177
8.992,0.03188
8.996,0.02817
9.0,-0.00343
9.004,0.0153
9.008,0.02556
9.012,0.01656
9.016,0.02507
9.02,0.06716
9.024,0.03858
9.028,0.0798
9.032,0.06286
9.036,0.08405
9.04,0.09258
9.044,0.08287
9.048,0.11767
9.052,0.09825
9.056,0.09984
9.06,0.08865
9.064,0.10606
9.068,0.08316
9.072,0.08431
9.076,0.06972
9.08,0.04223
9.084,0.04238
9.088,0.03009
9.092,0.02162
9.096,0.04134
9.1,0.0244
9.104,0.02514
9.108,0.01468
9.112,-0.00698
9.116,0.0321
9.12,0.0109
9.124,-0.03133
9.128,0.03412
9.132,0.01762
9.136,-0.00484
9.14,0.03284
9.144,0.0299
9.148,0.01239
9.152,0.03011
9.156,-0.00412
9.16,-0.01973
9.164,0.00537
9.168,-0.02884
9.172,-0.03988
9.176,-0.11539
9.18,-0.10295
9.184,-0.048
9.188,0.05915
9.192,0.17593
9.196,0.4156
9.2,0.62888
9.204,0.84516
9.208,0.97774
9.212,1.00577
9.216,0.949
9.22,0.78115
9.224,0.5681
9.228,0.3564
9.232,0.09629
9.236,-0.04272
9.24,-0.14015
9.244,-0.13447
9.248,-0.1386
9.252,-0.1088
9.256,-0.04975
9.26,-0.04026
9.264,-0.02032
9.268,-0.04052
9.272,0.02147
9.276,-0.00657
9.28,0.01499
9.284,0.01694
9.288,0.02859
9.292,0.02357
9.296,0.01645
9.3,0.03269
9.304,0.00795
9.308,-0.00222
9.312,0.03464
9.316,0.00908
9.32,0.02955
9.324,-0.00203
9.328,0.03091
9.332,0.01492
9.336,0.00942
9.34,0.02481
9.344,0.00514
9.348,0.02443
9.352,0.00912
9.356,0.02716
9.36,0.03081
9.364,0.02107
9.368,0.05164
9.372,0.01241
9.376,0.00855
9.38,0.03616
9.384,0.04272
9.388,0.01846
9.392,0.02803
9.396,0.03015
9.4,0.02819
9.404,0.04193
9.408,0.05564
9.412,0.06177
9.416,0.05476
9.42,0.09898
9.424,0.07127
9.428,0.10861
9.432,0.08694
9.436,0.0783
9.44,0.12141
9.444,0.14981
9.448,0.14494
9.452,0.19278
9.456,0.16287
9.46,0.18704
9.464,0.22343
9.468,0.21646
9.472,0.24265
9.476,0.22324
9.48,0.23401
9.484,0.24194
9.488,0.23566
9.492,0.24021
9.496,0.22318
9.5,0.22378
9.504,0.24142
9.508,0.22887
9.512,0.23496
9.516,0.21127
9.52,0.19572
9.524,0.21342
9.528,0.18561
9.532,0.13363
9.536,0.14903
9.54,0.14716
9.544,0.12596
9.548,0.12312
9.552,0.1126
9.556,0.10329
9.56,0.09958
9.564,0.08261
9.568,0.09624
9.572,0.05465
9.576,0.04726
9.58,0.07012
9.584,0.04386
9.588,0.02709
9.592,0.04202
9.596,0.0326
9.6,0.03615
9.604,0.04129
9.608,0.0526
9.612,0.03441
9.616,0.01573
9.62,0.02458
9.624,-0.00124
9.628,0.01834
9.632,0.01175
9.636,0.03758
9.64,0.01721
9.644,0.00416
9.648,0.01455
9.652,0.03213
9.656,0.02894
9.66,0.00441
9.664,0.0312
9.668,0.04873
9.672,0.03433
9.676,0.01957
9.68,0.03034
9.684,0.03675
9.688,0.01497
9.692,0.00798
9.696,0.03964
9.7,0.0352
9.704,0.02911
9.708,-0.00332
9.712,0.01064
9.716,0.02028
9.72,-0.00338
9.724,0.03729
9.728,0.04988
9.732,0.01994
9.736,0.0247
9.74,0.01073
9.744,0.03091
9.748,0.00551
9.752,0.03133
9.756,0.03254
9.76,0.01776
9.764,0.03112
9.768,0.00295
9.772,0.00793
9.776,-0.0046
9.78,0.02102
9.784,0.01532
9.788,0.02638
9.792,0.04416
9.796,0.03621
9.8,0.0136
9.804,0.02747
9.808,0.03966
9.812,0.03436
9.816,0.01915
9.82,0.03663
9.824,0.03115
9.828,0.04238
9.832,0.03077
9.836,0.01814
9.84,0.02177
9.844,0.02963
9.848,0.00495
9.852,0.04473
9.856,0.04579
9.86,0.02666
9.864,-0.00495
9.868,0.01258
9.872,0.04121
9.876,0.02531
9.88,0.01317
9.884,0.0417
9.888,0.02336
9.892,0.02478
9.896,0.03085
9.9,0.0241
9.904,0.04528
9.908,0.04079
9.912,0.05063
9.916,0.0169
9.92,0.02018
9.924,0.01581
9.928,0.02734
9.932,0.03126
9.936,0.02654
9.94,0.01268
9.944,0.03842
9.948,0.01192
9.952,0.04264
9.956,-0.00393
9.96,0.02341
9.964,0.00847
9.968,0.01466
9.972,0.00281
9.976,0.02589
9.98,0.03382
9.984,0.0267
9.988,0.03254
9.992,0.01262
9.996,0.02349
