t_seg,ecg_mV
0.0,0.00684
0.004,-0.04783
0.008,-0.04127
0.012,0.05767
0.016,0.06992
0.02,0.03582
0.024,0.01621
0.028,0.02011
0.032,0.10377
0.036,0.11641
0.04,0.10571
0.044,0.13659
0.048,0.1054
0.052,0.05518
0.056,0.04718
0.06,0.02923
0.064,-0.00481
0.068,-0.01227
0.072,0.0303
0.076,-0.02008
0.08,0.07457
0.084,-0.06611
0.088,-0.01373
0.092,0.05794
0.096,-0.0495
0.1,-0.03651
0.104,0.07224
0.108,-0.0555
0.112,-0.02572
0.116,-0.01015
0.12,0.03142
0.124,0.07655
0.128,-0.04977
0.132,-0.00238
0.136,-0.00585
0.14,-0.06911
0.144,-0.03957
0.148,-0.03685
0.152,0.00708
0.156,-0.07584
0.16,-0.00987
0.164,-0.16821
0.168,-0.14591
0.172,-0.09894
0.176,0.03552
0.18,0.20149
0.184,0.43862
0.188,0.61301
0.192,0.77989
0.196,0.94476
0.2,0.95066
0.204,0.8097
0.208,0.76332
0.212,0.44992
0.216,0.24824
0.22,0.05773
0.224,-0.13436
0.228,-0.18141
0.232,-0.21967
0.236,-0.09456
0.24,-0.11688
0.244,-0.00817
0.248,-0.07001
0.252,-0.01832
0.256,-0.05456
0.26,-0.03047
0.264,-0.02393
0.268,-0.07465
0.272,0.00987
0.276,0.03829
0.28,-0.02912
0.284,-0.04681
0.288,-0.06522
0.292,-0.04636
0.296,0.00467
0.3,-0.06452
0.304,-0.06764
0.308,-0.00182
0.312,-0.05179
0.316,-0.04356
0.32,-0.0155
0.324,0.00136
0.328,-0.10737
0.332,-0.05354
0.336,0.00797
0.34,0.01226
0.344,-0.02956
0.348,-0.03487
0.352,-0.05366
0.356,-0.01864
0.36,-0.03865
0.364,0.00641
0.368,0.02424
0.372,-0.03948
0.376,-0.00422
0.38,0.00594
0.384,0.02851
0.388,-0.00384
0.392,-0.02011
0.396,0.01267
0.4,-0.01165
0.404,0.00436
0.408,0.05207
0.412,-0.09224
0.416,0.05067
0.42,0.14496
0.424,0.03175
0.428,0.07452
0.432,0.14893
0.436,0.15405
0.44,0.15497
0.444,0.0896
0.448,0.08209
0.452,0.17992
0.456,0.24417
0.46,0.1021
0.464,0.16367
0.468,0.14514
0.472,0.18633
0.476,0.20558
0.48,0.24718
0.484,0.21519
0.488,0.17953
0.492,0.20202
0.496,0.16966
0.5,0.16363
0.504,0.22697
0.508,0.18606
0.512,0.16625
0.516,0.17663
0.52,0.1791
0.524,0.11635
0.528,0.12352
0.532,0.18231
0.536,0.16948
0.54,0.12156
0.544,0.15033
0.548,0.17924
0.552,0.03989
0.556,0.1115
0.56,0.11143
0.564,0.0436
0.568,-0.01062
0.572,-0.00664
0.576,0.0475
0.58,0.06274
0.584,-0.01609
0.588,-0.0252
0.592,-0.02744
0.596,-0.01905
0.6,-0.01347
0.604,0.03766
0.608,-0.03695
0.612,-0.02905
0.616,-0.00846
0.62,0.01158
0.624,-0.04618
0.628,-0.07185
0.632,-0.03814
0.636,-0.04442
0.64,-0.03967
0.644,-0.04251
0.648,-0.02185
0.652,-0.03372
0.656,-0.10273
0.66,-0.12529
0.664,-0.15979
0.668,-0.12779
0.672,-0.05403
0.676,0.0406
0.68,0.18849
0.684,0.27163
0.688,0.42415
0.692,0.48591
0.696,0.63539
0.7,0.50752
0.704,0.5128
0.708,0.35594
0.712,0.2249
0.716,0.07645
0.72,-0.09941
0.724,-0.1099
0.728,-0.19906
0.732,-0.19066
0.736,-0.17666
0.74,-0.08931
0.744,-0.11657
0.748,-0.0755
0.752,-0.05422
0.756,-0.00644
0.76,-0.01441
0.764,-0.04006
0.768,0.02556
0.772,0.02088
0.776,-0.01987
0.78,0.08591
0.784,0.03925
0.788,0.0799
0.792,0.05294
0.796,0.06628
0.8,0.06793
0.804,0.04207
0.808,0.08076
0.812,0.04865
0.816,0.05396
0.82,0.04506
0.824,0.02473
0.828,0.03087
0.832,0.00285
0.836,0.0462
0.84,-0.02027
0.844,-0.01501
0.848,0.00257
0.852,-0.06076
0.856,-0.03227
0.86,-0.00408
0.864,-0.0304
0.868,-0.01318
0.872,-0.0391
0.876,-0.05156
0.88,0.00997
0.884,-0.02591
0.888,-0.01478
0.892,0.01241
0.896,-0.00829
0.9,-0.01064
0.904,0.03402
0.908,0.03213
0.912,0.10815
0.916,0.03757
0.92,0.06729
0.924,0.01572
0.928,0.00517
0.932,0.00826
0.936,-0.01213
0.94,0.01023
0.944,0.22617
0.948,0.48959
0.952,0.64855
0.956,0.93277
0.96,1.08018
0.964,1.15433
0.968,1.20781
0.972,1.0374
0.976,0.79663
0.98,0.64181
0.984,0.40274
0.988,0.23707
0.992,0.02517
0.996,-0.03435
1.0,0.0389
1.004,-0.03482
1.008,0.03167
1.012,0.092
1.016,0.15447
1.02,0.10387
1.024,0.04981
1.028,0.11521
1.032,0.04806
1.036,0.07804
1.04,0.0971
1.044,0.00648
1.048,0.02548
1.052,0.02497
1.056,0.01088
1.06,0.02239
1.064,0.05489
1.068,-0.02
1.072,-0.02287
1.076,0.04019
1.08,-0.01862
1.084,0.01039
1.088,-0.06892
1.092,0.00928
1.096,0.00839
1.1,-0.00957
1.104,-0.05038
1.108,0.00885
1.112,0.00781
1.116,-0.03442
1.12,-0.05728
1.124,-0.01015
1.128,0.00119
1.132,-0.00261
1.136,0.01573
1.14,0.02309
1.144,0.05516
1.148,0.0191
1.152,-0.02754
1.156,-0.00511
1.16,0.0661
1.164,-0.07429
1.168,0.02546
1.172,0.05322
1.176,0.04986
1.18,0.05478
1.184,0.04423
1.188,0.04232
1.192,0.09672
1.196,0.1485
1.2,0.10263
1.204,0.08861
1.208,0.14738
1.212,0.11863
1.216,0.18493
1.22,0.13476
1.224,0.15082
1.228,0.19389
1.232,0.17025
1.236,0.14741
1.24,0.16051
1.244,0.20698
1.248,0.11173
1.252,0.16781
1.256,0.13865
1.26,0.24278
1.264,0.13443
1.268,0.16012
1.272,0.12385
1.276,0.11907
1.28,0.09118
1.284,0.14415
1.288,0.11583
1.292,0.07417
1.296,0.11352
1.3,0.04163
1.304,0.05066
1.308,0.05731
1.312,0.05685
1.316,0.00616
1.32,0.05736
1.324,0.04897
1.328,0.03364
1.332,0.05676
1.336,0.00184
1.34,0.01096
1.344,-0.03218
1.348,0.02531
1.352,0.01652
1.356,-0.00841
1.36,-0.00053
1.364,0.01089
1.368,-0.05076
1.372,0.03518
1.376,-0.09216
1.38,-0.015
1.384,0.06501
1.388,0.02414
1.392,-0.0035
1.396,0.00441
1.4,0.00737
1.404,-0.03331
1.408,-0.0345
1.412,-0.04476
1.416,-0.02625
1.42,0.03599
1.424,-0.07577
1.428,-0.03962
1.432,-0.05183
1.436,-0.0486
1.44,-0.06127
1.444,-0.00408
1.448,-0.02657
1.452,0.01558
1.456,0.00862
1.46,-0.00563
1.464,-0.11089
1.468,0.00829
1.472,-0.08087
1.476,-0.04052
1.48,-0.07281
1.484,-0.08496
1.488,-0.01164
1.492,-0.06167
1.496,-0.01435
1.5,-0.03761
1.504,-0.06192
1.508,-0.06655
1.512,-0.02635
1.516,-0.07188
1.52,-0.03866
1.524,-0.04896
1.528,-0.05939
1.532,-0.00666
1.536,-0.02119
1.54,-0.02432
1.544,0.00062
1.548,-0.02676
1.552,-0.00072
1.556,0.05944
1.56,0.00803
1.564,-0.05853
1.568,0.07721
1.572,0.01992
1.576,-0.02812
1.58,-0.01015
1.584,0.02708
1.588,-0.03188
1.592,-0.00952
1.596,0.00624
1.6,-0.06208
1.604,-0.01662
1.608,-0.01662
1.612,-0.02361
1.616,-0.00807
1.62,-0.01224
1.624,-0.00787
1.628,-0.098
1.632,-0.01125
1.636,0.00687
1.64,-0.00742
1.644,-0.0019
1.648,-0.02072
1.652,-0.02682
1.656,0.03526
1.66,0.00428
1.664,0.03872
1.668,0.04054
1.672,0.1332
1.676,0.11294
1.68,0.1176
1.684,0.07425
1.688,0.07089
1.692,-0.05757
1.696,0.01295
1.7,0.08056
1.704,0.00615
1.708,0.02265
1.712,-0.0088
1.716,-0.03087
1.72,-0.03947
1.724,-0.05336
1.728,0.01782
1.732,0.00034
1.736,-0.0199
1.74,0.02525
1.744,-0.09305
1.748,-0.03755
1.752,-0.0207
1.756,-0.02555
1.76,-0.04595
1.764,0.00327
1.768,-0.02482
1.772,-0.02973
1.776,-0.0165
1.78,-0.03664
1.784,-0.07132
1.788,-0.0185
1.792,-0.04251
1.796,-0.11703
1.8,-0.07021
1.804,-0.09496
1.808,-0.23752
1.812,-0.13841
1.816,0.02729
1.82,0.18136
1.824,0.37134
1.828,0.59771
1.832,0.77998
1.836,0.9781
1.84,0.97538
1.844,0.86161
1.848,0.73887
1.852,0.53468
1.856,0.32523
1.86,-0.00258
1.864,-0.05808
1.868,-0.11909
1.872,-0.22743
1.876,-0.13448
1.88,-0.09489
1.884,-0.05308
1.888,-0.10948
1.892,0.02556
1.896,0.01188
1.9,0.02058
1.904,0.05909
1.908,0.02792
1.912,0.02345
1.916,0.05397
1.92,0.04474
1.924,0.03352
1.928,0.08974
1.932,0.03277
1.936,0.08989
1.94,0.11607
1.944,0.09019
1.948,0.06623
1.952,0.11513
1.956,0.07027
1.96,0.08527
1.964,-0.02668
1.968,0.03947
1.972,0.07723
1.976,0.03016
1.98,0.01404
1.984,-0.01438
1.988,0.07577
1.992,-0.04304
1.996,0.01094
2.0,0.00952
2.004,0.03485
2.008,0.00307
2.012,-0.04372
2.016,0.02088
2.02,0.01468
2.024,-0.0355
2.028,0.03216
2.032,-0.00732
2.036,0.0276
2.04,0.02697
2.044,0.07339
2.048,0.06707
2.052,-0.01206
2.056,-0.07156
2.06,-0.05373
2.064,0.00171
2.068,0.07176
2.072,0.22062
2.076,0.4344
2.08,0.61903
2.084,0.82392
2.088,0.99348
2.092,1.20647
2.096,1.10331
2.1,1.08182
2.104,0.89439
2.108,0.59121
2.112,0.43325
2.116,0.28589
2.12,0.17709
2.124,0.08902
2.128,-0.0008
2.132,0.07571
2.136,0.10583
2.14,0.18345
2.144,0.20432
2.148,0.14197
2.152,0.14439
2.156,0.10453
2.16,0.15104
2.164,0.09709
2.168,0.05404
2.172,0.09608
2.176,0.10663
2.18,0.09282
2.184,0.07798
2.188,0.05182
2.192,0.04246
2.196,0.0112
2.2,0.06044
2.204,0.05188
2.208,0.01991
2.212,0.02364
2.216,0.01638
2.22,-0.07453
2.224,-0.00167
2.228,-0.01242
2.232,0.02152
2.236,0.00531
2.24,-0.05102
2.244,-0.0046
2.248,-0.01445
2.252,0.04037
2.256,0.01442
2.26,-0.03459
2.264,-0.01028
2.268,-0.07275
2.272,0.07512
2.276,0.01627
2.28,0.04357
2.284,0.02161
2.288,0.07144
2.292,0.01193
2.296,0.05627
2.3,0.00011
2.304,0.01759
2.308,0.05813
2.312,0.03387
2.316,0.15076
2.32,0.17764
2.324,0.1729
2.328,0.12759
2.332,0.10064
2.336,0.10891
2.34,0.13365
2.344,0.13897
2.348,0.16062
2.352,0.14167
2.356,0.23261
2.36,0.2379
2.364,0.24
2.368,0.21383
2.372,0.2298
2.376,0.23408
2.38,0.1583
2.384,0.20998
2.388,0.24072
2.392,0.19712
2.396,0.21715
2.4,0.18044
2.404,0.13569
2.408,0.14061
2.412,0.16872
2.416,0.24105
2.42,0.14858
2.424,0.08329
2.428,0.10904
2.432,0.11848
2.436,0.1125
2.44,0.00409
2.444,0.06631
2.448,0.0859
2.452,0.08642
2.456,0.00526
2.46,0.06172
2.464,0.02195
2.468,0.01582
2.472,-0.05553
2.476,0.02877
2.48,-0.02132
2.484,-0.01103
2.488,0.00343
2.492,0.01795
2.496,-0.03132
2.5,-0.02185
2.504,0.02814
2.508,0.04982
2.512,0.03248
2.516,0.01428
2.52,-0.0351
2.524,0.04181
2.528,0.05011
2.532,0.00896
2.536,0.02733
2.54,0.03003
2.544,-0.01086
2.548,0.03636
2.552,0.07275
2.556,-0.01312
2.56,-0.00727
2.564,-0.02102
2.568,0.04278
2.572,-0.01766
2.576,0.00199
2.58,0.00905
2.584,-0.06283
2.588,-0.00414
2.592,-0.03107
2.596,0.04419
2.6,-0.00729
2.604,0.00977
2.608,0.04719
2.612,0.0416
2.616,0.00813
2.62,0.00713
2.624,-0.01181
2.628,0.04963
2.632,0.00416
2.636,-0.00802
2.64,0.0129
2.644,-0.05139
2.648,-0.01609
2.652,0.01099
2.656,0.03854
2.66,-0.03547
2.664,-0.00462
2.668,-0.00612
2.672,0.01143
2.676,-0.00508
2.68,0.05626
2.684,-0.01317
2.688,-0.00143
2.692,-0.02982
2.696,-0.06062
2.7,0.03154
2.704,-0.00236
2.708,0.0269
2.712,-0.00354
2.716,-0.01572
2.72,0.01667
2.724,-0.01801
2.728,0.01236
2.732,0.02618
2.736,0.00513
2.74,0.01045
2.744,-0.03387
2.748,0.03891
2.752,-0.04671
2.756,0.09582
2.76,-0.00868
2.764,0.0031
2.768,0.03462
2.772,-0.01563
2.776,0.01115
2.78,-0.02984
2.784,0.0157
2.788,0.02018
2.792,0.01325
2.796,0.01979
2.8,0.08579
2.804,0.08382
2.808,0.05917
2.812,0.08968
2.816,0.1288
2.82,0.08871
2.824,0.15897
2.828,0.06694
2.832,0.11487
2.836,0.02506
2.84,0.10666
2.844,0.054
2.848,0.05334
2.852,0.04723
2.856,-0.04096
2.86,0.03796
2.864,0.00958
2.868,-0.03073
2.872,-0.00784
2.876,-0.03232
2.88,-0.03642
2.884,-0.04219
2.888,-0.03265
2.892,0.02229
2.896,0.07177
2.9,0.01132
2.904,-0.03877
2.908,0.00201
2.912,-0.00767
2.916,0.0237
2.92,-0.02219
2.924,-0.06929
2.928,-0.00755
2.932,-0.03064
2.936,-0.00732
2.94,-0.03245
2.944,-0.14843
2.948,-0.13849
2.952,-0.08376
2.956,-0.00047
2.96,0.19052
2.964,0.34854
2.968,0.44087
2.972,0.6225
2.976,0.68694
2.98,0.59019
2.984,0.58056
2.988,0.48196
2.992,0.25482
2.996,0.08663
3.0,-0.04175
3.004,-0.10929
3.008,-0.17741
3.012,-0.23202
3.016,-0.11609
3.02,-0.08658
3.024,0.00543
3.028,0.00796
3.032,0.01563
3.036,-0.00729
3.04,0.02688
3.044,-0.00519
3.048,0.01518
3.052,-0.0018
3.056,-0.00122
3.06,0.02138
3.064,0.03426
3.068,-0.02954
3.072,0.01343
3.076,-0.0392
3.08,-0.01573
3.084,-0.01691
3.088,-0.00955
3.092,0.06986
3.096,-0.00403
3.1,0.01275
3.104,-0.04966
3.108,0.08219
3.112,0.06701
3.116,-0.01929
3.12,0.04611
3.124,0.03199
3.128,0.03598
3.132,-0.02412
3.136,0.05854
3.14,0.04761
3.144,0.08692
3.148,0.10326
3.152,0.05304
3.156,0.00561
3.16,-0.00152
3.164,0.02175
3.168,0.07883
3.172,0.08284
3.176,0.00961
3.18,0.08694
3.184,0.01238
3.188,0.03346
3.192,0.11579
3.196,0.08169
3.2,0.11133
3.204,0.13949
3.208,0.20201
3.212,0.08152
3.216,0.14255
3.22,0.17828
3.224,0.15459
3.228,0.22385
3.232,0.20278
3.236,0.24089
3.24,0.24069
3.244,0.1583
3.248,0.2838
3.252,0.22366
3.256,0.26364
3.26,0.20254
3.264,0.26694
3.268,0.23257
3.272,0.18972
3.276,0.25297
3.28,0.18184
3.284,0.19208
3.288,0.14445
3.292,0.17353
3.296,0.21755
3.3,0.10587
3.304,0.14601
3.308,0.12928
3.312,0.10753
3.316,0.11982
3.32,0.07736
3.324,0.07229
3.328,-0.04145
3.332,0.06025
3.336,0.10918
3.34,-0.03613
3.344,0.03185
3.348,0.06869
3.352,0.0758
3.356,0.06297
3.36,0.0111
3.364,0.06456
3.368,0.05886
3.372,0.01488
3.376,-0.04326
3.38,0.01737
3.384,-0.0221
3.388,0.00128
3.392,0.00866
3.396,0.00546
3.4,0.01844
3.404,0.03694
3.408,0.01331
3.412,0.02928
3.416,0.00775
3.42,0.10148
3.424,0.09183
3.428,0.02201
3.432,0.07218
3.436,0.07299
3.44,0.11237
3.444,0.11107
3.448,0.10634
3.452,0.1163
3.456,0.09045
3.46,0.10729
3.464,0.1041
3.468,0.07498
3.472,0.09249
3.476,0.0744
3.48,0.02537
3.484,0.03523
3.488,0.11105
3.492,-0.01679
3.496,-0.02434
3.5,0.03974
3.504,0.05503
3.508,0.04884
3.512,-0.03824
3.516,0.02417
3.52,0.0714
3.524,0.00469
3.528,-0.00562
3.532,0.01685
3.536,-0.04228
3.54,0.00693
3.544,0.02721
3.548,0.07933
3.552,0.06472
3.556,-0.0052
3.56,-0.04926
3.564,0.0242
3.568,-0.04159
3.572,-0.05228
3.576,-0.04847
3.58,-0.08098
3.584,-0.00901
3.588,0.1327
3.592,0.3181
3.596,0.57306
3.6,0.75192
3.604,0.86507
3.608,0.99492
3.612,0.98394
3.616,0.86167
3.62,0.61968
3.624,0.48435
3.628,0.23238
3.632,0.01823
3.636,-0.06491
3.64,-0.06597
3.644,-0.16289
3.648,-0.12254
3.652,-0.08162
3.656,-0.07811
3.66,-0.0448
3.664,-0.01581
3.668,0.0108
3.672,0.06574
3.676,0.02435
3.68,0.04293
3.684,-0.03105
3.688,0.06537
3.692,0.01605
3.696,0.14757
3.7,0.01944
3.704,0.05817
3.708,0.01747
3.712,-0.00852
3.716,-0.01146
3.72,0.0171
3.724,-0.04288
3.728,0.04842
3.732,0.03196
3.736,-0.03485
3.74,0.01449
3.744,0.00257
3.748,-0.03903
3.752,-0.00781
3.756,0.10629
3.76,0.04786
3.764,0.04136
3.768,0.01854
3.772,0.04695
3.776,0.07289
3.78,0.05929
3.784,-0.00989
3.788,0.05667
3.792,0.04276
3.796,0.06413
3.8,0.07172
3.804,0.11728
3.808,0.04426
3.812,0.0595
3.816,0.0724
3.82,0.07151
3.824,0.08596
3.828,0.04514
3.832,0.1111
3.836,0.1889
3.84,0.15444
3.844,0.13389
3.848,0.17146
3.852,0.15741
3.856,0.18076
3.86,0.21607
3.864,0.20066
3.868,0.25272
3.872,0.26765
3.876,0.24479
3.88,0.23755
3.884,0.21326
3.888,0.27319
3.892,0.32495
3.896,0.2361
3.9,0.23988
3.904,0.26063
3.908,0.27497
3.912,0.2283
3.916,0.21719
3.92,0.20965
3.924,0.19199
3.928,0.15482
3.932,0.18754
3.936,0.17251
3.94,0.08866
3.944,0.13305
3.948,0.14919
3.952,0.12901
3.956,0.15097
3.96,0.13531
3.964,0.0578
3.968,0.1088
3.972,-0.04046
3.976,0.00959
3.98,0.1139
3.984,0.11278
3.988,0.02443
3.992,0.04427
3.996,0.08337
4.0,-0.00436
4.004,0.05427
4.008,0.06523
4.012,0.031
4.016,0.03965
4.02,0.03597
4.024,0.04676
4.028,-0.01816
4.032,0.00806
4.036,0.02302
4.04,0.00099
4.044,0.0872
4.048,0.03891
4.052,0.0015
4.056,-0.00682
4.06,0.01697
4.064,-0.01716
4.068,0.01501
4.072,0.00742
4.076,0.09284
4.08,0.03245
4.084,0.01775
4.088,-0.05144
4.092,0.02005
4.096,0.02315
4.1,0.01631
4.104,0.0163
4.108,0.01904
4.112,0.09873
4.116,-0.02096
4.12,0.01499
4.124,0.00213
4.128,-0.01654
4.132,0.02202
4.136,0.01492
4.14,0.06534
4.144,0.03962
4.148,0.0403
4.152,-0.01596
4.156,-0.00417
4.16,0.01105
4.164,0.02346
4.168,0.09356
4.172,0.05041
4.176,0.05115
4.18,0.00997
4.184,-0.01203
4.188,0.04598
4.192,0.02506
4.196,0.04995
4.2,0.08603
4.204,0.0492
4.208,-0.00697
4.212,0.08221
4.216,0.06648
4.22,0.03034
4.224,0.05522
4.228,0.03542
4.232,0.05757
4.236,0.08294
4.24,0.01505
4.244,0.02403
4.248,0.04612
4.252,0.02024
4.256,0.00811
4.26,0.02326
4.264,0.0937
4.268,0.03405
4.272,0.08453
4.276,-0.02761
4.28,0.01491
4.284,0.0015
4.288,-0.00213
4.292,0.04045
4.296,0.09674
4.3,0.07784
4.304,0.01269
4.308,0.03506
4.312,0.01456
4.316,0.04061
4.32,0.03529
4.324,0.00157
4.328,-0.02333
4.332,0.00549
4.336,-0.00918
4.34,0.04511
4.344,-0.00691
4.348,0.01881
4.352,0.14598
4.356,0.03424
4.36,0.01491
4.364,-0.00215
4.368,-0.01148
4.372,-0.0003
4.376,0.0515
4.38,0.08389
4.384,0.08913
4.388,0.05365
4.392,0.091
4.396,0.07216
4.4,0.14967
4.404,0.17697
4.408,0.14956
4.412,0.16958
4.416,0.1509
4.42,0.05485
4.424,0.10927
4.428,0.13969
4.432,0.06004
4.436,0.14327
4.44,0.15072
4.444,0.05188
4.448,-0.04581
4.452,0.03359
4.456,0.04814
4.46,0.084
4.464,0.0188
4.468,-0.02581
4.472,0.03199
4.476,-0.00978
4.48,0.01777
4.484,0.04946
4.488,0.05314
4.492,0.00941
4.496,0.00461
4.5,0.03399
4.504,0.06152
4.508,0.03423
4.512,0.01569
4.516,-0.00509
4.52,0.01865
4.524,0.02224
4.528,0.07884
4.532,-0.09796
4.536,-0.04476
4.54,-0.10861
4.544,-0.04945
4.548,0.01109
4.552,0.1501
4.556,0.31951
4.56,0.53477
4.564,0.71877
4.568,0.95599
4.572,1.07213
4.576,1.0131
4.58,0.94864
4.584,0.66759
4.588,0.51148
4.592,0.23375
4.596,0.05332
4.6,-0.06247
4.604,-0.1209
4.608,-0.1048
4.612,-0.08053
4.616,-0.06494
4.62,0.00125
4.624,-0.03911
4.628,0.0073
4.632,-0.02324
4.636,0.00036
4.64,0.0032
4.644,0.02316
4.648,0.00475
4.652,0.03563
4.656,-0.03137
4.66,0.05092
4.664,-0.0486
4.668,0.03804
4.672,0.05192
4.676,-0.01374
4.68,-0.03288
4.684,0.01352
4.688,0.05624
4.692,0.07145
4.696,0.04211
4.7,0.03714
4.704,0.01454
4.708,0.07999
4.712,-0.01589
4.716,0.02168
4.72,0.07506
4.724,0.05256
4.728,0.06599
4.732,0.0194
4.736,0.00513
4.74,0.03208
4.744,0.06007
4.748,0.02794
4.752,0.0413
4.756,0.03726
4.76,0.06059
4.764,0.05249
4.768,0.00561
4.772,0.12636
4.776,0.12204
4.78,0.05219
4.784,0.07428
4.788,0.13724
4.792,0.20922
4.796,0.12619
4.8,0.09045
4.804,0.13105
4.808,0.1791
4.812,0.1661
4.816,0.27673
4.82,0.23133
4.824,0.20448
4.828,0.15381
4.832,0.26784
4.836,0.24731
4.84,0.26324
4.844,0.22636
4.848,0.22596
4.852,0.20003
4.856,0.24841
4.86,0.12997
4.864,0.26883
4.868,0.26019
4.872,0.30254
4.876,0.21757
4.88,0.17778
4.884,0.18949
4.888,0.23714
4.892,0.23125
4.896,0.24688
4.9,0.14028
4.904,0.21275
4.908,0.24915
4.912,0.19989
4.916,0.13635
4.92,0.1917
4.924,0.15138
4.928,0.20613
4.932,0.16152
4.936,0.13765
4.94,0.18727
4.944,0.12366
4.948,0.0363
4.952,0.11708
4.956,0.01005
4.96,0.07759
4.964,0.07231
4.968,0.06497
4.972,0.03222
4.976,-0.01349
4.98,-0.03996
4.984,0.09615
4.988,0.03737
4.992,0.061
4.996,0.02932
5.0,0.07636
5.004,0.0239
5.008,0.02923
5.012,0.0464
5.016,0.02173
5.02,-0.06545
5.024,0.03375
5.028,0.05272
5.032,-0.03842
5.036,0.05282
5.04,0.00552
5.044,-0.03337
5.048,-0.06532
5.052,-0.11587
5.056,-0.09673
5.06,-0.05828
5.064,0.18472
5.068,0.37368
5.072,0.56218
5.076,0.77423
5.08,0.93534
5.084,1.05456
5.088,0.99382
5.092,0.86387
5.096,0.60801
5.1,0.38406
5.104,0.1876
5.108,0.02864
5.112,-0.06454
5.116,-0.13603
5.12,-0.17472
5.124,-0.121
5.128,-0.13209
5.132,0.00032
5.136,0.03206
5.14,0.02475
5.144,-0.01532
5.148,0.00797
5.152,0.01708
5.156,0.00489
5.16,0.02119
5.164,0.03817
5.168,0.0391
5.172,0.03175
5.176,0.05694
5.18,0.05689
5.184,-0.04842
5.188,0.03371
5.192,0.0964
5.196,-0.00299
5.2,-0.02866
5.204,0.03246
5.208,0.00967
5.212,0.02134
5.216,0.00347
5.22,0.02567
5.224,0.05538
5.228,0.03824
5.232,0.02923
5.236,0.02829
5.24,0.03483
5.244,-0.04449
5.248,0.02744
5.252,0.01954
5.256,-0.00234
5.26,0.01195
5.264,-0.01404
5.268,0.04847
5.272,0.02633
5.276,0.07425
5.28,0.104
5.284,0.12681
5.288,0.11274
5.292,0.0086
5.296,0.1433
5.3,0.04032
5.304,0.07016
5.308,0.18598
5.312,0.11363
5.316,0.18994
5.32,0.13368
5.324,0.19586
5.328,0.13436
5.332,0.11482
5.336,0.18231
5.34,0.20575
5.344,0.23969
5.348,0.20805
5.352,0.19366
5.356,0.24905
5.36,0.23077
5.364,0.22323
5.368,0.18049
5.372,0.25336
5.376,0.23825
5.38,0.22772
5.384,0.22875
5.388,0.23552
5.392,0.20657
5.396,0.18019
5.4,0.1772
5.404,0.15044
5.408,0.17579
5.412,0.18158
5.416,0.13153
5.42,0.10885
5.424,0.08019
5.428,0.09511
5.432,0.12012
5.436,0.01575
5.44,0.01111
5.444,0.01516
5.448,0.02703
5.452,0.06954
5.456,0.06183
5.46,0.0262
5.464,0.05426
5.468,0.07736
5.472,0.0159
5.476,0.07546
5.48,0.04133
5.484,0.03177
5.488,0.02428
5.492,0.0472
5.496,0.03848
5.5,0.08947
5.504,0.13192
5.508,0.12911
5.512,0.06512
5.516,0.0798
5.52,0.07284
5.524,0.09905
5.528,0.07414
5.532,0.14039
5.536,0.02813
5.54,0.0174
5.544,-0.01553
5.548,0.04697
5.552,0.04055
5.556,0.0841
5.56,0.098
5.564,0.01324
5.568,0.02161
5.572,-0.0774
5.576,-0.01535
5.58,0.03011
5.584,-0.00962
5.588,0.03235
5.592,0.0199
5.596,0.0652
5.6,-0.03386
5.604,0.02271
5.608,0.02542
5.612,-0.01115
5.616,-0.05166
5.62,0.02488
5.624,-0.03278
5.628,0.02795
5.632,-0.0274
5.636,-0.11936
5.64,-0.03277
5.644,0.05955
5.648,0.21244
5.652,0.34757
5.656,0.58827
5.66,0.75899
5.664,0.9441
5.668,1.04809
5.672,0.99914
5.676,0.84004
5.68,0.58056
5.684,0.35271
5.688,0.0906
5.692,-0.01314
5.696,-0.16663
5.7,-0.16479
5.704,-0.13534
5.708,-0.12039
5.712,-0.04374
5.716,-0.04644
5.72,-0.01608
5.724,-0.00286
5.728,-0.01832
5.732,0.02192
5.736,-0.0441
5.74,0.02194
5.744,-0.01244
5.748,0.03442
5.752,0.02571
5.756,0.04663
5.76,-0.02387
5.764,-0.04692
5.768,0.01792
5.772,-0.04161
5.776,-0.00212
5.78,-0.07339
5.784,-0.00269
5.788,0.02517
5.792,0.02613
5.796,0.03682
5.8,0.00599
5.804,-0.03411
5.808,0.02573
5.812,0.06675
5.816,0.02991
5.82,0.06403
5.824,-0.00686
5.828,-0.02856
5.832,0.04277
5.836,0.05268
5.84,0.00464
5.844,0.06709
5.848,-0.00069
5.852,-5e-05
5.856,0.02759
5.86,0.00557
5.864,-0.03984
5.868,0.09272
5.872,0.03954
5.876,0.00622
5.88,0.05639
5.884,0.10717
5.888,0.07883
5.892,0.11057
5.896,0.13207
5.9,0.13066
5.904,0.1015
5.908,0.19189
5.912,0.20152
5.916,0.22251
5.92,0.15811
5.924,0.21839
5.928,0.1006
5.932,0.14661
5.936,0.18196
5.94,0.17384
5.944,0.20864
5.948,0.23045
5.952,0.26669
5.956,0.22717
5.96,0.2059
5.964,0.2348
5.968,0.14413
5.972,0.18988
5.976,0.15482
5.98,0.25497
5.984,0.17826
5.988,0.21003
5.992,0.1566
5.996,0.18472
6.0,0.15211
6.004,0.13648
6.008,0.0907
6.012,0.07094
6.016,0.12103
6.02,0.10825
6.024,0.07639
6.028,0.13398
6.032,0.10019
6.036,0.13526
6.04,0.07185
6.044,0.11071
6.048,0.08766
6.052,0.06933
6.056,0.08653
6.06,0.11274
6.064,0.1002
6.068,0.03439
6.072,0.02443
6.076,-0.04697
6.08,0.03071
6.084,-0.0565
6.088,0.02339
6.092,0.01236
6.096,0.08837
6.1,-0.01519
6.104,0.04845
6.108,0.06201
6.112,0.00828
6.116,-0.00579
6.12,0.03474
6.124,-0.00071
6.128,0.0025
6.132,0.09548
6.136,0.00327
6.14,-0.00052
6.144,-0.02568
6.148,-0.01047
6.152,-0.03528
6.156,-0.05642
6.16,-0.00833
6.164,-0.07187
6.168,-0.14115
6.172,-0.12454
6.176,0.01926
6.18,0.1707
6.184,0.33868
6.188,0.58684
6.192,0.77043
6.196,0.90516
6.2,0.98857
6.204,0.94847
6.208,0.73404
6.212,0.57385
6.216,0.35902
6.22,0.118
6.224,-0.09535
6.228,-0.18946
6.232,-0.16747
6.236,-0.16503
6.24,-0.16693
6.244,-0.09391
6.248,-0.07697
6.252,0.00376
6.256,0.02534
6.26,-0.04422
6.264,-0.04051
6.268,0.00924
6.272,-0.05581
6.276,0.02442
6.28,0.00433
6.284,-0.04643
6.288,-0.0414
6.292,0.01715
6.296,-0.0453
6.3,-0.03614
6.304,0.01392
6.308,-0.00835
6.312,-0.05593
6.316,0.00808
6.32,-0.04814
6.324,0.01224
6.328,-0.02264
6.332,-0.03844
6.336,-0.03807
6.34,-0.00597
6.344,-0.03835
6.348,-0.04376
6.352,0.03216
6.356,0.0282
6.36,-0.02751
6.364,-0.02462
6.368,0.02909
6.372,-0.01772
6.376,-0.03619
6.38,-0.02097
6.384,0.02458
6.388,0.04924
6.392,0.03075
6.396,0.0041
6.4,0.02937
6.404,0.01579
6.408,0.10346
6.412,0.03631
6.416,0.06326
6.42,0.09397
6.424,0.06574
6.428,0.08303
6.432,0.0985
6.436,0.12593
6.44,0.12285
6.444,0.11182
6.448,0.17461
6.452,0.13238
6.456,0.16361
6.46,0.20445
6.464,0.22576
6.468,0.18343
6.472,0.20061
6.476,0.22728
6.48,0.24248
6.484,0.19437
6.488,0.13749
6.492,0.17506
6.496,0.15731
6.5,0.18908
6.504,0.16018
6.508,0.16847
6.512,0.10856
6.516,0.15521
6.52,0.08448
6.524,0.14261
6.528,0.06314
6.532,0.05246
6.536,0.09167
6.54,0.01111
6.544,0.05494
6.548,0.07712
6.552,0.02845
6.556,0.03385
6.56,0.04671
6.564,-0.00192
6.568,0.03982
6.572,-0.00702
6.576,-0.01861
6.58,0.0019
6.584,0.02147
6.588,-0.03136
6.592,0.0523
6.596,0.0167
6.6,-0.03209
6.604,-0.06978
6.608,0.01558
6.612,-0.05383
6.616,0.04109
6.62,0.05037
6.624,-0.01873
6.628,0.01123
6.632,0.04081
6.636,-0.03168
6.64,-0.03187
6.644,0.00424
6.648,-0.03514
6.652,-0.03741
6.656,-0.01461
6.66,0.01325
6.664,-0.03442
6.668,-0.01042
6.672,-0.0529
6.676,-0.01148
6.68,-0.04629
6.684,0.02105
6.688,-0.03466
6.692,0.03885
6.696,-0.07805
6.7,-0.05858
6.704,-0.01446
6.708,0.0585
6.712,-0.02702
6.716,0.04562
6.72,-0.04406
6.724,0.00955
6.728,0.03759
6.732,-0.01646
6.736,-0.04054
6.74,0.00914
6.744,0.02799
6.748,-0.05339
6.752,-0.03987
6.756,0.01354
6.76,-0.02922
6.764,0.00355
6.768,0.01742
6.772,-0.01
6.776,-0.0122
6.78,0.00386
6.784,0.02749
6.788,0.07128
6.792,0.06504
6.796,0.09845
6.8,0.0584
6.804,0.09939
6.808,0.07673
6.812,0.04489
6.816,0.03738
6.82,0.01319
6.824,-0.00265
6.828,-0.00757
6.832,0.02438
6.836,0.02874
6.84,-0.0003
6.844,-0.04185
6.848,-0.08003
6.852,-0.01528
6.856,-0.06363
6.86,0.0358
6.864,0.02612
6.868,-0.09349
6.872,-0.04108
6.876,-0.06093
6.88,0.04653
6.884,-0.02726
6.888,-0.05136
6.892,0.07219
6.896,-0.00556
6.9,0.02655
6.904,0.01943
6.908,-0.00958
6.912,-0.04351
6.916,-0.09176
6.92,-0.15606
6.924,-0.0862
6.928,-0.14758
6.932,-0.10471
6.936,-0.0373
6.94,0.13071
6.944,0.31422
6.948,0.53269
6.952,0.75627
6.956,0.88624
6.96,0.97176
6.964,0.84829
6.968,0.76531
6.972,0.559
6.976,0.3446
6.98,0.14203
6.984,-0.06745
6.988,-0.14741
6.992,-0.11445
6.996,-0.1782
7.0,-0.19026
7.004,-0.087
7.008,-0.06555
7.012,-0.10242
7.016,-0.02719
7.02,-0.06585
7.024,-0.02373
7.028,-0.02619
7.032,0.01737
7.036,-0.03443
7.04,-0.02904
7.044,-0.0134
7.048,0.01044
7.052,-0.00595
7.056,-0.0677
7.06,-0.03843
7.064,-0.03349
7.068,-0.01144
7.072,-0.05761
7.076,-0.01896
7.08,-0.01216
7.084,0.00258
7.088,-0.06997
7.092,-0.00511
7.096,0.03188
7.1,0.03105
7.104,-0.07062
7.108,-0.06773
7.112,-0.00052
7.116,-0.08779
7.12,-0.01553
7.124,-0.01226
7.128,-0.00541
7.132,-0.04391
7.136,-0.04106
7.14,0.02547
7.144,-0.04897
7.148,-0.04256
7.152,-0.01963
7.156,0.01879
7.16,-0.01867
7.164,0.02067
7.168,0.05485
7.172,0.01121
7.176,-0.00659
7.18,0.10029
7.184,0.0104
7.188,0.11653
7.192,0.1251
7.196,0.06794
7.2,0.10953
7.204,0.17742
7.208,0.11207
7.212,0.15197
7.216,0.15308
7.22,0.19066
7.224,0.20548
7.228,0.13108
7.232,0.27925
7.236,0.19106
7.24,0.12679
7.244,0.13883
7.248,0.1888
7.252,0.19241
7.256,0.22325
7.26,0.12079
7.264,0.15479
7.268,0.06642
7.272,0.1514
7.276,0.09253
7.28,0.11695
7.284,0.14293
7.288,0.07022
7.292,0.05454
7.296,0.08973
7.3,0.07086
7.304,0.11268
7.308,0.06284
7.312,0.12657
7.316,0.04026
7.32,-0.05332
7.324,0.05259
7.328,0.02616
7.332,0.02308
7.336,-0.00948
7.34,-0.02484
7.344,-0.02532
7.348,-0.00536
7.352,-0.05198
7.356,-0.04757
7.36,-0.0073
7.364,0.01245
7.368,-0.04641
7.372,-0.00568
7.376,-0.00684
7.38,0.00379
7.384,-0.07931
7.388,-0.07464
7.392,-0.06982
7.396,-0.00072
7.4,-0.0018
7.404,-0.04005
7.408,-0.01282
7.412,-0.08301
7.416,-0.06006
7.42,-0.0236
7.424,0.00216
7.428,-0.07955
7.432,-0.05788
7.436,-0.08542
7.44,0.05062
7.444,-0.05182
7.448,0.06061
7.452,-0.0049
7.456,-0.02164
7.46,0.00559
7.464,0.01419
7.468,-0.00698
7.472,-0.08794
7.476,-0.07524
7.48,0.0034
7.484,-0.07549
7.488,0.02931
7.492,0.0182
7.496,-0.0233
7.5,-0.07396
7.504,-0.05741
7.508,-0.02926
7.512,-0.02059
7.516,0.00754
7.52,0.00916
7.524,0.00537
7.528,0.00271
7.532,-0.01689
7.536,-0.04041
7.54,-0.03012
7.544,-0.08476
7.548,-0.02684
7.552,-0.0266
7.556,0.00885
7.56,-0.07201
7.564,-0.04953
7.568,-0.04705
7.572,-0.02481
7.576,-0.0068
7.58,0.01824
7.584,-0.01523
7.588,-0.02063
7.592,0.038
7.596,-0.01124
7.6,-0.05509
7.604,-0.002
7.608,0.04997
7.612,0.04046
7.616,-0.06452
7.62,-0.03157
7.624,-0.05235
7.628,0.04311
7.632,0.04865
7.636,0.07604
7.64,0.13284
7.644,0.0754
7.648,0.06741
7.652,0.05558
7.656,0.0419
7.66,-0.03127
7.664,0.02314
7.668,0.04741
7.672,0.00017
7.676,0.01827
7.68,-0.033
7.684,0.0371
7.688,-0.01009
7.692,0.0584
7.696,0.01323
7.7,0.00106
7.704,0.00551
7.708,-0.06867
7.712,-0.023
7.716,0.00203
7.72,0.01295
7.724,-0.0201
7.728,0.00783
7.732,-0.05114
7.736,-0.0178
7.74,0.00755
7.744,-0.0318
7.748,-0.02731
7.752,-0.04422
7.756,-0.01694
7.76,-0.00204
7.764,-0.06997
7.768,-0.0745
7.772,-0.0459
7.776,-0.14045
7.78,-0.17812
7.784,-0.0763
7.788,0.01207
7.792,0.18844
7.796,0.38392
7.8,0.51714
7.804,0.76441
7.808,0.94995
7.812,0.93546
7.816,0.82733
7.82,0.69973
7.824,0.5056
7.828,0.32046
7.832,0.05007
7.836,-0.08792
7.84,-0.17359
7.844,-0.1735
7.848,-0.21873
7.852,-0.13499
7.856,-0.10808
7.86,-0.07351
7.864,-0.01993
7.868,-0.08085
7.872,-0.10259
7.876,-0.026
7.88,-0.07371
7.884,-0.02009
7.888,-0.04364
7.892,-0.07942
7.896,-0.01291
7.9,-0.07278
7.904,-0.02885
7.908,-0.05663
7.912,-0.04193
7.916,-0.07383
7.92,-0.03844
7.924,0.00861
7.928,-0.00152
7.932,0.01715
7.936,0.00684
7.94,-0.09289
7.944,0.0071
7.948,-0.05336
7.952,-0.01943
7.956,-0.02356
7.96,-0.01117
7.964,-0.05719
7.968,-0.01689
7.972,0.02478
7.976,0.03017
7.98,-0.02027
7.984,-0.04059
7.988,-0.00185
7.992,0.05807
7.996,-0.02184
8.0,-0.00013
8.004,-0.00561
8.008,0.02763
8.012,-0.02753
8.016,0.04235
8.02,0.02556
8.024,0.04104
8.028,0.08335
8.032,0.08272
8.036,0.07859
8.04,0.13931
8.044,0.11913
8.048,0.11443
8.052,0.09058
8.056,0.12872
8.06,0.08759
8.064,0.16822
8.068,0.20095
8.072,0.21328
8.076,0.16329
8.08,0.19308
8.084,0.13478
8.088,0.20905
8.092,0.22572
8.096,0.17861
8.1,0.25233
8.104,0.20153
8.108,0.14574
8.112,0.18514
8.116,0.20859
8.12,0.19603
8.124,0.18935
8.128,0.15614
8.132,0.11352
8.136,0.07492
8.14,0.09632
8.144,0.03132
8.148,0.04568
8.152,0.05133
8.156,0.0211
8.16,0.06091
8.164,0.02547
8.168,0.02909
8.172,-0.01728
8.176,-0.07219
8.18,-0.02575
8.184,0.02164
8.188,0.01798
8.192,-0.03985
8.196,-0.0187
8.2,-0.00151
8.204,-0.00754
8.208,-0.04822
8.212,0.02407
8.216,0.05126
8.22,-0.03208
8.224,-0.01539
8.228,-0.05339
8.232,0.00413
8.236,0.02562
8.24,0.0344
8.244,-0.00658
8.248,-0.08295
8.252,-0.00849
8.256,-0.03335
8.26,0.0269
8.264,0.01899
8.268,0.00756
8.272,0.00675
8.276,-0.01471
8.28,0.03744
8.284,0.01487
8.288,-0.04379
8.292,-0.07529
8.296,-0.0299
8.3,-0.05769
8.304,0.02887
8.308,-0.04638
8.312,-0.0437
8.316,-0.03249
8.32,-0.06382
8.324,0.00476
8.328,-0.01181
8.332,-0.12364
8.336,0.00705
8.34,-0.0749
8.344,-0.06124
8.348,-0.06748
8.352,0.02863
8.356,-0.0151
8.36,-0.03254
8.364,-0.03822
8.368,-0.00885
8.372,-0.02753
8.376,-0.03715
8.38,0.01642
8.384,-0.04246
8.388,-0.02764
8.392,-0.07578
8.396,0.00437
8.4,0.00054
8.404,-0.08675
8.408,0.03429
8.412,0.00894
8.416,0.01441
8.42,-0.00226
8.424,-0.03976
8.428,-0.02442
8.432,-0.08112
8.436,-0.03657
8.44,-0.04782
8.444,-0.03499
8.448,-0.05492
8.452,0.02427
8.456,0.005
8.46,0.02485
8.464,-0.00081
8.468,-0.03875
8.472,-0.04862
8.476,-0.01106
8.48,0.04667
8.484,0.02822
8.488,0.00116
8.492,0.03626
8.496,0.10644
8.5,0.03008
8.504,0.06796
8.508,0.10827
8.512,0.09115
8.516,0.11157
8.52,0.10945
8.524,0.04908
8.528,0.09025
8.532,-0.00457
8.536,0.07015
8.54,-0.00219
8.544,-0.01381
8.548,0.02983
8.552,-0.00013
8.556,0.02893
8.56,-0.1104
8.564,-0.00771
8.568,-0.02525
8.572,0.00166
8.576,0.06959
8.58,-0.03516
8.584,-0.02221
8.588,-0.00588
8.592,-0.07088
8.596,-0.00243
8.6,0.03411
8.604,-0.00812
8.608,-0.07202
8.612,-0.03169
8.616,-0.02487
8.62,-0.02013
8.624,-0.0207
8.628,-0.06757
8.632,-0.08801
8.636,-0.13473
8.64,-0.09661
8.644,-0.02865
8.648,0.11075
8.652,0.23473
8.656,0.42553
8.66,0.68331
8.664,0.83216
8.668,0.97898
8.672,0.92476
8.676,0.82607
8.68,0.74507
8.684,0.49934
8.688,0.18191
8.692,-0.02027
8.696,-0.06059
8.7,-0.20209
8.704,-0.16955
8.708,-0.1773
8.712,-0.0913
8.716,-0.04038
8.72,-0.05875
8.724,-0.00601
8.728,-0.00632
8.732,0.03615
8.736,0.00357
8.74,-0.00635
8.744,-0.05873
8.748,-0.06545
8.752,0.0195
8.756,0.00374
8.76,-0.03656
8.764,-0.01378
8.768,0.01013
8.772,0.03748
8.776,0.00559
8.78,0.0001
8.784,-0.07478
8.788,0.0021
8.792,-0.01089
8.796,0.0222
8.8,-0.06203
8.804,0.01765
8.808,-0.00083
8.812,-0.04335
8.816,-0.0107
8.82,-0.07478
8.824,0.02557
8.828,-0.03853
8.832,-0.02232
8.836,0.06365
8.84,-0.03459
8.844,0.03213
8.848,-0.01845
8.852,-0.02039
8.856,0.06115
8.86,0.09488
8.864,0.01838
8.868,-0.01683
8.872,-0.02019
8.876,0.03345
8.88,-0.00651
8.884,0.10074
8.888,0.08512
8.892,0.0862
8.896,0.08161
8.9,0.0731
8.904,0.12969
8.908,0.08061
8.912,0.1483
8.916,0.22268
8.92,0.16397
8.924,0.1966
8.928,0.18943
8.932,0.18948
8.936,0.18622
8.94,0.21184
8.944,0.20404
8.948,0.22563
8.952,0.24763
8.956,0.21575
8.96,0.17232
8.964,0.23814
8.968,0.20482
8.972,0.21801
8.976,0.21038
8.98,0.1749
8.984,0.16804
8.988,0.13535
8.992,0.21455
8.996,0.18989
9.0,0.0767
9.004,0.14678
9.008,0.14302
9.012,-0.01284
9.016,0.02907
9.02,0.10367
9.024,0.09418
9.028,-0.00411
9.032,0.03702
9.036,-0.03992
9.04,0.07554
9.044,0.04083
9.048,0.04339
9.052,0.01924
9.056,-0.012
9.06,-0.01332
9.064,-0.00587
9.068,0.0277
9.072,0.02589
9.076,0.0251
9.08,-0.03655
9.084,-0.05853
9.088,-0.03771
9.092,-0.03723
9.096,0.02624
9.1,-0.00137
9.104,-0.00428
9.108,-0.03665
9.112,0.03273
9.116,0.00734
9.12,-0.06446
9.124,0.03257
9.128,0.0299
9.132,0.03584
9.136,0.01531
9.14,0.04926
9.144,0.07202
9.148,0.0666
9.152,0.06248
9.156,0.12301
9.16,0.09239
9.164,0.10697
9.168,0.06694
9.172,0.13217
9.176,0.07672
9.18,0.12816
9.184,0.04906
9.188,0.05378
9.192,0.05345
9.196,-0.0102
9.2,0.00741
9.204,-0.00657
9.208,-0.04607
9.212,0.00704
9.216,-0.01146
9.22,-0.0224
9.224,0.05803
9.228,0.03873
9.232,0.06037
9.236,-0.00783
9.24,-0.01404
9.244,0.00786
9.248,-0.02483
9.252,0.02201
9.256,0.03926
9.26,0.01204
9.264,0.04441
9.268,0.04756
9.272,0.00087
9.276,-0.08899
9.28,-0.04613
9.284,-0.02166
9.288,-0.06877
9.292,-0.1201
9.296,-0.09088
9.3,-0.13878
9.304,-0.04855
9.308,0.00203
9.312,0.171
9.316,0.41758
9.32,0.64519
9.324,0.80069
9.328,1.04087
9.332,1.01979
9.336,0.92236
9.34,0.67126
9.344,0.5402
9.348,0.30292
9.352,0.15915
9.356,-0.03437
9.36,-0.15957
9.364,-0.16464
9.368,-0.19918
9.372,-0.0641
9.376,-0.08582
9.38,-0.06728
9.384,-0.05359
9.388,0.00883
9.392,-0.01155
9.396,-0.01455
9.4,-0.03173
9.404,0.08503
9.408,0.0297
9.412,0.0313
9.416,-0.02028
9.42,-0.02163
9.424,0.04675
9.428,-0.01508
9.432,-0.04606
9.436,-0.02059
9.44,0.03289
9.444,0.0045
9.448,0.01356
9.452,-0.01671
9.456,-0.01357
9.46,-0.01384
9.464,-0.02718
9.468,-0.01939
9.472,0.02235
9.476,0.02917
9.48,0.00613
9.484,-0.06185
9.488,0.018
9.492,0.01183
9.496,-0.03546
9.5,-0.00416
9.504,0.06633
9.508,0.08255
9.512,0.04797
9.516,0.05421
9.52,0.08649
9.524,0.00631
9.528,-0.01164
9.532,0.04355
9.536,0.09827
9.54,0.04296
9.544,0.11039
9.548,0.08145
9.552,0.09891
9.556,0.13966
9.56,0.06894
9.564,0.10462
9.568,0.16499
9.572,0.16733
9.576,0.13555
9.58,0.16995
9.584,0.24388
9.588,0.19563
9.592,0.15989
9.596,0.25962
9.6,0.12083
9.604,0.31016
9.608,0.27298
9.612,0.21794
9.616,0.28674
9.62,0.2199
9.624,0.22633
9.628,0.2928
9.632,0.18309
9.636,0.18028
9.64,0.17909
9.644,0.19997
9.648,0.21602
9.652,0.15626
9.656,0.16075
9.66,0.07294
9.664,0.1541
9.668,0.17229
9.672,0.13264
9.676,0.0773
9.68,0.03127
9.684,0.11259
9.688,0.09263
9.692,0.07248
9.696,0.03762
9.7,0.02474
9.704,0.02432
9.708,0.04706
9.712,0.0668
9.716,-0.01496
9.72,0.03611
9.724,-0.0003
9.728,-0.00029
9.732,-0.07706
9.736,0.00142
9.74,0.06269
9.744,0.01272
9.748,0.02897
9.752,0.04206
9.756,0.01426
9.76,-0.01874
9.764,-0.03318
9.768,0.02903
9.772,0.03875
9.776,0.03079
9.78,0.03051
9.784,0.01105
9.788,0.02479
9.792,0.10845
9.796,0.02173
9.8,0.03551
9.804,-0.01708
9.808,0.04981
9.812,0.00223
9.816,0.0083
9.82,0.02797
9.824,-0.01648
9.828,0.06137
9.832,0.00223
9.836,-0.02671
9.84,0.02601
9.844,-0.03669
9.848,0.03084
9.852,0.06262
9.856,0.04191
9.86,-0.03612
9.864,0.02803
9.868,-0.00288
9.872,0.04475
9.876,-0.07613
9.88,-0.01996
9.884,0.06454
9.888,0.02311
9.892,-0.04107
9.896,-0.0149
9.9,-0.03471
9.904,0.05502
9.908,0.02414
9.912,0.01057
9.916,0.01638
9.92,0.04875
9.924,-0.00715
9.928,-0.05472
9.932,0.08593
9.936,0.00152
9.94,-0.0248
9.944,-0.05153
9.948,0.01972
9.952,0.0107
9.956,0.02225
9.96,-0.02143
9.964,0.02048
9.968,-0.04517
9.972,-0.01898
9.976,0.00824
9.98,0.06878
9.984,-0.01966
9.988,0.08363
9.992,0.06522
9.996,-0.0472
