t_seg,ecg_mV
0.0,0.01097
0.004,0.00557
0.008,0.10677
0.012,0.03338
0.016,0.07907
0.02,0.04698
0.024,-0.04819
0.028,-0.01479
0.032,0.09105
0.036,0.04577
0.04,-0.01088
0.044,-0.06905
0.048,0.01509
0.052,0.00796
0.056,0.08436
0.06,0.03962
0.064,0.0853
0.068,0.04522
0.072,0.01196
0.076,0.07411
0.08,-0.03237
0.084,0.01951
0.088,0.03206
0.092,0.03307
0.096,-0.00265
0.1,0.10131
0.104,0.10065
0.108,0.07195
0.112,0.04435
0.116,-0.06907
0.12,0.02945
0.124,0.08103
0.128,0.02793
0.132,0.01215
0.136,0.10091
0.14,0.0402
0.144,0.04907
0.148,0.09487
0.152,0.08598
0.156,0.14711
0.16,0.09558
0.164,0.10281
0.168,0.10509
0.172,0.18006
0.176,0.15983
0.18,0.07579
0.184,0.16044
0.188,0.09668
0.192,0.06716
0.196,0.13682
0.2,0.04482
0.204,0.07607
0.208,0.08306
0.212,0.10459
0.216,0.01799
0.22,0.17342
0.224,0.03384
0.228,0.04075
0.232,0.07461
0.236,0.02844
0.24,0.0195
0.244,0.03772
0.248,0.0137
0.252,0.06425
0.256,0.06447
0.26,0.01406
0.264,0.0003
0.268,-0.03449
0.272,0.02455
0.276,0.04101
0.28,0.0312
0.284,0.02424
0.288,-0.05678
0.292,0.01476
0.296,-0.03385
0.3,-0.12052
0.304,-0.09583
0.308,-0.06641
0.312,0.05918
0.316,0.26669
0.32,0.50012
0.324,0.70979
0.328,0.93063
0.332,1.0055
0.336,0.95006
0.34,0.92249
0.344,0.75215
0.348,0.5014
0.352,0.26295
0.356,0.02949
0.36,-0.05806
0.364,-0.08102
0.368,-0.14055
0.372,-0.08497
0.376,-0.03767
0.38,-0.06925
0.384,0.04959
0.388,0.03796
0.392,-0.02283
0.396,0.05274
0.4,0.05771
0.404,0.04343
0.408,0.00041
0.412,0.00714
0.416,0.01184
0.42,0.06631
0.424,0.06548
0.428,0.04633
0.432,0.01782
0.436,-0.00926
0.44,0.07102
0.444,0.00584
0.448,0.02395
0.452,0.0487
0.456,0.0423
0.46,-0.02621
0.464,0.01836
0.468,0.02389
0.472,-0.008
0.476,-0.01512
0.48,-0.01155
0.484,0.04928
0.488,0.02578
0.492,0.01311
0.496,0.08545
0.5,0.03289
0.504,0.03711
0.508,0.00942
0.512,0.00226
0.516,0.00422
0.52,0.01137
0.524,0.06457
0.528,0.09927
0.532,0.11893
0.536,0.06181
0.54,0.00708
0.544,0.10547
0.548,0.10671
0.552,0.08731
0.556,0.12842
0.56,0.17074
0.564,0.15567
0.568,0.15556
0.572,0.21356
0.576,0.13114
0.58,0.22291
0.584,0.2014
0.588,0.23049
0.592,0.28827
0.596,0.22019
0.6,0.20634
0.604,0.23368
0.608,0.25107
0.612,0.25409
0.616,0.22679
0.62,0.23229
0.624,0.21793
0.628,0.29114
0.632,0.20079
0.636,0.19751
0.64,0.22117
0.644,0.15686
0.648,0.21711
0.652,0.23748
0.656,0.18716
0.66,0.14229
0.664,0.09462
0.668,0.12585
0.672,0.05874
0.676,0.09063
0.68,0.14871
0.684,0.11297
0.688,0.0432
0.692,0.07656
0.696,0.04292
0.7,0.02721
0.704,0.00113
0.708,-0.00318
0.712,0.03036
0.716,0.03432
0.72,-0.02393
0.724,-0.02278
0.728,0.06865
0.732,-0.01703
0.736,0.04682
0.74,0.08456
0.744,0.06517
0.748,0.01924
0.752,0.08455
0.756,0.01042
0.76,0.10223
0.764,-0.02698
0.768,-0.01036
0.772,0.00351
0.776,-0.02659
0.78,0.07972
0.784,0.00715
0.788,-0.00786
0.792,0.04087
0.796,0.00371
0.8,0.02416
0.804,0.02314
0.808,-0.07979
0.812,0.01631
0.816,0.00213
0.82,0.08875
0.824,0.01599
0.828,-0.02641
0.832,-0.04586
0.836,-0.00831
0.84,-0.03045
0.844,-0.00946
0.848,-0.002
0.852,0.00254
0.856,0.01947
0.86,0.00676
0.864,0.05559
0.868,0.03996
0.872,0.07826
0.876,0.07571
0.88,0.09275
0.884,0.12467
0.888,0.11331
0.892,0.0801
0.896,0.18066
0.9,0.07882
0.904,0.1188
0.908,0.02457
0.912,0.0246
0.916,0.11153
0.92,0.01304
0.924,0.04916
0.928,0.03763
0.932,0.04158
0.936,0.04869
0.94,0.00698
0.944,-0.01772
0.948,0.05368
0.952,-0.01431
0.956,0.00503
0.96,0.02685
0.964,0.05815
0.968,0.03654
0.972,0.06013
0.976,0.05897
0.98,-0.05438
0.984,0.01544
0.988,-0.01281
0.992,0.00649
0.996,-0.02949
1.0,0.02365
1.004,-0.03884
1.008,-0.08782
1.012,-0.0953
1.016,-0.06675
1.02,-0.10174
1.024,-0.00118
1.028,0.1394
1.032,0.35034
1.036,0.65453
1.04,0.82162
1.044,0.92438
1.048,1.05073
1.052,0.96525
1.056,0.7975
1.06,0.6408
1.064,0.30701
1.068,0.09333
1.072,-0.00404
1.076,-0.19303
1.08,-0.12965
1.084,-0.16654
1.088,-0.17733
1.092,-0.04176
1.096,-0.03744
1.1,-0.10947
1.104,0.00387
1.108,0.03798
1.112,0.01995
1.116,-0.05729
1.12,-0.02918
1.124,0.01639
1.128,0.04443
1.132,0.01494
1.136,-0.01136
1.14,0.01702
1.144,0.11744
1.148,0.0208
1.152,0.00395
1.156,-0.00486
1.16,0.04417
1.164,0.06057
1.168,-0.07387
1.172,0.01329
1.176,0.00629
1.18,-0.01374
1.184,-0.00697
1.188,-0.05175
1.192,0.00431
1.196,-0.01102
1.2,-0.0798
1.204,0.0295
1.208,-0.01954
1.212,0.01446
1.216,0.07027
1.22,0.04293
1.224,0.04084
1.228,0.05478
1.232,0.00677
1.236,0.02105
1.24,0.02485
1.244,0.06586
1.248,0.05049
1.252,0.00065
1.256,0.08075
1.26,0.09722
1.264,0.12243
1.268,0.09623
1.272,0.13559
1.276,0.14283
1.28,0.05628
1.284,0.09892
1.288,0.19327
1.292,0.17501
1.296,0.18069
1.3,0.14768
1.304,0.20631
1.308,0.22907
1.312,0.22357
1.316,0.24047
1.32,0.20766
1.324,0.22557
1.328,0.2107
1.332,0.26007
1.336,0.17917
1.34,0.24286
1.344,0.26766
1.348,0.22392
1.352,0.17194
1.356,0.22645
1.36,0.21567
1.364,0.25417
1.368,0.18196
1.372,0.17009
1.376,0.13272
1.38,0.09781
1.384,0.10917
1.388,0.07724
1.392,0.07067
1.396,0.05964
1.4,0.06771
1.404,0.10396
1.408,0.04751
1.412,-0.01553
1.416,0.08107
1.42,0.025
1.424,0.02197
1.428,0.02824
1.432,0.00893
1.436,-0.08762
1.44,0.04362
1.444,0.03698
1.448,0.07687
1.452,-0.05055
1.456,0.03117
1.46,0.01166
1.464,-0.00539
1.468,0.00067
1.472,0.00393
1.476,0.01329
1.48,-0.00274
1.484,-0.01335
1.488,0.02606
1.492,-0.01067
1.496,0.02068
1.5,0.03577
1.504,0.03452
1.508,0.02116
1.512,0.01875
1.516,-0.0034
1.52,-3e-05
1.524,0.027
1.528,0.00246
1.532,-0.01803
1.536,0.0369
1.54,0.00432
1.544,-0.04498
1.548,0.0412
1.552,-0.05237
1.556,-0.00757
1.56,-0.024
1.564,-0.03417
1.568,-0.00377
1.572,0.00608
1.576,0.03245
1.58,-0.01265
1.584,0.03447
1.588,-0.05921
1.592,-0.04018
1.596,-0.01088
1.6,0.02195
1.604,-0.04
1.608,-0.03704
1.612,-0.00342
1.616,0.04062
1.62,-0.02597
1.624,-0.02656
1.628,-0.03577
1.632,0.01837
1.636,0.03197
1.64,-0.01286
1.644,0.00559
1.648,-0.04749
1.652,-0.09702
1.656,-0.00161
1.66,-0.04414
1.664,-0.03094
1.668,0.01549
1.672,0.01741
1.676,-0.00122
1.68,0.01815
1.684,-0.02381
1.688,0.02935
1.692,-0.01373
1.696,0.03449
1.7,-0.00702
1.704,0.04748
1.708,-0.03333
1.712,-0.02212
1.716,0.01579
1.72,0.00658
1.724,-0.05384
1.728,0.02047
1.732,0.00718
1.736,-0.02149
1.74,-0.03864
1.744,-0.04256
1.748,0.00464
1.752,-0.0118
1.756,0.02907
1.76,-0.00227
1.764,-0.06195
1.768,-0.02921
1.772,0.0095
1.776,0.03106
1.78,0.03292
1.784,0.06053
1.788,0.04561
1.792,0.05202
1.796,0.12607
1.8,0.07745
1.804,0.04804
1.808,0.10766
1.812,0.09745
1.816,0.08761
1.82,0.08585
1.824,0.09366
1.828,0.09465
1.832,0.03555
1.836,0.02239
1.84,-0.03632
1.844,0.03829
1.848,0.00871
1.852,-0.00625
1.856,-0.05327
1.86,0.0316
1.864,0.02442
1.868,0.02966
1.872,-0.02867
1.876,0.01546
1.88,-0.03198
1.884,-0.03666
1.888,-0.02638
1.892,0.04615
1.896,0.02639
1.9,-0.04787
1.904,0.0015
1.908,0.00218
1.912,-0.04803
1.916,-0.04088
1.92,-0.01383
1.924,-0.02
1.928,-0.04887
1.932,-0.08826
1.936,-0.17196
1.94,-0.13402
1.944,0.04069
1.948,0.13381
1.952,0.25339
1.956,0.51566
1.96,0.64532
1.964,0.90591
1.968,1.00404
1.972,0.984
1.976,0.83241
1.98,0.67965
1.984,0.374
1.988,0.21496
1.992,-0.00332
1.996,-0.07816
2.0,-0.16741
2.004,-0.21453
2.008,-0.20232
2.012,-0.12945
2.016,-0.02333
2.02,-0.08453
2.024,-0.04496
2.028,-0.01823
2.032,-0.03089
2.036,0.00938
2.04,0.10393
2.044,0.02021
2.048,0.03367
2.052,0.00407
2.056,-0.02473
2.06,0.01214
2.064,-0.03955
2.068,-0.01973
2.072,-0.05054
2.076,0.0238
2.08,-0.04255
2.084,0.03112
2.088,-0.01079
2.092,-0.01839
2.096,-0.02924
2.1,-0.01146
2.104,0.00626
2.108,-0.02751
2.112,-0.00832
2.116,0.04171
2.12,-0.00805
2.124,0.03501
2.128,0.01102
2.132,0.00528
2.136,0.03798
2.14,0.01776
2.144,0.04827
2.148,-0.01687
2.152,0.01611
2.156,-0.02933
2.16,0.00279
2.164,-0.02985
2.168,0.03256
2.172,0.1006
2.176,0.05159
2.18,0.0901
2.184,0.12566
2.188,0.12204
2.192,0.18146
2.196,0.18836
2.2,0.24761
2.204,0.21626
2.208,0.18962
2.212,0.24179
2.216,0.24164
2.22,0.22221
2.224,0.26088
2.228,0.2153
2.232,0.21203
2.236,0.24038
2.24,0.18854
2.244,0.16898
2.248,0.22064
2.252,0.22288
2.256,0.20245
2.26,0.17409
2.264,0.20591
2.268,0.15299
2.272,0.22513
2.276,0.20533
2.28,0.14802
2.284,0.17172
2.288,0.11631
2.292,0.1141
2.296,0.10768
2.3,0.06607
2.304,0.11821
2.308,0.03765
2.312,0.01764
2.316,0.05875
2.32,0.03376
2.324,-0.05658
2.328,-0.02023
2.332,-0.09804
2.336,0.00622
2.34,0.01845
2.344,0.24985
2.348,0.41721
2.352,0.59715
2.356,0.79528
2.36,0.93163
2.364,1.03135
2.368,0.93338
2.372,0.70542
2.376,0.52252
2.38,0.26437
2.384,0.08003
2.388,-0.06322
2.392,-0.1651
2.396,-0.23865
2.4,-0.17808
2.404,-0.1105
2.408,-0.16852
2.412,-0.06877
2.416,-0.04329
2.42,-0.04952
2.424,0.01245
2.428,-0.0252
2.432,-0.00147
2.436,-0.06486
2.44,-0.00725
2.444,0.00671
2.448,-0.02002
2.452,-0.11112
2.456,0.03903
2.46,0.04739
2.464,-0.05399
2.468,-0.01122
2.472,-0.01812
2.476,0.0168
2.48,-0.02744
2.484,-0.04369
2.488,-0.03564
2.492,-0.03822
2.496,0.01479
2.5,-0.04392
2.504,-0.03511
2.508,0.02246
2.512,-0.03217
2.516,-0.02452
2.52,-0.00132
2.524,-0.01354
2.528,-0.01167
2.532,-0.03859
2.536,-0.05311
2.54,-0.09057
2.544,-0.01222
2.548,-0.02265
2.552,0.05409
2.556,-0.04202
2.56,0.03033
2.564,0.03002
2.568,0.03911
2.572,0.04056
2.576,0.02929
2.58,0.08663
2.584,0.02329
2.588,0.12259
2.592,0.08432
2.596,0.11406
2.6,0.10421
2.604,0.16654
2.608,0.11255
2.612,0.1193
2.616,0.12394
2.62,0.15635
2.624,0.15075
2.628,0.12014
2.632,0.16457
2.636,0.13484
2.64,0.20845
2.644,0.18829
2.648,0.19342
2.652,0.24502
2.656,0.16623
2.66,0.21925
2.664,0.18151
2.668,0.21408
2.672,0.13241
2.676,0.1776
2.68,0.10487
2.684,0.16632
2.688,0.09141
2.692,0.07398
2.696,0.07756
2.7,0.07841
2.704,0.11287
2.708,0.05761
2.712,0.06213
2.716,-0.03151
2.72,-0.03835
2.724,0.08402
2.728,0.01422
2.732,0.03982
2.736,0.0104
2.74,0.01091
2.744,0.05348
2.748,0.01979
2.752,-0.00153
2.756,-0.03141
2.76,0.0063
2.764,-0.03407
2.768,-0.11285
2.772,-0.02155
2.776,-0.02588
2.78,-0.01646
2.784,-0.02065
2.788,-0.02976
2.792,-0.04494
2.796,-0.01648
2.8,-0.07924
2.804,-0.03437
2.808,0.00075
2.812,-0.06129
2.816,-0.03252
2.82,0.01946
2.824,-0.02312
2.828,-0.04414
2.832,-0.01719
2.836,-0.03257
2.84,0.02147
2.844,-0.03506
2.848,-0.03713
2.852,-0.03886
2.856,-0.00704
2.86,-0.03915
2.864,-0.0248
2.868,-0.03347
2.872,-0.01856
2.876,-0.04956
2.88,-0.03544
2.884,0.0484
2.888,0.01279
2.892,-0.02449
2.896,-0.00242
2.9,-0.08293
2.904,-0.05077
2.908,-0.06556
2.912,-0.04262
2.916,-0.00233
2.92,-0.06995
2.924,-0.05389
2.928,-0.01554
2.932,-0.0522
2.936,-0.02179
2.94,0.00574
2.944,0.01787
2.948,-0.01262
2.952,0.00683
2.956,-0.04022
2.96,-0.04256
2.964,-0.03851
2.968,-0.05061
2.972,-0.01297
2.976,-0.03441
2.98,-0.05819
2.984,-0.0549
2.988,-0.04364
2.992,0.03606
2.996,-0.05764
3.0,-0.0214
3.004,0.00507
3.008,-0.08188
3.012,-0.01799
3.016,-0.08622
3.02,0.00984
3.024,0.00811
3.028,-0.0849
3.032,-0.07689
3.036,0.00101
3.04,-0.01482
3.044,0.01652
3.048,0.1034
3.052,0.10037
3.056,0.02082
3.06,0.11737
3.064,-0.01606
3.068,0.02983
3.072,0.00468
3.076,0.08235
3.08,0.12118
3.084,0.05376
3.088,0.05528
3.092,0.0736
3.096,0.0769
3.1,-0.02028
3.104,-0.05731
3.108,0.00188
3.112,0.04103
3.116,-0.06538
3.12,-0.03628
3.124,-0.06431
3.128,0.02313
3.132,-0.08269
3.136,-0.04816
3.14,-0.04416
3.144,-0.03641
3.148,-0.06423
3.152,-0.05347
3.156,0.02095
3.16,-0.03551
3.164,-0.05567
3.168,0.0067
3.172,-0.04608
3.176,-0.03356
3.18,-0.0079
3.184,-0.00428
3.188,-0.07555
3.192,-0.03841
3.196,-0.02399
3.2,-0.06891
3.204,-0.16077
3.208,-0.15749
3.212,-0.06994
3.216,0.10068
3.22,0.30474
3.224,0.46431
3.228,0.73243
3.232,0.84385
3.236,1.01098
3.24,0.96918
3.244,0.83141
3.248,0.5911
3.252,0.36039
3.256,0.14771
3.26,-0.01386
3.264,-0.18314
3.268,-0.1923
3.272,-0.19384
3.276,-0.20322
3.28,-0.10047
3.284,-0.03014
3.288,-0.04796
3.292,0.00708
3.296,-0.06314
3.3,-0.04465
3.304,-0.01633
3.308,0.00358
3.312,-0.00932
3.316,-0.0324
3.32,-0.05825
3.324,-0.01391
3.328,-0.02028
3.332,-0.03317
3.336,-0.05923
3.34,-0.03508
3.344,0.05141
3.348,-0.02554
3.352,-1e-05
3.356,-0.09565
3.36,0.06477
3.364,0.01982
3.368,-0.08978
3.372,-0.01024
3.376,-0.04567
3.38,-0.00113
3.384,-0.06696
3.388,-0.06684
3.392,-0.05214
3.396,-0.00661
3.4,0.00164
3.404,-0.07558
3.408,0.03459
3.412,-0.01872
3.416,0.02582
3.42,-0.03748
3.424,0.05313
3.428,-0.02302
3.432,0.01118
3.436,-0.03433
3.44,0.06999
3.444,0.02557
3.448,0.04812
3.452,-0.00266
3.456,0.00184
3.46,0.05281
3.464,0.07295
3.468,0.12026
3.472,0.13454
3.476,0.07049
3.48,0.07194
3.484,0.10307
3.488,0.06853
3.492,0.11062
3.496,0.10465
3.5,0.24592
3.504,0.21986
3.508,0.17678
3.512,0.25163
3.516,0.29253
3.52,0.29438
3.524,0.21164
3.528,0.33626
3.532,0.23381
3.536,0.31545
3.54,0.27296
3.544,0.25845
3.548,0.18112
3.552,0.18842
3.556,0.17942
3.56,0.13014
3.564,0.09691
3.568,0.06562
3.572,0.0583
3.576,0.11667
3.58,0.06892
3.584,0.05367
3.588,0.04536
3.592,0.05134
3.596,0.03662
3.6,0.11695
3.604,0.00709
3.608,-0.0017
3.612,-0.03722
3.616,-0.03502
3.62,-0.03129
3.624,-0.00478
3.628,0.02742
3.632,-0.05445
3.636,-0.05718
3.64,-0.01987
3.644,0.00893
3.648,0.04693
3.652,-0.09803
3.656,-0.00447
3.66,-0.13755
3.664,-0.15148
3.668,-0.07996
3.672,0.03493
3.676,0.28815
3.68,0.39937
3.684,0.69417
3.688,0.86475
3.692,0.9531
3.696,0.92882
3.7,0.88058
3.704,0.68512
3.708,0.36759
3.712,0.20151
3.716,-0.07099
3.72,-0.08408
3.724,-0.12604
3.728,-0.17564
3.732,-0.08368
3.736,-0.17835
3.74,-0.09083
3.744,-0.07485
3.748,-0.00524
3.752,-0.01633
3.756,-0.05888
3.76,-0.07127
3.764,0.00669
3.768,0.02945
3.772,-0.00843
3.776,-0.04161
3.78,-0.07761
3.784,-0.00411
3.788,-0.00046
3.792,-0.0384
3.796,0.04364
3.8,-0.02268
3.804,-0.01532
3.808,-0.02882
3.812,0.0267
3.816,-0.02769
3.82,-0.04053
3.824,-0.02159
3.828,-0.02425
3.832,-0.09424
3.836,-0.06486
3.84,-0.02954
3.844,-0.05015
3.848,-0.04968
3.852,-0.01019
3.856,-0.05387
3.86,0.04156
3.864,-0.03477
3.868,-0.07077
3.872,0.05566
3.876,0.07577
3.88,-0.02924
3.884,0.00421
3.888,0.00683
3.892,0.06077
3.896,0.08933
3.9,0.05457
3.904,0.04311
3.908,0.0408
3.912,0.06155
3.916,0.07127
3.92,0.06022
3.924,0.03825
3.928,0.12894
3.932,0.11413
3.936,0.12864
3.94,0.11779
3.944,0.18059
3.948,0.1708
3.952,0.18281
3.956,0.16967
3.96,0.14625
3.964,0.20061
3.968,0.12754
3.972,0.18673
3.976,0.18378
3.98,0.1648
3.984,0.12811
3.988,0.16742
3.992,0.20275
3.996,0.15001
4.0,0.08396
4.004,0.14191
4.008,0.14518
4.012,0.10377
4.016,0.0257
4.02,0.07947
4.024,0.10953
4.028,0.04608
4.032,0.06263
4.036,0.09875
4.04,0.0174
4.044,0.01044
4.048,0.06173
4.052,0.06559
4.056,0.03239
4.06,0.0693
4.064,0.00641
4.068,-0.0377
4.072,0.02663
4.076,-0.00909
4.08,-0.07201
4.084,0.00104
4.088,-0.02549
4.092,-0.08789
4.096,-0.0335
4.1,0.00164
4.104,0.01416
4.108,0.01976
4.112,-0.00742
4.116,-0.00943
4.12,-0.00842
4.124,0.01432
4.128,-0.02151
4.132,0.01186
4.136,0.04442
4.14,-0.03722
4.144,0.01393
4.148,-0.0072
4.152,0.03689
4.156,0.00157
4.16,-0.01696
4.164,0.04462
4.168,-0.05929
4.172,-0.01067
4.176,-0.03424
4.18,-0.0497
4.184,-0.00957
4.188,-0.02032
4.192,-0.05862
4.196,-0.00723
4.2,-0.05046
4.204,-0.03454
4.208,-0.06076
4.212,-0.01024
4.216,-0.06164
4.22,-0.02149
4.224,0.08344
4.228,0.02312
4.232,-0.06612
4.236,-0.00496
4.24,-0.02021
4.244,-0.06171
4.248,-0.09519
4.252,-0.00416
4.256,0.01091
4.26,0.00472
4.264,-0.0514
4.268,-0.06469
4.272,0.03432
4.276,0.06985
4.28,0.01712
4.284,-0.02725
4.288,-0.01055
4.292,-0.00862
4.296,-0.02411
4.3,-0.0223
4.304,0.00559
4.308,0.00723
4.312,-0.01919
4.316,0.01366
4.32,-0.0396
4.324,-0.0199
4.328,0.02914
4.332,-0.00758
4.336,-0.02072
4.34,-0.00525
4.344,-0.02017
4.348,0.00235
4.352,-0.02151
4.356,-0.00388
4.36,-0.00869
4.364,0.02294
4.368,0.0059
4.372,-0.00277
4.376,0.04938
4.38,0.03008
4.384,0.06746
4.388,0.02754
4.392,0.00928
4.396,-0.01332
4.4,0.0294
4.404,-0.08527
4.408,0.02073
4.412,-0.06015
4.416,0.04745
4.42,0.00856
4.424,-0.10112
4.428,-0.01295
4.432,-0.05413
4.436,0.04627
4.44,-0.01362
4.444,-0.00328
4.448,0.01651
4.452,-0.04044
4.456,-0.06574
4.46,0.07794
4.464,-0.01961
4.468,0.02224
4.472,-0.00704
4.476,-0.00118
4.48,0.00286
4.484,0.07737
4.488,0.08357
4.492,0.09383
4.496,0.03581
4.5,0.07188
4.504,-0.01893
4.508,0.0733
4.512,0.11595
4.516,0.00518
4.52,0.07579
4.524,0.03181
4.528,0.01243
4.532,0.03727
4.536,0.09366
4.54,0.06244
4.544,0.01325
4.548,-0.03999
4.552,0.04164
4.556,0.05447
4.56,0.01749
4.564,0.03929
4.568,-0.07324
4.572,0.01548
4.576,0.0154
4.58,0.0242
4.584,-0.04945
4.588,-0.01128
4.592,-0.01884
4.596,0.03173
4.6,-0.0013
4.604,-0.06707
4.608,0.03561
4.612,0.00787
4.616,0.0066
4.62,-0.00953
4.624,-0.07878
4.628,-0.0605
4.632,-0.15858
4.636,-0.06868
4.64,0.08384
4.644,0.09937
4.648,0.34221
4.652,0.49158
4.656,0.65861
4.66,0.87978
4.664,0.97318
4.668,0.94555
4.672,0.87552
4.676,0.63167
4.68,0.37973
4.684,0.19505
4.688,-0.05162
4.692,-0.09474
4.696,-0.1488
4.7,-0.15429
4.704,-0.13677
4.708,-0.115
4.712,-0.09387
4.716,-0.00186
4.72,-0.0151
4.724,0.00545
4.728,0.03659
4.732,0.04405
4.736,-0.03603
4.74,-0.04839
4.744,-0.01418
4.748,-0.00068
4.752,-0.04286
4.756,0.00506
4.76,0.00698
4.764,0.02221
4.768,0.04984
4.772,-0.02143
4.776,-0.02864
4.78,0.00522
4.784,-0.06941
4.788,0.03436
4.792,-0.07882
4.796,-0.02548
4.8,0.03905
4.804,-0.02516
4.808,-0.04088
4.812,-0.01456
4.816,-0.02969
4.82,0.03271
4.824,-0.02919
4.828,-0.07874
4.832,-0.05413
4.836,0.06298
4.84,0.08839
4.844,0.00608
4.848,0.06576
4.852,0.04587
4.856,-0.03848
4.86,0.01668
4.864,0.06439
4.868,0.02356
4.872,0.02718
4.876,0.04454
4.88,0.16201
4.884,0.11981
4.888,0.16805
4.892,0.14661
4.896,0.169
4.9,0.09642
4.904,0.16636
4.908,0.17328
4.912,0.21096
4.916,0.16798
4.92,0.17697
4.924,0.21225
4.928,0.20025
4.932,0.27605
4.936,0.19593
4.94,0.30647
4.944,0.16453
4.948,0.2292
4.952,0.24057
4.956,0.17836
4.96,0.23073
4.964,0.272
4.968,0.22765
4.972,0.1776
4.976,0.16218
4.98,0.23592
4.984,0.16834
4.988,0.20436
4.992,0.1469
4.996,0.16655
5.0,0.27302
5.004,0.19231
5.008,0.17452
5.012,0.12382
5.016,0.12825
5.02,0.13959
5.024,0.16884
5.028,0.17891
5.032,0.13715
5.036,0.04971
5.04,0.12677
5.044,0.04659
5.048,-0.00733
5.052,0.00329
5.056,0.04693
5.06,0.00276
5.064,0.02927
5.068,-0.0082
5.072,0.01063
5.076,-0.02124
5.08,0.03785
5.084,-0.05699
5.088,-0.00106
5.092,0.04629
5.096,-0.02712
5.1,-0.04298
5.104,0.0349
5.108,0.15247
5.112,0.00767
5.116,0.06165
5.12,0.02174
5.124,-0.01123
5.128,0.00408
5.132,-0.01451
5.136,-0.08899
5.14,-0.13738
5.144,-0.12822
5.148,-0.02343
5.152,0.08435
5.156,0.28424
5.16,0.55237
5.164,0.65941
5.168,0.87924
5.172,1.02409
5.176,0.91367
5.18,0.89741
5.184,0.73289
5.188,0.49089
5.192,0.29494
5.196,0.05697
5.2,-0.09749
5.204,-0.14727
5.208,-0.20189
5.212,-0.12634
5.216,-0.0833
5.22,-0.10367
5.224,-0.00534
5.228,-0.00226
5.232,0.01101
5.236,-0.01248
5.24,0.01611
5.244,0.06364
5.248,0.01909
5.252,0.05793
5.256,-0.04211
5.26,-0.07382
5.264,0.02673
5.268,-0.0504
5.272,0.02527
5.276,0.02364
5.28,0.01079
5.284,-0.01983
5.288,-0.05906
5.292,-0.04097
5.296,0.00274
5.3,-0.02486
5.304,-0.02188
5.308,0.01492
5.312,-0.02378
5.316,-0.00583
5.32,0.03031
5.324,0.03149
5.328,0.03321
5.332,-0.01053
5.336,-0.01504
5.34,0.01308
5.344,0.04925
5.348,-0.01434
5.352,0.03258
5.356,0.05382
5.36,0.05384
5.364,0.06318
5.368,0.0815
5.372,0.07158
5.376,0.08466
5.38,0.12815
5.384,0.05041
5.388,0.11579
5.392,0.09469
5.396,0.07438
5.4,0.10572
5.404,0.25673
5.408,0.17207
5.412,0.09905
5.416,0.1632
5.42,0.203
5.424,0.1855
5.428,0.21713
5.432,0.18672
5.436,0.27524
5.44,0.21236
5.444,0.24895
5.448,0.20664
5.452,0.23087
5.456,0.21183
5.46,0.19484
5.464,0.25237
5.468,0.25536
5.472,0.24667
5.476,0.26275
5.48,0.15654
5.484,0.20274
5.488,0.1995
5.492,0.17675
5.496,0.16004
5.5,0.18465
5.504,0.14888
5.508,0.09019
5.512,0.09102
5.516,0.15235
5.52,0.09571
5.524,0.06899
5.528,0.00306
5.532,0.09141
5.536,0.03597
5.54,0.03352
5.544,0.07511
5.548,-0.01912
5.552,0.00333
5.556,-0.01423
5.56,-0.08832
5.564,-0.03352
5.568,0.04593
5.572,0.0244
5.576,0.04199
5.58,0.10305
5.584,0.06181
5.588,-0.04227
5.592,0.02281
5.596,-0.02512
5.6,0.03934
5.604,0.00923
5.608,0.07069
5.612,0.03501
5.616,0.03128
5.62,0.02742
5.624,0.04944
5.628,0.08559
5.632,0.07305
5.636,0.10054
5.64,0.09055
5.644,0.1452
5.648,0.17663
5.652,0.13897
5.656,0.10212
5.66,0.08472
5.664,0.11967
5.668,0.08405
5.672,0.06089
5.676,-0.01306
5.68,0.08145
5.684,0.02595
5.688,0.05208
5.692,0.03743
5.696,-0.05212
5.7,-0.02803
5.704,-0.00215
5.708,0.00532
5.712,0.08055
5.716,0.01159
5.72,-0.02982
5.724,-0.00273
5.728,0.02565
5.732,0.04467
5.736,0.01314
5.74,0.01305
5.744,0.03096
5.748,0.03573
5.752,0.02581
5.756,0.02032
5.76,0.01937
5.764,0.01258
5.768,0.03973
5.772,-0.08382
5.776,-0.07515
5.78,-0.10171
5.784,-0.02606
5.788,0.12043
5.792,0.29337
5.796,0.49799
5.8,0.77639
5.804,0.90885
5.808,1.04449
5.812,0.97856
5.816,0.8825
5.82,0.68369
5.824,0.43122
5.828,0.26381
5.832,0.02883
5.836,-0.08616
5.84,-0.10604
5.844,-0.16018
5.848,-0.14433
5.852,-0.06405
5.856,-0.06188
5.86,-0.02148
5.864,0.01788
5.868,0.04578
5.872,0.04691
5.876,-0.0154
5.88,-0.07938
5.884,0.1286
5.888,0.02724
5.892,0.01255
5.896,0.01585
5.9,0.03245
5.904,0.0286
5.908,0.05643
5.912,0.03489
5.916,0.02042
5.92,-0.03011
5.924,0.045
5.928,-0.00887
5.932,0.0177
5.936,0.03314
5.94,-0.02392
5.944,0.02536
5.948,0.01515
5.952,-0.01246
5.956,0.13876
5.96,0.07334
5.964,-0.01305
5.968,0.05056
5.972,0.11656
5.976,0.05995
5.98,0.04068
5.984,0.03451
5.988,0.12951
5.992,0.07676
5.996,0.05501
6.0,0.06629
6.004,0.11333
6.008,0.07223
6.012,0.05403
6.016,0.08745
6.02,0.10763
6.024,0.10635
6.028,0.12335
6.032,0.09592
6.036,0.12019
6.04,0.15402
6.044,0.15345
6.048,0.18069
6.052,0.19629
6.056,0.18291
6.06,0.2011
6.064,0.20993
6.068,0.22018
6.072,0.2829
6.076,0.26227
6.08,0.25792
6.084,0.29911
6.088,0.24346
6.092,0.20986
6.096,0.18687
6.1,0.22474
6.104,0.27814
6.108,0.27293
6.112,0.2849
6.116,0.19674
6.12,0.13864
6.124,0.18114
6.128,0.19645
6.132,0.13658
6.136,0.11209
6.14,0.14323
6.144,0.0679
6.148,0.02296
6.152,0.07984
6.156,0.13853
6.16,0.05259
6.164,0.06173
6.168,0.10535
6.172,0.05262
6.176,0.04164
6.18,0.06426
6.184,0.05614
6.188,0.0632
6.192,0.08262
6.196,0.03269
6.2,0.09626
6.204,0.06499
6.208,0.0129
6.212,0.06142
6.216,0.01299
6.22,-0.00034
6.224,0.01385
6.228,0.07016
6.232,0.01465
6.236,0.0667
6.24,0.01701
6.244,0.09214
6.248,0.0067
6.252,0.01736
6.256,0.02132
6.26,-0.01562
6.264,0.03314
6.268,0.00988
6.272,0.00894
6.276,0.03423
6.28,0.06801
6.284,-0.00033
6.288,0.04381
6.292,-0.00995
6.296,0.08266
6.3,0.00246
6.304,0.04751
6.308,-0.00566
6.312,-0.0071
6.316,0.0421
6.32,0.09162
6.324,0.05401
6.328,-0.01094
6.332,0.06406
6.336,0.03754
6.34,0.00253
6.344,0.02422
6.348,-0.01045
6.352,-0.01235
6.356,0.03549
6.36,0.02739
6.364,0.06189
6.368,0.03651
6.372,0.01873
6.376,-0.0098
6.38,0.05232
6.384,0.06051
6.388,0.0235
6.392,0.00326
6.396,0.01759
6.4,0.07961
6.404,0.09121
6.408,0.02709
6.412,0.0612
6.416,0.07976
6.42,0.12384
6.424,0.11952
6.428,0.09889
6.432,0.09249
6.436,0.09318
6.44,0.10357
6.444,0.07144
6.448,0.10019
6.452,0.05278
6.456,0.11233
6.46,0.18487
6.464,0.05842
6.468,0.11779
6.472,0.12252
6.476,0.0702
6.48,-0.01248
6.484,0.01245
6.488,0.03173
6.492,-0.0231
6.496,0.03265
6.5,0.01871
6.504,0.07703
6.508,-0.00856
6.512,0.02049
6.516,0.10531
6.52,-0.05229
6.524,0.02526
6.528,0.05783
6.532,0.07505
6.536,0.03653
6.54,0.03022
6.544,0.01847
6.548,0.03665
6.552,0.04475
6.556,0.0412
6.56,-0.0361
6.564,-0.04465
6.568,-0.06387
6.572,-0.10323
6.576,-0.06164
6.58,0.06714
6.584,0.17369
6.588,0.40033
6.592,0.65735
6.596,0.87035
6.6,0.97497
6.604,1.07196
6.608,0.97766
6.612,0.82331
6.616,0.59106
6.62,0.37153
6.624,0.08618
6.628,0.0526
6.632,-0.10422
6.636,-0.14725
6.64,-0.17961
6.644,-0.05971
6.648,-0.06659
6.652,-0.0313
6.656,-0.00302
6.66,0.03128
6.664,0.01497
6.668,0.03344
6.672,0.05238
6.676,-0.03194
6.68,0.02072
6.684,0.0557
6.688,0.0049
6.692,0.02253
6.696,-0.00206
6.7,0.01614
6.704,0.05344
6.708,0.02271
6.712,0.0261
6.716,-0.00425
6.72,0.02442
6.724,0.03938
6.728,0.01325
6.732,0.00278
6.736,0.02366
6.74,0.00202
6.744,0.01301
6.748,0.04973
6.752,0.00864
6.756,0.03041
6.76,0.03671
6.764,0.07925
6.768,0.06694
6.772,0.03406
6.776,0.04619
6.78,0.06117
6.784,0.0423
6.788,0.09361
6.792,0.05826
6.796,0.0527
6.8,0.08698
6.804,0.0589
6.808,0.07992
6.812,0.07268
6.816,0.11275
6.82,0.16223
6.824,0.12392
6.828,0.17543
6.832,0.1701
6.836,0.10986
6.84,0.22824
6.844,0.25924
6.848,0.18346
6.852,0.19593
6.856,0.22458
6.86,0.23236
6.864,0.24436
6.868,0.25868
6.872,0.29703
6.876,0.22709
6.88,0.21722
6.884,0.27871
6.888,0.2108
6.892,0.23209
6.896,0.23597
6.9,0.22464
6.904,0.2121
6.908,0.17537
6.912,0.23007
6.916,0.17507
6.92,0.22403
6.924,0.22829
6.928,0.15325
6.932,0.19948
6.936,0.19693
6.94,0.17697
6.944,0.18066
6.948,0.19507
6.952,0.12994
6.956,0.18505
6.96,0.16315
6.964,0.21145
6.968,0.1458
6.972,0.09726
6.976,0.08555
6.98,0.1762
6.984,0.12109
6.988,0.0428
6.992,0.07304
6.996,0.08508
7.0,0.05634
7.004,0.04553
7.008,-0.00846
7.012,-0.00413
7.016,0.08187
7.02,0.05703
7.024,0.02763
7.028,0.05609
7.032,0.04418
7.036,0.02719
7.04,-0.01432
7.044,-0.01242
7.048,0.06716
7.052,0.04455
7.056,0.03389
7.06,-0.00165
7.064,0.0086
7.068,0.04732
7.072,-0.0706
7.076,0.02742
7.08,-0.02996
7.084,-0.08945
7.088,-0.09262
7.092,-0.09046
7.096,0.01441
7.1,0.02314
7.104,0.20952
7.108,0.47744
7.112,0.76371
7.116,0.87407
7.12,1.01878
7.124,1.00311
7.128,0.92424
7.132,0.77913
7.136,0.53245
7.14,0.32618
7.144,0.04282
7.148,-0.08116
7.152,-0.12158
7.156,-0.13756
7.16,-0.07005
7.164,-0.04709
7.168,-0.00273
7.172,0.01093
7.176,-0.00977
7.18,-0.026
7.184,0.01812
7.188,0.05484
7.192,-0.05158
7.196,0.00582
7.2,0.04978
7.204,0.01392
7.208,0.05402
7.212,0.03166
7.216,-0.02326
7.22,0.00886
7.224,0.01777
7.228,0.03383
7.232,-0.02104
7.236,-0.03904
7.24,-0.00723
7.244,0.04984
7.248,0.08846
7.252,0.01554
7.256,-0.02579
7.26,0.10191
7.264,0.04124
7.268,0.00104
7.272,0.01945
7.276,0.07108
7.28,-0.00598
7.284,0.07142
7.288,-0.00297
7.292,-0.04398
7.296,0.06934
7.3,0.02789
7.304,0.05882
7.308,0.0332
7.312,0.04636
7.316,0.03584
7.32,0.04283
7.324,0.11402
7.328,0.03408
7.332,0.08655
7.336,0.10044
7.34,0.14121
7.344,0.07128
7.348,0.11409
7.352,0.13747
7.356,0.10736
7.36,0.17879
7.364,0.13446
7.368,0.14395
7.372,0.15251
7.376,0.26953
7.38,0.23217
7.384,0.19707
7.388,0.19215
7.392,0.21531
7.396,0.19308
7.4,0.28765
7.404,0.21804
7.408,0.28329
7.412,0.28344
7.416,0.1631
7.42,0.20899
7.424,0.2123
7.428,0.17756
7.432,0.19345
7.436,0.1759
7.44,0.19018
7.444,0.11287
7.448,0.08383
7.452,0.14884
7.456,0.16893
7.46,0.13287
7.464,0.12292
7.468,0.06987
7.472,0.08336
7.476,0.12453
7.48,0.06078
7.484,0.0707
7.488,0.06122
7.492,0.06965
7.496,0.02958
7.5,0.03521
7.504,0.00468
7.508,0.06099
7.512,0.09666
7.516,0.02477
7.52,0.01939
7.524,0.05823
7.528,-0.00996
7.532,0.06783
7.536,-0.01531
7.54,0.03579
7.544,-0.00215
7.548,-0.03395
7.552,0.05589
7.556,-0.0251
7.56,0.02138
7.564,0.11151
7.568,0.01915
7.572,0.00908
7.576,-0.00322
7.58,-0.03762
7.584,0.01092
7.588,-0.01375
7.592,0.01875
7.596,0.03648
7.6,0.07611
7.604,0.02136
7.608,0.03588
7.612,0.00331
7.616,-0.00035
7.62,0.01895
7.624,-0.02827
7.628,0.02088
7.632,0.00814
7.636,-0.01281
7.64,-0.00476
7.644,0.04719
7.648,-0.00943
7.652,0.06003
7.656,0.05209
7.66,0.04159
7.664,0.03689
7.668,0.01103
7.672,-0.05152
7.676,-0.0084
7.68,0.00665
7.684,-0.06921
7.688,0.06279
7.692,-0.02214
7.696,0.01062
7.7,0.00768
7.704,-0.08242
7.708,0.01279
7.712,0.05125
7.716,0.02903
7.72,0.01519
7.724,-0.02262
7.728,0.01142
7.732,0.01753
7.736,-0.07419
7.74,-0.03586
7.744,-0.04966
7.748,-0.01594
7.752,0.03773
7.756,0.01723
7.76,-0.04328
7.764,-0.03799
7.768,-0.02463
7.772,0.02487
7.776,0.01714
7.78,0.0605
7.784,-0.01946
7.788,0.07115
7.792,0.06658
7.796,0.02502
7.8,0.01662
7.804,0.05306
7.808,0.00319
7.812,-0.02387
7.816,-0.02822
7.82,0.01316
7.824,-0.00803
7.828,0.03356
7.832,-0.00725
7.836,0.01407
7.84,-0.08058
7.844,-0.03467
7.848,0.00221
7.852,0.01531
7.856,0.02486
7.86,0.00397
7.864,-0.05149
7.868,0.02041
7.872,-0.04897
7.876,0.04029
7.88,0.00994
7.884,0.03972
7.888,0.10342
7.892,0.08237
7.896,0.14855
7.9,0.1313
7.904,0.15427
7.908,0.12914
7.912,0.10497
7.916,0.14734
7.92,0.04213
7.924,0.10319
7.928,0.08264
7.932,0.08391
7.936,0.03851
7.94,0.04175
7.944,0.04681
7.948,0.00126
7.952,0.00389
7.956,0.09317
7.96,-0.01031
7.964,-0.06452
7.968,-0.00969
7.972,-0.03414
7.976,-0.01105
7.98,0.07136
7.984,-0.02215
7.988,0.02698
7.992,0.04554
7.996,-0.00563
8.0,0.01951
8.004,-0.00104
8.008,-0.0251
8.012,-0.01771
8.016,0.06048
8.02,-0.02501
8.024,-0.0528
8.028,-0.05826
8.032,-0.00304
8.036,-0.0705
8.04,-0.13327
8.044,-0.13242
8.048,0.02243
8.052,0.09119
8.056,0.34622
8.06,0.46443
8.064,0.73946
8.068,0.93541
8.072,0.98012
8.076,0.92927
8.08,0.8549
8.084,0.62892
8.088,0.35537
8.092,0.1929
8.096,0.04735
8.1,-0.09316
8.104,-0.13477
8.108,-0.13358
8.112,-0.12352
8.116,-0.09042
8.12,-0.02532
8.124,-0.03366
8.128,0.02282
8.132,0.0308
8.136,-0.00599
8.14,0.0059
8.144,0.00749
8.148,0.0173
8.152,0.02051
8.156,-0.06566
8.16,-0.009
8.164,-0.04127
8.168,-0.05143
8.172,0.05518
8.176,0.01153
8.18,-0.02445
8.184,-0.022
8.188,0.00443
8.192,-0.01064
8.196,0.0608
8.2,0.00656
8.204,0.03864
8.208,-0.01927
8.212,-0.05281
8.216,0.03022
8.22,-0.01552
8.224,0.03335
8.228,-0.00226
8.232,-0.01009
8.236,0.00937
8.24,-0.00301
8.244,0.01096
8.248,0.04769
8.252,0.01419
8.256,0.03802
8.26,0.017
8.264,-0.00862
8.268,0.02484
8.272,0.06605
8.276,0.00751
8.28,0.06512
8.284,0.1015
8.288,0.0683
8.292,0.06999
8.296,0.0715
8.3,0.0287
8.304,0.07626
8.308,0.09974
8.312,0.1095
8.316,0.18211
8.32,0.18744
8.324,0.12799
8.328,0.2187
8.332,0.21012
8.336,0.19621
8.34,0.21387
8.344,0.17603
8.348,0.22323
8.352,0.26448
8.356,0.23936
8.36,0.26886
8.364,0.20333
8.368,0.19727
8.372,0.13979
8.376,0.21868
8.38,0.17287
8.384,0.16293
8.388,0.1554
8.392,0.13827
8.396,0.12225
8.4,0.141
8.404,0.15429
8.408,0.07131
8.412,0.05494
8.416,0.05653
8.42,0.04203
8.424,0.0676
8.428,0.05343
8.432,0.02094
8.436,-0.02807
8.44,0.02067
8.444,0.03068
8.448,0.09133
8.452,0.08116
8.456,-0.00994
8.46,-0.04468
8.464,-0.0201
8.468,-0.05424
8.472,0.00754
8.476,0.02715
8.48,-0.01069
8.484,-0.04458
8.488,-0.01094
8.492,0.04024
8.496,-0.07716
8.5,0.0445
8.504,-0.01155
8.508,-0.00335
8.512,0.01883
8.516,0.03025
8.52,0.04335
8.524,0.0079
8.528,0.0085
8.532,-0.04431
8.536,-0.04778
8.54,-0.05926
8.544,0.05268
8.548,-0.03462
8.552,-0.01593
8.556,-0.03972
8.56,-0.0242
8.564,0.05347
8.568,-0.04723
8.572,0.03499
8.576,-0.01791
8.58,-0.07856
8.584,-0.01086
8.588,-0.0279
8.592,0.01592
8.596,-0.09264
8.6,-0.08282
8.604,-0.04078
8.608,0.02707
8.612,-0.05198
8.616,-0.06592
8.62,0.0219
8.624,0.03855
8.628,-0.07492
8.632,-0.06526
8.636,-0.03945
8.64,-0.05032
8.644,0.00821
8.648,-0.04664
8.652,-0.06084
8.656,0.01471
8.66,-0.02675
8.664,-0.06553
8.668,0.01547
8.672,-0.03728
8.676,-0.06439
8.68,-0.05582
8.684,-0.03491
8.688,-0.04625
8.692,0.03093
8.696,0.01846
8.7,-0.00727
8.704,-0.03723
8.708,-0.05598
8.712,-0.0421
8.716,-0.01189
8.72,0.02496
8.724,-0.0616
8.728,-0.00082
8.732,-0.03545
8.736,0.01499
8.74,0.01141
8.744,0.03401
8.748,0.02081
8.752,-0.03306
8.756,0.03878
8.76,0.007
8.764,0.03092
8.768,0.07761
8.772,0.05932
8.776,0.12739
8.78,0.10717
8.784,0.02253
8.788,0.02028
8.792,0.04044
8.796,-0.04041
8.8,0.01521
8.804,-0.04035
8.808,-0.04534
8.812,0.0452
8.816,-0.0043
8.82,0.00108
8.824,-0.01804
8.828,0.02267
8.832,-0.03804
8.836,-0.06928
8.84,0.03094
8.844,-0.06348
8.848,-0.04469
8.852,0.03737
8.856,-0.0034
8.86,0.04222
8.864,0.00117
8.868,0.05556
8.872,-0.07074
8.876,0.04338
8.88,-0.0342
8.884,-0.01149
8.888,-0.07799
8.892,-0.13492
8.896,-0.11226
8.9,-0.10664
8.904,-0.05855
8.908,0.0547
8.912,0.25927
8.916,0.4413
8.92,0.61394
8.924,0.82427
8.928,1.0157
8.932,0.96097
8.936,0.87843
8.94,0.67079
8.944,0.43899
8.948,0.2936
8.952,0.13064
8.956,-0.07015
8.96,-0.15729
8.964,-0.22177
8.968,-0.16782
8.972,-0.12836
8.976,-0.09933
8.98,-0.04337
8.984,-0.01608
8.988,-0.04174
8.992,0.0136
8.996,-0.01569
9.0,0.00302
9.004,-0.01705
9.008,-0.03489
9.012,-0.01908
9.016,0.08875
9.02,0.01656
9.024,0.01417
9.028,-0.06191
9.032,-0.09087
9.036,0.0103
9.04,-0.06936
9.044,-0.0374
9.048,0.03513
9.052,-0.01848
9.056,-0.02299
9.06,-0.07859
9.064,-0.02218
9.068,-0.06292
9.072,-0.00312
9.076,-0.12934
9.08,-0.02045
9.084,-0.03994
9.088,-0.08961
9.092,-0.02692
9.096,-0.0201
9.1,0.00783
9.104,0.03352
9.108,-0.03761
9.112,0.01175
9.116,0.02583
9.12,-0.0294
9.124,-0.01607
9.128,0.02035
9.132,-0.01302
9.136,0.02339
9.14,0.02272
9.144,0.03981
9.148,0.12428
9.152,0.10645
9.156,0.05034
9.16,0.11891
9.164,0.10651
9.168,0.1728
9.172,0.09311
9.176,0.2354
9.18,0.15558
9.184,0.18506
9.188,0.23309
9.192,0.26358
9.196,0.29604
9.2,0.22039
9.204,0.28732
9.208,0.31531
9.212,0.30587
9.216,0.32018
9.22,0.24662
9.224,0.23531
9.228,0.21741
9.232,0.21329
9.236,0.17121
9.24,0.16115
9.244,0.15614
9.248,0.13688
9.252,0.14392
9.256,0.1554
9.26,0.16381
9.264,0.14966
9.268,0.08035
9.272,0.12239
9.276,0.03243
9.28,0.03587
9.284,0.02797
9.288,0.01807
9.292,0.01518
9.296,0.03836
9.3,0.01716
9.304,-0.01298
9.308,-0.03171
9.312,0.00541
9.316,-0.07499
9.32,-0.07789
9.324,-0.16896
9.328,-0.19099
9.332,-0.11137
9.336,0.01421
9.34,0.17503
9.344,0.36491
9.348,0.6366
9.352,0.82694
9.356,0.95156
9.36,1.00449
9.364,0.81616
9.368,0.73304
9.372,0.46803
9.376,0.23237
9.38,0.07054
9.384,-0.10269
9.388,-0.10519
9.392,-0.21308
9.396,-0.15365
9.4,-0.09692
9.404,-0.11255
9.408,-0.09624
9.412,-0.03801
9.416,-0.05482
9.42,-0.01467
9.424,0.0058
9.428,-0.01474
9.432,-0.01088
9.436,-0.02731
9.44,-0.10082
9.444,-0.01745
9.448,0.00939
9.452,-0.02646
9.456,-0.04321
9.46,0.01369
9.464,0.04893
9.468,0.03158
9.472,0.07541
9.476,0.03822
9.48,0.06041
9.484,0.05655
9.488,0.02123
9.492,0.11477
9.496,0.04533
9.5,0.05435
9.504,0.06904
9.508,0.04552
9.512,0.1158
9.516,0.01539
9.52,0.03096
9.524,0.01314
9.528,0.01061
9.532,0.00436
9.536,0.06744
9.54,0.06037
9.544,0.02115
9.548,-0.0197
9.552,-0.00435
9.556,0.01478
9.56,-0.01326
9.564,0.01432
9.568,-0.00759
9.572,0.0655
9.576,0.06583
9.58,0.06997
9.584,0.05083
9.588,0.12462
9.592,0.05622
9.596,0.06329
9.6,0.13635
9.604,0.13886
9.608,0.15971
9.612,0.16392
9.616,-0.02928
9.62,0.0652
9.624,0.11214
9.628,0.16917
9.632,0.38708
9.636,0.506
9.64,0.77979
9.644,0.93089
9.648,1.13643
9.652,1.16045
9.656,1.07766
9.66,0.97641
9.664,0.80417
9.668,0.4851
9.672,0.25872
9.676,0.15604
9.68,0.01891
9.684,-0.06679
9.688,-0.07925
9.692,-0.10066
9.696,-0.00279
9.7,0.02771
9.704,0.01669
9.708,0.0059
9.712,0.05683
9.716,0.01917
9.72,0.01434
9.724,0.021
9.728,-0.05314
9.732,0.03433
9.736,-0.00199
9.74,-0.02252
9.744,-0.05799
9.748,0.02372
9.752,-0.00361
9.756,-0.02998
9.76,-0.01307
9.764,-0.01748
9.768,-0.10132
9.772,-0.00689
9.776,-0.06159
9.78,-0.09797
9.784,-0.06509
9.788,-0.05777
9.792,-0.03984
9.796,-0.0221
9.8,0.00524
9.804,-0.0113
9.808,-0.043
9.812,-0.01288
9.816,-0.02845
9.82,-0.0691
9.824,0.01958
9.828,-0.01317
9.832,-0.03737
9.836,-0.08233
9.84,0.00069
9.844,-0.0187
9.848,-0.00516
9.852,0.02188
9.856,-0.05014
9.86,0.08958
9.864,0.00512
9.868,0.05873
9.872,0.06871
9.876,0.09167
9.88,0.04707
9.884,0.06108
9.888,0.1415
9.892,0.07086
9.896,0.11886
9.9,0.14132
9.904,0.13215
9.908,0.11713
9.912,0.19203
9.916,0.16023
9.92,0.2084
9.924,0.22151
9.928,0.2342
9.932,0.17619
9.936,0.22932
9.94,0.14701
9.944,0.21693
9.948,0.22189
9.952,0.20936
9.956,0.2211
9.96,0.14719
9.964,0.17892
9.968,0.0744
9.972,0.14259
9.976,0.14258
9.98,0.11996
9.984,0.09144
9.988,0.03149
9.992,0.04895
9.996,-0.0214
