t_seg,ecg_mV
0.0,-0.00553
0.004,-0.02549
0.008,-0.03781
0.012,-0.02786
0.016,-0.03901
0.02,-0.02383
0.024,-0.02978
0.028,-0.05126
0.032,-0.02068
0.036,-0.05351
0.04,-0.03045
0.044,-0.02386
0.048,-0.00365
0.052,-0.02999
0.056,-0.01812
0.06,-0.02515
0.064,-0.02339
0.068,-0.02312
0.072,-0.02416
0.076,-0.01856
0.08,-0.03727
0.084,-0.04092
0.088,-0.04523
0.092,-0.03212
0.096,-0.03969
0.1,-0.03607
0.104,-0.041
0.108,-0.04794
0.112,-0.03171
0.116,-0.03697
0.12,-0.05229
0.124,-0.03294
0.128,-0.03799
0.132,-0.02111
0.136,-0.02073
0.14,-0.03145
0.144,-0.04291
0.148,-0.03349
0.152,-0.02145
0.156,-0.00974
0.16,-0.02514
0.164,-0.04579
0.168,-0.00909
0.172,-0.02412
0.176,-0.03764
0.18,-0.00703
0.184,-0.04719
0.188,-0.00432
0.192,-0.0299
0.196,-0.01766
0.2,-0.01573
0.204,-0.04059
0.208,-0.03613
0.212,-0.06012
0.216,-0.04015
0.22,-0.01385
0.224,-0.03489
0.228,0.00593
0.232,-0.01939
0.236,-0.04447
0.24,-0.02577
0.244,-0.03997
0.248,-0.0331
0.252,-0.03124
0.256,-0.03285
0.26,-0.02981
0.264,-0.03578
0.268,-0.0238
0.272,-0.04652
0.276,-0.0721
0.28,-0.01843
0.284,-0.01883
0.288,-0.02097
0.292,-0.05591
0.296,-0.05937
0.3,-0.00777
0.304,-0.03241
0.308,-0.01895
0.312,-0.02126
0.316,-0.06628
0.32,-0.00628
0.324,-0.02373
0.328,-0.01381
0.332,-0.03857
0.336,-0.02673
0.34,-0.01143
0.344,-0.02351
0.348,-0.02698
0.352,-0.02502
0.356,-0.0195
0.36,-0.02067
0.364,-0.014
0.368,-0.01301
0.372,-0.01713
0.376,-0.02132
0.38,-0.04567
0.384,-0.03131
0.388,-0.02277
0.392,-0.03831
0.396,-0.00908
0.4,-0.02085
0.404,-0.02358
0.408,-0.04192
0.412,-0.02092
0.416,-0.06472
0.42,-0.05259
0.424,-0.03415
0.428,-0.03315
0.432,-0.03789
0.436,-0.04475
0.44,-0.03167
0.444,-0.02552
0.448,-0.03079
0.452,-0.01928
0.456,-0.03728
0.46,-0.02105
0.464,-0.01038
0.468,-0.03304
0.472,-0.03485
0.476,-0.03378
0.48,-0.04327
0.484,-0.00469
0.488,-0.02763
0.492,-0.0496
0.496,-0.01277
0.5,-0.00512
0.504,-0.0312
0.508,-0.01074
0.512,-0.0262
0.516,-0.03055
0.52,-0.04879
0.524,-0.00299
0.528,-0.01855
0.532,-0.02724
0.536,-0.0199
0.54,-0.01432
0.544,-0.03283
0.548,-0.00596
0.552,-0.00947
0.556,-0.0408
0.56,-0.05356
0.564,-0.03373
0.568,-0.02734
0.572,-0.01018
0.576,-0.00973
0.58,-0.03096
0.584,-0.01353
0.588,-0.0391
0.592,0.02195
0.596,0.00727
0.6,0.02152
0.604,0.00769
0.608,0.02153
0.612,0.02843
0.616,0.0559
0.62,0.04343
0.624,0.06731
0.628,0.08153
0.632,0.08039
0.636,0.05933
0.64,0.08356
0.644,0.05904
0.648,0.04026
0.652,0.02374
0.656,0.03324
0.66,-0.0078
0.664,0.00864
0.668,-0.00378
0.672,-0.00476
0.676,-0.01259
0.68,-0.02615
0.684,-0.01298
0.688,-0.02342
0.692,-0.03535
0.696,-0.02326
0.7,-0.01303
0.704,-0.02967
0.708,-0.03634
0.712,-0.04335
0.716,-0.02541
0.72,-0.03125
0.724,-0.05544
0.728,-0.04088
0.732,-0.00548
0.736,0.00018
0.74,-0.02702
0.744,-0.0473
0.748,-0.03926
0.752,-0.10343
0.756,-0.12594
0.76,-0.10451
0.764,-0.07544
0.768,0.02996
0.772,0.21495
0.776,0.44766
0.78,0.64135
0.784,0.81993
0.788,0.94553
0.792,0.96112
0.796,0.88159
0.8,0.67962
0.804,0.49198
0.808,0.26225
0.812,0.04552
0.816,-0.05173
0.82,-0.14524
0.824,-0.20728
0.828,-0.1585
0.832,-0.14131
0.836,-0.09241
0.84,-0.05642
0.844,-0.01139
0.848,-0.00497
0.852,-0.03604
0.856,-0.03221
0.86,-0.03156
0.864,-0.01078
0.868,-0.01611
0.872,-0.01396
0.876,-0.01814
0.88,-0.02552
0.884,-0.01122
0.888,-0.00269
0.892,-0.00771
0.896,-0.00794
0.9,-0.00892
0.904,-0.02673
0.908,-0.03702
0.912,-0.02321
0.916,-0.01576
0.92,-0.01913
0.924,-0.01264
0.928,-0.00785
0.932,-0.02202
0.936,-0.04026
0.94,-0.00089
0.944,-0.00147
0.948,0.0198
0.952,-0.00433
0.956,-0.02426
0.96,0.00408
0.964,0.00141
0.968,-0.01373
0.972,-0.01191
0.976,-0.00976
0.98,0.02031
0.984,0.01271
0.988,0.01564
0.992,0.00456
0.996,0.02721
1.0,0.04658
1.004,0.03894
1.008,0.10915
1.012,0.07019
1.016,0.09057
1.02,0.11421
1.024,0.1195
1.028,0.10932
1.032,0.10949
1.036,0.15525
1.04,0.17044
1.044,0.17419
1.048,0.18391
1.052,0.16116
1.056,0.1779
1.06,0.19484
1.064,0.2191
1.068,0.18362
1.072,0.2093
1.076,0.21792
1.08,0.18266
1.084,0.20001
1.088,0.19244
1.092,0.16515
1.096,0.17833
1.1,0.13994
1.104,0.1591
1.108,0.12089
1.112,0.17583
1.116,0.13245
1.12,0.09223
1.124,0.08458
1.128,0.12525
1.132,0.0647
1.136,0.05735
1.14,0.03733
1.144,0.01994
1.148,0.037
1.152,0.02365
1.156,0.04907
1.16,0.03315
1.164,-0.00852
1.168,0.01138
1.172,0.0335
1.176,0.00483
1.18,-0.00045
1.184,-0.02539
1.188,-0.01193
1.192,0.02414
1.196,-0.00582
1.2,0.0085
1.204,-0.01637
1.208,-0.00732
1.212,-0.00043
1.216,-0.02567
1.22,-0.02094
1.224,-0.02151
1.228,-0.00266
1.232,-0.00192
1.236,-0.0319
1.24,-0.00723
1.244,0.00756
1.248,0.01105
1.252,-0.02336
1.256,0.00514
1.26,0.00212
1.264,-0.00382
1.268,-0.00453
1.272,0.01654
1.276,-0.00232
1.28,0.00395
1.284,0.0068
1.288,-0.00034
1.292,0.01841
1.296,-0.0075
1.3,-0.00297
1.304,0.01916
1.308,-0.01296
1.312,0.01853
1.316,0.00994
1.32,-0.03599
1.324,0.00415
1.328,-0.01386
1.332,0.02122
1.336,-0.01414
1.34,-0.00545
1.344,0.00446
1.348,-0.02759
1.352,-0.04385
1.356,-0.00653
1.36,0.00933
1.364,-0.01096
1.368,-0.02401
1.372,-0.0091
1.376,-0.01129
1.38,0.0207
1.384,0.00165
1.388,0.00547
1.392,-0.01103
1.396,0.0074
1.4,0.00398
1.404,-0.0095
1.408,-0.00488
1.412,-0.00387
1.416,-0.01181
1.42,0.01277
1.424,-0.0057
1.428,0.00812
1.432,-0.01284
1.436,0.00404
1.44,-0.0105
1.444,-0.02199
1.448,0.01317
1.452,0.0001
1.456,-0.03552
1.46,0.02059
1.464,-0.01599
1.468,-0.01643
1.472,-0.0119
1.476,-0.02209
1.48,0.00318
1.484,-0.02582
1.488,-0.01731
1.492,0.0077
1.496,-0.00104
1.5,0.00748
1.504,-0.01346
1.508,-0.02477
1.512,-0.01462
1.516,-0.01196
1.52,0.01518
1.524,-0.00304
1.528,0.01909
1.532,-0.01301
1.536,-0.01169
1.54,0.01202
1.544,-0.01238
1.548,-0.02542
1.552,-0.00804
1.556,-0.00286
1.56,0.00743
1.564,0.00428
1.568,0.00499
1.572,0.00263
1.576,0.01295
1.58,-0.01199
1.584,0.01041
1.588,-0.01339
1.592,0.00673
1.596,-0.01312
1.6,0.01977
1.604,0.00014
1.608,0.01182
1.612,0.00921
1.616,-0.0069
1.62,0.02601
1.624,-0.01476
1.628,0.00275
1.632,-0.02488
1.636,0.01545
1.64,0.02593
1.644,0.00384
1.648,0.002
1.652,0.01725
1.656,0.00654
1.66,0.01314
1.664,-0.02542
1.668,0.01135
1.672,-0.00063
1.676,0.01437
1.68,-0.0093
1.684,0.00105
1.688,-0.00219
1.692,0.01105
1.696,0.01044
1.7,0.02361
1.704,0.02637
1.708,0.00224
1.712,0.01886
1.716,-0.00421
1.72,-0.01002
1.724,0.00939
1.728,0.03205
1.732,0.02446
1.736,-0.02204
1.74,0.03695
1.744,0.00825
1.748,0.02642
1.752,0.02434
1.756,0.04168
1.76,0.03855
1.764,0.07757
1.768,0.0769
1.772,0.08538
1.776,0.08826
1.78,0.10188
1.784,0.12249
1.788,0.10976
1.792,0.09332
1.796,0.08193
1.8,0.06467
1.804,0.06377
1.808,0.0448
1.812,0.06709
1.816,0.03193
1.82,0.02523
1.824,0.02723
1.828,0.02701
1.832,0.00887
1.836,-0.0015
1.84,0.02074
1.844,0.01552
1.848,-0.00463
1.852,-0.00605
1.856,0.01131
1.86,0.01548
1.864,0.00464
1.868,-0.00027
1.872,-0.01762
1.876,0.01991
1.88,0.01394
1.884,0.02358
1.888,0.03102
1.892,0.03735
1.896,-0.01112
1.9,-0.01798
1.904,-0.02772
1.908,-0.07918
1.912,-0.1037
1.916,-0.08608
1.92,0.0082
1.924,0.1432
1.928,0.31179
1.932,0.50457
1.936,0.72102
1.94,0.90329
1.944,0.97888
1.948,0.96896
1.952,0.89052
1.956,0.66873
1.96,0.44178
1.964,0.16393
1.968,0.02768
1.972,-0.10804
1.976,-0.14936
1.98,-0.12717
1.984,-0.14198
1.988,-0.08703
1.992,-0.02812
1.996,-0.02029
2.0,-0.01026
2.004,0.01907
2.008,0.01749
2.012,0.01048
2.016,0.02139
2.02,0.01685
2.024,0.03541
2.028,0.01853
2.032,-0.00825
2.036,0.03505
2.04,0.02909
2.044,0.01011
2.048,0.02182
2.052,0.02573
2.056,-0.01408
2.06,0.00401
2.064,0.01029
2.068,0.04194
2.072,0.01825
2.076,0.01749
2.08,0.01535
2.084,0.03731
2.088,0.02186
2.092,0.02424
2.096,-0.01603
2.1,0.00269
2.104,0.025
2.108,0.01604
2.112,0.02544
2.116,0.04061
2.12,0.00879
2.124,0.04001
2.128,0.0119
2.132,0.03786
2.136,0.06588
2.14,0.05806
2.144,0.05263
2.148,0.07759
2.152,0.06481
2.156,0.1028
2.16,0.11771
2.164,0.10011
2.168,0.09433
2.172,0.10584
2.176,0.14152
2.18,0.13215
2.184,0.20044
2.188,0.15987
2.192,0.20541
2.196,0.20882
2.2,0.21374
2.204,0.21618
2.208,0.22387
2.212,0.20486
2.216,0.24458
2.22,0.23344
2.224,0.21367
2.228,0.22651
2.232,0.24075
2.236,0.23992
2.24,0.21385
2.244,0.21545
2.248,0.21364
2.252,0.2062
2.256,0.18745
2.26,0.19553
2.264,0.16997
2.268,0.15817
2.272,0.14326
2.276,0.14713
2.28,0.11457
2.284,0.10912
2.288,0.08435
2.292,0.11006
2.296,0.09761
2.3,0.0887
2.304,0.07708
2.308,0.09172
2.312,0.02783
2.316,0.03551
2.32,0.05322
2.324,0.04616
2.328,0.03996
2.332,0.03196
2.336,0.03751
2.34,0.01286
2.344,0.02617
2.348,0.04514
2.352,0.03218
2.356,0.01729
2.36,0.02361
2.364,0.0308
2.368,0.03324
2.372,0.00491
2.376,0.02744
2.38,0.03074
2.384,0.0044
2.388,0.02339
2.392,0.01951
2.396,0.03943
2.4,0.02145
2.404,0.00418
2.408,0.02697
2.412,0.02928
2.416,0.03127
2.42,-0.0044
2.424,0.00815
2.428,0.02606
2.432,0.01052
2.436,0.00443
2.44,0.04102
2.444,0.02556
2.448,0.04658
2.452,-0.0005
2.456,0.02227
2.46,0.04704
2.464,0.0056
2.468,0.00426
2.472,0.04143
2.476,0.05165
2.48,0.02195
2.484,0.05142
2.488,0.02012
2.492,0.00679
2.496,-0.00117
2.5,0.01522
2.504,0.03294
2.508,0.03829
2.512,0.03471
2.516,0.0357
2.52,0.02516
2.524,0.02662
2.528,0.04085
2.532,0.01741
2.536,0.01873
2.54,0.00412
2.544,0.01406
2.548,0.00304
2.552,0.04005
2.556,0.03958
2.56,0.03655
2.564,0.01617
2.568,0.05191
2.572,0.01462
2.576,0.01259
2.58,0.04319
2.584,0.00769
2.588,0.01862
2.592,0.02992
2.596,0.03294
2.6,0.03798
2.604,0.01462
2.608,0.02723
2.612,0.04822
2.616,0.02382
2.62,0.02528
2.624,0.05374
2.628,0.02503
2.632,0.02917
2.636,0.0474
2.64,0.02838
2.644,0.05465
2.648,0.01454
2.652,0.01556
2.656,0.0364
2.66,0.0174
2.664,0.02158
2.668,0.03578
2.672,0.04937
2.676,0.02965
2.68,0.03272
2.684,0.03389
2.688,0.00105
2.692,0.01599
2.696,0.04159
2.7,0.02488
2.704,0.04926
2.708,0.03129
2.712,0.04534
2.716,0.02437
2.72,0.05453
2.724,0.02017
2.728,0.05123
2.732,0.00969
2.736,0.00929
2.74,0.06174
2.744,-0.00612
2.748,0.01544
2.752,0.01921
2.756,0.02122
2.76,0.01879
2.764,0.03556
2.768,0.02458
2.772,0.02675
2.776,0.01584
2.78,0.02492
2.784,0.03976
2.788,0.00854
2.792,-0.00137
2.796,0.03
2.8,0.01716
2.804,0.01244
2.808,0.03267
2.812,0.03847
2.816,0.02741
2.82,0.02074
2.824,0.00569
2.828,0.00241
2.832,0.02902
2.836,0.02592
2.84,0.03834
2.844,0.01682
2.848,0.02024
2.852,0.03288
2.856,0.01034
2.86,0.00923
2.864,0.01381
2.868,0.02995
2.872,0.02218
2.876,0.019
2.88,0.037
2.884,0.03205
2.888,0.01541
2.892,0.01841
2.896,0.05032
2.9,0.04997
2.904,0.01959
2.908,0.02745
2.912,0.03249
2.916,0.02989
2.92,0.04177
2.924,0.03174
2.928,0.00665
2.932,0.03213
2.936,0.02354
2.94,0.03388
2.944,-0.00278
2.948,0.03027
2.952,-0.01691
2.956,0.03927
2.96,0.03851
2.964,0.05642
2.968,0.04389
2.972,0.02954
2.976,0.02064
2.98,0.0338
2.984,0.04074
2.988,0.00698
2.992,0.03659
2.996,0.05063
3.0,0.01558
3.004,0.03482
3.008,0.01363
3.012,0.06005
3.016,0.06784
3.02,0.04507
3.024,0.07174
3.028,0.10352
3.032,0.09358
3.036,0.07133
3.04,0.14269
3.044,0.1193
3.048,0.1158
3.052,0.11844
3.056,0.11901
3.06,0.13619
3.064,0.12433
3.068,0.11605
3.072,0.06947
3.076,0.04137
3.08,0.06548
3.084,0.06729
3.088,0.05408
3.092,0.02777
3.096,0.06219
3.1,0.0175
3.104,0.01389
3.108,0.04678
3.112,0.02826
3.116,0.0375
3.12,0.02417
3.124,0.04966
3.128,0.03871
3.132,-0.00079
3.136,0.0186
3.14,0.03813
3.144,0.00083
3.148,0.03807
3.152,0.01748
3.156,0.03377
3.16,0.02741
3.164,0.01556
3.168,-0.00178
3.172,-0.05086
3.176,-0.09431
3.18,-0.07435
3.184,-0.03847
3.188,0.11829
3.192,0.28202
3.196,0.46645
3.2,0.70763
3.204,0.88298
3.208,1.02542
3.212,1.03115
3.216,0.91517
3.22,0.73859
3.224,0.49145
3.228,0.26265
3.232,0.09833
3.236,-0.06108
3.24,-0.1092
3.244,-0.14326
3.248,-0.11349
3.252,-0.08631
3.256,-0.06353
3.26,0.03052
3.264,-0.0125
3.268,0.01407
3.272,0.05053
3.276,0.02323
3.28,0.01595
3.284,0.06698
3.288,0.03267
3.292,0.02029
3.296,0.01599
3.3,0.0341
3.304,0.01441
3.308,0.03944
3.312,0.03141
3.316,0.01049
3.32,0.02081
3.324,0.02154
3.328,0.04
3.332,0.0367
3.336,0.04183
3.34,0.02984
3.344,0.03356
3.348,0.03858
3.352,0.03596
3.356,0.02466
3.36,0.01288
3.364,0.03356
3.368,0.01684
3.372,0.02172
3.376,0.04738
3.38,0.03416
3.384,0.05756
3.388,0.04382
3.392,0.03699
3.396,0.07141
3.4,0.04376
3.404,0.0427
3.408,0.05467
3.412,0.09503
3.416,0.07578
3.42,0.07051
3.424,0.1046
3.428,0.10407
3.432,0.12394
3.436,0.11028
3.44,0.15697
3.444,0.18019
3.448,0.15798
3.452,0.17182
3.456,0.18986
3.46,0.21738
3.464,0.23618
3.468,0.21894
3.472,0.23726
3.476,0.22831
3.48,0.23149
3.484,0.25348
3.488,0.25008
3.492,0.26709
3.496,0.23405
3.5,0.23738
3.504,0.24652
3.508,0.22283
3.512,0.23816
3.516,0.1836
3.52,0.21544
3.524,0.17311
3.528,0.17857
3.532,0.19412
3.536,0.18414
3.54,0.15437
3.544,0.12264
3.548,0.1342
3.552,0.12949
3.556,0.07763
3.56,0.12132
3.564,0.07695
3.568,0.07709
3.572,0.08474
3.576,0.05832
3.58,0.05817
3.584,0.04307
3.588,0.03582
3.592,0.03675
3.596,0.04817
3.6,0.01714
3.604,0.02481
3.608,0.03034
3.612,0.05406
3.616,0.04439
3.62,0.04977
3.624,0.04313
3.628,0.03083
3.632,0.05803
3.636,0.01786
3.64,0.02713
3.644,0.05227
3.648,0.0116
3.652,0.01312
3.656,0.05177
3.66,0.03548
3.664,0.03764
3.668,0.0428
3.672,0.04307
3.676,0.00535
3.68,0.02697
3.684,0.03004
3.688,0.04072
3.692,0.05298
3.696,0.03114
3.7,0.02933
3.704,0.03467
3.708,0.04306
3.712,0.04056
3.716,0.01905
3.72,0.00608
3.724,0.0119
3.728,0.04042
3.732,0.03394
3.736,0.06148
3.74,0.02965
3.744,0.04822
3.748,0.03021
3.752,0.04794
3.756,-0.00087
3.76,0.00593
3.764,-0.00311
3.768,0.01328
3.772,0.03115
3.776,0.0342
3.78,-0.00621
3.784,0.04363
3.788,0.01286
3.792,0.02175
3.796,0.0349
3.8,0.00704
3.804,0.01911
3.808,0.02373
3.812,0.00147
3.816,-0.0012
3.82,0.05216
3.824,0.01436
3.828,-0.00487
3.832,0.02718
3.836,0.01066
3.84,0.01685
3.844,0.03139
3.848,0.03548
3.852,0.04301
3.856,0.02404
3.86,0.02905
3.864,0.0348
3.868,0.04949
3.872,0.00391
3.876,0.04695
3.88,0.01014
3.884,0.05061
3.888,0.04763
3.892,0.00338
3.896,0.03025
3.9,0.03996
3.904,0.03654
3.908,0.02966
3.912,0.02926
3.916,0.00393
3.92,0.02187
3.924,0.0155
3.928,0.01677
3.932,0.05459
3.936,0.03945
3.94,0.04867
3.944,0.03692
3.948,0.03883
3.952,0.00901
3.956,0.05386
3.96,0.01936
3.964,0.01554
3.968,0.05724
3.972,0.0261
3.976,0.03259
3.98,0.03192
3.984,0.03021
3.988,0.01144
3.992,0.00415
3.996,0.03846
4.0,0.05002
4.004,0.04123
4.008,0.03441
4.012,0.03093
4.016,0.02442
4.02,0.03003
4.024,0.03859
4.028,0.0902
4.032,0.08594
4.036,0.06189
4.04,0.09698
4.044,0.09943
4.048,0.11818
4.052,0.11457
4.056,0.12372
4.06,0.14239
4.064,0.12422
4.068,0.096
4.072,0.10225
4.076,0.09311
4.08,0.05211
4.084,0.05386
4.088,0.04907
4.092,0.04343
4.096,0.01591
4.1,0.04602
4.104,0.03317
4.108,0.02795
4.112,0.0199
4.116,0.03352
4.12,0.03254
4.124,0.01391
4.128,-0.00546
4.132,0.01763
4.136,0.03247
4.14,0.00951
4.144,0.00616
4.148,0.00637
4.152,0.01173
4.156,0.03633
4.16,-0.01624
4.164,0.01355
4.168,-0.00146
4.172,-0.0399
4.176,-0.02977
4.18,-0.09748
4.184,-0.10389
4.188,-0.04562
4.192,0.05882
4.196,0.24188
4.2,0.41432
4.204,0.62605
4.208,0.84956
4.212,0.96351
4.216,0.9964
4.22,0.97652
4.224,0.77469
4.228,0.56779
4.232,0.30763
4.236,0.11487
4.24,-0.03307
4.244,-0.12944
4.248,-0.13325
4.252,-0.14889
4.256,-0.095
4.26,-0.05871
4.264,-0.04779
4.268,-0.00961
4.272,0.01543
4.276,0.01475
4.28,0.01439
4.284,0.01961
4.288,0.0215
4.292,0.00392
4.296,0.00776
4.3,-0.02438
4.304,0.00715
4.308,0.02728
4.312,0.01134
4.316,0.03172
4.32,0.01087
4.324,0.03182
4.328,0.05062
4.332,0.04558
4.336,-0.00851
4.34,0.00117
4.344,0.0139
4.348,0.02486
4.352,0.01281
4.356,0.01895
4.36,0.02608
4.364,0.02815
4.368,-0.00174
4.372,0.02319
4.376,0.02796
4.38,0.00888
4.384,0.02269
4.388,0.03377
4.392,0.01749
4.396,0.03662
4.4,0.03472
4.404,0.02918
4.408,0.03595
4.412,0.06881
4.416,0.03623
4.42,0.09115
4.424,0.07339
4.428,0.07927
4.432,0.08231
4.436,0.07331
4.44,0.09167
4.444,0.12077
4.448,0.13046
4.452,0.18083
4.456,0.15269
4.46,0.16704
4.464,0.1559
4.468,0.18313
4.472,0.2144
4.476,0.22304
4.48,0.22499
4.484,0.24104
4.488,0.22037
4.492,0.2506
4.496,0.24847
4.5,0.22341
4.504,0.1955
4.508,0.21565
4.512,0.2317
4.516,0.22167
4.52,0.20499
4.524,0.19064
4.528,0.20712
4.532,0.17381
4.536,0.15756
4.54,0.14913
4.544,0.15241
4.548,0.10966
4.552,0.10353
4.556,0.08354
4.56,0.08173
4.564,0.07278
4.568,0.06898
4.572,0.07006
4.576,0.04141
4.58,0.03353
4.584,0.02622
4.588,0.0276
4.592,0.01685
4.596,-0.00908
4.6,0.0124
4.604,0.02685
4.608,0.00616
4.612,0.01838
4.616,-0.00262
4.62,-0.00436
4.624,0.02127
4.628,0.01648
4.632,0.00212
4.636,0.01146
4.64,0.00384
4.644,-0.01985
4.648,0.02058
4.652,0.01429
4.656,-0.01507
4.66,-0.04192
4.664,-0.01429
4.668,0.02022
4.672,0.00642
4.676,-0.00894
4.68,-0.01712
4.684,-0.00047
4.688,-0.0046
4.692,-0.01487
4.696,-0.00619
4.7,0.02661
4.704,0.00202
4.708,0.00854
4.712,0.00328
4.716,0.01503
4.72,0.0186
4.724,0.01875
4.728,-0.00292
4.732,0.00868
4.736,0.00783
4.74,-0.00084
4.744,-0.02024
4.748,-0.02503
4.752,0.0039
4.756,-0.00932
4.76,-0.02108
4.764,-0.01628
4.768,0.00591
4.772,-0.00176
4.776,-0.00164
4.78,-0.01642
4.784,0.00475
4.788,-0.01805
4.792,0.02142
4.796,0.00859
4.8,-0.00441
4.804,-0.02287
4.808,0.01084
4.812,0.00715
4.816,0.02048
4.82,0.01192
4.824,0.00095
4.828,0.00485
4.832,0.01763
4.836,-0.0249
4.84,0.01066
4.844,0.00962
4.848,-0.01132
4.852,0.03085
4.856,0.01451
4.86,-0.00955
4.864,0.01397
4.868,0.02173
4.872,-0.00227
4.876,-0.01133
4.88,0.02038
4.884,0.03771
4.888,0.02309
4.892,0.00091
4.896,0.00211
4.9,-0.00679
4.904,-0.01221
4.908,0.00417
4.912,0.01499
4.916,-0.03245
4.92,0.00401
4.924,-0.02009
4.928,0.00095
4.932,-0.00853
4.936,-0.012
4.94,0.01064
4.944,-0.04619
4.948,0.01318
4.952,0.0
4.956,0.01439
4.96,-0.00674
4.964,-0.00228
4.968,0.00058
4.972,-0.00823
4.976,-0.0057
4.98,-0.03134
4.984,0.01724
4.988,0.00548
4.992,0.00827
4.996,-0.04356
5.0,-0.02191
5.004,-0.02555
5.008,0.00087
5.012,-0.0207
5.016,-0.01966
5.02,0.01466
5.024,0.00755
5.028,0.01883
5.032,-0.02776
5.036,-0.00026
5.04,-0.01071
5.044,-0.0117
5.048,-0.0142
5.052,-0.0207
5.056,0.00428
5.06,-0.01107
5.064,-0.00608
5.068,-0.00704
5.072,-0.01807
5.076,0.02043
5.08,0.01177
5.084,-0.02512
5.088,-0.01322
5.092,-0.00941
5.096,0.00815
5.1,0.0525
5.104,0.01441
5.108,0.05431
5.112,0.04007
5.116,0.08094
5.12,0.09573
5.124,0.07158
5.128,0.1245
5.132,0.08389
5.136,0.10889
5.14,0.08094
5.144,0.08244
5.148,0.06913
5.152,0.04218
5.156,0.05985
5.16,0.00557
5.164,0.01892
5.168,-0.00058
5.172,0.00095
5.176,0.01839
5.18,0.03719
5.184,-0.00631
5.188,-0.00645
5.192,-0.04011
5.196,0.00841
5.2,-0.0058
5.204,-0.00466
5.208,-0.02698
5.212,-0.03062
5.216,0.001
5.22,-0.00297
5.224,-0.02329
5.228,0.00746
5.232,-0.01561
5.236,-0.01317
5.24,-0.02805
5.244,-0.00781
5.248,-0.01019
5.252,-0.06606
5.256,-0.10826
5.26,-0.14937
5.264,-0.10899
5.268,-0.03126
5.272,0.1037
5.276,0.30747
5.28,0.53323
5.284,0.72995
5.288,0.90304
5.292,0.95502
5.296,0.96318
5.3,0.83231
5.304,0.62766
5.308,0.38543
5.312,0.18367
5.316,-0.00497
5.32,-0.11446
5.324,-0.19991
5.328,-0.18092
5.332,-0.13644
5.336,-0.10859
5.34,-0.08133
5.344,-0.04466
5.348,-0.00514
5.352,0.0156
5.356,-0.01805
5.36,-0.01292
5.364,-0.01398
5.368,-0.00119
5.372,-0.00584
5.376,0.00822
5.38,-0.0234
5.384,-0.01382
5.388,-0.01702
5.392,-0.02538
5.396,-0.01299
5.4,-0.0161
5.404,0.00558
5.408,0.00146
5.412,-0.01047
5.416,0.00773
5.42,-0.02202
5.424,0.00563
5.428,-0.04412
5.432,-0.0388
5.436,0.00423
5.44,0.01915
5.444,-0.0088
5.448,-0.01598
5.452,-0.02504
5.456,-0.01391
5.46,-0.00796
5.464,0.00097
5.468,-0.00265
5.472,-0.01516
5.476,0.01474
5.48,9e-05
5.484,0.0402
5.488,0.02038
5.492,0.03493
5.496,0.02282
5.5,0.06424
5.504,0.06474
5.508,0.04342
5.512,0.07036
5.516,0.06023
5.52,0.08507
5.524,0.10184
5.528,0.09634
5.532,0.12335
5.536,0.14321
5.54,0.20189
5.544,0.16256
5.548,0.17243
5.552,0.17572
5.556,0.20858
5.56,0.19572
5.564,0.1967
5.568,0.21202
5.572,0.20537
5.576,0.23213
5.58,0.20085
5.584,0.19661
5.588,0.19328
5.592,0.16276
5.596,0.2036
5.6,0.14114
5.604,0.18143
5.608,0.18336
5.612,0.15155
5.616,0.11828
5.62,0.12068
5.624,0.10324
5.628,0.10486
5.632,0.06888
5.636,0.07195
5.64,0.06692
5.644,0.04947
5.648,0.04423
5.652,0.04507
5.656,0.02894
5.66,-0.00502
5.664,0.01199
5.668,0.00972
5.672,-0.01637
5.676,-0.01205
5.68,-0.01963
5.684,-0.0194
5.688,0.01524
5.692,-0.01441
5.696,0.00124
5.7,-0.04051
5.704,-0.01521
5.708,0.00021
5.712,0.01434
5.716,-0.02288
5.72,-0.00029
5.724,-0.04156
5.728,-0.01969
5.732,-0.01824
5.736,-0.01412
5.74,-0.00542
5.744,-0.0184
5.748,-0.02051
5.752,-0.02325
5.756,-0.0451
5.76,-0.028
5.764,0.00348
5.768,-0.00454
5.772,-0.02184
5.776,-0.00148
5.78,-0.04274
5.784,-0.02861
5.788,-0.00129
5.792,-0.02393
5.796,-0.01542
5.8,-0.03003
5.804,-0.03269
5.808,-0.03064
5.812,-0.03079
5.816,-0.02088
5.82,-0.00882
5.824,-0.02623
5.828,-0.045
5.832,-0.01603
5.836,-0.02558
5.84,-0.02299
5.844,-0.03371
5.848,-0.04883
5.852,-0.02295
5.856,-0.0504
5.86,-0.01881
5.864,-0.04137
5.868,0.00337
5.872,-0.01713
5.876,-0.02879
5.88,-0.02055
5.884,-0.03743
5.888,-0.01808
5.892,-0.01888
5.896,-0.02068
5.9,-0.01335
5.904,-0.02309
5.908,-0.00393
5.912,-0.02192
5.916,-0.03901
5.92,-0.03917
5.924,-0.03402
5.928,-0.00099
5.932,0.00419
5.936,-0.02173
5.94,0.00314
5.944,-0.00829
5.948,-0.01498
5.952,-0.01715
5.956,-0.00809
5.96,-0.04058
5.964,-0.03927
5.968,-0.02633
5.972,-0.01332
5.976,-0.02973
5.98,-0.02351
5.984,-0.04177
5.988,-0.03715
5.992,-0.03947
5.996,-0.04898
6.0,-0.00422
6.004,-0.02964
6.008,-0.02548
6.012,-0.00999
6.016,-0.01768
6.02,-0.0127
6.024,0.0055
6.028,0.03666
6.032,0.06222
6.036,0.04529
6.04,0.06889
6.044,0.04677
6.048,0.05842
6.052,0.07887
6.056,0.06572
6.06,0.05851
6.064,0.0632
6.068,0.03118
6.072,0.0202
6.076,0.02156
6.08,-0.01443
6.084,-0.04148
6.088,0.00788
6.092,-0.03001
6.096,0.00207
6.1,-0.02772
6.104,-0.00926
6.108,0.01001
6.112,-0.03283
6.116,-0.02836
6.12,-0.03537
6.124,-0.02384
6.128,-0.0405
6.132,-0.05114
6.136,-0.033
6.14,-0.04531
6.144,-0.04099
6.148,-0.01115
6.152,-0.03978
6.156,-0.01237
6.16,-0.04652
6.164,-0.03811
6.168,-0.07723
6.172,-0.11626
6.176,-0.15075
6.18,-0.1655
6.184,-0.03494
6.188,0.0771
6.192,0.26874
6.196,0.49512
6.2,0.70405
6.204,0.8952
6.208,0.95239
6.212,0.91258
6.216,0.82847
6.22,0.62074
6.224,0.39039
6.228,0.15484
6.232,-0.01526
6.236,-0.13421
6.24,-0.19864
6.244,-0.1935
6.248,-0.14901
6.252,-0.12566
6.256,-0.07574
6.26,-0.07222
6.264,-0.04567
6.268,-0.03363
6.272,-0.04472
6.276,-0.032
6.28,-0.03234
6.284,-0.02101
6.288,-0.02566
6.292,-0.02579
6.296,-0.02696
6.3,-0.02726
6.304,-0.04505
6.308,-0.00413
6.312,-0.0285
6.316,-0.01667
6.32,-0.00958
6.324,-0.04555
6.328,-0.02632
6.332,-0.02051
6.336,-0.04548
6.34,-0.03523
6.344,-0.04054
6.348,-0.03427
6.352,-0.0092
6.356,-0.03999
6.36,-0.02222
6.364,0.00947
6.368,-0.00208
6.372,0.00628
6.376,-0.03007
6.38,-0.02137
6.384,-0.01664
6.388,-0.03358
6.392,-0.00999
6.396,-0.00431
6.4,0.00634
6.404,-0.00973
6.408,0.02389
6.412,0.03474
6.416,0.03955
6.42,0.03547
6.424,0.01781
6.428,0.07174
6.432,0.07462
6.436,0.06556
6.44,0.0894
6.444,0.11687
6.448,0.08858
6.452,0.10635
6.456,0.1125
6.46,0.13575
6.464,0.1342
6.468,0.20273
6.472,0.1732
6.476,0.20209
6.48,0.18828
6.484,0.18208
6.488,0.20109
6.492,0.18833
6.496,0.21296
6.5,0.1983
6.504,0.19017
6.508,0.17397
6.512,0.17412
6.516,0.15056
6.52,0.13149
6.524,0.1189
6.528,0.12081
6.532,0.12085
6.536,0.1189
6.54,0.10449
6.544,0.06853
6.548,0.07132
6.552,0.05047
6.556,0.03009
6.56,0.02987
6.564,0.02581
6.568,0.02161
6.572,0.02152
6.576,0.03298
6.58,0.01369
6.584,0.00751
6.588,-0.02759
6.592,-0.02999
6.596,0.00245
6.6,-0.01644
6.604,-0.02168
6.608,-0.0369
6.612,-0.01104
6.616,-0.03016
6.62,-0.021
6.624,-0.02765
6.628,-0.06854
6.632,-0.03897
6.636,-0.05445
6.64,-0.03543
6.644,-0.0394
6.648,-0.03317
6.652,-0.02847
6.656,-0.04078
6.66,-7e-05
6.664,-0.02406
6.668,-0.03963
6.672,-0.03749
6.676,-0.05767
6.68,-0.02353
6.684,-0.03142
6.688,-0.02285
6.692,-0.04172
6.696,-0.03513
6.7,-0.04026
6.704,-0.02498
6.708,-0.0073
6.712,-0.04387
6.716,-0.02758
6.72,-0.04831
6.724,-0.03021
6.728,-0.02491
6.732,-0.06488
6.736,-0.02675
6.74,-0.03099
6.744,-0.01325
6.748,-0.02604
6.752,-0.03732
6.756,-0.02369
6.76,-0.02391
6.764,-0.02593
6.768,-0.02359
6.772,-0.02093
6.776,-0.00313
6.78,-0.04705
6.784,-0.0348
6.788,-0.03043
6.792,-0.04099
6.796,-0.03377
6.8,-0.02428
6.804,-0.04177
6.808,-0.04519
6.812,-0.03856
6.816,-6e-05
6.82,-0.01794
6.824,-0.04285
6.828,-0.04683
6.832,-0.01902
6.836,-0.01771
6.84,-0.01998
6.844,0.00087
6.848,-0.02118
6.852,-0.01456
6.856,-0.02254
6.86,-0.0157
6.864,-0.00743
6.868,-0.0182
6.872,-0.04311
6.876,-0.0254
6.88,-0.03736
6.884,-0.02871
6.888,-0.02081
6.892,-0.01829
6.896,-0.01875
6.9,-0.02744
6.904,-0.02164
6.908,-0.03382
6.912,-0.02947
6.916,-0.06567
6.92,-0.02449
6.924,-0.0325
6.928,-0.02206
6.932,-0.01761
6.936,-0.02111
6.94,-0.0009
6.944,-0.03176
6.948,-0.00402
6.952,-0.02372
6.956,-0.02267
6.96,-0.04335
6.964,-0.02025
6.968,-0.04101
6.972,-0.01621
6.976,-0.02738
6.98,-0.03878
6.984,-0.04711
6.988,-0.02289
6.992,-0.02762
6.996,-0.01881
7.0,-0.05407
7.004,-0.00989
7.008,-0.01423
7.012,-0.02545
7.016,-0.02667
7.02,-0.01615
7.024,-0.02914
7.028,-0.04015
7.032,-0.03572
7.036,-0.01922
7.04,-0.03425
7.044,-0.02091
7.048,-0.02269
7.052,-0.01061
7.056,-0.01167
7.06,-0.03886
7.064,-0.03233
7.068,-0.04935
7.072,-0.0007
7.076,-0.04206
7.08,-0.03024
7.084,-0.02737
7.088,-0.02041
7.092,-0.02596
7.096,0.00756
7.1,-0.02688
7.104,-0.05604
7.108,-0.02822
7.112,-0.0104
7.116,-0.02252
7.12,-0.04043
7.124,-0.02536
7.128,-0.02165
7.132,-0.01911
7.136,-0.02785
7.14,-0.03783
7.144,-0.01039
7.148,-0.0221
7.152,-0.03676
7.156,-0.03226
7.16,-0.00381
7.164,-0.01289
7.168,-0.00402
7.172,-0.0289
7.176,-0.03191
7.18,-0.02381
7.184,0.00254
7.188,-0.03455
7.192,-0.02091
7.196,-0.00347
7.2,-0.00683
7.204,0.01233
7.208,-0.02513
7.212,-0.03047
7.216,-0.04227
7.22,-0.01751
7.224,-0.02121
7.228,-0.04027
7.232,-0.04962
7.236,-0.05456
7.24,-0.03969
7.244,-0.00328
7.248,-0.05532
7.252,-0.03796
7.256,-0.00335
7.26,0.01789
7.264,-0.00546
7.268,-0.00095
7.272,0.01332
7.276,0.02224
7.28,0.01156
7.284,0.06609
7.288,0.03561
7.292,0.0637
7.296,0.06867
7.3,0.04919
7.304,0.04734
7.308,0.10722
7.312,0.06498
7.316,0.08068
7.32,0.04246
7.324,0.06786
7.328,0.02495
7.332,0.01459
7.336,0.02942
7.34,-0.00148
7.344,-0.02004
7.348,0.00248
7.352,-0.02814
7.356,-0.00048
7.36,-0.0308
7.364,-0.01889
7.368,-0.03723
7.372,-0.02082
7.376,-0.03639
7.38,-0.03904
7.384,-0.05248
7.388,0.0005
7.392,-0.02379
7.396,-0.00226
7.4,-0.01877
7.404,-0.02998
7.408,-0.00677
7.412,-0.03524
7.416,-0.04493
7.42,-0.06041
7.424,-0.11733
7.428,-0.11736
7.432,-0.09911
7.436,-0.0764
7.44,0.04501
7.444,0.24659
7.448,0.43078
7.452,0.66304
7.456,0.856
7.46,0.94349
7.464,0.99498
7.468,0.84416
7.472,0.68389
7.476,0.43003
7.48,0.24344
7.484,0.02448
7.488,-0.11231
7.492,-0.15946
7.496,-0.17831
7.5,-0.12928
7.504,-0.09946
7.508,-0.08577
7.512,-0.02942
7.516,-0.02851
7.52,-0.02893
7.524,-0.01274
7.528,-0.02799
7.532,-0.0083
7.536,-0.01923
7.54,-0.01783
7.544,-0.01344
7.548,-0.02419
7.552,-0.03446
7.556,-0.01947
7.56,-0.00791
7.564,-0.02347
7.568,-0.02562
7.572,-0.027
7.576,0.03055
7.58,-0.01259
7.584,-0.0153
7.588,-0.00782
7.592,-0.00546
7.596,-0.02208
7.6,-0.0284
7.604,-0.01768
7.608,0.00688
7.612,-0.01826
7.616,0.02356
7.62,-0.0049
7.624,-0.0155
7.628,-0.00976
7.632,-0.01375
7.636,0.0197
7.64,0.02029
7.644,0.00521
7.648,0.03454
7.652,0.00388
7.656,-0.00266
7.66,0.04217
7.664,0.03431
7.668,0.04502
7.672,0.03976
7.676,0.03774
7.68,0.06591
7.684,0.03449
7.688,0.11366
7.692,0.11563
7.696,0.12307
7.7,0.14258
7.704,0.14484
7.708,0.14696
7.712,0.20133
7.716,0.18106
7.72,0.17728
7.724,0.18593
7.728,0.19336
7.732,0.19816
7.736,0.19485
7.74,0.22796
7.744,0.18309
7.748,0.22523
7.752,0.23123
7.756,0.18922
7.76,0.18543
7.764,0.20378
7.768,0.17369
7.772,0.14933
7.776,0.13314
7.78,0.17161
7.784,0.1075
7.788,0.11506
7.792,0.11395
7.796,0.0744
7.8,0.07791
7.804,0.06901
7.808,0.07933
7.812,0.04512
7.816,0.05214
7.82,0.04196
7.824,0.03125
7.828,0.03252
7.832,0.03161
7.836,0.04347
7.84,0.01434
7.844,-0.00843
7.848,-0.01686
7.852,0.02558
7.856,-0.01378
7.86,-0.00671
7.864,0.0024
7.868,0.0149
7.872,0.00024
7.876,-0.03031
7.88,-0.01639
7.884,-0.00827
7.888,-0.02583
7.892,0.00338
7.896,-0.00656
7.9,0.01392
7.904,-0.01176
7.908,-0.02718
7.912,0.00953
7.916,-0.00699
7.92,0.00059
7.924,-0.01389
7.928,-0.0067
7.932,-0.02026
7.936,-0.0038
7.94,0.00966
7.944,-0.01008
7.948,-0.01464
7.952,-0.0107
7.956,0.01771
7.96,-0.00849
7.964,-0.02577
7.968,-0.00153
7.972,-0.0154
7.976,-0.03341
7.98,-0.00248
7.984,-0.00225
7.988,0.00329
7.992,-0.02116
7.996,-0.01
8.0,-0.0118
8.004,-0.00974
8.008,-0.01862
8.012,-0.02447
8.016,-0.01603
8.02,-0.01442
8.024,-0.02424
8.028,0.00174
8.032,-0.00538
8.036,0.01844
8.04,0.00821
8.044,0.00227
8.048,-0.01846
8.052,-0.02465
8.056,-0.02155
8.06,-0.00844
8.064,-0.00679
8.068,-0.00178
8.072,0.00744
8.076,0.0006
8.08,0.0036
8.084,-0.01391
8.088,-0.01971
8.092,-0.00592
8.096,-0.00907
8.1,-0.00392
8.104,0.00591
8.108,-0.01845
8.112,-0.01405
8.116,-0.02256
8.12,0.01468
8.124,0.00672
8.128,-0.00937
8.132,0.00372
8.136,-0.00101
8.14,-0.02232
8.144,-0.00408
8.148,-0.00246
8.152,-0.00543
8.156,-0.01426
8.16,0.00358
8.164,-0.03283
8.168,0.02066
8.172,-0.00447
8.176,0.00457
8.18,0.03592
8.184,0.02083
8.188,-0.01121
8.192,-0.00954
8.196,-0.00734
8.2,-0.01879
8.204,0.01455
8.208,-0.00069
8.212,0.02312
8.216,0.00962
8.22,-0.01042
8.224,-0.00472
8.228,0.0085
8.232,-0.00986
8.236,-0.00603
8.24,0.0102
8.244,-0.00096
8.248,-0.0041
8.252,0.01358
8.256,0.01669
8.26,-0.00083
8.264,0.0115
8.268,0.00692
8.272,0.01962
8.276,-0.00363
8.28,0.00163
8.284,0.00167
8.288,-0.00268
8.292,0.04176
8.296,0.00943
8.3,0.00304
8.304,0.01022
8.308,-0.01182
8.312,0.01477
8.316,0.01468
8.32,-0.01123
8.324,0.01006
8.328,0.00574
8.332,0.01136
8.336,0.00968
8.34,-0.03784
8.344,-0.00996
8.348,0.00269
8.352,0.00904
8.356,-0.00598
8.36,0.02256
8.364,0.0072
8.368,0.01843
8.372,-0.00066
8.376,-0.00472
8.38,-0.00188
8.384,0.01022
8.388,-0.00829
8.392,0.01185
8.396,0.01007
8.4,-0.02304
8.404,-0.01152
8.408,-0.02226
8.412,0.00348
8.416,0.02006
8.42,0.0102
8.424,0.02799
8.428,0.0305
8.432,-0.00045
8.436,0.01905
8.44,-0.00032
8.444,0.00834
8.448,0.01018
8.452,0.01064
8.456,-0.0003
8.46,-0.00309
8.464,0.01699
8.468,-0.02
8.472,-0.00026
8.476,-0.00307
8.48,0.00486
8.484,-0.00056
8.488,0.01753
8.492,0.01226
8.496,0.01716
8.5,0.01346
8.504,0.01667
8.508,0.01728
8.512,0.0027
8.516,0.02294
8.52,0.02162
8.524,0.00979
8.528,0.01231
8.532,0.01667
8.536,0.00865
8.54,0.02045
8.544,0.00495
8.548,0.01286
8.552,0.00546
8.556,-0.00218
8.56,0.00811
8.564,0.03902
8.568,0.054
8.572,0.04727
8.576,0.07211
8.58,0.06775
8.584,0.07558
8.588,0.09197
8.592,0.12278
8.596,0.08736
8.6,0.09557
8.604,0.1183
8.608,0.1262
8.612,0.08581
8.616,0.10577
8.62,0.08059
8.624,0.0602
8.628,0.03005
8.632,0.06492
8.636,0.04881
8.64,0.03746
8.644,0.01871
8.648,0.03266
8.652,0.02725
8.656,-0.00145
8.66,0.02039
8.664,-0.01487
8.668,-0.0029
8.672,0.01515
8.676,0.02928
8.68,0.01652
8.684,-0.00535
8.688,-0.00588
8.692,0.0089
8.696,0.02225
8.7,0.01716
8.704,0.02458
8.708,0.03116
8.712,0.01463
8.716,0.00961
8.72,-0.04459
8.724,-0.0585
8.728,-0.11553
8.732,-0.08918
8.736,-0.03948
8.74,0.07985
8.744,0.2587
8.748,0.46646
8.752,0.67203
8.756,0.88449
8.76,1.0075
8.764,0.98912
8.768,0.91762
8.772,0.70949
8.776,0.52196
8.78,0.27042
8.784,0.09829
8.788,-0.05826
8.792,-0.16175
8.796,-0.16418
8.8,-0.12103
8.804,-0.10058
8.808,-0.04696
8.812,0.00513
8.816,0.03544
8.82,0.01234
8.824,0.01239
8.828,-0.00138
8.832,0.00104
8.836,0.04093
8.84,0.03362
8.844,0.02906
8.848,0.02518
8.852,0.01516
8.856,0.02063
8.86,0.02254
8.864,0.01793
8.868,0.03115
8.872,0.01729
8.876,0.02519
8.88,0.05367
8.884,0.01595
8.888,0.03396
8.892,0.00286
8.896,0.01555
8.9,0.0155
8.904,0.04957
8.908,0.02491
8.912,0.00682
8.916,0.03563
8.92,0.023
8.924,0.02962
8.928,0.01879
8.932,0.02411
8.936,0.02668
8.94,0.01265
8.944,0.032
8.948,0.04977
8.952,0.05142
8.956,0.04752
8.96,0.07062
8.964,0.07643
8.968,0.0887
8.972,0.07994
8.976,0.11047
8.98,0.11032
8.984,0.09643
8.988,0.13643
8.992,0.14147
8.996,0.17377
9.0,0.16388
9.004,0.17509
9.008,0.19657
9.012,0.23766
9.016,0.20011
9.02,0.21705
9.024,0.21416
9.028,0.23023
9.032,0.22071
9.036,0.24464
9.04,0.24552
9.044,0.26343
9.048,0.2541
9.052,0.2307
9.056,0.23552
9.06,0.23387
9.064,0.20985
9.068,0.20036
9.072,0.18874
9.076,0.17822
9.08,0.18503
9.084,0.18616
9.088,0.14925
9.092,0.15122
9.096,0.14498
9.1,0.13891
9.104,0.07736
9.108,0.08665
9.112,0.10634
9.116,0.08007
9.12,0.09068
9.124,0.04612
9.128,0.0621
9.132,0.02797
9.136,0.053
9.14,0.04673
9.144,0.03425
9.148,0.06839
9.152,0.01539
9.156,0.05593
9.16,0.05
9.164,0.02329
9.168,0.04347
9.172,0.04809
9.176,0.03382
9.18,0.01304
9.184,0.05668
9.188,-0.01061
9.192,0.0114
9.196,0.02485
9.2,0.03502
9.204,0.02381
9.208,0.05468
9.212,0.03402
9.216,0.03391
9.22,0.04485
9.224,0.05328
9.228,0.03454
9.232,0.00269
9.236,0.03683
9.24,0.01488
9.244,-0.00748
9.248,0.01332
9.252,0.0041
9.256,0.01174
9.26,0.02382
9.264,0.01204
9.268,0.02436
9.272,0.02482
9.276,0.01845
9.28,0.01253
9.284,0.01065
9.288,0.03112
9.292,0.02773
9.296,0.01973
9.3,0.01959
9.304,0.04836
9.308,0.02627
9.312,0.02756
9.316,0.05094
9.32,0.0176
9.324,0.03406
9.328,0.0194
9.332,0.01424
9.336,0.01127
9.34,0.02664
9.344,-0.00633
9.348,0.04299
9.352,0.01977
9.356,0.00678
9.36,0.02168
9.364,0.01623
9.368,0.00863
9.372,0.03055
9.376,0.04881
9.38,0.04737
9.384,0.04001
9.388,0.03565
9.392,0.00806
9.396,0.02209
9.4,0.03914
9.404,-0.00219
9.408,0.00766
9.412,0.02581
9.416,0.01579
9.42,0.01516
9.424,0.03956
9.428,0.00974
9.432,0.00574
9.436,0.04321
9.44,0.02919
9.444,0.01348
9.448,0.03345
9.452,0.02159
9.456,0.03168
9.46,-0.00226
9.464,0.03816
9.468,0.03215
9.472,0.04196
9.476,0.01351
9.48,0.05711
9.484,-0.00812
9.488,0.03095
9.492,0.02229
9.496,0.03936
9.5,0.03537
9.504,0.04506
9.508,0.02472
9.512,0.04401
9.516,0.0294
9.52,0.02165
9.524,0.04159
9.528,0.00257
9.532,0.02783
9.536,0.02442
9.54,0.04509
9.544,0.03427
9.548,0.03071
9.552,0.03422
9.556,0.04438
9.56,0.04234
9.564,0.02002
9.568,0.02837
9.572,0.01331
9.576,0.037
9.58,0.02086
9.584,0.03471
9.588,0.0254
9.592,0.03296
9.596,0.02703
9.6,0.03696
9.604,0.05136
9.608,0.03597
9.612,0.03516
9.616,0.02826
9.62,0.05321
9.624,0.02642
9.628,0.01371
9.632,0.03189
9.636,0.04939
9.64,0.01918
9.644,0.04604
9.648,0.05472
9.652,0.03685
9.656,0.0448
9.66,-0.00666
9.664,0.02441
9.668,0.03535
9.672,0.05076
9.676,0.03051
9.68,0.02981
9.684,0.04634
9.688,0.02161
9.692,0.02564
9.696,0.00983
9.7,0.03096
9.704,0.03631
9.708,0.01697
9.712,0.0064
9.716,0.03504
9.72,0.03905
9.724,0.00869
9.728,0.0243
9.732,0.03742
9.736,0.03988
9.74,0.02848
9.744,0.02272
9.748,0.02772
9.752,0.03607
9.756,0.04279
9.76,-0.00997
9.764,0.04082
9.768,0.04056
9.772,0.05423
9.776,0.05377
9.78,0.06465
9.784,0.08293
9.788,0.07143
9.792,0.0827
9.796,0.07879
9.8,0.10238
9.804,0.09518
9.808,0.13527
9.812,0.14272
9.816,0.14497
9.82,0.12933
9.824,0.09304
9.828,0.09557
9.832,0.08768
9.836,0.06177
9.84,0.06415
9.844,0.06673
9.848,0.01019
9.852,0.04768
9.856,0.03121
9.86,0.05728
9.864,0.01632
9.868,0.04415
9.872,0.00516
9.876,0.0335
9.88,0.02724
9.884,-0.00526
9.888,0.02104
9.892,0.04465
9.896,0.02542
9.9,0.04248
9.904,0.06112
9.908,0.01248
9.912,0.00309
9.916,0.03175
9.92,0.03343
9.924,0.02749
9.928,0.00225
9.932,-0.02806
9.936,-0.07262
9.94,-0.102
9.944,-0.04769
9.948,0.03823
9.952,0.16683
9.956,0.37641
9.96,0.56658
9.964,0.79902
9.968,0.9207
9.972,1.04023
9.976,0.99773
9.98,0.84957
9.984,0.63766
9.988,0.40658
9.992,0.21757
9.996,0.05001
