t_seg,ecg_mV
0.0,-0.00831
0.004,0.0255
0.008,-0.00147
0.012,-0.02151
0.016,-0.01999
0.02,-0.02699
0.024,-0.01745
0.028,-0.02765
0.032,-0.02225
0.036,-0.05758
0.04,-0.03897
0.044,-0.02081
0.048,-0.07339
0.052,-0.03765
0.056,-0.02153
0.06,-0.00701
0.064,-0.02296
0.068,-0.02153
0.072,-0.02383
0.076,-0.0312
0.08,-0.0264
0.084,-0.052
0.088,-0.06554
0.092,-0.08091
0.096,-0.12436
0.1,-0.10449
0.104,-0.13318
0.108,-0.01122
0.112,0.12544
0.116,0.30439
0.12,0.52706
0.124,0.75435
0.128,0.89571
0.132,0.96412
0.136,0.93749
0.14,0.78846
0.144,0.58307
0.148,0.36246
0.152,0.14379
0.156,-0.02058
0.16,-0.14261
0.164,-0.18953
0.168,-0.1997
0.172,-0.16148
0.176,-0.10431
0.18,-0.08039
0.184,-0.05729
0.188,-0.0537
0.192,-0.05161
0.196,-0.00199
0.2,-0.03723
0.204,-0.01962
0.208,-0.03334
0.212,-0.04235
0.216,-0.01411
0.22,-0.04506
0.224,-0.04853
0.228,-0.04534
0.232,-0.03017
0.236,-0.04237
0.24,-0.03028
0.244,-0.04159
0.248,-0.04552
0.252,-0.06523
0.256,-0.02699
0.26,-0.03448
0.264,-0.05337
0.268,-0.0252
0.272,-0.0502
0.276,-0.0465
0.28,-0.03708
0.284,-0.02344
0.288,-0.03785
0.292,-0.03652
0.296,-0.04024
0.3,-0.01445
0.304,-0.01133
0.308,-0.00223
0.312,-0.01851
0.316,0.01371
0.32,-0.00103
0.324,0.00614
0.328,-0.01
0.332,0.00404
0.336,0.03108
0.34,0.04389
0.344,0.01908
0.348,0.04796
0.352,0.06215
0.356,0.05452
0.36,0.06987
0.364,0.10431
0.368,0.0958
0.372,0.10095
0.376,0.12081
0.38,0.10981
0.384,0.13603
0.388,0.1502
0.392,0.16739
0.396,0.18841
0.4,0.20256
0.404,0.20216
0.408,0.18326
0.412,0.21452
0.416,0.20184
0.42,0.15709
0.424,0.19072
0.428,0.1644
0.432,0.17745
0.436,0.15716
0.44,0.16517
0.444,0.15717
0.448,0.12553
0.452,0.11901
0.456,0.10332
0.46,0.10237
0.464,0.09058
0.468,0.07364
0.472,0.08525
0.476,0.05
0.48,0.03208
0.484,0.03587
0.488,0.03629
0.492,0.00397
0.496,-0.01679
0.5,0.0043
0.504,0.01795
0.508,-0.00056
0.512,-0.01411
0.516,-0.01624
0.52,-0.02956
0.524,-0.02341
0.528,-0.02631
0.532,-0.02296
0.536,-0.049
0.54,-0.02756
0.544,-0.04562
0.548,-0.00603
0.552,-0.00879
0.556,-0.04974
0.56,-0.01818
0.564,-0.00536
0.568,-0.05004
0.572,-0.02331
0.576,-0.01251
0.58,-0.02279
0.584,-0.0187
0.588,-0.03497
0.592,-0.02074
0.596,-0.00062
0.6,-0.0263
0.604,-0.04181
0.608,-0.03184
0.612,-0.05793
0.616,-0.03522
0.62,-0.01145
0.624,-0.03106
0.628,-0.02802
0.632,-0.01168
0.636,-0.03758
0.64,-0.0104
0.644,-0.03266
0.648,-0.04865
0.652,-0.01111
0.656,-0.02823
0.66,-0.02891
0.664,-0.04753
0.668,-0.03971
0.672,-0.05021
0.676,-0.01995
0.68,-0.00911
0.684,-0.05014
0.688,-0.0188
0.692,-0.02354
0.696,-0.02905
0.7,-0.01644
0.704,-0.07142
0.708,-0.02087
0.712,-0.02695
0.716,-0.01833
0.72,-0.0537
0.724,-0.0403
0.728,-0.03307
0.732,-0.0491
0.736,-0.04147
0.74,-0.03538
0.744,-0.05028
0.748,0.00258
0.752,-0.00736
0.756,-0.0134
0.76,-0.00911
0.764,-0.00722
0.768,-0.00932
0.772,0.02128
0.776,0.02894
0.78,0.04022
0.784,0.05748
0.788,0.06789
0.792,0.07216
0.796,0.08704
0.8,0.06531
0.804,0.0577
0.808,0.0532
0.812,0.03489
0.816,0.03847
0.82,0.0357
0.824,-0.01267
0.828,0.00887
0.832,0.0242
0.836,0.00091
0.84,-0.00094
0.844,-0.01384
0.848,-0.05588
0.852,-0.00866
0.856,-0.0093
0.86,-0.0064
0.864,-0.00573
0.868,-0.02647
0.872,-0.01381
0.876,-0.03935
0.88,-0.00749
0.884,-0.02328
0.888,-0.03208
0.892,-0.01205
0.896,-0.03172
0.9,-0.02832
0.904,-0.03069
0.908,-0.02895
0.912,-0.05602
0.916,-0.06835
0.92,-0.14695
0.924,-0.1797
0.928,-0.13386
0.932,-0.02879
0.936,0.11552
0.94,0.30538
0.944,0.52374
0.948,0.75553
0.952,0.89373
0.956,0.97941
0.96,0.93903
0.964,0.78998
0.968,0.59372
0.972,0.3577
0.976,0.16759
0.98,-0.02246
0.984,-0.12679
0.988,-0.19576
0.992,-0.19799
0.996,-0.15006
1.0,-0.11575
1.004,-0.06167
1.008,-0.03964
1.012,-0.03321
1.016,-0.02351
1.02,-0.0403
1.024,-0.03124
1.028,-0.01365
1.032,-0.02861
1.036,-0.02356
1.04,-0.03463
1.044,-0.02221
1.048,-0.00692
1.052,-0.04384
1.056,-0.0177
1.06,-0.00716
1.064,-0.02025
1.068,-0.04333
1.072,-0.0063
1.076,-0.01372
1.08,-0.01865
1.084,-0.02646
1.088,-0.00551
1.092,-0.02239
1.096,-0.00351
1.1,-0.04886
1.104,-0.03456
1.108,-0.00736
1.112,0.00746
1.116,-0.00361
1.12,-0.01111
1.124,-0.00117
1.128,0.00344
1.132,-0.0089
1.136,-0.00329
1.14,-0.00931
1.144,-0.03262
1.148,0.02375
1.152,0.00563
1.156,0.02739
1.16,0.01792
1.164,0.03423
1.168,0.01053
1.172,0.05947
1.176,0.05376
1.18,0.0852
1.184,0.10527
1.188,0.08831
1.192,0.08789
1.196,0.13059
1.2,0.14129
1.204,0.15237
1.208,0.15784
1.212,0.17099
1.216,0.17196
1.22,0.20835
1.224,0.20803
1.228,0.21413
1.232,0.19527
1.236,0.19316
1.24,0.19475
1.244,0.21586
1.248,0.1974
1.252,0.17994
1.256,0.2043
1.26,0.19351
1.264,0.15484
1.268,0.13019
1.272,0.14446
1.276,0.11872
1.28,0.12696
1.284,0.10056
1.288,0.08639
1.292,0.10394
1.296,0.04551
1.3,0.08023
1.304,0.06363
1.308,0.052
1.312,0.03046
1.316,0.03689
1.32,0.04778
1.324,-0.00701
1.328,0.01009
1.332,-0.00805
1.336,-0.02424
1.34,0.01007
1.344,-0.01382
1.348,-0.00894
1.352,-0.01361
1.356,0.00423
1.36,-0.01912
1.364,0.0113
1.368,-0.02958
1.372,0.00089
1.376,-0.02087
1.38,-0.00253
1.384,-0.04696
1.388,-0.02112
1.392,-0.01691
1.396,-0.00423
1.4,-0.02243
1.404,0.00449
1.408,0.01262
1.412,0.01587
1.416,-0.00838
1.42,-0.02901
1.424,-0.02681
1.428,0.00077
1.432,-0.01508
1.436,-0.03437
1.44,-0.04005
1.444,-0.00346
1.448,-0.00891
1.452,-0.03404
1.456,-0.00064
1.46,-0.03341
1.464,0.00071
1.468,-0.01454
1.472,-0.02435
1.476,-0.02539
1.48,-0.01359
1.484,-0.0059
1.488,-0.00956
1.492,0.00107
1.496,-0.02361
1.5,0.01857
1.504,-0.0116
1.508,0.00337
1.512,-0.01795
1.516,0.00547
1.52,0.0059
1.524,-0.01983
1.528,-0.02649
1.532,-0.02214
1.536,-0.03938
1.54,-0.01407
1.544,-0.01319
1.548,-0.04315
1.552,-0.01939
1.556,-0.00723
1.56,-0.03483
1.564,-0.01168
1.568,-0.02158
1.572,-0.01138
1.576,-0.0302
1.58,0.00887
1.584,-0.05344
1.588,-0.00846
1.592,-0.00309
1.596,-0.00251
1.6,-0.01292
1.604,-0.01403
1.608,0.00163
1.612,-0.01345
1.616,-0.00132
1.62,-0.00942
1.624,-0.02644
1.628,-0.04459
1.632,-0.0226
1.636,-0.02005
1.64,-0.02178
1.644,-0.00221
1.648,-0.00298
1.652,-0.00227
1.656,-0.00632
1.66,-0.00333
1.664,-0.00266
1.668,0.01256
1.672,0.00574
1.676,-0.01702
1.68,0.01701
1.684,-0.00169
1.688,0.00299
1.692,0.04983
1.696,0.0566
1.7,0.04462
1.704,0.05427
1.708,0.01292
1.712,0.07794
1.716,0.08693
1.72,0.09282
1.724,0.08248
1.728,0.10203
1.732,0.06558
1.736,0.08189
1.74,0.07793
1.744,0.05188
1.748,0.05547
1.752,0.05004
1.756,0.01728
1.76,-0.00343
1.764,-0.01298
1.768,-0.01987
1.772,0.02068
1.776,-0.01751
1.78,-0.03744
1.784,0.00718
1.788,-0.00185
1.792,0.00679
1.796,0.00014
1.8,0.00398
1.804,-0.03609
1.808,-0.00984
1.812,-0.00453
1.816,0.01423
1.82,-0.02913
1.824,0.00497
1.828,0.00406
1.832,-0.02375
1.836,-0.02171
1.84,-0.06418
1.844,-0.07874
1.848,-0.11701
1.852,-0.12442
1.856,-0.08566
1.86,0.04016
1.864,0.22906
1.868,0.43819
1.872,0.64506
1.876,0.812
1.88,0.95404
1.884,0.96927
1.888,0.91102
1.892,0.74142
1.896,0.53056
1.9,0.29739
1.904,0.08405
1.908,-0.06843
1.912,-0.15193
1.916,-0.16194
1.92,-0.15421
1.924,-0.13639
1.928,-0.02798
1.932,-0.03754
1.936,-0.02069
1.94,0.00337
1.944,-0.01927
1.948,0.00493
1.952,-0.01896
1.956,-0.01398
1.96,0.01677
1.964,0.00681
1.968,-0.00719
1.972,-0.01118
1.976,0.01038
1.98,0.00204
1.984,0.01041
1.988,-0.01861
1.992,-0.01304
1.996,-0.00418
2.0,0.02191
2.004,0.01934
2.008,0.00595
2.012,-0.01643
2.016,0.01085
2.02,0.00735
2.024,-0.00293
2.028,0.01854
2.032,-0.01975
2.036,0.02391
2.04,0.02597
2.044,0.04331
2.048,0.02276
2.052,-0.00132
2.056,-0.00345
2.06,0.01052
2.064,-0.00767
2.068,-0.00565
2.072,0.02968
2.076,0.05914
2.08,0.03807
2.084,0.05119
2.088,0.05349
2.092,0.08046
2.096,0.07217
2.1,0.0893
2.104,0.10294
2.108,0.1143
2.112,0.07849
2.116,0.14441
2.12,0.14706
2.124,0.14826
2.128,0.17653
2.132,0.16786
2.136,0.18951
2.14,0.19553
2.144,0.20666
2.148,0.2206
2.152,0.21592
2.156,0.22046
2.16,0.24124
2.164,0.22124
2.168,0.2223
2.172,0.20545
2.176,0.22059
2.18,0.23737
2.184,0.19302
2.188,0.21586
2.192,0.19109
2.196,0.1606
2.2,0.15928
2.204,0.15405
2.208,0.18872
2.212,0.1271
2.216,0.1026
2.22,0.08602
2.224,0.09011
2.228,0.06803
2.232,0.05916
2.236,0.05422
2.24,0.06164
2.244,0.03042
2.248,0.04097
2.252,0.02115
2.256,0.03775
2.26,0.0263
2.264,0.04218
2.268,0.01977
2.272,0.02047
2.276,0.02688
2.28,0.0146
2.284,0.02119
2.288,0.0034
2.292,-0.01244
2.296,-0.00775
2.3,0.01675
2.304,0.04785
2.308,0.04204
2.312,0.01827
2.316,0.00589
2.32,0.01298
2.324,-0.00506
2.328,-0.0101
2.332,-0.02596
2.336,-0.00055
2.34,0.01198
2.344,-0.01361
2.348,0.01744
2.352,0.00598
2.356,0.02912
2.36,0.03226
2.364,0.02507
2.368,-0.0063
2.372,-0.02555
2.376,-0.01203
2.38,0.01735
2.384,0.01296
2.388,0.01795
2.392,0.01009
2.396,0.02396
2.4,0.02594
2.404,0.01257
2.408,0.03186
2.412,0.0229
2.416,0.00097
2.42,0.02394
2.424,0.01063
2.428,0.01521
2.432,0.04019
2.436,0.03059
2.44,0.03012
2.444,0.06011
2.448,0.08825
2.452,0.09428
2.456,0.08785
2.46,0.09254
2.464,0.12341
2.468,0.09002
2.472,0.08044
2.476,0.08097
2.48,0.06964
2.484,0.0703
2.488,0.05301
2.492,0.0154
2.496,0.04733
2.5,0.02922
2.504,0.01408
2.508,0.02766
2.512,0.01579
2.516,0.01338
2.52,0.02821
2.524,-0.00382
2.528,0.0141
2.532,0.0088
2.536,0.0391
2.54,0.01285
2.544,0.02133
2.548,0.02129
2.552,0.01848
2.556,0.02338
2.56,0.0195
2.564,-0.00591
2.568,0.01464
2.572,-0.01603
2.576,0.00796
2.58,-0.03375
2.584,-0.07848
2.588,-0.08445
2.592,-0.07595
2.596,0.01463
2.6,0.1038
2.604,0.30299
2.608,0.52726
2.612,0.74975
2.616,0.89072
2.62,1.01039
2.624,0.9992
2.628,0.88737
2.632,0.67798
2.636,0.48563
2.64,0.25623
2.644,0.02277
2.648,-0.07111
2.652,-0.14476
2.656,-0.16862
2.66,-0.10173
2.664,-0.09227
2.668,-0.02649
2.672,-0.02729
2.676,0.01196
2.68,0.01601
2.684,0.00239
2.688,0.02408
2.692,0.03834
2.696,-0.00854
2.7,-0.00378
2.704,-0.00215
2.708,0.00965
2.712,0.02764
2.716,0.03613
2.72,0.02057
2.724,-0.00225
2.728,0.02947
2.732,0.03108
2.736,0.01977
2.74,0.01681
2.744,0.0374
2.748,0.03592
2.752,0.01409
2.756,0.02353
2.76,0.00816
2.764,0.04112
2.768,0.03243
2.772,0.02632
2.776,0.01529
2.78,0.02005
2.784,0.03495
2.788,0.02004
2.792,0.04043
2.796,0.04385
2.8,0.02405
2.804,0.02417
2.808,0.03377
2.812,0.04979
2.816,0.05444
2.82,0.0447
2.824,0.04856
2.828,0.07217
2.832,0.11389
2.836,0.08789
2.84,0.11259
2.844,0.11582
2.848,0.12631
2.852,0.14585
2.856,0.13285
2.86,0.1953
2.864,0.18129
2.868,0.17446
2.872,0.17896
2.876,0.21926
2.88,0.21731
2.884,0.21282
2.888,0.2346
2.892,0.22624
2.896,0.25356
2.9,0.22832
2.904,0.22889
2.908,0.23067
2.912,0.24159
2.916,0.22041
2.92,0.22361
2.924,0.22722
2.928,0.20962
2.932,0.21524
2.936,0.2017
2.94,0.19326
2.944,0.169
2.948,0.14445
2.952,0.11549
2.956,0.11797
2.96,0.10016
2.964,0.11853
2.968,0.1129
2.972,0.06059
2.976,0.06394
2.98,0.07461
2.984,0.08071
2.988,0.04432
2.992,0.05065
2.996,0.05777
3.0,0.02239
3.004,0.03733
3.008,0.04146
3.012,0.00953
3.016,0.05069
3.02,0.03226
3.024,0.02703
3.028,0.00737
3.032,0.01647
3.036,0.04178
3.04,-0.00732
3.044,0.02974
3.048,0.01792
3.052,0.04711
3.056,0.03162
3.06,0.02035
3.064,0.01634
3.068,0.03508
3.072,0.01998
3.076,0.03664
3.08,0.05977
3.084,0.02687
3.088,0.02117
3.092,0.02141
3.096,-0.01042
3.1,0.0045
3.104,0.05326
3.108,0.0222
3.112,0.03834
3.116,0.0422
3.12,0.01657
3.124,0.00579
3.128,0.02269
3.132,0.01982
3.136,0.04253
3.14,0.01968
3.144,0.01251
3.148,0.06577
3.152,0.01347
3.156,0.00516
3.16,0.0199
3.164,0.02879
3.168,0.01816
3.172,0.01712
3.176,0.04314
3.18,0.03495
3.184,0.03306
3.188,0.02718
3.192,0.03341
3.196,0.02445
3.2,0.02508
3.204,0.02243
3.208,0.00285
3.212,0.00236
3.216,0.02212
3.22,0.01244
3.224,0.02743
3.228,0.0383
3.232,0.01197
3.236,0.03353
3.24,0.01375
3.244,0.04823
3.248,0.01722
3.252,0.03516
3.256,0.03473
3.26,0.02137
3.264,0.03414
3.268,0.03304
3.272,0.05718
3.276,0.05949
3.28,0.05168
3.284,0.02039
3.288,0.02855
3.292,0.02596
3.296,0.04449
3.3,0.00543
3.304,0.00048
3.308,0.03557
3.312,0.02981
3.316,0.02368
3.32,0.0528
3.324,0.03685
3.328,0.02254
3.332,0.05895
3.336,0.06767
3.34,0.05114
3.344,0.06202
3.348,0.06205
3.352,0.07543
3.356,0.08666
3.36,0.11329
3.364,0.10978
3.368,0.10986
3.372,0.14132
3.376,0.15091
3.38,0.12016
3.384,0.10936
3.388,0.11142
3.392,0.10965
3.396,0.10066
3.4,0.05566
3.404,0.03921
3.408,0.0766
3.412,0.0561
3.416,0.05315
3.42,0.01095
3.424,0.05859
3.428,0.05405
3.432,0.05141
3.436,0.01508
3.44,0.02625
3.444,0.03109
3.448,0.03808
3.452,0.03354
3.456,0.03129
3.46,0.04275
3.464,0.04305
3.468,0.04947
3.472,0.03219
3.476,0.02697
3.48,-0.00463
3.484,0.02307
3.488,0.03185
3.492,-0.01942
3.496,-0.03014
3.5,-0.10522
3.504,-0.09319
3.508,-0.05783
3.512,0.09542
3.516,0.24746
3.52,0.45679
3.524,0.6682
3.528,0.86058
3.532,0.99906
3.536,1.01824
3.54,0.95037
3.544,0.77897
3.548,0.56154
3.552,0.33519
3.556,0.12474
3.56,-0.03907
3.564,-0.12228
3.568,-0.14622
3.572,-0.11012
3.576,-0.08317
3.58,-0.03655
3.584,-0.02941
3.588,0.01852
3.592,0.0147
3.596,0.03715
3.6,0.01003
3.604,0.03487
3.608,0.03184
3.612,0.04146
3.616,0.02732
3.62,0.04284
3.624,0.03775
3.628,0.02813
3.632,0.03715
3.636,0.02501
3.64,0.03456
3.644,0.03474
3.648,0.03177
3.652,0.03019
3.656,0.02948
3.66,0.05747
3.664,-0.00653
3.668,0.02418
3.672,0.05176
3.676,0.03252
3.68,0.05661
3.684,0.0246
3.688,0.03151
3.692,-0.0024
3.696,0.02153
3.7,0.04473
3.704,0.05768
3.708,0.0625
3.712,0.05662
3.716,0.03684
3.72,0.05925
3.724,0.08513
3.728,0.04716
3.732,0.07187
3.736,0.08799
3.74,0.07177
3.744,0.09166
3.748,0.1108
3.752,0.11988
3.756,0.10919
3.76,0.15591
3.764,0.11982
3.768,0.1865
3.772,0.18499
3.776,0.18908
3.78,0.20144
3.784,0.22289
3.788,0.20702
3.792,0.22706
3.796,0.25499
3.8,0.22872
3.804,0.23995
3.808,0.21277
3.812,0.22874
3.816,0.2482
3.82,0.23592
3.824,0.22906
3.828,0.25186
3.832,0.21798
3.836,0.23585
3.84,0.21284
3.844,0.21003
3.848,0.20383
3.852,0.18753
3.856,0.16276
3.86,0.15235
3.864,0.14105
3.868,0.13979
3.872,0.12346
3.876,0.11125
3.88,0.13177
3.884,0.10478
3.888,0.06992
3.892,0.07088
3.896,0.04927
3.9,0.0724
3.904,0.08293
3.908,0.04036
3.912,0.06121
3.916,0.02428
3.92,0.03592
3.924,0.03045
3.928,0.02035
3.932,0.05562
3.936,0.02629
3.94,0.01578
3.944,0.04226
3.948,0.0375
3.952,0.01594
3.956,0.02283
3.96,0.02875
3.964,0.02615
3.968,0.02828
3.972,0.00815
3.976,0.04521
3.98,-0.01824
3.984,0.01832
3.988,0.03486
3.992,0.04186
3.996,0.01862
4.0,0.01125
4.004,0.01104
4.008,0.02699
4.012,0.01469
4.016,0.03786
4.02,0.05542
4.024,0.02276
4.028,0.01909
4.032,0.00792
4.036,0.04049
4.04,0.04925
4.044,0.03833
4.048,0.01721
4.052,0.01554
4.056,0.03031
4.06,0.01163
4.064,0.03795
4.068,0.01613
4.072,0.02167
4.076,0.04504
4.08,0.01244
4.084,0.02046
4.088,0.01396
4.092,0.01861
4.096,0.01957
4.1,0.02435
4.104,-0.00108
4.108,0.01376
4.112,0.0043
4.116,0.02051
4.12,0.03034
4.124,0.04393
4.128,0.03935
4.132,0.03303
4.136,0.03906
4.14,0.03703
4.144,0.02514
4.148,0.03874
4.152,0.02508
4.156,0.05107
4.16,0.06063
4.164,0.08438
4.168,0.07783
4.172,0.08705
4.176,0.12363
4.18,0.10655
4.184,0.11653
4.188,0.11285
4.192,0.10974
4.196,0.11446
4.2,0.11705
4.204,0.08693
4.208,0.09314
4.212,0.06894
4.216,0.0475
4.22,0.10071
4.224,0.0669
4.228,0.03709
4.232,0.02405
4.236,0.04614
4.24,0.05267
4.244,0.02611
4.248,-0.00779
4.252,-0.00958
4.256,0.02857
4.26,0.02273
4.264,0.0299
4.268,0.02471
4.272,0.01636
4.276,0.00632
4.28,0.05089
4.284,0.01249
4.288,0.02365
4.292,0.02696
4.296,0.03636
4.3,0.03012
4.304,-0.00049
4.308,-0.02933
4.312,-0.04978
4.316,-0.07631
4.32,-0.11239
4.324,-0.04936
4.328,0.03637
4.332,0.19112
4.336,0.39474
4.34,0.61252
4.344,0.80269
4.348,0.9699
4.352,1.01906
4.356,0.97616
4.36,0.82416
4.364,0.62399
4.368,0.36092
4.372,0.16828
4.376,-0.01915
4.38,-0.12045
4.384,-0.12572
4.388,-0.14576
4.392,-0.08598
4.396,-0.05348
4.4,-0.03011
4.404,0.01338
4.408,0.01774
4.412,0.0308
4.416,0.01254
4.42,0.01412
4.424,0.02598
4.428,-0.00457
4.432,0.02626
4.436,0.02328
4.44,0.00105
4.444,0.0247
4.448,0.03873
4.452,0.0107
4.456,0.01898
4.46,0.01842
4.464,0.02835
4.468,-0.0213
4.472,0.03058
4.476,0.00561
4.48,0.02207
4.484,0.01921
4.488,0.01924
4.492,0.01599
4.496,0.01071
4.5,0.05002
4.504,0.02884
4.508,0.01093
4.512,0.00524
4.516,0.04828
4.52,0.03323
4.524,0.06591
4.528,0.02666
4.532,0.0278
4.536,0.03476
4.54,0.01109
4.544,0.04907
4.548,0.06663
4.552,0.0488
4.556,0.08489
4.56,0.09087
4.564,0.09508
4.568,0.09176
4.572,0.1038
4.576,0.13974
4.58,0.14587
4.584,0.14088
4.588,0.13656
4.592,0.17787
4.596,0.17938
4.6,0.17278
4.604,0.20797
4.608,0.22365
4.612,0.20525
4.616,0.23404
4.62,0.23192
4.624,0.22129
4.628,0.24541
4.632,0.21147
4.636,0.25127
4.64,0.23075
4.644,0.25294
4.648,0.21617
4.652,0.23114
4.656,0.20376
4.66,0.21205
4.664,0.16791
4.668,0.17155
4.672,0.14696
4.676,0.14646
4.68,0.13197
4.684,0.11985
4.688,0.14212
4.692,0.10768
4.696,0.08299
4.7,0.0786
4.704,0.07037
4.708,0.04918
4.712,0.0708
4.716,0.05029
4.72,0.05443
4.724,0.0374
4.728,0.01099
4.732,0.0394
4.736,0.02848
4.74,0.02452
4.744,0.03604
4.748,0.03508
4.752,-0.00186
4.756,0.0002
4.76,0.05172
4.764,0.03548
4.768,0.01639
4.772,0.01147
4.776,0.01095
4.78,0.01754
4.784,0.00946
4.788,0.01387
4.792,0.00125
4.796,0.00729
4.8,-0.00047
4.804,0.0315
4.808,0.00453
4.812,0.01305
4.816,0.01591
4.82,0.0129
4.824,0.00525
4.828,0.03583
4.832,0.00934
4.836,-0.00029
4.84,0.0359
4.844,-0.0136
4.848,0.03736
4.852,-0.00676
4.856,0.00608
4.86,-0.01988
4.864,0.0326
4.868,-0.0037
4.872,0.0005
4.876,0.02229
4.88,0.07546
4.884,0.02455
4.888,-0.00293
4.892,0.02821
4.896,0.01995
4.9,0.01149
4.904,0.01281
4.908,0.0118
4.912,0.02062
4.916,0.0036
4.92,-0.00538
4.924,0.00712
4.928,0.00763
4.932,-0.01099
4.936,0.01126
4.94,0.0146
4.944,0.01453
4.948,0.00303
4.952,0.01019
4.956,0.00541
4.96,0.00354
4.964,0.01853
4.968,0.0103
4.972,0.02381
4.976,-0.00667
4.98,0.01856
4.984,0.00964
4.988,0.02938
4.992,-0.00066
4.996,0.00363
5.0,-0.01089
5.004,0.00107
5.008,-0.02398
5.012,0.00947
5.016,0.02059
5.02,0.01493
5.024,0.03786
5.028,0.04389
5.032,0.03362
5.036,0.05035
5.04,0.08261
5.044,0.08409
5.048,0.10461
5.052,0.09085
5.056,0.09443
5.06,0.10855
5.064,0.08747
5.068,0.12729
5.072,0.09462
5.076,0.06276
5.08,0.07248
5.084,0.06153
5.088,0.06317
5.092,0.01267
5.096,0.01482
5.1,0.01468
5.104,-0.00459
5.108,0.01758
5.112,0.01615
5.116,0.02065
5.12,-0.00077
5.124,0.02095
5.128,-0.00879
5.132,-0.00264
5.136,0.01835
5.14,0.00914
5.144,0.03362
5.148,0.00693
5.152,-0.00859
5.156,0.01132
5.16,0.00504
5.164,-0.00392
5.168,-0.02878
5.172,-0.02071
5.176,-0.02804
5.18,-0.07106
5.184,-0.13086
5.188,-0.11352
5.192,-0.04604
5.196,0.04742
5.2,0.1935
5.204,0.42963
5.208,0.60478
5.212,0.81574
5.216,0.97135
5.22,0.99256
5.224,0.91177
5.228,0.74068
5.232,0.52691
5.236,0.32883
5.24,0.09292
5.244,-0.04767
5.248,-0.14795
5.252,-0.14706
5.256,-0.15196
5.26,-0.10961
5.264,-0.0641
5.268,-0.04724
5.272,0.01277
5.276,0.00403
5.28,0.01507
5.284,-0.02525
5.288,0.01228
5.292,-0.0128
5.296,0.01524
5.3,-0.01525
5.304,0.03306
5.308,0.00663
5.312,0.01504
5.316,-0.00165
5.32,0.02508
5.324,0.02554
5.328,0.00153
5.332,-0.00735
5.336,-0.01825
5.34,-0.02705
5.344,0.01533
5.348,0.02446
5.352,0.01049
5.356,-0.00251
5.36,-0.00943
5.364,-0.00147
5.368,0.00429
5.372,-0.00875
5.376,0.03432
5.38,0.00746
5.384,-0.01712
5.388,0.01783
5.392,0.01825
5.396,0.00684
5.4,0.02452
5.404,-0.01787
5.408,0.03416
5.412,0.03365
5.416,0.05411
5.42,0.04997
5.424,0.03722
5.428,0.04694
5.432,0.10529
5.436,0.05891
5.44,0.05971
5.444,0.09638
5.448,0.09537
5.452,0.10331
5.456,0.14694
5.46,0.14431
5.464,0.16273
5.468,0.16721
5.472,0.17807
5.476,0.21432
5.48,0.21366
5.484,0.22303
5.488,0.21348
5.492,0.21549
5.496,0.20191
5.5,0.21731
5.504,0.22288
5.508,0.19405
5.512,0.22708
5.516,0.18207
5.52,0.20053
5.524,0.1683
5.528,0.1886
5.532,0.16887
5.536,0.16958
5.54,0.14797
5.544,0.15502
5.548,0.13775
5.552,0.0904
5.556,0.07541
5.56,0.06837
5.564,0.08687
5.568,0.05173
5.572,0.06938
5.576,0.01861
5.58,0.03618
5.584,0.03188
5.588,0.02497
5.592,0.00264
5.596,0.016
5.6,0.01907
5.604,-0.00349
5.608,0.00758
5.612,-0.01361
5.616,-0.00438
5.62,0.02255
5.624,-0.012
5.628,-0.00466
5.632,0.0001
5.636,-0.01567
5.64,0.00607
5.644,-0.02549
5.648,-0.00352
5.652,-0.01679
5.656,-0.01263
5.66,0.00247
5.664,-0.01498
5.668,-0.0012
5.672,-0.01567
5.676,-0.02302
5.68,0.00301
5.684,-0.02412
5.688,0.00377
5.692,-0.01778
5.696,0.00143
5.7,0.00491
5.704,-0.01061
5.708,0.00381
5.712,-0.02461
5.716,-0.0259
5.72,-0.01595
5.724,-0.00321
5.728,-0.02776
5.732,-0.01998
5.736,-0.02639
5.74,-0.02114
5.744,-0.01984
5.748,-0.03093
5.752,0.00391
5.756,-0.0048
5.76,-0.00958
5.764,-0.00319
5.768,-0.02354
5.772,-0.03983
5.776,-0.01909
5.78,0.01591
5.784,-0.00824
5.788,-0.00575
5.792,-0.00898
5.796,-0.03411
5.8,-0.00148
5.804,-0.00289
5.808,-0.03256
5.812,-0.00788
5.816,-0.03401
5.82,-0.02513
5.824,-0.02587
5.828,-0.02046
5.832,0.00964
5.836,-0.01967
5.84,-0.01869
5.844,-0.00979
5.848,3e-05
5.852,0.00114
5.856,-0.02946
5.86,-0.01436
5.864,-0.0128
5.868,-0.04044
5.872,-0.01365
5.876,-0.04713
5.88,-0.02066
5.884,-0.00359
5.888,-0.01013
5.892,0.00532
5.896,-0.00516
5.9,-0.00491
5.904,0.00033
5.908,-0.01311
5.912,-0.00522
5.916,0.01789
5.92,0.01896
5.924,0.00222
5.928,0.06194
5.932,0.06297
5.936,0.08546
5.94,0.09575
5.944,0.06908
5.948,0.07486
5.952,0.08869
5.956,0.05211
5.96,0.10063
5.964,0.05312
5.968,0.03765
5.972,0.0468
5.976,0.03045
5.98,0.0251
5.984,-0.00363
5.988,-0.01448
5.992,-0.00973
5.996,-0.01376
6.0,-0.02882
6.004,-0.00811
6.008,-0.00791
6.012,-0.00814
6.016,-0.02166
6.02,-0.00842
6.024,-0.02371
6.028,-0.03298
6.032,-0.01936
6.036,-0.01436
6.04,-0.01442
6.044,-0.00685
6.048,0.01874
6.052,-0.01469
6.056,-0.04086
6.06,-0.04255
6.064,-0.04833
6.068,-0.1029
6.072,-0.11392
6.076,-0.142
6.08,-0.10412
6.084,-0.01169
6.088,0.1697
6.092,0.37062
6.096,0.59846
6.1,0.78566
6.104,0.92925
6.108,0.97128
6.112,0.91602
6.116,0.73372
6.12,0.53992
6.124,0.28083
6.128,0.07677
6.132,-0.05419
6.136,-0.16771
6.14,-0.18656
6.144,-0.19214
6.148,-0.13476
6.152,-0.0795
6.156,-0.07869
6.16,-0.02427
6.164,-0.02061
6.168,-0.03363
6.172,-0.01769
6.176,-0.03292
6.18,-0.00877
6.184,-0.01561
6.188,-0.01257
6.192,-0.03014
6.196,-0.02489
6.2,-0.03539
6.204,-0.01333
6.208,0.00427
6.212,-0.02166
6.216,0.00743
6.22,0.00127
6.224,-0.02851
6.228,-0.00725
6.232,-0.0286
6.236,-0.00453
6.24,-0.01509
6.244,-0.00753
6.248,-0.03156
6.252,-0.01523
6.256,0.00667
6.26,-0.01925
6.264,-0.00563
6.268,-0.00689
6.272,-0.01818
6.276,-0.03402
6.28,-0.02114
6.284,0.00303
6.288,-0.04445
6.292,-0.00619
6.296,-0.00126
6.3,0.02814
6.304,-0.004
6.308,0.03232
6.312,0.02138
6.316,0.04797
6.32,0.04706
6.324,0.06044
6.328,0.04744
6.332,0.07727
6.336,0.06458
6.34,0.10158
6.344,0.09114
6.348,0.13189
6.352,0.12737
6.356,0.16027
6.36,0.13461
6.364,0.18812
6.368,0.15356
6.372,0.16958
6.376,0.20149
6.38,0.21179
6.384,0.20305
6.388,0.18898
6.392,0.19136
6.396,0.17541
6.4,0.16507
6.404,0.18648
6.408,0.15613
6.412,0.17252
6.416,0.16519
6.42,0.14681
6.424,0.10555
6.428,0.12154
6.432,0.10383
6.436,0.09007
6.44,0.08697
6.444,0.07418
6.448,0.03963
6.452,0.04412
6.456,0.01886
6.46,0.03556
6.464,0.01834
6.468,0.05118
6.472,0.00871
6.476,-0.00537
6.48,0.00509
6.484,0.00181
6.488,0.00499
6.492,-0.01254
6.496,-0.01947
6.5,-0.02457
6.504,0.00055
6.508,-0.01623
6.512,0.00586
6.516,-0.04931
6.52,-0.0061
6.524,-0.05492
6.528,-0.03669
6.532,-0.02751
6.536,-0.03061
6.54,-0.01889
6.544,-0.02575
6.548,-0.03265
6.552,-0.03836
6.556,-0.01575
6.56,-0.03379
6.564,-0.01254
6.568,-0.0478
6.572,-0.02792
6.576,-0.00874
6.58,-0.03722
6.584,0.01031
6.588,-0.0383
6.592,0.01866
6.596,-0.03935
6.6,-0.01636
6.604,-0.03571
6.608,-0.03506
6.612,-0.03934
6.616,-0.04871
6.62,-0.03173
6.624,-0.0129
6.628,-0.03883
6.632,-0.03513
6.636,-0.02923
6.64,-0.00087
6.644,-0.02686
6.648,-0.02553
6.652,-0.01688
6.656,-0.02827
6.66,-0.03596
6.664,-0.0232
6.668,-0.03518
6.672,-0.03207
6.676,-0.03915
6.68,-0.04402
6.684,-0.0429
6.688,-0.00502
6.692,-0.00767
6.696,-0.02358
6.7,-0.01964
6.704,0.00823
6.708,-0.02313
6.712,-0.0017
6.716,0.00672
6.72,0.02818
6.724,0.05427
6.728,0.04618
6.732,0.0875
6.736,0.07946
6.74,0.07968
6.744,0.08703
6.748,0.06258
6.752,0.03579
6.756,0.05611
6.76,0.06156
6.764,0.00625
6.768,0.01434
6.772,-0.00145
6.776,-0.02324
6.78,-0.0177
6.784,-0.02158
6.788,-0.01685
6.792,-0.02337
6.796,-0.02142
6.8,-0.02769
6.804,-0.01233
6.808,-0.03298
6.812,-0.05109
6.816,-0.02454
6.82,-0.04897
6.824,-0.03589
6.828,-0.03832
6.832,-0.02226
6.836,-0.02268
6.84,-0.02076
6.844,-0.00286
6.848,-0.02059
6.852,-0.02855
6.856,-0.03678
6.86,-0.06418
6.864,-0.12023
6.868,-0.13348
6.872,-0.1483
6.876,-0.07611
6.88,0.09158
6.884,0.26108
6.888,0.48241
6.892,0.6963
6.896,0.87596
6.9,0.97299
6.904,0.95893
6.908,0.8242
6.912,0.64623
6.916,0.4181
6.92,0.16664
6.924,0.00478
6.928,-0.12086
6.932,-0.20665
6.936,-0.1857
6.94,-0.15116
6.944,-0.09318
6.948,-0.0704
6.952,-0.00334
6.956,-0.03851
6.96,-0.02483
6.964,-0.02774
6.968,-0.02395
6.972,-0.03889
6.976,-0.02636
6.98,-0.03766
6.984,-0.04822
6.988,-0.04465
6.992,-0.0167
6.996,-0.03504
7.0,-0.00716
7.004,-0.02182
7.008,-0.04015
7.012,-0.02965
7.016,-0.03094
7.02,-0.04769
7.024,0.00012
7.028,-0.03112
7.032,-0.05766
7.036,-0.0329
7.04,-0.02305
7.044,-0.04453
7.048,-0.05743
7.052,-0.02739
7.056,-0.01585
7.06,-0.02256
7.064,-0.02324
7.068,-0.03741
7.072,-0.03141
7.076,-0.00676
7.08,0.02056
7.084,-0.00047
7.088,-0.00414
7.092,0.01164
7.096,0.00548
7.1,0.01159
7.104,0.02387
7.108,0.03211
7.112,0.03062
7.116,0.04695
7.12,0.07625
7.124,0.06376
7.128,0.08093
7.132,0.06607
7.136,0.09458
7.14,0.12253
7.144,0.12869
7.148,0.13716
7.152,0.16051
7.156,0.16927
7.16,0.16061
7.164,0.19266
7.168,0.17056
7.172,0.19177
7.176,0.19651
7.18,0.18178
7.184,0.17808
7.188,0.20507
7.192,0.18441
7.196,0.19396
7.2,0.1794
7.204,0.19133
7.208,0.12306
7.212,0.14181
7.216,0.13219
7.22,0.11226
7.224,0.11887
7.228,0.09195
7.232,0.11135
7.236,0.07192
7.24,0.07606
7.244,0.05278
7.248,0.05578
7.252,0.03307
7.256,0.00918
7.26,0.00666
7.264,-0.01555
7.268,0.01027
7.272,0.0102
7.276,0.03237
7.28,0.00287
7.284,-0.03246
7.288,-0.02633
7.292,0.00233
7.296,-0.03837
7.3,-0.00169
7.304,-0.03734
7.308,-0.03743
7.312,-0.02484
7.316,-0.01909
7.32,-0.05427
7.324,-0.03244
7.328,-0.02098
7.332,-0.03872
7.336,-0.01265
7.34,-0.04198
7.344,-0.03927
7.348,-0.02252
7.352,-0.01158
7.356,-0.01384
7.36,-0.04536
7.364,-0.04581
7.368,-0.01308
7.372,-0.03833
7.376,-0.00705
7.38,-0.0398
7.384,-0.00442
7.388,-0.02449
7.392,0.00295
7.396,-0.04048
7.4,-0.01229
7.404,-0.05754
7.408,-0.02666
7.412,-0.03959
7.416,-0.00884
7.42,-0.03935
7.424,-0.03147
7.428,-0.01666
7.432,-0.03508
7.436,-0.02692
7.44,-0.00808
7.444,-0.0141
7.448,-0.03175
7.452,-0.02086
7.456,-0.00815
7.46,-0.00205
7.464,-0.00452
7.468,-0.01703
7.472,-0.0276
7.476,-0.03693
7.48,-0.01408
7.484,-0.05129
7.488,-0.02123
7.492,-0.01008
7.496,-0.03572
7.5,-0.03447
7.504,-0.03066
7.508,0.01479
7.512,-0.02841
7.516,-0.03419
7.52,-0.03237
7.524,-0.0461
7.528,0.00486
7.532,-0.01245
7.536,0.00483
7.54,-0.03184
7.544,-0.01789
7.548,-0.02149
7.552,-0.03333
7.556,-0.03802
7.56,-0.02549
7.564,0.01181
7.568,-0.00563
7.572,0.01637
7.576,0.06233
7.58,0.01765
7.584,0.05987
7.588,0.04638
7.592,0.06284
7.596,0.07526
7.6,0.06738
7.604,0.08102
7.608,0.07553
7.612,0.06676
7.616,0.06225
7.62,0.0442
7.624,0.00969
7.628,-0.00275
7.632,-0.00641
7.636,0.00224
7.64,0.00689
7.644,-0.01147
7.648,-0.02482
7.652,-0.0288
7.656,-0.00825
7.66,-0.00784
7.664,-0.03303
7.668,-0.02359
7.672,-0.03802
7.676,-0.01718
7.68,-0.0013
7.684,-0.02664
7.688,-0.02873
7.692,-0.01216
7.696,-0.00947
7.7,-0.02004
7.704,-0.02776
7.708,-0.03883
7.712,-0.02851
7.716,-0.0819
7.72,-0.1143
7.724,-0.12833
7.728,-0.14552
7.732,-0.07081
7.736,0.07216
7.74,0.23098
7.744,0.42384
7.748,0.62736
7.752,0.84874
7.756,0.97727
7.76,0.95832
7.764,0.86222
7.768,0.71985
7.772,0.46614
7.776,0.22413
7.78,0.03707
7.784,-0.07602
7.788,-0.16911
7.792,-0.19077
7.796,-0.15672
7.8,-0.13637
7.804,-0.06496
7.808,-0.0949
7.812,-0.02814
7.816,0.00352
7.82,-0.01367
7.824,-0.00602
7.828,-0.0204
7.832,-0.01637
7.836,-0.02787
7.84,-0.03871
7.844,-0.03374
7.848,-0.00686
7.852,-0.02945
7.856,-0.00121
7.86,0.0025
7.864,-0.01638
7.868,-0.00811
7.872,-0.01222
7.876,-0.01107
7.88,-0.02782
7.884,-0.00908
7.888,-0.01014
7.892,-0.04716
7.896,-0.00818
7.9,-0.01737
7.904,-0.0144
7.908,-0.02436
7.912,-0.00971
7.916,-0.03653
7.92,-0.02088
7.924,-0.00514
7.928,0.00057
7.932,0.01241
7.936,-0.02571
7.94,-0.01416
7.944,0.00043
7.948,0.01141
7.952,0.02053
7.956,0.04294
7.96,0.01947
7.964,0.03893
7.968,0.06889
7.972,0.04731
7.976,0.04369
7.98,0.06287
7.984,0.04629
7.988,0.08898
7.992,0.12563
7.996,0.11104
8.0,0.11397
8.004,0.15013
8.008,0.15711
8.012,0.16301
8.016,0.19487
8.02,0.20131
8.024,0.18955
8.028,0.18717
8.032,0.19359
8.036,0.198
8.04,0.17883
8.044,0.18537
8.048,0.2132
8.052,0.19045
8.056,0.18156
8.06,0.18214
8.064,0.1785
8.068,0.14961
8.072,0.17318
8.076,0.14293
8.08,0.13327
8.084,0.11493
8.088,0.11278
8.092,0.12513
8.096,0.0861
8.1,0.0614
8.104,0.06532
8.108,0.04059
8.112,0.06669
8.116,-0.00679
8.12,0.02089
8.124,-0.00165
8.128,0.00559
8.132,0.02943
8.136,0.00626
8.14,0.00653
8.144,0.02051
8.148,-0.03426
8.152,-0.01601
8.156,-0.01554
8.16,-0.02303
8.164,0.00018
8.168,-0.00387
8.172,-0.00198
8.176,-0.03067
8.18,0.01055
8.184,-0.01092
8.188,-0.02051
8.192,0.00971
8.196,-0.01247
8.2,-0.00556
8.204,-0.02696
8.208,0.00308
8.212,-0.0049
8.216,-0.01659
8.22,-0.01443
8.224,-0.00341
8.228,0.01568
8.232,-0.01197
8.236,0.0171
8.24,-0.01312
8.244,-0.00901
8.248,-0.02012
8.252,-0.00981
8.256,0.00566
8.26,0.02388
8.264,0.04636
8.268,0.04346
8.272,0.03131
8.276,0.05402
8.28,0.0724
8.284,0.0803
8.288,0.08837
8.292,0.09826
8.296,0.07674
8.3,0.10193
8.304,0.07064
8.308,0.10998
8.312,0.03778
8.316,0.00743
8.32,0.03619
8.324,0.01031
8.328,-0.00698
8.332,0.00448
8.336,-0.02891
8.34,-0.03651
8.344,0.0002
8.348,0.00167
8.352,-0.02593
8.356,-0.00436
8.36,0.00463
8.364,-0.03325
8.368,-0.0168
8.372,-0.02589
8.376,-0.00551
8.38,0.0201
8.384,0.01824
8.388,0.03193
8.392,-0.02962
8.396,-0.01217
8.4,-0.01198
8.404,-0.01596
8.408,-0.03969
8.412,-0.08192
8.416,-0.11781
8.42,-0.13307
8.424,-0.1036
8.428,0.01481
8.432,0.16616
8.436,0.36516
8.44,0.59197
8.444,0.77568
8.448,0.94316
8.452,0.99785
8.456,0.93148
8.46,0.80903
8.464,0.58135
8.468,0.34982
8.472,0.14021
8.476,-0.02015
8.48,-0.14432
8.484,-0.19732
8.488,-0.16694
8.492,-0.11569
8.496,-0.05035
8.5,-0.03809
8.504,-0.01069
8.508,-0.01338
8.512,-0.00373
8.516,0.00369
8.52,0.01234
8.524,0.02449
8.528,-0.01203
8.532,-0.02585
8.536,-0.0186
8.54,-0.01167
8.544,-0.00425
8.548,-0.02656
8.552,0.01806
8.556,-0.0103
8.56,0.00308
8.564,-0.00532
8.568,0.02115
8.572,-0.01201
8.576,0.01752
8.58,-0.01281
8.584,-0.01348
8.588,-0.01259
8.592,0.00334
8.596,0.00285
8.6,-0.01527
8.604,0.01869
8.608,0.00829
8.612,0.0103
8.616,-0.00496
8.62,0.00406
8.624,-0.01352
8.628,-0.00421
8.632,-0.00231
8.636,0.01465
8.64,0.00681
8.644,0.02121
8.648,0.05768
8.652,0.02438
8.656,0.05754
8.66,0.05903
8.664,0.06492
8.668,0.08475
8.672,0.09384
8.676,0.09683
8.68,0.10823
8.684,0.12867
8.688,0.12947
8.692,0.15648
8.696,0.19536
8.7,0.17858
8.704,0.20496
8.708,0.20369
8.712,0.2122
8.716,0.21785
8.72,0.22567
8.724,0.22903
8.728,0.20822
8.732,0.21805
8.736,0.22134
8.74,0.21725
8.744,0.21443
8.748,0.20345
8.752,0.21622
8.756,0.20452
8.76,0.18466
8.764,0.16499
8.768,0.16174
8.772,0.14963
8.776,0.15365
8.78,0.11352
8.784,0.10185
8.788,0.11532
8.792,0.09874
8.796,0.05859
8.8,0.07725
8.804,0.08152
8.808,0.04034
8.812,0.05901
8.816,0.04415
8.82,0.01917
8.824,0.05365
8.828,0.02314
8.832,0.02874
8.836,0.00206
8.84,0.03146
8.844,0.00739
8.848,0.03293
8.852,0.01229
8.856,0.01306
8.86,0.04411
8.864,0.01253
8.868,0.05159
8.872,0.01246
8.876,0.00473
8.88,0.00756
8.884,0.01092
8.888,0.00876
8.892,-0.02756
8.896,0.01966
8.9,0.00529
8.904,-0.01377
8.908,0.009
8.912,0.01292
8.916,-0.01011
8.92,0.00583
8.924,0.02391
8.928,0.0298
8.932,0.00214
8.936,0.00645
8.94,0.00963
8.944,0.01704
8.948,0.0016
8.952,-0.00235
8.956,-0.01033
8.96,0.00367
8.964,0.02491
8.968,-0.00523
8.972,0.01724
8.976,0.00288
8.98,0.01341
8.984,0.03852
8.988,0.02712
8.992,-0.00515
8.996,0.02374
9.0,0.01508
9.004,0.01203
9.008,0.02061
9.012,-0.00256
9.016,-0.00568
9.02,0.02421
9.024,-0.0253
9.028,-0.00021
9.032,0.00826
9.036,0.04737
9.04,0.00241
9.044,0.01007
9.048,-0.02166
9.052,0.01398
9.056,0.00266
9.06,0.01039
9.064,0.02105
9.068,0.026
9.072,0.02255
9.076,-0.00194
9.08,0.02586
9.084,-0.00853
9.088,0.03873
9.092,0.04899
9.096,0.01485
9.1,-0.01858
9.104,-0.0055
9.108,-0.00199
9.112,-0.03221
9.116,0.00734
9.12,0.01948
9.124,0.02543
9.128,0.01897
9.132,-0.00338
9.136,0.01024
9.14,-0.02008
9.144,0.01884
9.148,0.00205
9.152,-0.01693
9.156,-0.01019
9.16,0.00563
9.164,0.03159
9.168,0.05159
9.172,0.02258
9.176,0.05812
9.18,0.06524
9.184,0.04784
9.188,0.04094
9.192,0.09267
9.196,0.117
9.2,0.10535
9.204,0.11619
9.208,0.12282
9.212,0.13494
9.216,0.08723
9.22,0.10922
9.224,0.10936
9.228,0.06527
9.232,0.09086
9.236,0.05151
9.24,0.06855
9.244,0.06558
9.248,0.04702
9.252,0.05114
9.256,-0.01152
9.26,0.01425
9.264,0.02991
9.268,0.03383
9.272,0.02849
9.276,0.02055
9.28,-0.00649
9.284,0.03405
9.288,-0.01154
9.292,0.03622
9.296,0.0244
9.3,0.02131
9.304,0.01985
9.308,0.0166
9.312,0.04122
9.316,0.01614
9.32,0.01
9.324,0.00291
9.328,-0.03794
9.332,-0.04606
9.336,-0.0824
9.34,-0.10121
9.344,-0.03276
9.348,0.06904
9.352,0.27053
9.356,0.49189
9.36,0.71166
9.364,0.88849
9.368,1.0086
9.372,1.00068
9.376,0.91196
9.38,0.70167
9.384,0.5012
9.388,0.26249
9.392,0.09378
9.396,-0.04996
9.4,-0.12848
9.404,-0.13491
9.408,-0.11887
9.412,-0.08243
9.416,-0.03301
9.42,0.00884
9.424,0.03288
9.428,0.01735
9.432,0.02485
9.436,0.02506
9.44,0.02035
9.444,0.02569
9.448,0.0273
9.452,0.01339
9.456,0.02085
9.46,0.03775
9.464,0.01947
9.468,0.03197
9.472,-0.0037
9.476,-0.0117
9.48,0.03209
9.484,0.00774
9.488,0.03779
9.492,0.02212
9.496,0.00803
9.5,0.02545
9.504,-0.00077
9.508,0.00618
9.512,0.02497
9.516,0.01873
9.52,0.03594
9.524,0.03806
9.528,0.01987
9.532,0.03638
9.536,0.04313
9.54,0.06055
9.544,0.03764
9.548,0.00531
9.552,0.05214
9.556,0.01936
9.56,0.03374
9.564,0.06462
9.568,0.06449
9.572,0.0777
9.576,0.07172
9.58,0.08505
9.584,0.10755
9.588,0.0862
9.592,0.11138
9.596,0.11852
9.6,0.12383
9.604,0.11104
9.608,0.1923
9.612,0.16555
9.616,0.18539
9.62,0.22047
9.624,0.2233
9.628,0.22994
9.632,0.21618
9.636,0.24589
9.64,0.25376
9.644,0.2174
9.648,0.24293
9.652,0.25318
9.656,0.23162
9.66,0.18862
9.664,0.2407
9.668,0.24869
9.672,0.22456
9.676,0.2242
9.68,0.16374
9.684,0.18763
9.688,0.18694
9.692,0.17255
9.696,0.13102
9.7,0.14203
9.704,0.14469
9.708,0.10367
9.712,0.09934
9.716,0.09997
9.72,0.09559
9.724,0.05805
9.728,0.08939
9.732,0.06347
9.736,0.06468
9.74,0.05571
9.744,0.02657
9.748,0.03169
9.752,0.03369
9.756,0.0329
9.76,0.01877
9.764,0.05124
9.768,0.01114
9.772,0.03151
9.776,0.04059
9.78,0.05837
9.784,0.03083
9.788,0.04261
9.792,0.00052
9.796,0.02322
9.8,0.02383
9.804,0.02742
9.808,0.02011
9.812,0.03032
9.816,0.02972
9.82,0.01299
9.824,0.02351
9.828,0.03163
9.832,0.05632
9.836,0.03493
9.84,0.02374
9.844,0.0084
9.848,0.02621
9.852,0.00929
9.856,0.03417
9.86,0.03169
9.864,0.04754
9.868,0.04609
9.872,0.04048
9.876,0.03116
9.88,0.01663
9.884,0.0267
9.888,0.03052
9.892,0.03641
9.896,0.02756
9.9,-0.01124
9.904,0.01147
9.908,0.03801
9.912,0.01379
9.916,-0.01649
9.92,0.02065
9.924,0.03136
9.928,0.01258
9.932,-0.00146
9.936,0.0508
9.94,0.01922
9.944,0.0106
9.948,0.04524
9.952,0.03965
9.956,-0.00619
9.96,0.04402
9.964,0.04291
9.968,0.04461
9.972,0.02197
9.976,0.02597
9.98,0.02497
9.984,0.01763
9.988,0.02192
9.992,0.04139
9.996,0.04807
