t_seg,ecg_mV
0.0,-0.05538
0.004,0.0332
0.008,-0.0015
0.012,-0.00659
0.016,-0.05496
0.02,-0.06858
0.024,-0.00265
0.028,-0.02951
0.032,0.0078
0.036,-0.03914
0.04,-0.01995
0.044,-0.06768
0.048,-0.06045
0.052,-0.02473
0.056,-0.07985
0.06,-0.13255
0.064,-0.10822
0.068,-0.13597
0.072,-0.05078
0.076,0.11754
0.08,0.16124
0.084,0.45741
0.088,0.61486
0.092,0.84581
0.096,0.91943
0.1,0.96499
0.104,0.84945
0.108,0.65347
0.112,0.49354
0.116,0.23734
0.12,0.03079
0.124,-0.08101
0.128,-0.14429
0.132,-0.12157
0.136,-0.1584
0.14,-0.16292
0.144,-0.10964
0.148,0.00499
0.152,-0.04633
0.156,0.00757
0.16,-0.02511
0.164,-0.00717
0.168,-0.06158
0.172,0.0287
0.176,-0.04002
0.18,-0.04198
0.184,-0.04398
0.188,-0.07035
0.192,-0.01589
0.196,0.00474
0.2,0.02366
0.204,-0.01418
0.208,-0.0374
0.212,-0.0314
0.216,-0.06768
0.22,-0.05659
0.224,-0.04913
0.228,-0.02461
0.232,0.0178
0.236,0.01748
0.24,0.02035
0.244,-0.01373
0.248,-0.0238
0.252,-0.07514
0.256,-0.12706
0.26,-0.01484
0.264,-0.08572
0.268,-0.03776
0.272,-0.01834
0.276,-0.03122
0.28,-0.01671
0.284,0.00104
0.288,0.07501
0.292,0.01128
0.296,0.0116
0.3,-0.01777
0.304,0.029
0.308,-0.00379
0.312,0.07708
0.316,0.05925
0.32,0.10659
0.324,0.10802
0.328,0.02866
0.332,0.12019
0.336,0.14391
0.34,0.12983
0.344,0.21186
0.348,0.14611
0.352,0.14172
0.356,0.09342
0.36,0.16032
0.364,0.18032
0.368,0.22245
0.372,0.12721
0.376,0.19903
0.38,0.19146
0.384,0.20428
0.388,0.21793
0.392,0.21318
0.396,0.17586
0.4,0.15494
0.404,0.18376
0.408,0.19658
0.412,0.12322
0.416,0.16579
0.42,0.20226
0.424,0.04931
0.428,0.14031
0.432,0.0882
0.436,0.05439
0.44,0.05904
0.444,0.04064
0.448,0.0049
0.452,0.02721
0.456,0.01873
0.46,-0.01644
0.464,-0.01734
0.468,-0.02928
0.472,-0.00188
0.476,0.03814
0.48,0.01708
0.484,-0.05292
0.488,-0.01875
0.492,0.06587
0.496,-0.00592
0.5,-0.0156
0.504,-0.06897
0.508,0.0219
0.512,-0.02547
0.516,0.01372
0.52,0.0303
0.524,-0.0988
0.528,-0.03035
0.532,-0.04965
0.536,0.04913
0.54,0.00943
0.544,-0.00811
0.548,-0.03192
0.552,-0.00885
0.556,-0.04375
0.56,-0.01522
0.564,-0.07416
0.568,-0.00566
0.572,-0.00319
0.576,-0.01564
0.58,0.01281
0.584,-0.00267
0.588,-0.03531
0.592,-0.02113
0.596,-0.00805
0.6,-0.00597
0.604,0.0518
0.608,0.05775
0.612,0.1328
0.616,0.06928
0.62,0.0419
0.624,0.08068
0.628,0.09053
0.632,0.02669
0.636,0.08595
0.64,0.03026
0.644,-0.01414
0.648,0.045
0.652,-0.05255
0.656,-0.02088
0.66,0.03116
0.664,0.04058
0.668,0.01712
0.672,-0.01398
0.676,-0.03419
0.68,-0.06835
0.684,-0.01979
0.688,0.02641
0.692,0.00967
0.696,-0.00524
0.7,-0.01553
0.704,-0.01599
0.708,-0.03267
0.712,-0.03055
0.716,-0.05405
0.72,-0.03681
0.724,-0.06355
0.728,-0.03086
0.732,0.01206
0.736,-0.04219
0.74,-0.07784
0.744,-0.16912
0.748,-0.14369
0.752,-0.09533
0.756,-0.00188
0.76,0.24067
0.764,0.39392
0.768,0.66073
0.772,0.83333
0.776,0.94171
0.78,1.00188
0.784,0.92635
0.788,0.74149
0.792,0.54635
0.796,0.30588
0.8,0.06547
0.804,-0.12694
0.808,-0.15894
0.812,-0.21008
0.816,-0.19009
0.82,-0.09291
0.824,-0.03862
0.828,-0.09292
0.832,-0.02823
0.836,0.01386
0.84,-0.0249
0.844,-0.01355
0.848,-0.05555
0.852,0.01915
0.856,-0.01363
0.86,-0.06042
0.864,0.00303
0.868,-0.02029
0.872,-0.03495
0.876,0.03497
0.88,0.02899
0.884,0.02201
0.888,0.00813
0.892,-0.01542
0.896,-0.08349
0.9,0.01991
0.904,-0.00125
0.908,-0.03048
0.912,0.0234
0.916,-0.05968
0.92,0.032
0.924,-0.04118
0.928,-0.01973
0.932,-0.02653
0.936,0.03214
0.94,-0.05101
0.944,0.03399
0.948,-0.03193
0.952,0.00427
0.956,0.07185
0.96,0.0012
0.964,0.02815
0.968,0.03781
0.972,0.0279
0.976,0.06062
0.98,0.02029
0.984,0.04263
0.988,0.15721
0.992,0.10498
0.996,0.06027
1.0,0.09377
1.004,0.09606
1.008,0.15444
1.012,0.14463
1.016,0.17275
1.02,0.09979
1.024,0.13773
1.028,0.17628
1.032,0.17638
1.036,0.18088
1.04,0.22038
1.044,0.20044
1.048,0.18998
1.052,0.15706
1.056,0.18244
1.06,0.20088
1.064,0.18241
1.068,0.23157
1.072,0.20169
1.076,0.17887
1.08,0.19045
1.084,0.22575
1.088,0.20192
1.092,0.26726
1.096,0.14992
1.1,0.1564
1.104,0.17038
1.108,0.22377
1.112,0.21529
1.116,0.18669
1.12,0.15998
1.124,0.10913
1.128,0.14759
1.132,0.11922
1.136,0.1041
1.14,0.08237
1.144,0.0137
1.148,0.08471
1.152,0.08658
1.156,0.02216
1.16,0.03932
1.164,-0.01497
1.168,0.00436
1.172,0.03725
1.176,-0.01286
1.18,0.04321
1.184,-0.05806
1.188,0.04398
1.192,-0.11663
1.196,-0.00173
1.2,-0.06016
1.204,0.06325
1.208,0.04486
1.212,0.01457
1.216,-0.00588
1.22,-0.02552
1.224,0.03695
1.228,0.03225
1.232,-0.0467
1.236,-0.10764
1.24,-0.07908
1.244,-0.06384
1.248,-0.10083
1.252,0.01586
1.256,0.14492
1.26,0.37836
1.264,0.53717
1.268,0.75033
1.272,0.83879
1.276,1.00775
1.28,0.97493
1.284,0.78607
1.288,0.64049
1.292,0.39344
1.296,0.19731
1.3,-0.01157
1.304,-0.11797
1.308,-0.15217
1.312,-0.17729
1.316,-0.11551
1.32,-0.03293
1.324,-0.06623
1.328,-0.0285
1.332,-0.04735
1.336,0.01791
1.34,0.03051
1.344,0.02738
1.348,-0.01969
1.352,0.00081
1.356,-0.00988
1.36,-0.03545
1.364,-0.03918
1.368,-0.02334
1.372,-0.0452
1.376,0.06549
1.38,-0.01153
1.384,-0.01652
1.388,0.00036
1.392,-0.00754
1.396,-0.01875
1.4,-0.05782
1.404,-0.0413
1.408,-0.03915
1.412,0.06778
1.416,-0.02367
1.42,-0.02898
1.424,0.02455
1.428,0.00533
1.432,-0.06651
1.436,0.00859
1.44,-0.02722
1.444,0.03428
1.448,0.0394
1.452,0.00916
1.456,-0.03334
1.46,0.05454
1.464,0.03523
1.468,0.02666
1.472,0.02706
1.476,-0.03774
1.48,0.02224
1.484,0.01744
1.488,0.16001
1.492,0.07238
1.496,0.12228
1.5,0.0363
1.504,0.12264
1.508,0.06871
1.512,0.15502
1.516,0.18714
1.52,0.14255
1.524,0.16275
1.528,0.21428
1.532,0.17002
1.536,0.16079
1.54,0.24279
1.544,0.19823
1.548,0.21264
1.552,0.24998
1.556,0.13152
1.56,0.25147
1.564,0.30171
1.568,0.23761
1.572,0.1953
1.576,0.1527
1.58,0.15602
1.584,0.1552
1.588,0.18514
1.592,0.15488
1.596,0.13682
1.6,0.15908
1.604,0.19391
1.608,0.14978
1.612,0.18895
1.616,0.06244
1.62,0.05552
1.624,0.035
1.628,0.06286
1.632,0.01867
1.636,0.09125
1.64,0.03998
1.644,0.03091
1.648,0.02593
1.652,0.09637
1.656,0.00924
1.66,-0.00625
1.664,0.09153
1.668,0.07152
1.672,0.06384
1.676,-0.00953
1.68,0.00506
1.684,0.00065
1.688,0.02164
1.692,0.06547
1.696,0.02986
1.7,0.14703
1.704,0.03612
1.708,0.09274
1.712,0.12283
1.716,0.11144
1.72,0.12569
1.724,0.04713
1.728,0.09365
1.732,0.06897
1.736,0.09583
1.74,0.06885
1.744,0.03568
1.748,0.09368
1.752,0.00582
1.756,0.01897
1.76,-0.03888
1.764,-0.05124
1.768,-0.02248
1.772,0.02651
1.776,0.07063
1.78,0.03639
1.784,0.0733
1.788,-0.03485
1.792,0.04585
1.796,0.05109
1.8,0.04412
1.804,-0.00064
1.808,0.02175
1.812,-0.02885
1.816,0.03899
1.82,-0.05108
1.824,0.03617
1.828,-0.03795
1.832,0.03123
1.836,-0.01437
1.84,-0.039
1.844,-0.09866
1.848,-0.10205
1.852,-0.0353
1.856,0.06299
1.86,0.27442
1.864,0.39031
1.868,0.63265
1.872,0.83481
1.876,0.95035
1.88,1.05697
1.884,0.9465
1.888,0.71693
1.892,0.53894
1.896,0.30833
1.9,0.16488
1.904,0.01747
1.908,-0.05335
1.912,-0.21341
1.916,-0.09882
1.92,-0.09126
1.924,-0.08899
1.928,-0.06634
1.932,-0.00176
1.936,-0.01189
1.94,-0.00588
1.944,0.03099
1.948,-0.00466
1.952,-0.04664
1.956,0.00194
1.96,-0.04578
1.964,0.05888
1.968,0.09592
1.972,-0.03575
1.976,-0.00624
1.98,-0.00234
1.984,-0.00914
1.988,0.03431
1.992,0.02831
1.996,0.03366
2.0,0.03539
2.004,-0.0307
2.008,0.05362
2.012,0.0195
2.016,-0.02341
2.02,0.00257
2.024,0.03276
2.028,-0.04247
2.032,0.07715
2.036,0.01681
2.04,0.00566
2.044,0.06815
2.048,0.07405
2.052,0.07695
2.056,0.01473
2.06,0.01688
2.064,0.04173
2.068,0.02138
2.072,0.0146
2.076,0.02548
2.08,0.02762
2.084,0.08263
2.088,0.06527
2.092,0.04426
2.096,0.08974
2.1,0.07187
2.104,0.12672
2.108,0.16291
2.112,0.09174
2.116,0.13826
2.12,0.1724
2.124,0.17522
2.128,0.17203
2.132,0.20458
2.136,0.23432
2.14,0.24436
2.144,0.25678
2.148,0.21223
2.152,0.22289
2.156,0.31671
2.16,0.26412
2.164,0.22965
2.168,0.22082
2.172,0.26918
2.176,0.22883
2.18,0.24063
2.184,0.23117
2.188,0.16384
2.192,0.176
2.196,0.15466
2.2,0.14714
2.204,0.16418
2.208,0.12104
2.212,0.12668
2.216,0.17406
2.22,0.1243
2.224,0.08027
2.228,0.10241
2.232,0.04733
2.236,0.07084
2.24,0.1101
2.244,0.12705
2.248,0.03995
2.252,-0.0176
2.256,0.01379
2.26,0.03225
2.264,0.02818
2.268,0.03615
2.272,0.03983
2.276,-0.00971
2.28,-0.00953
2.284,0.07953
2.288,0.09852
2.292,0.0238
2.296,0.04304
2.3,-0.00197
2.304,0.02971
2.308,0.04984
2.312,-0.0285
2.316,0.04907
2.32,0.05456
2.324,-0.04478
2.328,0.00292
2.332,0.01236
2.336,0.00675
2.34,0.0366
2.344,-0.00547
2.348,-0.00851
2.352,0.00962
2.356,0.00011
2.36,0.04372
2.364,0.05415
2.368,0.0149
2.372,0.07768
2.376,0.05942
2.38,0.08449
2.384,0.0455
2.388,0.02729
2.392,0.03277
2.396,0.05191
2.4,0.06179
2.404,0.07728
2.408,0.14467
2.412,0.11699
2.416,0.17306
2.42,0.11678
2.424,0.03646
2.428,0.10053
2.432,0.08636
2.436,0.1435
2.44,0.15571
2.444,0.07642
2.448,0.03585
2.452,0.07578
2.456,0.07353
2.46,0.07288
2.464,-0.06561
2.468,0.05705
2.472,-0.00154
2.476,-0.00879
2.48,0.04292
2.484,0.02439
2.488,0.04273
2.492,0.03044
2.496,0.05002
2.5,0.04424
2.504,0.03443
2.508,-0.01853
2.512,0.06204
2.516,0.04187
2.52,0.03166
2.524,-0.01095
2.528,-0.00178
2.532,0.03623
2.536,0.03191
2.54,0.03357
2.544,-0.02332
2.548,-0.06288
2.552,-0.12959
2.556,-0.08657
2.56,0.08572
2.564,0.16994
2.568,0.34658
2.572,0.59411
2.576,0.75858
2.58,0.9453
2.584,1.01217
2.588,0.96944
2.592,0.86039
2.596,0.64089
2.6,0.38645
2.604,0.18798
2.608,0.00562
2.612,-0.11405
2.616,-0.09752
2.62,-0.11692
2.624,-0.09901
2.628,-0.08613
2.632,-0.0395
2.636,0.05916
2.64,0.08198
2.644,0.01979
2.648,0.00865
2.652,0.04779
2.656,0.05129
2.66,0.04333
2.664,0.05377
2.668,0.00523
2.672,0.05291
2.676,0.02529
2.68,-0.01371
2.684,0.03604
2.688,0.07981
2.692,0.0016
2.696,0.04636
2.7,-0.02168
2.704,0.0168
2.708,-0.02861
2.712,0.05284
2.716,-0.02603
2.72,0.04049
2.724,0.09947
2.728,0.02836
2.732,0.01202
2.736,0.03187
2.74,0.05523
2.744,0.04308
2.748,0.0228
2.752,0.10008
2.756,0.00322
2.76,0.00996
2.764,-0.0009
2.768,0.08176
2.772,0.04083
2.776,0.06307
2.78,0.07676
2.784,0.12946
2.788,0.04397
2.792,0.03578
2.796,0.10391
2.8,0.1159
2.804,0.11606
2.808,0.07031
2.812,0.16087
2.816,0.13213
2.82,0.15511
2.824,0.1735
2.828,0.20533
2.832,0.17915
2.836,0.27017
2.84,0.14772
2.844,0.27894
2.848,0.25092
2.852,0.25601
2.856,0.22865
2.86,0.25858
2.864,0.24927
2.868,0.23337
2.872,0.21396
2.876,0.20029
2.88,0.21449
2.884,0.27589
2.888,0.19886
2.892,0.20421
2.896,0.19325
2.9,0.24599
2.904,0.23639
2.908,0.13625
2.912,0.13459
2.916,0.17782
2.92,0.11706
2.924,0.12486
2.928,0.13523
2.932,0.16947
2.936,0.08393
2.94,0.05495
2.944,0.02193
2.948,0.05669
2.952,0.08607
2.956,0.01233
2.96,0.05064
2.964,0.01928
2.968,0.01168
2.972,0.06543
2.976,0.05611
2.98,0.03493
2.984,0.00853
2.988,0.04512
2.992,0.05512
2.996,0.04899
3.0,0.03749
3.004,-0.00578
3.008,-0.00602
3.012,0.0018
3.016,0.0216
3.02,0.06126
3.024,0.05423
3.028,0.08349
3.032,-0.00125
3.036,0.00223
3.04,0.06598
3.044,0.00648
3.048,-0.01551
3.052,0.04782
3.056,0.03917
3.06,0.03881
3.064,0.05679
3.068,0.01498
3.072,0.03623
3.076,0.06907
3.08,0.01408
3.084,0.09741
3.088,0.07128
3.092,0.09611
3.096,0.03429
3.1,0.15655
3.104,0.0769
3.108,0.09947
3.112,0.15446
3.116,0.1449
3.12,0.10477
3.124,0.1122
3.128,0.13973
3.132,0.0973
3.136,0.07255
3.14,0.08386
3.144,0.11234
3.148,0.0374
3.152,0.05723
3.156,0.05634
3.16,0.02565
3.164,0.00486
3.168,-0.02054
3.172,0.08541
3.176,0.03305
3.18,-0.01262
3.184,0.05919
3.188,0.05065
3.192,0.00042
3.196,0.0856
3.2,0.04597
3.204,-0.00369
3.208,0.08333
3.212,0.00375
3.216,-0.01005
3.22,0.02569
3.224,0.1135
3.228,0.0402
3.232,0.01981
3.236,-0.09872
3.24,-0.09121
3.244,-0.06773
3.248,-0.0018
3.252,0.19502
3.256,0.42232
3.26,0.58405
3.264,0.85694
3.268,0.90802
3.272,1.07922
3.276,0.95322
3.28,0.87119
3.284,0.62791
3.288,0.37527
3.292,0.22616
3.296,0.002
3.3,-0.11431
3.304,-0.15122
3.308,-0.1913
3.312,-0.06101
3.316,-0.06492
3.32,-0.03208
3.324,0.04793
3.328,0.03456
3.332,0.00731
3.336,0.04972
3.34,0.03178
3.344,0.07929
3.348,0.02289
3.352,-0.01942
3.356,-0.00744
3.36,0.04773
3.364,-0.02332
3.368,0.01701
3.372,-0.00704
3.376,0.05395
3.38,0.06589
3.384,0.0789
3.388,0.0626
3.392,0.04599
3.396,-0.0268
3.4,0.08259
3.404,0.09476
3.408,0.11324
3.412,0.06435
3.416,-0.00216
3.42,0.02776
3.424,0.00187
3.428,0.02803
3.432,0.0579
3.436,0.13745
3.44,0.03746
3.444,0.04567
3.448,0.03808
3.452,0.04221
3.456,0.06387
3.46,0.05419
3.464,0.15951
3.468,0.06409
3.472,0.1912
3.476,0.19363
3.48,0.14331
3.484,0.14532
3.488,0.17002
3.492,0.1834
3.496,0.26708
3.5,0.28234
3.504,0.20355
3.508,0.25023
3.512,0.24467
3.516,0.26163
3.52,0.23321
3.524,0.28347
3.528,0.21967
3.532,0.16497
3.536,0.24508
3.54,0.25809
3.544,0.23203
3.548,0.25405
3.552,0.2233
3.556,0.26629
3.56,0.18686
3.564,0.24185
3.568,0.25589
3.572,0.19791
3.576,0.22629
3.58,0.19984
3.584,0.17962
3.588,0.20687
3.592,0.17668
3.596,0.17021
3.6,0.14095
3.604,0.13527
3.608,0.14268
3.612,0.06544
3.616,0.06893
3.62,0.0898
3.624,0.04288
3.628,-0.04185
3.632,-0.01413
3.636,0.07268
3.64,0.23793
3.644,0.39748
3.648,0.54201
3.652,0.79994
3.656,0.9005
3.66,1.03961
3.664,0.98814
3.668,0.84287
3.672,0.68002
3.676,0.39149
3.68,0.20195
3.684,0.04275
3.688,-0.12847
3.692,-0.17402
3.696,-0.13648
3.7,-0.14813
3.704,-0.05118
3.708,-0.03714
3.712,-0.01862
3.716,0.05341
3.72,-0.00747
3.724,-0.03948
3.728,0.00904
3.732,0.06139
3.736,0.03729
3.74,-0.00016
3.744,0.05039
3.748,0.08329
3.752,0.03951
3.756,0.05531
3.76,0.07956
3.764,0.09643
3.768,-0.00849
3.772,-0.03105
3.776,0.07331
3.78,0.02693
3.784,-0.03298
3.788,0.07859
3.792,0.03302
3.796,0.00722
3.8,-0.01771
3.804,0.00454
3.808,-0.00616
3.812,0.01486
3.816,-0.03061
3.82,0.00539
3.824,0.03196
3.828,0.07558
3.832,0.06381
3.836,0.04137
3.84,0.01817
3.844,0.0657
3.848,-0.00746
3.852,0.07438
3.856,0.10146
3.86,0.06045
3.864,0.07504
3.868,0.08934
3.872,0.08497
3.876,0.14772
3.88,0.12741
3.884,0.1208
3.888,0.22245
3.892,0.13879
3.896,0.20992
3.9,0.16149
3.904,0.14886
3.908,0.20428
3.912,0.22574
3.916,0.23051
3.92,0.17259
3.924,0.34198
3.928,0.26661
3.932,0.27729
3.936,0.25532
3.94,0.15195
3.944,0.24041
3.948,0.23925
3.952,0.2184
3.956,0.18253
3.96,0.17971
3.964,0.12713
3.968,0.25095
3.972,0.21804
3.976,0.18863
3.98,0.17919
3.984,0.18682
3.988,0.09183
3.992,0.15536
3.996,0.12437
4.0,0.15645
4.004,0.055
4.008,0.10843
4.012,0.09874
4.016,0.03626
4.02,0.05724
4.024,0.08141
4.028,0.10574
4.032,-0.00777
4.036,0.08302
4.04,0.07498
4.044,0.0873
4.048,0.1504
4.052,0.12339
4.056,0.13998
4.06,0.12482
4.064,0.08205
4.068,0.17415
4.072,0.10149
4.076,0.11859
4.08,0.04983
4.084,0.07144
4.088,0.03449
4.092,0.10203
4.096,0.02124
4.1,0.00918
4.104,-0.01634
4.108,-0.04446
4.112,0.05815
4.116,-0.01187
4.12,0.01769
4.124,-0.00802
4.128,0.02511
4.132,0.03943
4.136,0.01766
4.14,0.07294
4.144,0.00983
4.148,0.0772
4.152,0.0251
4.156,-0.00521
4.16,-0.0397
4.164,0.03975
4.168,0.02883
4.172,-0.03161
4.176,-0.01603
4.18,0.00814
4.184,-0.01738
4.188,-0.03045
4.192,-0.09902
4.196,-0.11823
4.2,0.07151
4.204,0.28975
4.208,0.46499
4.212,0.68052
4.216,0.85235
4.22,1.00633
4.224,1.04341
4.228,0.94035
4.232,0.73163
4.236,0.58346
4.24,0.26339
4.244,0.09392
4.248,-0.03349
4.252,-0.13254
4.256,-0.13222
4.26,-0.09067
4.264,-0.05284
4.268,-0.06054
4.272,-0.02666
4.276,0.0153
4.28,0.03454
4.284,0.03942
4.288,0.03507
4.292,0.0068
4.296,0.00057
4.3,0.01854
4.304,0.02533
4.308,0.0325
4.312,-0.01006
4.316,-0.02108
4.32,0.02702
4.324,0.04121
4.328,0.03088
4.332,-0.0148
4.336,0.01347
4.34,0.04639
4.344,-0.0448
4.348,-0.03092
4.352,0.01282
4.356,0.02062
4.36,0.0629
4.364,0.00721
4.368,0.05517
4.372,0.02348
4.376,0.03822
4.38,-0.00921
4.384,0.05841
4.388,0.02057
4.392,0.01802
4.396,0.02523
4.4,0.10217
4.404,0.01642
4.408,0.05234
4.412,0.04032
4.416,0.14006
4.42,0.03824
4.424,0.0683
4.428,0.05587
4.432,0.06849
4.436,0.0916
4.44,0.0928
4.444,0.11349
4.448,0.0691
4.452,0.14783
4.456,0.10303
4.46,0.1493
4.464,0.12606
4.468,0.16732
4.472,0.18936
4.476,0.20443
4.48,0.21623
4.484,0.18244
4.488,0.25217
4.492,0.29887
4.496,0.21308
4.5,0.16433
4.504,0.14256
4.508,0.20131
4.512,0.28844
4.516,0.21936
4.52,0.21514
4.524,0.23311
4.528,0.18161
4.532,0.14704
4.536,0.21515
4.54,0.15455
4.544,0.1297
4.548,0.15622
4.552,0.16934
4.556,0.18719
4.56,0.11234
4.564,0.11404
4.568,0.03759
4.572,0.08439
4.576,0.09479
4.58,0.08835
4.584,-0.01915
4.588,0.0464
4.592,0.04834
4.596,0.02787
4.6,0.05227
4.604,0.0395
4.608,0.08548
4.612,0.042
4.616,0.02254
4.62,0.07079
4.624,0.06966
4.628,0.12243
4.632,0.12839
4.636,0.13901
4.64,0.10985
4.644,0.11395
4.648,0.07229
4.652,0.13663
4.656,0.14811
4.66,0.00271
4.664,0.05261
4.668,0.03784
4.672,-0.01803
4.676,0.04442
4.68,0.01936
4.684,0.03916
4.688,0.01722
4.692,0.01473
4.696,-0.00432
4.7,-0.00681
4.704,-0.03356
4.708,0.00826
4.712,0.00449
4.716,-0.08402
4.72,-0.00306
4.724,0.05016
4.728,0.02222
4.732,0.00429
4.736,-0.00122
4.74,-0.03229
4.744,0.04071
4.748,-0.03045
4.752,-0.06516
4.756,-0.10976
4.76,-0.08737
4.764,-0.03731
4.768,0.01297
4.772,0.20085
4.776,0.31773
4.78,0.5281
4.784,0.66884
4.788,0.87091
4.792,0.99935
4.796,0.9627
4.8,0.89348
4.804,0.6493
4.808,0.43068
4.812,0.17264
4.816,0.01052
4.82,-0.10594
4.824,-0.197
4.828,-0.13124
4.832,-0.1447
4.836,-0.07875
4.84,-0.07994
4.844,-0.04029
4.848,0.04915
4.852,-0.02886
4.856,-0.05869
4.86,-0.01109
4.864,0.03434
4.868,-0.00398
4.872,-0.06646
4.876,-0.06192
4.88,0.06238
4.884,0.02403
4.888,-0.00014
4.892,-0.05118
4.896,0.07051
4.9,0.03906
4.904,0.04129
4.908,0.01457
4.912,-0.0871
4.916,-0.03115
4.92,0.03573
4.924,-0.01062
4.928,0.05215
4.932,0.03252
4.936,0.0013
4.94,0.00715
4.944,-0.00375
4.948,0.01433
4.952,-0.02874
4.956,-0.03376
4.96,0.02436
4.964,-0.01787
4.968,0.0665
4.972,-0.00838
4.976,0.00836
4.98,0.01091
4.984,-0.03277
4.988,0.05783
4.992,0.0472
4.996,0.08163
5.0,0.07959
5.004,0.15062
5.008,0.16587
5.012,0.04753
5.016,0.07906
5.02,0.12149
5.024,0.08233
5.028,0.15019
5.032,0.14625
5.036,0.189
5.04,0.16239
5.044,0.12342
5.048,0.21976
5.052,0.14186
5.056,0.19339
5.06,0.18659
5.064,0.22929
5.068,0.17211
5.072,0.14544
5.076,0.15422
5.08,0.25671
5.084,0.23802
5.088,0.16359
5.092,0.13351
5.096,0.19616
5.1,0.15001
5.104,0.14037
5.108,0.1329
5.112,0.19153
5.116,0.19123
5.12,0.14904
5.124,0.15646
5.128,0.20724
5.132,0.1684
5.136,0.13073
5.14,0.15661
5.144,0.18652
5.148,0.11247
5.152,0.14951
5.156,0.10132
5.16,0.09554
5.164,0.07379
5.168,0.06487
5.172,-0.01406
5.176,0.04251
5.18,0.00564
5.184,-0.01231
5.188,0.01575
5.192,0.01173
5.196,0.00237
5.2,0.0384
5.204,-0.0593
5.208,0.02642
5.212,-0.00192
5.216,-0.0435
5.22,-0.04894
5.224,-0.02348
5.228,0.06136
5.232,-0.03872
5.236,-0.00501
5.24,0.04336
5.244,-0.00122
5.248,-0.02963
5.252,0.04778
5.256,0.03674
5.26,-0.00399
5.264,-0.07574
5.268,-0.1212
5.272,-0.13395
5.276,-0.05492
5.28,-0.00696
5.284,0.24442
5.288,0.39466
5.292,0.71433
5.296,0.77016
5.3,0.94167
5.304,1.02186
5.308,0.94835
5.312,0.70799
5.316,0.47848
5.32,0.17143
5.324,0.02566
5.328,-0.10938
5.332,-0.14318
5.336,-0.10608
5.34,-0.20664
5.344,-0.15762
5.348,-0.08225
5.352,-0.01919
5.356,-0.05009
5.36,-0.00021
5.364,-0.00828
5.368,-0.00537
5.372,0.0185
5.376,-0.0006
5.38,0.01514
5.384,0.00153
5.388,0.02461
5.392,-0.04062
5.396,0.00666
5.4,-0.05782
5.404,-0.07909
5.408,-0.03039
5.412,-0.04594
5.416,0.05219
5.42,-0.0143
5.424,-0.08183
5.428,-0.00176
5.432,0.00264
5.436,0.0019
5.44,-0.00488
5.444,-0.0608
5.448,-0.02668
5.452,0.00246
5.456,-0.09637
5.46,-0.00573
5.464,-0.01872
5.468,0.01478
5.472,-0.04761
5.476,-0.03078
5.48,-0.00418
5.484,-0.07734
5.488,-0.07005
5.492,0.02412
5.496,0.03671
5.5,0.02273
5.504,0.12706
5.508,0.00063
5.512,0.05487
5.516,0.06314
5.52,0.0719
5.524,0.05904
5.528,0.07926
5.532,0.1069
5.536,0.09976
5.54,0.09055
5.544,0.11921
5.548,0.05632
5.552,0.1269
5.556,0.18052
5.56,0.14269
5.564,0.20827
5.568,0.19785
5.572,0.17901
5.576,0.25343
5.58,0.17287
5.584,0.24198
5.588,0.24012
5.592,0.2308
5.596,0.16808
5.6,0.15606
5.604,0.15381
5.608,0.09984
5.612,0.186
5.616,0.14326
5.62,0.1865
5.624,0.16894
5.628,0.06499
5.632,0.13257
5.636,0.07955
5.64,0.06203
5.644,0.0968
5.648,0.09306
5.652,0.03306
5.656,-0.05052
5.66,0.00547
5.664,0.05005
5.668,0.03188
5.672,-0.05896
5.676,-0.02519
5.68,0.03586
5.684,-0.0168
5.688,-0.04966
5.692,0.0167
5.696,0.00222
5.7,0.01663
5.704,-0.10231
5.708,0.02285
5.712,-0.07037
5.716,0.03444
5.72,-0.0746
5.724,-0.09937
5.728,-0.0099
5.732,-0.05877
5.736,0.00232
5.74,-0.00094
5.744,0.00286
5.748,-0.00385
5.752,-0.02655
5.756,0.00524
5.76,-0.05049
5.764,-0.11432
5.768,-0.05676
5.772,-0.05118
5.776,0.05173
5.78,0.00649
5.784,-0.02196
5.788,-0.00157
5.792,-0.0399
5.796,-0.01816
5.8,-0.01437
5.804,-0.00913
5.808,-0.0336
5.812,-0.02469
5.816,0.01525
5.82,0.00998
5.824,-0.09768
5.828,-0.04898
5.832,-0.02319
5.836,0.0209
5.84,0.01438
5.844,0.02528
5.848,-0.05973
5.852,-0.01042
5.856,-0.01364
5.86,-0.03638
5.864,0.01848
5.868,-0.04035
5.872,-0.03485
5.876,-0.06332
5.88,-0.08449
5.884,-0.00931
5.888,-0.05587
5.892,-0.00726
5.896,-0.0474
5.9,0.04432
5.904,0.04179
5.908,0.07589
5.912,0.00694
5.916,0.00943
5.92,0.05519
5.924,0.06621
5.928,0.09543
5.932,0.10254
5.936,0.0919
5.94,0.02377
5.944,0.08045
5.948,0.03435
5.952,0.034
5.956,0.05506
5.96,0.03334
5.964,0.04799
5.968,-0.03641
5.972,0.06191
5.976,-0.07612
5.98,-0.02006
5.984,0.01597
5.988,0.06147
5.992,-0.05624
5.996,-0.05267
6.0,-0.02975
6.004,-0.03512
6.008,-0.00876
6.012,-0.01787
6.016,-0.03393
6.02,-0.06555
6.024,-0.06021
6.028,0.02041
6.032,-0.03317
6.036,-0.04251
6.04,-0.03463
6.044,-0.00936
6.048,-0.06547
6.052,0.03002
6.056,-0.12961
6.06,-0.12283
6.064,-0.15379
6.068,-0.12652
6.072,-0.056
6.076,0.08005
6.08,0.31564
6.084,0.50252
6.088,0.68706
6.092,0.83882
6.096,1.03666
6.1,0.92714
6.104,0.83593
6.108,0.6318
6.112,0.34097
6.116,0.12044
6.12,-0.01405
6.124,-0.07094
6.128,-0.16748
6.132,-0.21652
6.136,-0.18638
6.14,-0.14796
6.144,-0.09123
6.148,-0.09154
6.152,-0.0617
6.156,-0.06828
6.16,-0.01648
6.164,0.02702
6.168,0.03665
6.172,0.03011
6.176,0.0453
6.18,0.05046
6.184,0.09668
6.188,0.10216
6.192,0.03672
6.196,0.10031
6.2,0.04087
6.204,0.00062
6.208,0.0796
6.212,-0.03116
6.216,0.03578
6.22,0.01304
6.224,-0.05894
6.228,-0.0459
6.232,-0.05157
6.236,-0.04104
6.24,-0.03733
6.244,-0.02369
6.248,0.03064
6.252,-0.0006
6.256,-0.08818
6.26,0.00815
6.264,-0.01457
6.268,0.00877
6.272,-0.0081
6.276,-0.03593
6.28,-0.04228
6.284,0.08545
6.288,-0.01748
6.292,-0.07311
6.296,0.02786
6.3,0.02054
6.304,-0.06768
6.308,-0.04149
6.312,-0.05963
6.316,-0.01084
6.32,0.04252
6.324,0.12539
6.328,0.32608
6.332,0.5449
6.336,0.75748
6.34,0.98608
6.344,1.05268
6.348,1.11877
6.352,1.07492
6.356,0.87789
6.36,0.69297
6.364,0.49188
6.368,0.25214
6.372,0.12492
6.376,0.03506
6.38,-0.01375
6.384,0.08428
6.388,0.09114
6.392,0.11688
6.396,0.15522
6.4,0.15177
6.404,0.15154
6.408,0.16781
6.412,0.10665
6.416,0.11398
6.42,0.13859
6.424,0.10194
6.428,0.0809
6.432,0.14388
6.436,0.08032
6.44,0.0421
6.444,0.05236
6.448,0.02871
6.452,0.01451
6.456,0.0246
6.46,0.00329
6.464,0.04407
6.468,-0.04212
6.472,0.01517
6.476,-0.01322
6.48,-0.00375
6.484,0.01682
6.488,-0.02959
6.492,-0.01294
6.496,-0.04987
6.5,-0.02348
6.504,-0.00847
6.508,-0.04894
6.512,0.02004
6.516,-0.04049
6.52,0.00197
6.524,-0.00011
6.528,0.03741
6.532,-0.00686
6.536,-0.02647
6.54,-0.0393
6.544,-0.02179
6.548,0.02228
6.552,-0.02784
6.556,0.02216
6.56,0.05947
6.564,0.01596
6.568,0.0984
6.572,0.04605
6.576,0.14961
6.58,0.01975
6.584,0.07944
6.588,0.0686
6.592,0.10438
6.596,0.16447
6.6,0.10063
6.604,0.10741
6.608,0.15667
6.612,0.19935
6.616,0.12816
6.62,0.20517
6.624,0.20848
6.628,0.2003
6.632,0.16713
6.636,0.17632
6.64,0.18
6.644,0.20982
6.648,0.18245
6.652,0.16713
6.656,0.07272
6.66,0.14377
6.664,0.13471
6.668,0.14379
6.672,0.07644
6.676,0.09661
6.68,0.12707
6.684,0.06077
6.688,0.10696
6.692,0.08885
6.696,0.0159
6.7,0.04296
6.704,0.06149
6.708,0.02677
6.712,-0.00104
6.716,0.03767
6.72,0.04829
6.724,-0.0049
6.728,-0.06591
6.732,0.00054
6.736,-0.00092
6.74,-0.00191
6.744,-0.05905
6.748,-0.10558
6.752,-0.09289
6.756,-0.00621
6.76,-0.04328
6.764,-0.06731
6.768,-0.04071
6.772,-0.03211
6.776,0.01702
6.78,-0.01024
6.784,-0.04768
6.788,-0.03312
6.792,0.04684
6.796,-0.01484
6.8,0.01941
6.804,-0.07675
6.808,-0.04692
6.812,-0.03946
6.816,0.07268
6.82,-0.09115
6.824,-0.0308
6.828,-0.07471
6.832,-0.05035
6.836,-0.01381
6.84,-0.01716
6.844,-0.07116
6.848,-0.13235
6.852,-0.02449
6.856,-0.02884
6.86,-0.0126
6.864,-0.06487
6.868,-0.01262
6.872,0.01813
6.876,-0.07124
6.88,0.01496
6.884,-0.02526
6.888,-0.02178
6.892,-0.02892
6.896,0.03476
6.9,0.02974
6.904,-0.01485
6.908,0.03277
6.912,-0.03058
6.916,-0.00655
6.92,-0.07173
6.924,-0.02144
6.928,-0.00805
6.932,-0.04636
6.936,-0.00769
6.94,-0.00169
6.944,-0.07239
6.948,-0.01943
6.952,-0.0638
6.956,-0.04566
6.96,0.02426
6.964,-0.00043
6.968,-0.03553
6.972,-0.04424
6.976,-0.07003
6.98,0.00689
6.984,-0.11025
6.988,-0.00382
6.992,-0.00867
6.996,-0.08535
7.0,-0.04275
7.004,-0.07248
7.008,-0.0844
7.012,-0.0361
7.016,0.0409
7.02,-0.00091
7.024,0.01323
7.028,-0.07205
7.032,-0.0497
7.036,0.02287
7.04,-0.02362
7.044,0.01309
7.048,-0.00242
7.052,-0.02128
7.056,-0.07565
7.06,-0.05458
7.064,-0.03752
7.068,-0.05066
7.072,-0.00592
7.076,0.05546
7.08,0.02134
7.084,0.10868
7.088,0.06856
7.092,0.13046
7.096,0.07717
7.1,0.1073
7.104,0.03691
7.108,0.02545
7.112,0.03495
7.116,0.04053
7.12,0.0357
7.124,-0.0165
7.128,-0.0062
7.132,0.01668
7.136,-0.06649
7.14,-0.02013
7.144,-0.08565
7.148,-0.02019
7.152,-0.03366
7.156,-0.00118
7.16,0.00645
7.164,0.01873
7.168,-0.05488
7.172,-0.03663
7.176,0.04642
7.18,-0.03993
7.184,-0.03595
7.188,0.05038
7.192,-0.0458
7.196,0.00959
7.2,0.02171
7.204,-0.05447
7.208,-0.03534
7.212,-0.03113
7.216,-0.02478
7.22,-0.12315
7.224,-0.09528
7.228,-0.11968
7.232,-0.07277
7.236,0.0168
7.24,0.23974
7.244,0.48097
7.248,0.62865
7.252,0.82529
7.256,0.934
7.26,1.01913
7.264,0.88082
7.268,0.66431
7.272,0.42123
7.276,0.24268
7.28,0.00409
7.284,-0.08859
7.288,-0.14701
7.292,-0.17847
7.296,-0.16104
7.3,-0.09842
7.304,-0.11359
7.308,-0.0896
7.312,-0.02647
7.316,-0.08011
7.32,0.03442
7.324,-0.05121
7.328,-0.08733
7.332,-0.02988
7.336,-0.03249
7.34,-0.01119
7.344,-0.02236
7.348,-0.05013
7.352,-0.00503
7.356,-0.06745
7.36,0.02797
7.364,0.08382
7.368,-0.05719
7.372,0.04128
7.376,-0.02423
7.38,-0.09098
7.384,0.01608
7.388,0.01039
7.392,-0.01516
7.396,-0.02406
7.4,-0.00136
7.404,-0.0665
7.408,-0.00492
7.412,0.00795
7.416,-0.05712
7.42,-0.03334
7.424,-0.04009
7.428,-0.01909
7.432,0.00474
7.436,-0.02957
7.44,-0.02404
7.444,0.01534
7.448,-0.00242
7.452,0.03435
7.456,-0.03748
7.46,0.09539
7.464,0.02391
7.468,0.06308
7.472,0.07652
7.476,0.00038
7.48,0.07578
7.484,0.13184
7.488,0.09301
7.492,0.04007
7.496,0.1211
7.5,0.19023
7.504,0.11341
7.508,0.15761
7.512,0.12032
7.516,0.20503
7.52,0.21852
7.524,0.14933
7.528,0.2151
7.532,0.16602
7.536,0.15935
7.54,0.20319
7.544,0.19359
7.548,0.18689
7.552,0.22337
7.556,0.12096
7.56,0.20464
7.564,0.17104
7.568,0.15052
7.572,0.13907
7.576,0.14356
7.58,0.11578
7.584,0.123
7.588,0.05972
7.592,0.1407
7.596,0.1209
7.6,0.05652
7.604,0.01341
7.608,0.07457
7.612,0.02472
7.616,0.04666
7.62,0.01003
7.624,-0.01847
7.628,0.02444
7.632,-0.06476
7.636,0.04064
7.64,0.01115
7.644,0.01126
7.648,-0.00426
7.652,-0.03607
7.656,-0.06578
7.66,0.04493
7.664,-0.03768
7.668,0.00767
7.672,-0.02386
7.676,-0.02822
7.68,-0.06699
7.684,-0.02137
7.688,0.01503
7.692,-0.01738
7.696,-0.02232
7.7,-0.0142
7.704,-0.03603
7.708,-0.0653
7.712,-0.07216
7.716,0.02628
7.72,0.05077
7.724,0.0346
7.728,0.12221
7.732,0.00195
7.736,0.05077
7.74,0.08709
7.744,0.09383
7.748,0.10608
7.752,0.07185
7.756,0.11208
7.76,0.04161
7.764,0.06903
7.768,0.05705
7.772,0.00652
7.776,-0.01416
7.78,0.04475
7.784,0.04861
7.788,0.01804
7.792,0.05108
7.796,-0.0361
7.8,-0.0093
7.804,0.01254
7.808,0.03297
7.812,-0.07454
7.816,-0.00124
7.82,-0.03648
7.824,-0.12892
7.828,-0.02132
7.832,0.00014
7.836,0.01538
7.84,-0.00974
7.844,0.01234
7.848,0.02695
7.852,-0.02385
7.856,0.02105
7.86,0.03038
7.864,-0.06866
7.868,-0.05456
7.872,-0.10684
7.876,-0.06964
7.88,-0.09827
7.884,-0.0001
7.888,0.15042
7.892,0.2383
7.896,0.47685
7.9,0.7054
7.904,0.86289
7.908,1.0092
7.912,0.9079
7.916,0.9321
7.92,0.64852
7.924,0.44452
7.928,0.20237
7.932,0.06618
7.936,-0.13078
7.94,-0.12529
7.944,-0.1087
7.948,-0.11723
7.952,-0.12902
7.956,-0.07784
7.96,-0.06973
7.964,0.00323
7.968,-0.0288
7.972,0.04522
7.976,0.01766
7.98,-0.08388
7.984,0.09576
7.988,-0.01805
7.992,-0.02075
7.996,0.03472
8.0,-0.02593
8.004,-0.01012
8.008,-0.01754
8.012,-0.01038
8.016,0.01956
8.02,0.03507
8.024,-0.02565
8.028,0.0022
8.032,-0.00133
8.036,-0.01035
8.04,-0.02501
8.044,-0.00413
8.048,0.01613
8.052,-0.01461
8.056,-0.04827
8.06,0.05432
8.064,0.04364
8.068,0.03622
8.072,0.02533
8.076,0.0197
8.08,0.00089
8.084,0.00137
8.088,-0.02469
8.092,-7e-05
8.096,0.06259
8.1,0.00871
8.104,0.03659
8.108,0.10388
8.112,0.11707
8.116,0.00806
8.12,0.08408
8.124,0.10007
8.128,0.07475
8.132,0.00359
8.136,0.129
8.14,0.08868
8.144,0.12054
8.148,0.14855
8.152,0.16923
8.156,0.17199
8.16,0.22598
8.164,0.21809
8.168,0.23822
8.172,0.16086
8.176,0.1963
8.18,0.16086
8.184,0.25748
8.188,0.23535
8.192,0.20144
8.196,0.2346
8.2,0.22704
8.204,0.16464
8.208,0.20448
8.212,0.18574
8.216,0.14032
8.22,0.16326
8.224,0.1952
8.228,0.1591
8.232,0.15021
8.236,0.11849
8.24,0.14362
8.244,0.15695
8.248,0.12674
8.252,0.08722
8.256,0.07807
8.26,0.09893
8.264,0.12329
8.268,0.11321
8.272,0.09673
8.276,0.20486
8.28,0.08011
8.284,0.0469
8.288,0.09596
8.292,0.08999
8.296,0.10045
8.3,0.12078
8.304,0.14372
8.308,0.12757
8.312,0.04079
8.316,0.17316
8.32,0.0115
8.324,0.06299
8.328,0.02908
8.332,0.00032
8.336,0.07426
8.34,0.02132
8.344,0.01604
8.348,0.01381
8.352,-0.01526
8.356,-0.00578
8.36,-0.03822
8.364,-0.05835
8.368,0.032
8.372,0.00049
8.376,0.00197
8.38,-0.0307
8.384,-0.00882
8.388,-0.0302
8.392,0.0225
8.396,0.0286
8.4,0.0101
8.404,-0.01543
8.408,0.04192
8.412,-0.02577
8.416,-0.00133
8.42,-0.11115
8.424,-0.05776
8.428,-0.09748
8.432,0.00396
8.436,0.14442
8.44,0.29463
8.444,0.42838
8.448,0.73081
8.452,0.95518
8.456,0.99417
8.46,0.9852
8.464,0.91862
8.468,0.73101
8.472,0.47196
8.476,0.29776
8.48,0.01524
8.484,-0.09276
8.488,-0.15841
8.492,-0.16132
8.496,-0.11327
8.5,-0.06327
8.504,-0.09511
8.508,-0.02054
8.512,-0.03002
8.516,0.02582
8.52,-0.01066
8.524,0.00814
8.528,0.00623
8.532,0.01759
8.536,-0.00555
8.54,-0.03652
8.544,0.03946
8.548,-0.022
8.552,-0.0239
8.556,0.00974
8.56,0.02235
8.564,0.02035
8.568,0.02826
8.572,-0.0079
8.576,0.00902
8.58,0.04711
8.584,-0.01428
8.588,0.01098
8.592,-0.04098
8.596,0.05989
8.6,0.01893
8.604,0.06379
8.608,-0.01475
8.612,-0.00997
8.616,0.01337
8.62,-0.00012
8.624,0.06178
8.628,-0.02431
8.632,0.04638
8.636,0.03416
8.64,0.00674
8.644,0.07811
8.648,0.00943
8.652,0.00537
8.656,0.04898
8.66,0.08306
8.664,0.07002
8.668,0.09825
8.672,0.15046
8.676,0.1151
8.68,0.13025
8.684,0.1227
8.688,0.13162
8.692,0.12863
8.696,0.18307
8.7,0.15836
8.704,0.18181
8.708,0.07944
8.712,0.17122
8.716,0.23408
8.72,0.12103
8.724,0.21094
8.728,0.22479
8.732,0.22958
8.736,0.30021
8.74,0.22518
8.744,0.19825
8.748,0.20338
8.752,0.22499
8.756,0.19665
8.76,0.22239
8.764,0.2399
8.768,0.17744
8.772,0.19451
8.776,0.20475
8.78,0.16233
8.784,0.1268
8.788,0.18759
8.792,0.1383
8.796,0.08268
8.8,0.07073
8.804,0.08209
8.808,0.08053
8.812,0.06329
8.816,-0.02999
8.82,0.04061
8.824,0.11238
8.828,0.14232
8.832,0.06713
8.836,0.07806
8.84,0.09716
8.844,0.15566
8.848,0.13166
8.852,0.12663
8.856,0.09581
8.86,0.16313
8.864,0.12854
8.868,0.10698
8.872,0.08635
8.876,0.07551
8.88,0.06738
8.884,0.0099
8.888,0.07131
8.892,0.03327
8.896,0.0798
8.9,0.06758
8.904,0.10206
8.908,-0.00432
8.912,0.00018
8.916,-0.01754
8.92,-0.01162
8.924,0.01769
8.928,-0.01959
8.932,-0.03265
8.936,0.03713
8.94,0.02456
8.944,0.0037
8.948,0.08718
8.952,0.07218
8.956,-0.02648
8.96,0.06689
8.964,0.04027
8.968,0.04964
8.972,0.02747
8.976,0.00593
8.98,-0.03467
8.984,-0.06811
8.988,-0.07868
8.992,-0.05626
8.996,0.04007
9.0,0.28927
9.004,0.47395
9.008,0.75176
9.012,0.85827
9.016,1.00947
9.02,1.00593
9.024,0.97348
9.028,0.75448
9.032,0.52215
9.036,0.24928
9.04,0.10793
9.044,-0.06818
9.048,-0.12419
9.052,-0.22779
9.056,-0.10764
9.06,-0.06423
9.064,-0.09023
9.068,-0.04858
9.072,-0.00992
9.076,-0.00853
9.08,0.02305
9.084,-0.00516
9.088,0.00699
9.092,-0.01381
9.096,-0.04995
9.1,0.03419
9.104,-0.02788
9.108,0.09484
9.112,0.06259
9.116,0.0463
9.12,0.01951
9.124,0.02548
9.128,0.04043
9.132,0.00117
9.136,-0.05687
9.14,0.0308
9.144,0.01247
9.148,0.00281
9.152,0.0153
9.156,0.00759
9.16,-0.04497
9.164,0.07711
9.168,-0.00118
9.172,0.01558
9.176,0.03165
9.18,0.02374
9.184,0.02202
9.188,0.00277
9.192,3e-05
9.196,0.01225
9.2,0.0193
9.204,0.07035
9.208,0.09603
9.212,0.07934
9.216,0.1182
9.22,0.09884
9.224,0.12445
9.228,0.10711
9.232,0.12735
9.236,0.08817
9.24,0.13096
9.244,0.21027
9.248,0.12698
9.252,0.10693
9.256,0.17966
9.26,0.14087
9.264,0.19734
9.268,0.17622
9.272,0.24764
9.276,0.2626
9.28,0.2385
9.284,0.22106
9.288,0.261
9.292,0.26882
9.296,0.20872
9.3,0.28637
9.304,0.24136
9.308,0.22775
9.312,0.25507
9.316,0.2593
9.32,0.31038
9.324,0.25575
9.328,0.27995
9.332,0.30254
9.336,0.31573
9.34,0.20668
9.344,0.25136
9.348,0.29753
9.352,0.23088
9.356,0.21727
9.36,0.17212
9.364,0.1771
9.368,0.17517
9.372,0.14723
9.376,0.13808
9.38,0.14274
9.384,0.06319
9.388,0.14474
9.392,0.11619
9.396,0.12106
9.4,0.02984
9.404,0.02134
9.408,-0.02619
9.412,0.02568
9.416,0.0285
9.42,0.04294
9.424,-0.00735
9.428,0.07587
9.432,0.10886
9.436,0.05637
9.44,0.03808
9.444,0.06296
9.448,0.00751
9.452,0.04431
9.456,0.04495
9.46,0.01913
9.464,-0.00715
9.468,0.02274
9.472,-0.06676
9.476,-0.05847
9.48,-0.04966
9.484,0.06396
9.488,0.15733
9.492,0.3224
9.496,0.5302
9.5,0.79668
9.504,0.99055
9.508,1.04502
9.512,1.03883
9.516,0.94073
9.52,0.6492
9.524,0.40301
9.528,0.21673
9.532,0.01332
9.536,-0.04884
9.54,-0.10892
9.544,-0.20104
9.548,-0.04296
9.552,-0.02388
9.556,0.01192
9.56,0.05111
9.564,0.0237
9.568,0.05682
9.572,0.03152
9.576,-0.01891
9.58,-0.02628
9.584,-0.00058
9.588,0.02003
9.592,0.06306
9.596,-0.03803
9.6,0.0263
9.604,0.01965
9.608,0.05913
9.612,-0.00511
9.616,-0.00138
9.62,0.03941
9.624,0.01458
9.628,-0.04534
9.632,0.02743
9.636,0.08548
9.64,-0.00537
9.644,0.03769
9.648,-0.01446
9.652,0.07012
9.656,0.05445
9.66,0.0896
9.664,0.04724
9.668,0.06698
9.672,0.06504
9.676,0.01064
9.68,0.02608
9.684,-0.00035
9.688,0.05779
9.692,0.11111
9.696,0.0998
9.7,0.11962
9.704,0.13587
9.708,0.15221
9.712,0.20691
9.716,0.20178
9.72,0.18704
9.724,0.18638
9.728,0.24639
9.732,0.21982
9.736,0.23525
9.74,0.1479
9.744,0.21612
9.748,0.20122
9.752,0.27908
9.756,0.24081
9.76,0.16911
9.764,0.18833
9.768,0.27512
9.772,0.2482
9.776,0.23452
9.78,0.27768
9.784,0.23561
9.788,0.3176
9.792,0.19265
9.796,0.22164
9.8,0.26817
9.804,0.25983
9.808,0.23283
9.812,0.1514
9.816,0.16446
9.82,0.15023
9.824,0.20344
9.828,0.171
9.832,0.23296
9.836,0.11873
9.84,0.13092
9.844,0.11699
9.848,0.0494
9.852,-0.0249
9.856,-0.00873
9.86,0.11006
9.864,0.25144
9.868,0.44663
9.872,0.59932
9.876,0.82141
9.88,0.96457
9.884,1.05753
9.888,1.00155
9.892,0.88959
9.896,0.65157
9.9,0.43126
9.904,0.16941
9.908,-0.00438
9.912,-0.15704
9.916,-0.09754
9.92,-0.11833
9.924,-0.13312
9.928,0.01802
9.932,0.00435
9.936,-0.00891
9.94,0.03909
9.944,0.01737
9.948,0.00681
9.952,-0.00524
9.956,0.09072
9.96,-0.03683
9.964,-0.01716
9.968,-0.00272
9.972,0.03344
9.976,0.04356
9.98,-0.04305
9.984,0.00646
9.988,0.1287
9.992,0.02352
9.996,0.08448
