t_seg,ecg_mV
0.0,0.97371
0.004,0.96999
0.008,0.92113
0.012,0.62898
0.016,0.35023
0.02,0.19511
0.024,-0.0354
0.028,-0.10014
0.032,-0.17353
0.036,-0.14877
0.04,-0.18514
0.044,-0.08174
0.048,-0.04402
0.052,-0.038
0.056,0.00959
0.06,-0.02623
0.064,-0.08039
0.068,-0.03434
0.072,-0.01295
0.076,-0.04078
0.08,-0.01566
0.084,0.00635
0.088,-0.00087
0.092,-0.02803
0.096,0.0037
0.1,-0.09629
0.104,-0.04526
0.108,-0.05024
0.112,-0.00802
0.116,-0.07657
0.12,-0.02094
0.124,-0.02195
0.128,0.0068
0.132,0.00042
0.136,0.00626
0.14,0.02376
0.144,-0.00727
0.148,0.01001
0.152,0.02487
0.156,0.01674
0.16,-0.02861
0.164,0.03701
0.168,0.01719
0.172,0.04723
0.176,0.01148
0.18,0.02113
0.184,0.07324
0.188,0.02351
0.192,0.04793
0.196,0.02117
0.2,0.0198
0.204,0.08061
0.208,0.04451
0.212,0.09632
0.216,0.06545
0.22,0.03231
0.224,0.14117
0.228,0.1477
0.232,0.13593
0.236,0.13033
0.24,0.14629
0.244,0.18625
0.248,0.11534
0.252,0.18267
0.256,0.196
0.26,0.18094
0.264,0.16617
0.268,0.20348
0.272,0.19442
0.276,0.26496
0.28,0.23972
0.284,0.25027
0.288,0.14698
0.292,0.18452
0.296,0.2581
0.3,0.14103
0.304,0.25026
0.308,0.13587
0.312,0.18155
0.316,0.14895
0.32,0.12721
0.324,0.10493
0.328,0.12964
0.332,0.17108
0.336,0.13388
0.34,0.1283
0.344,0.20326
0.348,0.12001
0.352,0.1629
0.356,0.14203
0.36,0.18068
0.364,0.09101
0.368,0.15927
0.372,0.09389
0.376,0.0911
0.38,0.09893
0.384,0.10693
0.388,0.12586
0.392,0.07046
0.396,0.06642
0.4,0.01299
0.404,0.05724
0.408,0.06687
0.412,0.00155
0.416,0.02305
0.42,0.09086
0.424,-0.00706
0.428,0.09229
0.432,-0.01012
0.436,-0.02945
0.44,0.0241
0.444,-0.074
0.448,0.02122
0.452,0.03251
0.456,0.01467
0.46,-0.02314
0.464,0.04789
0.468,0.00505
0.472,-0.00161
0.476,0.00357
0.48,-0.03394
0.484,-0.10022
0.488,-0.04149
0.492,-0.06959
0.496,-0.1175
0.5,-0.05952
0.504,0.09528
0.508,0.25235
0.512,0.45097
0.516,0.55695
0.52,0.8738
0.524,1.00242
0.528,1.0189
0.532,0.93512
0.536,0.72167
0.54,0.48191
0.544,0.2832
0.548,0.12272
0.552,-0.06595
0.556,-0.06824
0.56,-0.19903
0.564,-0.20606
0.568,-0.18028
0.572,-0.04088
0.576,-0.01775
0.58,0.01972
0.584,0.01882
0.588,-0.01262
0.592,-0.03376
0.596,0.03024
0.6,-0.01893
0.604,-0.00187
0.608,0.0166
0.612,0.01116
0.616,0.02908
0.62,-0.01659
0.624,-0.03042
0.628,-0.01203
0.632,0.05158
0.636,-0.03295
0.64,0.08329
0.644,-0.05307
0.648,0.01438
0.652,0.02987
0.656,-0.04151
0.66,-0.01494
0.664,0.03683
0.668,-0.0062
0.672,-0.03691
0.676,-0.04299
0.68,0.07921
0.684,-0.00777
0.688,0.03212
0.692,0.02303
0.696,0.00509
0.7,-0.00515
0.704,0.00558
0.708,0.03218
0.712,0.06535
0.716,0.05926
0.72,-0.00892
0.724,0.11276
0.728,0.10143
0.732,0.04156
0.736,0.09122
0.74,0.07774
0.744,0.06843
0.748,0.12096
0.752,0.09105
0.756,0.05163
0.76,0.17972
0.764,0.13691
0.768,0.12228
0.772,0.19843
0.776,0.1989
0.78,0.19206
0.784,0.24328
0.788,0.12928
0.792,0.20315
0.796,0.2223
0.8,0.17574
0.804,0.23057
0.808,0.22672
0.812,0.17947
0.816,0.22875
0.82,0.14331
0.824,0.23079
0.828,0.15413
0.832,0.1956
0.836,0.17553
0.84,0.1604
0.844,0.18886
0.848,0.14644
0.852,0.18143
0.856,0.11032
0.86,0.11363
0.864,0.1373
0.868,0.12305
0.872,0.10824
0.876,0.09076
0.88,0.04203
0.884,0.03532
0.888,0.02736
0.892,0.07465
0.896,0.0581
0.9,0.08099
0.904,0.0981
0.908,0.10029
0.912,-0.06599
0.916,0.04807
0.92,0.04047
0.924,0.0186
0.928,0.03405
0.932,0.02885
0.936,0.01522
0.94,0.01228
0.944,0.05306
0.948,0.00224
0.952,0.03725
0.956,-0.0523
0.96,0.00025
0.964,0.0652
0.968,0.0353
0.972,0.05756
0.976,0.01892
0.98,0.01041
0.984,-0.04368
0.988,0.03963
0.992,0.0586
0.996,0.04987
1.0,0.04272
1.004,-0.01643
1.008,-0.01113
1.012,0.01893
1.016,-0.00952
1.02,0.01071
1.024,0.07609
1.028,-0.02005
1.032,-0.00848
1.036,-0.0247
1.04,0.06189
1.044,0.00042
1.048,-0.03983
1.052,0.00807
1.056,-0.00822
1.06,-0.01396
1.064,0.01393
1.068,0.07237
1.072,0.01588
1.076,0.016
1.08,0.06324
1.084,0.05167
1.088,0.02195
1.092,0.12018
1.096,0.0662
1.1,0.07121
1.104,0.15526
1.108,0.12308
1.112,0.13363
1.116,0.12437
1.12,0.10457
1.124,0.10621
1.128,0.1114
1.132,0.05564
1.136,0.04097
1.14,0.04572
1.144,0.03801
1.148,0.00754
1.152,0.0671
1.156,-0.01209
1.16,0.09193
1.164,-0.02155
1.168,-0.02114
1.172,0.063
1.176,0.00351
1.18,0.01912
1.184,-0.04267
1.188,-0.0029
1.192,0.07954
1.196,0.02144
1.2,-0.03283
1.204,0.03474
1.208,0.01878
1.212,0.10002
1.216,-0.01563
1.22,-0.01391
1.224,0.0103
1.228,0.00204
1.232,-0.11381
1.236,-0.08519
1.24,-0.05562
1.244,0.07759
1.248,0.12743
1.252,0.25892
1.256,0.61971
1.26,0.71499
1.264,0.9791
1.268,0.98305
1.272,0.95634
1.276,0.86049
1.28,0.73761
1.284,0.46567
1.288,0.18204
1.292,0.08518
1.296,-0.10595
1.3,-0.16654
1.304,-0.09571
1.308,-0.09872
1.312,-0.08538
1.316,0.01494
1.32,0.0163
1.324,-0.00755
1.328,0.0181
1.332,0.06071
1.336,0.08189
1.34,0.05612
1.344,-0.02414
1.348,0.05173
1.352,-0.00146
1.356,-0.02414
1.36,0.03701
1.364,0.04648
1.368,0.01652
1.372,0.04019
1.376,0.0289
1.38,0.01137
1.384,0.06398
1.388,-0.0059
1.392,-0.01202
1.396,-0.02836
1.4,0.01909
1.404,0.03549
1.408,0.00042
1.412,-0.02348
1.416,-0.02809
1.42,-0.04273
1.424,0.03916
1.428,-0.00279
1.432,0.03156
1.436,0.08483
1.44,0.07892
1.444,0.01147
1.448,0.03631
1.452,-0.04681
1.456,-0.02207
1.46,0.07207
1.464,0.06952
1.468,0.14492
1.472,0.04951
1.476,0.03723
1.48,0.17588
1.484,0.14042
1.488,0.1798
1.492,0.13239
1.496,0.12296
1.5,0.09942
1.504,0.18282
1.508,0.17498
1.512,0.17999
1.516,0.19262
1.52,0.16528
1.524,0.2224
1.528,0.2309
1.532,0.30721
1.536,0.30051
1.54,0.21897
1.544,0.23182
1.548,0.26383
1.552,0.26277
1.556,0.24373
1.56,0.26611
1.564,0.19919
1.568,0.2529
1.572,0.2682
1.576,0.21554
1.58,0.18697
1.584,0.22739
1.588,0.14787
1.592,0.23439
1.596,0.17685
1.6,0.11382
1.604,0.11159
1.608,0.1088
1.612,0.13881
1.616,0.10282
1.62,0.13347
1.624,0.08276
1.628,0.05716
1.632,0.01054
1.636,0.11457
1.64,0.08792
1.644,0.00464
1.648,0.05039
1.652,0.07501
1.656,0.0819
1.66,-0.00281
1.664,0.02002
1.668,0.03365
1.672,0.03163
1.676,0.05884
1.68,-0.01601
1.684,0.017
1.688,-0.01462
1.692,0.01427
1.696,0.06255
1.7,0.03434
1.704,0.08794
1.708,0.05411
1.712,0.02658
1.716,0.12695
1.72,0.05596
1.724,0.11582
1.728,0.11543
1.732,0.12977
1.736,0.0904
1.74,0.12995
1.744,0.09665
1.748,0.11809
1.752,0.03314
1.756,0.11545
1.76,0.1
1.764,0.1225
1.768,0.06375
1.772,0.10884
1.776,0.05234
1.78,0.03488
1.784,0.02184
1.788,0.0482
1.792,0.02228
1.796,-0.00353
1.8,0.02456
1.804,0.02191
1.808,0.02671
1.812,0.00887
1.816,0.06677
1.82,0.01673
1.824,0.00477
1.828,0.12614
1.832,0.07617
1.836,0.0734
1.84,0.04447
1.844,0.02999
1.848,-0.01542
1.852,-0.01569
1.856,-0.01427
1.86,0.01168
1.864,-0.01564
1.868,-0.03172
1.872,-0.14324
1.876,-0.01928
1.88,0.03005
1.884,0.25987
1.888,0.45815
1.892,0.60605
1.896,0.85394
1.9,0.96769
1.904,0.99116
1.908,0.92374
1.912,0.76418
1.916,0.57103
1.92,0.3777
1.924,0.14846
1.928,-0.03478
1.932,-0.17228
1.936,-0.10196
1.94,-0.12577
1.944,-0.0828
1.948,-0.05133
1.952,-0.02555
1.956,0.004
1.96,-0.00303
1.964,0.06434
1.968,0.03484
1.972,-0.04073
1.976,0.08799
1.98,0.05859
1.984,0.02254
1.988,0.03098
1.992,0.03658
1.996,0.07362
2.0,0.03698
2.004,-0.02414
2.008,0.00046
2.012,-0.00924
2.016,0.02595
2.02,0.08975
2.024,0.03137
2.028,0.04995
2.032,0.07212
2.036,0.04972
2.04,0.04172
2.044,0.03973
2.048,0.03175
2.052,0.0314
2.056,0.03314
2.06,0.10405
2.064,0.00868
2.068,0.0184
2.072,0.06609
2.076,0.00017
2.08,0.0147
2.084,0.07394
2.088,0.0168
2.092,-0.005
2.096,0.03506
2.1,0.07059
2.104,0.055
2.108,0.07849
2.112,0.11192
2.116,0.03438
2.12,0.07087
2.124,0.05812
2.128,0.13653
2.132,0.1526
2.136,0.17915
2.14,0.209
2.144,0.22587
2.148,0.14018
2.152,0.13781
2.156,0.15664
2.16,0.19523
2.164,0.23557
2.168,0.19009
2.172,0.25873
2.176,0.22889
2.18,0.27907
2.184,0.24413
2.188,0.24489
2.192,0.2987
2.196,0.29942
2.2,0.17921
2.204,0.26672
2.208,0.22852
2.212,0.14732
2.216,0.18029
2.22,0.16831
2.224,0.15656
2.228,0.13069
2.232,0.14317
2.236,0.18019
2.24,0.13558
2.244,0.12008
2.248,0.10788
2.252,0.08032
2.256,0.02996
2.26,0.09887
2.264,0.11518
2.268,0.05866
2.272,0.04225
2.276,0.02439
2.28,0.10971
2.284,0.05702
2.288,0.05441
2.292,0.0682
2.296,0.03417
2.3,-0.00636
2.304,0.00561
2.308,0.01717
2.312,0.0212
2.316,-0.00961
2.32,0.07504
2.324,0.05903
2.328,0.04375
2.332,0.05317
2.336,0.01634
2.34,0.02897
2.344,0.05089
2.348,0.00147
2.352,0.07495
2.356,-0.04613
2.36,0.08031
2.364,0.04298
2.368,0.04558
2.372,0.02777
2.376,0.07706
2.38,0.07254
2.384,0.09653
2.388,0.05749
2.392,-0.00979
2.396,-0.04299
2.4,0.03533
2.404,0.00456
2.408,0.05109
2.412,0.05631
2.416,0.04845
2.42,0.02003
2.424,0.05791
2.428,-0.00788
2.432,0.06144
2.436,0.08075
2.44,0.0213
2.444,0.05789
2.448,0.09912
2.452,0.11265
2.456,0.05502
2.46,0.10448
2.464,0.08202
2.468,0.1183
2.472,0.12136
2.476,0.16297
2.48,0.14468
2.484,0.10697
2.488,0.091
2.492,0.1292
2.496,0.10161
2.5,0.09893
2.504,0.12937
2.508,0.02029
2.512,0.06241
2.516,0.04135
2.52,0.00732
2.524,0.03602
2.528,0.05181
2.532,-0.03783
2.536,-0.0095
2.54,0.0614
2.544,0.03697
2.548,0.03923
2.552,0.04882
2.556,0.04182
2.56,0.0593
2.564,0.06727
2.568,0.03362
2.572,0.0715
2.576,-0.02253
2.58,0.05546
2.584,0.00613
2.588,0.00577
2.592,0.00893
2.596,-0.00609
2.6,-0.01801
2.604,-0.1002
2.608,-0.10886
2.612,-0.01814
2.616,0.05447
2.62,0.22528
2.624,0.43327
2.628,0.69234
2.632,0.72607
2.636,0.91316
2.64,1.01427
2.644,0.9733
2.648,0.74965
2.652,0.55458
2.656,0.26793
2.66,0.07882
2.664,-0.03765
2.668,-0.09161
2.672,-0.16092
2.676,-0.12548
2.68,-0.13365
2.684,-0.04027
2.688,-0.02465
2.692,0.05678
2.696,-0.00367
2.7,0.02329
2.704,-0.05776
2.708,0.04452
2.712,0.08119
2.716,0.04398
2.72,0.01094
2.724,0.01579
2.728,0.03339
2.732,0.04441
2.736,0.02997
2.74,0.03205
2.744,0.05636
2.748,-0.007
2.752,0.02215
2.756,-0.00285
2.76,0.02911
2.764,0.02662
2.768,-0.02289
2.772,0.00927
2.776,-0.03774
2.78,-0.00745
2.784,0.05358
2.788,0.07291
2.792,0.02088
2.796,0.10674
2.8,0.01345
2.804,0.08584
2.808,0.01803
2.812,0.00454
2.816,0.05431
2.82,0.0753
2.824,-0.02203
2.828,0.0247
2.832,0.01655
2.836,0.04591
2.84,0.01663
2.844,0.03466
2.848,0.07674
2.852,0.09729
2.856,0.14588
2.86,0.1036
2.864,0.10427
2.868,0.12218
2.872,0.09809
2.876,0.15938
2.88,0.16914
2.884,0.19579
2.888,0.16794
2.892,0.22524
2.896,0.23064
2.9,0.18703
2.904,0.20285
2.908,0.19673
2.912,0.2685
2.916,0.25164
2.92,0.19477
2.924,0.26418
2.928,0.19658
2.932,0.20857
2.936,0.24262
2.94,0.21917
2.944,0.27325
2.948,0.17782
2.952,0.22121
2.956,0.21409
2.96,0.15026
2.964,0.12407
2.968,0.16858
2.972,0.18881
2.976,0.15414
2.98,0.10415
2.984,0.04189
2.988,0.06466
2.992,0.14505
2.996,0.03783
3.0,0.06239
3.004,0.05995
3.008,-0.02153
3.012,0.05055
3.016,0.03188
3.02,-0.00596
3.024,-0.00127
3.028,0.0333
3.032,0.03663
3.036,0.07989
3.04,0.03225
3.044,0.05621
3.048,-0.04019
3.052,0.0389
3.056,0.00297
3.06,0.02932
3.064,0.01232
3.068,0.06182
3.072,0.04971
3.076,0.01632
3.08,0.03401
3.084,-0.04017
3.088,-0.07134
3.092,-0.01429
3.096,-0.00678
3.1,-0.00293
3.104,0.04317
3.108,0.01941
3.112,0.01244
3.116,0.03201
3.12,-0.00322
3.124,-0.05015
3.128,0.00032
3.132,-0.01562
3.136,0.02426
3.14,0.05182
3.144,0.07816
3.148,0.06259
3.152,0.05017
3.156,0.0465
3.16,0.0382
3.164,-0.0087
3.168,0.03376
3.172,0.03569
3.176,-0.00257
3.18,0.01726
3.184,0.02454
3.188,-0.02575
3.192,0.06007
3.196,-0.03006
3.2,0.06529
3.204,0.00479
3.208,0.02838
3.212,0.0347
3.216,-0.0113
3.22,-0.00248
3.224,-0.00181
3.228,0.04334
3.232,0.03781
3.236,0.08847
3.24,0.04995
3.244,0.11061
3.248,0.09625
3.252,0.09989
3.256,0.13145
3.26,0.16613
3.264,0.12094
3.268,0.024
3.272,0.08127
3.276,0.0268
3.28,0.04372
3.284,0.03072
3.288,0.01733
3.292,0.06658
3.296,-0.02596
3.3,0.01371
3.304,0.00265
3.308,-0.02306
3.312,0.01222
3.316,0.0254
3.32,0.01345
3.324,0.02117
3.328,-0.04887
3.332,0.02656
3.336,-0.03211
3.34,-0.02089
3.344,0.01934
3.348,0.00537
3.352,-0.02923
3.356,0.00117
3.36,0.08051
3.364,-0.0133
3.368,0.03527
3.372,-0.11317
3.376,-0.07425
3.38,-0.15067
3.384,-0.06527
3.388,-0.04104
3.392,0.1266
3.396,0.28973
3.4,0.54982
3.404,0.76893
3.408,0.96549
3.412,1.01042
3.416,0.97884
3.42,0.87312
3.424,0.63299
3.428,0.44645
3.432,0.2338
3.436,0.04205
3.44,-0.16216
3.444,-0.13424
3.448,-0.14998
3.452,-0.08844
3.456,-0.0374
3.46,0.00651
3.464,-0.04783
3.468,0.02539
3.472,-0.04308
3.476,-0.01104
3.48,-0.03589
3.484,-0.00966
3.488,0.00541
3.492,0.06264
3.496,-0.02514
3.5,0.00973
3.504,-0.00904
3.508,0.0328
3.512,0.04836
3.516,0.03542
3.52,-0.01514
3.524,0.02926
3.528,0.04541
3.532,0.02908
3.536,0.04453
3.54,-0.0044
3.544,-0.00188
3.548,0.03934
3.552,0.01744
3.556,-0.03737
3.56,0.04654
3.564,-0.06691
3.568,0.03257
3.572,0.05978
3.576,0.05074
3.58,-0.01517
3.584,-0.03056
3.588,0.02648
3.592,0.02992
3.596,0.07363
3.6,0.05956
3.604,0.04518
3.608,0.07112
3.612,0.06917
3.616,0.00428
3.62,0.03927
3.624,0.10854
3.628,0.03982
3.632,0.06982
3.636,0.07707
3.64,0.11408
3.644,0.09083
3.648,0.14016
3.652,0.16263
3.656,0.15244
3.66,0.14727
3.664,0.18574
3.668,0.21732
3.672,0.26737
3.676,0.16158
3.68,0.15887
3.684,0.18506
3.688,0.23083
3.692,0.21094
3.696,0.31483
3.7,0.25232
3.704,0.22263
3.708,0.20473
3.712,0.25237
3.716,0.22771
3.72,0.17411
3.724,0.19386
3.728,0.09686
3.732,0.11073
3.736,0.14328
3.74,0.17009
3.744,0.08643
3.748,0.11201
3.752,0.11046
3.756,0.10643
3.76,0.05238
3.764,0.06395
3.768,0.08099
3.772,0.04836
3.776,0.02724
3.78,0.06165
3.784,0.00879
3.788,0.05208
3.792,0.0547
3.796,0.03834
3.8,0.03327
3.804,0.03292
3.808,0.00043
3.812,0.0758
3.816,0.03975
3.82,0.05812
3.824,-0.06871
3.828,0.01661
3.832,0.06062
3.836,0.11881
3.84,0.05056
3.844,0.06101
3.848,0.07378
3.852,0.09654
3.856,0.0322
3.86,0.14248
3.864,0.05546
3.868,0.13577
3.872,0.08837
3.876,0.06328
3.88,0.07641
3.884,0.06861
3.888,0.0325
3.892,-0.02782
3.896,0.08388
3.9,0.03815
3.904,-0.01462
3.908,-0.02015
3.912,0.03805
3.916,-0.01426
3.92,-0.04029
3.924,-0.0191
3.928,-0.06936
3.932,-0.01463
3.936,-0.0076
3.94,0.01747
3.944,-0.00082
3.948,-0.00956
3.952,0.00137
3.956,-0.03924
3.96,-0.00762
3.964,0.02974
3.968,0.00215
3.972,0.02493
3.976,-0.01949
3.98,-0.02464
3.984,-0.15634
3.988,-0.17131
3.992,-0.03852
3.996,0.08536
4.0,0.23512
4.004,0.52467
4.008,0.69047
4.012,0.89149
4.016,0.96452
4.02,0.99848
4.024,0.87362
4.028,0.69863
4.032,0.41439
4.036,0.19447
4.04,0.01772
4.044,-0.04806
4.048,-0.12224
4.052,-0.11501
4.056,-0.11505
4.06,-0.0399
4.064,-0.06677
4.068,-0.00943
4.072,-0.02601
4.076,0.05466
4.08,-0.01625
4.084,-0.10395
4.088,0.0575
4.092,-0.01478
4.096,-0.04856
4.1,0.02783
4.104,-0.0143
4.108,-0.00693
4.112,-0.03887
4.116,-0.02014
4.12,0.01408
4.124,0.05118
4.128,0.03006
4.132,-0.01734
4.136,-0.01642
4.14,0.08306
4.144,-0.00674
4.148,0.00975
4.152,-0.03614
4.156,-0.02564
4.16,-0.03754
4.164,0.04001
4.168,-0.01981
4.172,-0.0519
4.176,-0.02429
4.18,-0.03654
4.184,-0.05119
4.188,-0.05551
4.192,0.04105
4.196,-0.00958
4.2,0.0505
4.204,0.05472
4.208,-0.04638
4.212,0.01514
4.216,0.09455
4.22,0.06445
4.224,0.07106
4.228,0.07553
4.232,0.04679
4.236,0.05394
4.24,0.11582
4.244,0.08003
4.248,0.15665
4.252,0.10418
4.256,0.11662
4.26,0.16406
4.264,0.13991
4.268,0.13334
4.272,0.18155
4.276,0.18422
4.28,0.18896
4.284,0.2363
4.288,0.16422
4.292,0.20175
4.296,0.28929
4.3,0.16834
4.304,0.18854
4.308,0.26716
4.312,0.2245
4.316,0.2247
4.32,0.21565
4.324,0.13015
4.328,0.12792
4.332,0.17476
4.336,0.1543
4.34,0.13409
4.344,0.09494
4.348,0.06235
4.352,0.11784
4.356,0.13328
4.36,0.0721
4.364,0.06997
4.368,0.09256
4.372,0.06123
4.376,0.05609
4.38,-0.04164
4.384,-0.04521
4.388,0.0039
4.392,0.01783
4.396,-0.05629
4.4,0.04146
4.404,0.00601
4.408,-0.0824
4.412,-0.02716
4.416,0.00908
4.42,-0.08561
4.424,0.04313
4.428,-0.00161
4.432,-0.02995
4.436,-0.07918
4.44,-0.04709
4.444,0.02192
4.448,-0.01653
4.452,0.01203
4.456,-0.04415
4.46,-0.02451
4.464,-0.04971
4.468,-0.03121
4.472,-0.00073
4.476,-0.04485
4.48,-0.03184
4.484,-0.0585
4.488,-0.04063
4.492,0.01123
4.496,-0.00492
4.5,0.02482
4.504,-0.00582
4.508,0.04196
4.512,0.03678
4.516,0.0047
4.52,0.03108
4.524,-0.00994
4.528,0.07705
4.532,0.10004
4.536,0.05112
4.54,0.09583
4.544,0.07529
4.548,0.07336
4.552,0.07288
4.556,0.05481
4.56,0.03433
4.564,0.10848
4.568,0.03318
4.572,-0.03055
4.576,0.10293
4.58,0.00138
4.584,-0.06505
4.588,-0.01894
4.592,0.02743
4.596,-0.07485
4.6,-0.04697
4.604,-0.08635
4.608,-0.01198
4.612,0.00197
4.616,-0.02263
4.62,-0.04018
4.624,-0.0498
4.628,0.04327
4.632,-0.04254
4.636,-0.05896
4.64,-0.0118
4.644,-0.05679
4.648,-0.07037
4.652,-0.05657
4.656,-0.01528
4.66,-0.13339
4.664,-0.12759
4.668,-0.08039
4.672,-0.00267
4.676,0.11284
4.68,0.35091
4.684,0.5837
4.688,0.69621
4.692,0.94958
4.696,0.98046
4.7,0.93057
4.704,0.78469
4.708,0.58702
4.712,0.30363
4.716,0.17079
4.72,-0.07878
4.724,-0.15483
4.728,-0.15879
4.732,-0.19134
4.736,-0.15479
4.74,-0.14255
4.744,-0.05882
4.748,-0.05382
4.752,-0.02655
4.756,-0.03734
4.76,-0.0879
4.764,0.00165
4.768,-0.0079
4.772,-0.02941
4.776,-0.03476
4.78,-0.07463
4.784,-0.05226
4.788,-0.04943
4.792,-0.03013
4.796,0.04583
4.8,0.02076
4.804,-0.01064
4.808,-0.02498
4.812,0.03372
4.816,0.03239
4.82,-0.03506
4.824,-0.04781
4.828,-0.06802
4.832,-0.00273
4.836,0.04919
4.84,0.023
4.844,0.00703
4.848,-0.07494
4.852,-0.00242
4.856,0.04
4.86,-0.02822
4.864,-0.00431
4.868,0.01808
4.872,-0.00093
4.876,0.03005
4.88,0.04896
4.884,0.00566
4.888,0.04886
4.892,0.02672
4.896,0.03454
4.9,0.0256
4.904,0.08337
4.908,0.00502
4.912,0.01967
4.916,0.10357
4.92,0.09766
4.924,0.0805
4.928,0.08509
4.932,0.12024
4.936,0.17776
4.94,0.1408
4.944,0.16109
4.948,0.1711
4.952,0.16568
4.956,0.16153
4.96,0.26586
4.964,0.20786
4.968,0.15945
4.972,0.22454
4.976,0.12596
4.98,0.16894
4.984,0.25041
4.988,0.18349
4.992,0.24148
4.996,0.13519
5.0,0.1441
5.004,0.16979
5.008,0.19305
5.012,0.18128
5.016,0.1361
5.02,0.1464
5.024,0.10476
5.028,0.09946
5.032,0.05654
5.036,0.03
5.04,0.04246
5.044,0.08933
5.048,0.11243
5.052,0.04464
5.056,0.07658
5.06,-0.08462
5.064,-0.00876
5.068,0.0472
5.072,0.02292
5.076,-0.04212
5.08,0.01918
5.084,-0.08782
5.088,-0.02166
5.092,-0.02571
5.096,-0.13633
5.1,-0.03105
5.104,-0.1038
5.108,-0.07722
5.112,-0.00918
5.116,-0.03595
5.12,-0.0444
5.124,-0.05114
5.128,-0.04725
5.132,-0.05806
5.136,-0.03036
5.14,0.04292
5.144,-0.0484
5.148,-0.0809
5.152,-0.09973
5.156,-0.10281
5.16,-0.06368
5.164,-0.07591
5.168,-0.00166
5.172,-0.00646
5.176,-0.02386
5.18,-0.0666
5.184,-0.08578
5.188,0.01665
5.192,-0.05241
5.196,-0.03695
5.2,-0.04863
5.204,0.01548
5.208,-0.06204
5.212,-0.00106
5.216,-0.04993
5.22,-0.04534
5.224,-0.03929
5.228,-0.00131
5.232,-0.05035
5.236,-0.00744
5.24,-0.04059
5.244,-0.04268
5.248,0.00787
5.252,0.00337
5.256,0.01002
5.26,-0.01171
5.264,-0.07221
5.268,-0.04944
5.272,-0.07991
5.276,-0.08425
5.28,-0.03561
5.284,0.01338
5.288,0.01081
5.292,0.04474
5.296,0.01441
5.3,0.00429
5.304,0.03436
5.308,0.12256
5.312,0.07093
5.316,0.0383
5.32,0.03911
5.324,0.09411
5.328,0.0696
5.332,-0.01017
5.336,-0.0866
5.34,0.00542
5.344,0.05169
5.348,-0.0514
5.352,-0.03584
5.356,-0.07668
5.36,-0.02405
5.364,0.02113
5.368,0.03851
5.372,0.02907
5.376,0.00996
5.38,-0.01012
5.384,-0.02728
5.388,-0.07789
5.392,-0.03161
5.396,0.07641
5.4,-0.02001
5.404,-0.06459
5.408,-0.05613
5.412,-0.03787
5.416,-0.0764
5.42,-0.02604
5.424,-0.0355
5.428,-0.06729
5.432,-0.09085
5.436,-0.1434
5.44,-0.16394
5.444,-0.11574
5.448,-0.06194
5.452,0.0996
5.456,0.30109
5.46,0.48282
5.464,0.74784
5.468,0.91551
5.472,0.98502
5.476,0.85039
5.48,0.76791
5.484,0.60787
5.488,0.33534
5.492,0.14483
5.496,-0.07056
5.5,-0.13912
5.504,-0.21476
5.508,-0.16401
5.512,-0.13879
5.516,-0.05272
5.52,-0.15245
5.524,-0.05844
5.528,-0.08854
5.532,0.0418
5.536,0.02313
5.54,-0.04553
5.544,-0.05315
5.548,0.00944
5.552,-0.05024
5.556,-0.04756
5.56,-0.07902
5.564,-0.06322
5.568,-0.04931
5.572,-0.04681
5.576,-0.02472
5.58,-0.01615
5.584,0.05299
5.588,0.02898
5.592,0.01842
5.596,-0.03953
5.6,-0.00673
5.604,0.03259
5.608,-0.1095
5.612,-0.09821
5.616,0.00588
5.62,-0.03381
5.624,-0.01302
5.628,-0.03321
5.632,-0.02208
5.636,-0.04194
5.64,-0.00845
5.644,-0.0544
5.648,-0.02483
5.652,0.05572
5.656,-0.03178
5.66,-0.0218
5.664,-0.03267
5.668,-0.10276
5.672,-0.02815
5.676,0.07458
5.68,-0.00151
5.684,0.07568
5.688,0.0187
5.692,0.04374
5.696,0.03912
5.7,0.08723
5.704,0.06566
5.708,0.16627
5.712,0.14411
5.716,0.1483
5.72,0.1833
5.724,0.17878
5.728,0.14315
5.732,0.13859
5.736,0.13527
5.74,0.17319
5.744,0.18619
5.748,0.17364
5.752,0.17848
5.756,0.176
5.76,0.13552
5.764,0.18943
5.768,0.21291
5.772,0.17868
5.776,0.07836
5.78,0.15189
5.784,0.12406
5.788,0.06904
5.792,0.1018
5.796,0.07396
5.8,0.12523
5.804,0.06081
5.808,0.13658
5.812,0.10017
5.816,0.06266
5.82,0.2049
5.824,0.08234
5.828,0.09341
5.832,0.16912
5.836,0.1797
5.84,0.12135
5.844,0.11109
5.848,0.04831
5.852,0.08336
5.856,0.01439
5.86,0.04537
5.864,-0.02661
5.868,0.0117
5.872,0.01826
5.876,0.04656
5.88,0.01118
5.884,-0.05909
5.888,-0.01492
5.892,-0.05881
5.896,0.02392
5.9,-0.06358
5.904,-0.13077
5.908,-0.02109
5.912,0.00523
5.916,-0.08615
5.92,0.02452
5.924,-0.04535
5.928,-0.02601
5.932,-0.08218
5.936,-0.01492
5.94,0.00235
5.944,0.04275
5.948,-0.03163
5.952,-0.05363
5.956,-0.06464
5.96,-0.14273
5.964,-0.20428
5.968,-0.14066
5.972,-0.03387
5.976,0.06135
5.98,0.31783
5.984,0.57135
5.988,0.65987
5.992,0.95383
5.996,0.94247
6.0,0.90659
6.004,0.77093
6.008,0.55605
6.012,0.34125
6.016,0.10583
6.02,-0.02293
6.024,-0.15972
6.028,-0.20379
6.032,-0.16282
6.036,-0.12588
6.04,-0.12794
6.044,-0.08124
6.048,-0.09427
6.052,-0.01581
6.056,-0.05806
6.06,-0.04668
6.064,-0.00628
6.068,0.00759
6.072,-0.07169
6.076,0.03286
6.08,0.00428
6.084,-0.03717
6.088,-0.01935
6.092,-0.00807
6.096,-0.04129
6.1,-0.03481
6.104,-0.02306
6.108,-0.01749
6.112,-0.04199
6.116,-0.06795
6.12,-0.00892
6.124,0.00069
6.128,-0.03233
6.132,-0.08457
6.136,-0.01342
6.14,0.01897
6.144,-0.01096
6.148,0.01788
6.152,0.01813
6.156,-0.03803
6.16,0.0058
6.164,-0.10008
6.168,-0.04954
6.172,-0.03256
6.176,-0.02154
6.18,0.01761
6.184,0.05675
6.188,-0.01082
6.192,0.00254
6.196,-0.00832
6.2,-0.02262
6.204,0.0631
6.208,-0.02055
6.212,0.09594
6.216,0.07295
6.22,0.04542
6.224,0.09582
6.228,0.13421
6.232,0.09909
6.236,0.13739
6.24,0.09496
6.244,0.11732
6.248,0.14139
6.252,0.15068
6.256,0.20458
6.26,0.17954
6.264,0.20404
6.268,0.21299
6.272,0.2062
6.276,0.20712
6.28,0.19268
6.284,0.27375
6.288,0.22076
6.292,0.23503
6.296,0.16756
6.3,0.1599
6.304,0.13966
6.308,0.19674
6.312,0.08672
6.316,0.10713
6.32,0.07445
6.324,0.1081
6.328,0.08002
6.332,0.09822
6.336,0.05402
6.34,0.08295
6.344,0.00802
6.348,0.03488
6.352,0.06768
6.356,0.04388
6.36,0.03523
6.364,0.01354
6.368,-0.02817
6.372,-0.01385
6.376,0.04967
6.38,-0.00215
6.384,0.00865
6.388,-0.01523
6.392,0.04812
6.396,0.01573
6.4,0.01364
6.404,-0.01223
6.408,0.04478
6.412,0.05404
6.416,0.00901
6.42,-0.05078
6.424,0.07058
6.428,0.10699
6.432,0.06101
6.436,0.11048
6.44,0.10874
6.444,0.07897
6.448,0.05417
6.452,0.05218
6.456,0.05956
6.46,0.02615
6.464,-0.03134
6.468,0.06825
6.472,0.02227
6.476,-0.04486
6.48,-0.0025
6.484,-0.01985
6.488,-0.06407
6.492,-0.03841
6.496,0.03909
6.5,-0.01788
6.504,-0.02227
6.508,-0.02214
6.512,-0.02169
6.516,-0.03772
6.52,-0.02716
6.524,0.02639
6.528,0.00551
6.532,-0.00277
6.536,-0.05864
6.54,-0.0064
6.544,0.04601
6.548,-0.01192
6.552,-0.09495
6.556,-0.01393
6.56,-0.15678
6.564,-0.10941
6.568,-0.08325
6.572,-0.11329
6.576,0.04927
6.58,0.15936
6.584,0.44166
6.588,0.67103
6.592,0.81192
6.596,0.94192
6.6,1.00068
6.604,0.96846
6.608,0.74575
6.612,0.53594
6.616,0.34442
6.62,0.12224
6.624,-0.02972
6.628,-0.08402
6.632,-0.1855
6.636,-0.16163
6.64,-0.15853
6.644,-0.09829
6.648,-0.10023
6.652,-0.02731
6.656,-0.08245
6.66,0.02126
6.664,0.03181
6.668,0.03234
6.672,-0.09814
6.676,0.02008
6.68,-0.04571
6.684,0.02258
6.688,-0.02177
6.692,0.01983
6.696,0.03839
6.7,0.06178
6.704,-0.00835
6.708,-0.08008
6.712,-0.0158
6.716,-0.08745
6.72,0.02302
6.724,-0.01506
6.728,0.02256
6.732,-0.06539
6.736,-0.06586
6.74,0.00451
6.744,0.04415
6.748,0.0155
6.752,-0.01389
6.756,-0.0612
6.76,0.0096
6.764,-0.0048
6.768,-0.01439
6.772,0.07552
6.776,0.00475
6.78,-0.02491
6.784,-0.02349
6.788,0.00975
6.792,0.04628
6.796,0.04181
6.8,0.06027
6.804,0.02013
6.808,0.06315
6.812,0.04698
6.816,0.04943
6.82,0.0356
6.824,0.06376
6.828,0.02551
6.832,0.13122
6.836,0.13743
6.84,0.10359
6.844,0.12956
6.848,0.17264
6.852,0.16868
6.856,0.12399
6.86,0.07958
6.864,0.21625
6.868,0.28273
6.872,0.17612
6.876,0.21948
6.88,0.18809
6.884,0.17755
6.888,0.23617
6.892,0.19454
6.896,0.22568
6.9,0.16825
6.904,0.19404
6.908,0.12247
6.912,0.1327
6.916,0.16156
6.92,0.17864
6.924,0.12362
6.928,0.06054
6.932,0.09474
6.936,0.1108
6.94,0.11579
6.944,0.09197
6.948,0.05725
6.952,0.05908
6.956,0.0308
6.96,0.04555
6.964,0.03844
6.968,-0.01197
6.972,0.01153
6.976,-0.032
6.98,0.05582
6.984,0.04792
6.988,-0.05023
6.992,0.0665
6.996,0.04196
7.0,0.02997
7.004,0.01346
7.008,-0.02233
7.012,-0.01405
7.016,0.05384
7.02,-0.06691
7.024,0.01096
7.028,0.01272
7.032,-0.0373
7.036,-0.03919
7.04,-0.01556
7.044,0.02479
7.048,-0.0525
7.052,0.02623
7.056,-0.06542
7.06,0.02457
7.064,-0.02982
7.068,0.07418
7.072,-0.03009
7.076,-0.0012
7.08,-0.05421
7.084,-0.00116
7.088,0.00147
7.092,-0.04139
7.096,0.01813
7.1,-0.05968
7.104,0.05998
7.108,-0.01403
7.112,0.00712
7.116,0.03806
7.12,0.08324
7.124,0.00811
7.128,-0.06293
7.132,-0.00349
7.136,0.04886
7.14,0.00014
7.144,0.06882
7.148,0.0021
7.152,0.00545
7.156,0.03949
7.16,0.0455
7.164,0.0532
7.168,0.1011
7.172,0.09671
7.176,0.10396
7.18,0.11686
7.184,0.07017
7.188,0.08346
7.192,0.09282
7.196,0.10215
7.2,0.0208
7.204,0.04707
7.208,0.0066
7.212,0.04997
7.216,0.06047
7.22,0.01197
7.224,0.00872
7.228,0.03714
7.232,0.02161
7.236,0.0668
7.24,-0.01726
7.244,0.02873
7.248,0.07183
7.252,0.00098
7.256,-0.02342
7.26,-0.01154
7.264,0.03865
7.268,0.01523
7.272,0.05629
7.276,0.07917
7.28,-0.00485
7.284,0.01721
7.288,-0.04469
7.292,-0.02522
7.296,-0.05486
7.3,0.01456
7.304,-0.05425
7.308,-0.09102
7.312,-0.14442
7.316,-0.0586
7.32,0.07573
7.324,0.16795
7.328,0.39263
7.332,0.58588
7.336,0.85624
7.34,0.94099
7.344,0.9685
7.348,0.93836
7.352,0.82726
7.356,0.59588
7.36,0.31697
7.364,0.10325
7.368,-0.06203
7.372,-0.13425
7.376,-0.19279
7.38,-0.11947
7.384,-0.06695
7.388,-0.0864
7.392,-0.10165
7.396,-0.02772
7.4,-0.0255
7.404,-0.02808
7.408,-0.00521
7.412,0.02383
7.416,0.07114
7.42,0.01121
7.424,0.07011
7.428,0.00902
7.432,0.01897
7.436,-0.04185
7.44,-0.02807
7.444,0.01322
7.448,0.03338
7.452,-0.02533
7.456,0.0533
7.46,-0.0367
7.464,-0.02031
7.468,0.08018
7.472,0.04857
7.476,-0.01795
7.48,-0.03768
7.484,-0.01839
7.488,-0.00292
7.492,0.03155
7.496,0.01386
7.5,-0.01206
7.504,0.05094
7.508,-0.01299
7.512,-0.00412
7.516,0.04606
7.52,-0.02329
7.524,-0.02256
7.528,0.03693
7.532,0.01505
7.536,0.16698
7.54,0.03441
7.544,0.11066
7.548,0.08185
7.552,0.0793
7.556,0.03665
7.56,0.05339
7.564,0.14987
7.568,0.10592
7.572,0.12663
7.576,0.10665
7.58,0.12465
7.584,0.10342
7.588,0.20363
7.592,0.13964
7.596,0.19798
7.6,0.21762
7.604,0.15195
7.608,0.20951
7.612,0.21416
7.616,0.2406
7.62,0.26215
7.624,0.23947
7.628,0.25929
7.632,0.2258
7.636,0.2626
7.64,0.21856
7.644,0.24574
7.648,0.1853
7.652,0.21073
7.656,0.18186
7.66,0.20701
7.664,0.12855
7.668,0.18868
7.672,0.08844
7.676,0.13121
7.68,0.09274
7.684,0.07659
7.688,0.11699
7.692,0.10777
7.696,0.10213
7.7,0.06171
7.704,0.03633
7.708,0.00082
7.712,0.01807
7.716,-0.03543
7.72,0.0772
7.724,0.01694
7.728,0.0673
7.732,0.05619
7.736,-0.00613
7.74,-0.02485
7.744,0.07931
7.748,0.06909
7.752,-0.02421
7.756,0.04033
7.76,0.01549
7.764,-0.02573
7.768,0.03239
7.772,0.06967
7.776,0.01202
7.78,0.03412
7.784,0.00156
7.788,0.05727
7.792,0.01303
7.796,0.04999
7.8,0.0391
7.804,0.04006
7.808,0.02958
7.812,0.04964
7.816,-0.05951
7.82,0.0075
7.824,-0.02034
7.828,0.01431
7.832,0.04983
7.836,0.09784
7.84,0.0422
7.844,-0.00646
7.848,0.02206
7.852,0.07206
7.856,0.00671
7.86,0.03217
7.864,0.02404
7.868,0.05575
7.872,-0.08932
7.876,0.01938
7.88,0.02665
7.884,0.00696
7.888,0.01984
7.892,-0.03099
7.896,-0.00279
7.9,0.04669
7.904,0.06588
7.908,-0.01222
7.912,0.02363
7.916,0.02932
7.92,0.04204
7.924,-0.00297
7.928,-0.00168
7.932,-0.0179
7.936,0.09311
7.94,0.00372
7.944,0.0348
7.948,0.03539
7.952,-0.03681
7.956,0.04454
7.96,-0.05101
7.964,0.01988
7.968,0.03154
7.972,-0.01993
7.976,-0.03245
7.98,0.03549
7.984,0.00254
7.988,0.03188
7.992,0.02112
7.996,0.07536
8.0,0.06846
8.004,0.01496
8.008,-0.02635
8.012,0.04008
8.016,0.0057
8.02,-0.03665
8.024,-0.00452
8.028,0.01326
8.032,-0.03452
8.036,0.01442
8.04,-0.00941
8.044,0.00229
8.048,0.0395
8.052,0.04113
8.056,-0.00327
8.06,-0.03647
8.064,0.01818
8.068,0.06495
8.072,0.04212
8.076,-0.0098
8.08,0.02456
8.084,0.07983
8.088,0.03717
8.092,0.065
8.096,-0.00069
8.1,0.03241
8.104,0.03663
8.108,0.0285
8.112,-0.06321
8.116,-0.03209
8.12,-0.00652
8.124,0.07465
8.128,0.02352
8.132,0.01013
8.136,0.05501
8.14,0.06279
8.144,0.04471
8.148,0.08894
8.152,0.0928
8.156,0.02137
8.16,0.12091
8.164,0.08225
8.168,0.15493
8.172,0.09498
8.176,0.16104
8.18,0.11746
8.184,0.09387
8.188,0.07781
8.192,0.15442
8.196,0.05975
8.2,0.01783
8.204,-0.01933
8.208,0.0132
8.212,-0.01519
8.216,0.06196
8.22,-0.00055
8.224,0.07009
8.228,0.03673
8.232,0.05119
8.236,0.00968
8.24,-3e-05
8.244,-0.01356
8.248,0.03933
8.252,0.0293
8.256,0.00613
8.26,0.06849
8.264,-0.00638
8.268,0.03893
8.272,0.01218
8.276,0.03737
8.28,0.06908
8.284,0.02696
8.288,0.02589
8.292,-0.01828
8.296,-0.10646
8.3,-0.12423
8.304,-0.06291
8.308,0.08296
8.312,0.22316
8.316,0.45859
8.32,0.49775
8.324,0.75609
8.328,0.98336
8.332,1.08996
8.336,0.91605
8.34,0.83884
8.344,0.56682
8.348,0.38041
8.352,0.18378
8.356,-0.01568
8.36,-0.12263
8.364,-0.11398
8.368,-0.12433
8.372,-0.05674
8.376,0.0088
8.38,-0.05614
8.384,0.0335
8.388,0.04087
8.392,-0.01496
8.396,0.00648
8.4,0.03252
8.404,0.01652
8.408,-0.0325
8.412,-0.01099
8.416,0.06592
8.42,0.03652
8.424,0.04967
8.428,0.02065
8.432,0.0432
8.436,0.03948
8.44,0.0318
8.444,0.03161
8.448,0.04414
8.452,-0.00084
8.456,-0.00462
8.46,0.04822
8.464,0.08708
8.468,0.03512
8.472,0.04508
8.476,-0.077
8.48,0.00323
8.484,0.00231
8.488,-0.04359
8.492,0.05664
8.496,0.01001
8.5,0.02589
8.504,0.08809
8.508,0.01198
8.512,0.07805
8.516,0.07826
8.52,0.07215
8.524,0.07988
8.528,0.07407
8.532,0.10603
8.536,0.06195
8.54,0.1211
8.544,0.08095
8.548,0.07052
8.552,0.13953
8.556,0.16916
8.56,0.17594
8.564,0.18079
8.568,0.12548
8.572,0.16308
8.576,0.16066
8.58,0.17539
8.584,0.24649
8.588,0.15922
8.592,0.193
8.596,0.14419
8.6,0.22242
8.604,0.28442
8.608,0.22833
8.612,0.23956
8.616,0.29558
8.62,0.20146
8.624,0.23073
8.628,0.21232
8.632,0.2682
8.636,0.22485
8.64,0.21661
8.644,0.16334
8.648,0.22142
8.652,0.22365
8.656,0.17384
8.66,0.18945
8.664,0.1266
8.668,0.1049
8.672,0.06661
8.676,0.11845
8.68,0.12851
8.684,0.01967
8.688,0.12497
8.692,0.05443
8.696,0.11446
8.7,0.0663
8.704,0.0501
8.708,0.04595
8.712,0.13144
8.716,0.02116
8.72,0.04817
8.724,0.05075
8.728,0.05942
8.732,0.03673
8.736,0.03408
8.74,0.08474
8.744,0.02316
8.748,-0.01442
8.752,0.00222
8.756,0.02676
8.76,0.01905
8.764,0.05856
8.768,0.02637
8.772,0.03677
8.776,0.00683
8.78,0.02163
8.784,0.0381
8.788,-0.01905
8.792,-0.0193
8.796,0.03972
8.8,-0.00324
8.804,0.05754
8.808,0.02108
8.812,0.0327
8.816,0.0238
8.82,0.0849
8.824,0.12862
8.828,0.0237
8.832,0.09012
8.836,0.13076
8.84,0.06798
8.844,0.10504
8.848,0.06294
8.852,0.02599
8.856,0.06191
8.86,0.02373
8.864,0.10012
8.868,0.04503
8.872,0.02167
8.876,0.05325
8.88,0.05218
8.884,0.01094
8.888,0.03559
8.892,0.08121
8.896,0.07037
8.9,0.01453
8.904,0.02678
8.908,0.07823
8.912,0.08777
8.916,0.08186
8.92,0.07212
8.924,0.02959
8.928,-0.01962
8.932,0.09607
8.936,0.10128
8.94,0.04316
8.944,0.0376
8.948,-0.00146
8.952,0.02096
8.956,0.02009
8.96,-0.05341
8.964,-0.02505
8.968,-0.08425
8.972,-0.06825
8.976,-0.02087
8.98,0.1384
8.984,0.40999
8.988,0.55755
8.992,0.69055
8.996,0.92779
9.0,0.99812
9.004,0.96174
9.008,0.84437
9.012,0.74486
9.016,0.46533
9.02,0.28445
9.024,0.05734
9.028,-0.04257
9.032,-0.06807
9.036,-0.11727
9.04,-0.09798
9.044,-0.02632
9.048,-0.06068
9.052,0.02377
9.056,0.07082
9.06,0.13898
9.064,0.00766
9.068,0.05625
9.072,0.0522
9.076,0.05904
9.08,0.03058
9.084,-0.04237
9.088,0.03801
9.092,0.06416
9.096,0.04527
9.1,0.07239
9.104,0.04674
9.108,0.00907
9.112,0.02831
9.116,0.01732
9.12,0.03758
9.124,0.00775
9.128,-0.0099
9.132,-0.03926
9.136,0.0444
9.14,-0.00238
9.144,0.04855
9.148,0.02945
9.152,0.01632
9.156,0.01359
9.16,0.0173
9.164,0.00754
9.168,0.06072
9.172,0.06505
9.176,0.0122
9.18,-0.00603
9.184,-0.00062
9.188,0.0917
9.192,0.0459
9.196,0.0279
9.2,0.04326
9.204,0.10895
9.208,-5e-05
9.212,0.17393
9.216,0.10735
9.22,0.14822
9.224,0.10285
9.228,0.17062
9.232,0.19615
9.236,0.14773
9.24,0.14483
9.244,0.20953
9.248,0.17527
9.252,0.18932
9.256,0.18411
9.26,0.25367
9.264,0.22791
9.268,0.2296
9.272,0.17457
9.276,0.28395
9.28,0.24712
9.284,0.24979
9.288,0.29832
9.292,0.23646
9.296,0.2002
9.3,0.20748
9.304,0.20469
9.308,0.22504
9.312,0.24103
9.316,0.24887
9.32,0.17619
9.324,0.14658
9.328,0.15068
9.332,0.16161
9.336,0.11358
9.34,0.11724
9.344,0.12566
9.348,0.14537
9.352,0.09448
9.356,0.09628
9.36,0.04821
9.364,0.0713
9.368,0.07904
9.372,0.09892
9.376,-0.0082
9.38,0.00359
9.384,0.0193
9.388,0.01958
9.392,0.09194
9.396,-0.01034
9.4,0.01419
9.404,0.05999
9.408,0.07392
9.412,-0.02704
9.416,-0.01233
9.42,0.02303
9.424,0.00701
9.428,0.02997
9.432,-0.03315
9.436,0.0304
9.44,0.05882
9.444,-0.00501
9.448,0.06531
9.452,0.01316
9.456,0.07559
9.46,-0.03166
9.464,0.02575
9.468,0.00895
9.472,0.077
9.476,0.02376
9.48,0.02494
9.484,0.01213
9.488,0.01415
9.492,0.02606
9.496,0.01748
9.5,0.00482
9.504,0.03513
9.508,0.00947
9.512,-0.00575
9.516,-0.01199
9.52,0.0072
9.524,-0.00463
9.528,0.02783
9.532,-0.01204
9.536,0.00046
9.54,0.00488
9.544,0.01714
9.548,0.08471
9.552,0.04155
9.556,-0.0122
9.56,0.03914
9.564,0.00766
9.568,0.0323
9.572,0.03695
9.576,0.02813
9.58,0.0409
9.584,0.03029
9.588,-0.01413
9.592,0.01388
9.596,-0.00424
9.6,0.01391
9.604,0.0489
9.608,0.04235
9.612,0.04749
9.616,0.02046
9.62,0.03552
9.624,-0.01192
9.628,0.09623
9.632,0.05495
9.636,0.09205
9.64,0.13131
9.644,0.10115
9.648,0.10263
9.652,0.07738
9.656,0.12048
9.66,0.1662
9.664,0.13042
9.668,0.15703
9.672,0.12668
9.676,0.0826
9.68,0.08518
9.684,0.07654
9.688,0.05809
9.692,0.03623
9.696,0.02253
9.7,-0.03588
9.704,0.05134
9.708,0.07675
9.712,0.04507
9.716,0.02262
9.72,-0.00223
9.724,0.05232
9.728,0.01381
9.732,-0.03523
9.736,-0.02257
9.74,0.03381
9.744,-0.00802
9.748,0.01803
9.752,-0.03195
9.756,0.05348
9.76,0.01225
9.764,0.05794
9.768,0.04026
9.772,-0.00281
9.776,-0.06583
9.78,-0.11236
9.784,-0.01562
9.788,0.0085
9.792,0.15853
9.796,0.33113
9.8,0.52226
9.804,0.72841
9.808,0.93531
9.812,1.05776
9.816,1.03448
9.82,0.87656
9.824,0.63276
9.828,0.41038
9.832,0.17072
9.836,-0.01677
9.84,-0.10053
9.844,-0.14231
9.848,-0.12921
9.852,-0.09498
9.856,-0.0426
9.86,-0.03373
9.864,-0.04845
9.868,-0.11184
9.872,0.00226
9.876,0.01842
9.88,0.01807
9.884,0.01124
9.888,0.00173
9.892,0.00779
9.896,0.04212
9.9,0.09988
9.904,-0.0321
9.908,0.05511
9.912,-0.01557
9.916,0.00643
9.92,0.02866
9.924,0.00583
9.928,0.03614
9.932,0.01926
9.936,0.03614
9.94,0.02368
9.944,-0.02025
9.948,0.10073
9.952,0.03478
9.956,0.02262
9.96,-0.02208
9.964,0.07402
9.968,-0.00718
9.972,-0.04891
9.976,-0.02679
9.98,-0.03957
9.984,0.03326
9.988,0.03194
9.992,0.02693
9.996,-0.00051
