t_seg,ecg_mV
0.0,-0.01255
0.004,0.03099
0.008,-0.01741
0.012,0.03523
0.016,0.01128
0.02,-0.01122
0.024,0.03297
0.028,0.01186
0.032,0.02164
0.036,-0.00352
0.04,0.00533
0.044,0.03763
0.048,0.07441
0.052,0.01881
0.056,0.03219
0.06,-0.04718
0.064,0.01813
0.068,-0.00684
0.072,0.08146
0.076,0.0268
0.08,-0.02878
0.084,-0.0005
0.088,0.01616
0.092,0.02319
0.096,0.04476
0.1,0.02122
0.104,-0.02323
0.108,0.05455
0.112,0.01539
0.116,0.02757
0.12,-0.0044
0.124,-0.0126
0.128,-0.0108
0.132,0.04902
0.136,0.05749
0.14,0.052
0.144,0.01625
0.148,-0.0481
0.152,0.03449
0.156,0.03233
0.16,-0.00142
0.164,0.00867
0.168,-0.04179
0.172,0.03799
0.176,0.06091
0.18,0.00963
0.184,0.02375
0.188,-0.00528
0.192,-0.0475
0.196,-0.00409
0.2,-0.05191
0.204,-0.02991
0.208,0.02461
0.212,-0.00463
0.216,-0.05812
0.22,-0.04714
0.224,-0.04978
0.228,-0.01069
0.232,-0.00268
0.236,-0.00052
0.24,-0.04613
0.244,0.02321
0.248,0.01584
0.252,0.01659
0.256,-0.00766
0.26,0.00065
0.264,0.02322
0.268,0.10507
0.272,-0.01133
0.276,0.00454
0.28,0.07247
0.284,-0.00557
0.288,0.01935
0.292,0.01499
0.296,0.0372
0.3,-0.02528
0.304,0.01895
0.308,0.02494
0.312,-0.00921
0.316,0.08279
0.32,0.0096
0.324,0.03237
0.328,-0.01398
0.332,0.04164
0.336,-0.0183
0.34,0.08341
0.344,-0.01679
0.348,0.04727
0.352,0.02877
0.356,0.08855
0.36,0.04004
0.364,0.01833
0.368,0.00752
0.372,0.06645
0.376,-0.02205
0.38,-0.04778
0.384,0.08701
0.388,0.01
0.392,0.00233
0.396,0.01348
0.4,0.02996
0.404,0.01741
0.408,-0.0185
0.412,0.05655
0.416,-0.02438
0.42,0.06445
0.424,0.04714
0.428,0.03556
0.432,-0.00368
0.436,0.0072
0.44,0.042
0.444,-0.06853
0.448,0.03477
0.452,-0.01871
0.456,-0.03594
0.46,-0.01102
0.464,0.04526
0.468,-0.07407
0.472,0.04274
0.476,0.01114
0.48,0.00708
0.484,-0.00661
0.488,-0.02444
0.492,0.01137
0.496,-0.00808
0.5,0.00555
0.504,-0.00693
0.508,-0.03362
0.512,0.02115
0.516,0.0125
0.52,-0.02552
0.524,0.00666
0.528,-0.01503
0.532,0.00584
0.536,-0.05722
0.54,-0.02715
0.544,0.05276
0.548,-0.01099
0.552,0.03634
0.556,-0.03849
0.56,-0.02281
0.564,0.00452
0.568,0.01964
0.572,-0.01341
0.576,0.02599
0.58,-0.00403
0.584,0.00863
0.588,0.01429
0.592,0.01266
0.596,0.03834
0.6,-0.0199
0.604,0.07197
0.608,0.10727
0.612,0.08757
0.616,0.11879
0.62,0.10597
0.624,0.13647
0.628,0.13665
0.632,0.06968
0.636,0.08319
0.64,0.0201
0.644,0.05742
0.648,0.06463
0.652,0.03343
0.656,0.05528
0.66,0.03138
0.664,-0.00884
0.668,-0.01857
0.672,-0.00165
0.676,0.05159
0.68,-0.06064
0.684,-0.02848
0.688,-0.03381
0.692,-0.04319
0.696,0.0111
0.7,-0.00297
0.704,0.006
0.708,-0.01607
0.712,-0.02939
0.716,0.06286
0.72,0.01098
0.724,-0.05828
0.728,0.01623
0.732,-0.04187
0.736,-0.02442
0.74,-0.04493
0.744,-0.05636
0.748,-0.17157
0.752,-0.12325
0.756,-0.05679
0.76,0.02701
0.764,0.18184
0.768,0.40846
0.772,0.56801
0.776,0.77815
0.78,0.90816
0.784,0.97805
0.788,0.9033
0.792,0.74108
0.796,0.55275
0.8,0.30043
0.804,0.1411
0.808,-0.10718
0.812,-0.21189
0.816,-0.21828
0.82,-0.14663
0.824,-0.15011
0.828,-0.10858
0.832,-0.06958
0.836,-0.02824
0.84,0.00371
0.844,-0.04778
0.848,-0.01762
0.852,-0.01142
0.856,-0.01148
0.86,-0.06326
0.864,-0.09717
0.868,-0.02625
0.872,-0.00236
0.876,-0.0357
0.88,0.0131
0.884,0.04197
0.888,-0.02012
0.892,0.00036
0.896,-0.00429
0.9,0.00148
0.904,0.01318
0.908,0.03113
0.912,0.02079
0.916,-0.01204
0.92,-0.0579
0.924,0.02176
0.928,-0.00457
0.932,-0.04415
0.936,0.01135
0.94,-0.03724
0.944,-0.04769
0.948,0.02432
0.952,0.02757
0.956,0.01768
0.96,-0.02361
0.964,-0.03369
0.968,0.02771
0.972,-0.02019
0.976,0.04295
0.98,0.05533
0.984,0.00386
0.988,0.0715
0.992,0.00768
0.996,-0.00731
1.0,0.08564
1.004,0.0434
1.008,0.13946
1.012,0.11978
1.016,0.08915
1.02,0.16066
1.024,0.14147
1.028,0.10367
1.032,0.12198
1.036,0.14275
1.04,0.21328
1.044,0.2189
1.048,0.25301
1.052,0.23531
1.056,0.18252
1.06,0.24451
1.064,0.16056
1.068,0.22926
1.072,0.17297
1.076,0.22136
1.08,0.1422
1.084,0.19078
1.088,0.2486
1.092,0.09516
1.096,0.12479
1.1,0.09627
1.104,0.04835
1.108,0.12945
1.112,0.15566
1.116,0.10392
1.12,0.05744
1.124,0.06197
1.128,0.04346
1.132,0.07726
1.136,0.01308
1.14,0.05671
1.144,0.00079
1.148,0.05788
1.152,-0.01017
1.156,-0.01035
1.16,0.00277
1.164,0.03596
1.168,-0.0151
1.172,0.00573
1.176,0.04466
1.18,0.02494
1.184,-0.0513
1.188,-0.04321
1.192,-0.03397
1.196,-0.02774
1.2,-0.10643
1.204,-0.05219
1.208,-0.01827
1.212,-0.08732
1.216,-0.04171
1.22,0.00043
1.224,-0.00553
1.228,-0.09393
1.232,-0.00176
1.236,-0.00801
1.24,0.00986
1.244,-0.02414
1.248,-0.03994
1.252,-0.02595
1.256,-0.06265
1.26,0.02527
1.264,0.05278
1.268,0.01411
1.272,-0.0488
1.276,0.02906
1.28,-0.0416
1.284,0.02942
1.288,-0.02227
1.292,-0.08239
1.296,-0.03212
1.3,-0.07995
1.304,-0.06864
1.308,-0.00836
1.312,0.01799
1.316,-0.05141
1.32,-0.03857
1.324,0.00403
1.328,-0.05095
1.332,-0.02305
1.336,-0.07922
1.34,-0.01606
1.344,-0.05689
1.348,-0.03757
1.352,0.06547
1.356,-0.00854
1.36,-0.08095
1.364,-0.04601
1.368,0.05085
1.372,-0.01274
1.376,-0.01129
1.38,-0.00683
1.384,-0.01177
1.388,-0.1205
1.392,-0.03101
1.396,0.03073
1.4,-0.00173
1.404,0.0161
1.408,-0.0441
1.412,-0.0508
1.416,-0.00931
1.42,-0.08661
1.424,-0.04391
1.428,-0.04882
1.432,0.04226
1.436,0.00031
1.44,-0.07158
1.444,-0.05296
1.448,-0.03653
1.452,0.00417
1.456,-0.01728
1.46,-0.05931
1.464,-0.08939
1.468,-0.00998
1.472,-0.09512
1.476,-0.02496
1.48,-0.00431
1.484,0.0553
1.488,-0.08098
1.492,-0.00224
1.496,-0.02919
1.5,0.00272
1.504,-0.02803
1.508,-0.06754
1.512,0.02314
1.516,0.01348
1.52,0.00097
1.524,-0.02538
1.528,-0.0197
1.532,-0.03429
1.536,-0.07355
1.54,-0.05464
1.544,0.03969
1.548,-0.00189
1.552,-0.04257
1.556,-0.08344
1.56,-0.01387
1.564,0.00122
1.568,-0.07177
1.572,-0.08501
1.576,0.01167
1.58,-0.01213
1.584,0.01339
1.588,-0.09229
1.592,-0.02426
1.596,-0.05417
1.6,-0.00066
1.604,-0.00971
1.608,0.00813
1.612,-0.06705
1.616,-0.07364
1.62,-0.11405
1.624,0.00407
1.628,-0.01886
1.632,-0.03206
1.636,-0.01371
1.64,-0.06044
1.644,-0.06496
1.648,-0.03571
1.652,0.05842
1.656,-0.06288
1.66,0.04555
1.664,-0.01879
1.668,-0.07238
1.672,-0.05686
1.676,-0.09446
1.68,-0.01576
1.684,0.02586
1.688,0.00129
1.692,-0.02055
1.696,-0.05202
1.7,0.00861
1.704,0.04922
1.708,-0.02475
1.712,-0.09234
1.716,-0.05274
1.72,-0.03536
1.724,-0.03821
1.728,-0.04712
1.732,-0.02062
1.736,-0.00437
1.74,-0.02089
1.744,-0.04071
1.748,0.01274
1.752,-0.06245
1.756,-0.01654
1.76,-0.03923
1.764,-0.06856
1.768,-0.01832
1.772,-0.0465
1.776,-0.03852
1.78,0.00381
1.784,-0.06173
1.788,-0.08434
1.792,-0.05417
1.796,-0.01138
1.8,-0.08125
1.804,0.01329
1.808,-0.0853
1.812,0.03525
1.816,-0.02701
1.82,-0.04678
1.824,0.00726
1.828,-0.0386
1.832,-0.0522
1.836,-0.02416
1.84,-0.00616
1.844,-0.01359
1.848,-0.02898
1.852,-0.04316
1.856,0.01179
1.86,-0.02466
1.864,0.02399
1.868,-0.03242
1.872,-0.01187
1.876,-0.05107
1.88,-0.02001
1.884,-0.02702
1.888,0.05672
1.892,-0.062
1.896,-0.02812
1.9,-0.01028
1.904,-0.07251
1.908,0.03435
1.912,-0.03907
1.916,-0.03507
1.92,-0.13407
1.924,0.01058
1.928,-0.03397
1.932,-0.09141
1.936,-0.0825
1.94,-0.04114
1.944,-0.07518
1.948,-0.06694
1.952,-0.02338
1.956,-0.06009
1.96,-4e-05
1.964,0.00572
1.968,0.00527
1.972,0.01697
1.976,-0.06213
1.98,-0.03138
1.984,-0.03203
1.988,0.05527
1.992,-0.02475
1.996,-0.06778
2.0,-0.03526
2.004,-0.01216
2.008,-0.09225
2.012,-0.09752
2.016,0.0047
2.02,-0.04801
2.024,0.00686
2.028,-0.05442
2.032,-0.02549
2.036,0.00507
2.04,-0.01373
2.044,0.05765
2.048,0.06315
2.052,0.02017
2.056,0.00423
2.06,0.0235
2.064,0.08748
2.068,0.11886
2.072,0.04282
2.076,0.12696
2.08,0.1139
2.084,0.01971
2.088,0.0444
2.092,0.00667
2.096,0.02235
2.1,-0.02405
2.104,0.02889
2.108,-0.01703
2.112,-0.00178
2.116,-0.02287
2.12,0.00506
2.124,-0.01208
2.128,-0.06985
2.132,-0.04268
2.136,-0.00483
2.14,-0.05694
2.144,-0.01886
2.148,-0.02995
2.152,-0.03828
2.156,-0.03163
2.16,-0.06668
2.164,0.00269
2.168,-0.08079
2.172,-0.07075
2.176,-0.0318
2.18,-0.05862
2.184,0.03783
2.188,-0.07689
2.192,-0.05318
2.196,-0.0827
2.2,-0.11242
2.204,-0.14664
2.208,-0.11038
2.212,-0.07096
2.216,0.03111
2.22,0.16075
2.224,0.29608
2.228,0.44363
2.232,0.53274
2.236,0.56283
2.24,0.49253
2.244,0.38885
2.248,0.2164
2.252,0.06059
2.256,-0.05959
2.26,-0.06241
2.264,-0.20417
2.268,-0.2343
2.272,-0.1794
2.276,-0.22446
2.28,-0.12573
2.284,-0.08058
2.288,-0.08502
2.292,-0.00962
2.296,0.07345
2.3,0.00064
2.304,-0.01097
2.308,-0.00748
2.312,-0.04298
2.316,0.03318
2.32,0.00156
2.324,0.03958
2.328,-0.0055
2.332,-0.01558
2.336,-0.0363
2.34,-0.03162
2.344,-0.05317
2.348,-0.03499
2.352,-0.0061
2.356,-0.04584
2.36,-0.05634
2.364,-0.03297
2.368,0.03775
2.372,0.02272
2.376,-0.04118
2.38,-0.00164
2.384,-0.03393
2.388,-0.06554
2.392,-0.0494
2.396,-0.05088
2.4,0.02468
2.404,-0.05468
2.408,-0.03613
2.412,-0.01177
2.416,-0.02225
2.42,-0.00674
2.424,0.05931
2.428,-0.00515
2.432,0.10286
2.436,0.05327
2.44,-0.01298
2.444,0.05456
2.448,0.0692
2.452,0.00674
2.456,0.00111
2.46,0.06325
2.464,0.09174
2.468,0.17223
2.472,0.0927
2.476,0.09084
2.48,0.1513
2.484,0.12762
2.488,0.1389
2.492,0.17573
2.496,0.20079
2.5,0.16417
2.504,0.17924
2.508,0.194
2.512,0.20399
2.516,0.23779
2.52,0.16454
2.524,0.14984
2.528,0.20208
2.532,0.17917
2.536,0.15242
2.54,0.25134
2.544,0.14137
2.548,0.10976
2.552,0.11906
2.556,0.15423
2.56,0.07017
2.564,0.1287
2.568,0.06431
2.572,0.04025
2.576,0.07467
2.58,0.07306
2.584,0.00617
2.588,0.01895
2.592,0.02239
2.596,0.04781
2.6,-0.0063
2.604,0.00467
2.608,-0.03697
2.612,-0.00405
2.616,-0.00488
2.62,0.01938
2.624,0.07664
2.628,-0.02827
2.632,-0.04388
2.636,-0.00809
2.64,-0.02398
2.644,0.03568
2.648,-0.01183
2.652,0.02174
2.656,0.00977
2.66,0.01859
2.664,-0.02674
2.668,0.00356
2.672,0.02482
2.676,-0.00278
2.68,-0.03688
2.684,-0.00027
2.688,-0.00172
2.692,0.01622
2.696,-0.00581
2.7,-0.05206
2.704,0.07883
2.708,-0.00141
2.712,0.08242
2.716,0.04106
2.72,0.12964
2.724,0.00609
2.728,0.08965
2.732,0.08583
2.736,0.05753
2.74,0.05876
2.744,0.09901
2.748,0.04466
2.752,0.072
2.756,-0.01413
2.76,0.0057
2.764,0.01868
2.768,0.00792
2.772,-0.03059
2.776,-0.05155
2.78,-0.00354
2.784,-0.01858
2.788,-0.02828
2.792,0.03819
2.796,-0.01362
2.8,-0.01383
2.804,-0.05038
2.808,-0.03137
2.812,-0.0407
2.816,-0.00179
2.82,-0.04954
2.824,0.00793
2.828,0.00741
2.832,-0.00697
2.836,0.02728
2.84,-0.06037
2.844,-0.05858
2.848,-0.11002
2.852,-0.09244
2.856,-0.17651
2.86,-0.16188
2.864,-0.06012
2.868,0.03736
2.872,0.25258
2.876,0.49028
2.88,0.68438
2.884,0.82889
2.888,0.91354
2.892,0.98961
2.896,0.77913
2.9,0.64162
2.904,0.47362
2.908,0.23796
2.912,0.01472
2.916,-0.06901
2.92,-0.2227
2.924,-0.16186
2.928,-0.19028
2.932,-0.10038
2.936,-0.09272
2.94,-0.07569
2.944,-0.04614
2.948,0.05236
2.952,-0.00339
2.956,-0.00648
2.96,0.0141
2.964,0.00365
2.968,-0.03159
2.972,-0.01056
2.976,-0.02551
2.98,0.01086
2.984,-0.03161
2.988,-0.01292
2.992,-0.0132
2.996,-0.0261
3.0,-0.02488
3.004,-0.01297
3.008,-0.03613
3.012,0.00843
3.016,-0.00726
3.02,0.01376
3.024,-0.06937
3.028,-0.00543
3.032,0.04224
3.036,-0.03703
3.04,0.00566
3.044,0.00162
3.048,0.01852
3.052,0.03145
3.056,-0.0358
3.06,0.04549
3.064,-0.01648
3.068,0.0056
3.072,0.01796
3.076,0.0087
3.08,-0.0106
3.084,-0.03426
3.088,0.08957
3.092,0.01054
3.096,0.01037
3.1,0.06196
3.104,0.05205
3.108,0.0617
3.112,0.13209
3.116,0.11621
3.12,0.09802
3.124,0.10672
3.128,0.1356
3.132,0.12121
3.136,0.15596
3.14,0.21019
3.144,0.16534
3.148,0.18342
3.152,0.19865
3.156,0.18324
3.16,0.26108
3.164,0.26507
3.168,0.17425
3.172,0.1871
3.176,0.18123
3.18,0.21677
3.184,0.19845
3.188,0.20153
3.192,0.22653
3.196,0.11001
3.2,0.18366
3.204,0.15216
3.208,0.16471
3.212,0.12163
3.216,0.11738
3.22,0.05872
3.224,0.04336
3.228,0.08429
3.232,0.07684
3.236,0.02621
3.24,-0.00776
3.244,0.07091
3.248,0.04135
3.252,0.01715
3.256,0.05156
3.26,-0.01205
3.264,0.0286
3.268,-0.00198
3.272,-0.00665
3.276,0.01128
3.28,0.0107
3.284,-0.03089
3.288,-0.04617
3.292,0.00653
3.296,-0.00657
3.3,-0.02103
3.304,-0.02475
3.308,0.04722
3.312,0.04741
3.316,-0.00018
3.32,-0.0035
3.324,0.06621
3.328,-0.01526
3.332,0.01806
3.336,-0.05758
3.34,0.0214
3.344,0.06368
3.348,0.00812
3.352,-0.07016
3.356,-0.04618
3.36,-0.01469
3.364,0.02839
3.368,0.0893
3.372,0.04153
3.376,-0.01073
3.38,0.01309
3.384,-0.0439
3.388,-0.02029
3.392,0.0236
3.396,-0.01142
3.4,-0.05922
3.404,-0.06457
3.408,-0.00265
3.412,-0.0203
3.416,-0.01457
3.42,-0.01227
3.424,0.01269
3.428,-0.03089
3.432,-0.04818
3.436,-0.00837
3.44,-0.0042
3.444,-0.0022
3.448,-0.02717
3.452,-0.0349
3.456,0.02591
3.46,0.03867
3.464,-0.01592
3.468,-0.01607
3.472,-0.03154
3.476,0.00482
3.48,-0.01834
3.484,0.09003
3.488,0.03753
3.492,-0.00287
3.496,-0.02612
3.5,0.04367
3.504,0.01031
3.508,-0.03648
3.512,0.00445
3.516,0.01311
3.52,0.02034
3.524,0.03575
3.528,-0.03185
3.532,0.05368
3.536,0.0231
3.54,0.01243
3.544,0.01027
3.548,-0.01471
3.552,-0.08503
3.556,-0.01891
3.56,-0.02607
3.564,0.02206
3.568,-0.00882
3.572,-0.0666
3.576,0.00483
3.58,0.0027
3.584,-0.02795
3.588,0.00857
3.592,0.00778
3.596,-0.01975
3.6,-0.00448
3.604,-0.03347
3.608,0.09192
3.612,0.01191
3.616,-0.07904
3.62,-0.0475
3.624,0.0014
3.628,-0.00146
3.632,-0.00962
3.636,0.02444
3.64,-0.00929
3.644,-0.05451
3.648,0.02061
3.652,0.00093
3.656,0.05508
3.66,-0.04947
3.664,-0.00602
3.668,0.00582
3.672,0.00841
3.676,0.00849
3.68,-0.02801
3.684,-0.07379
3.688,-0.03092
3.692,0.00015
3.696,0.01182
3.7,0.07519
3.704,0.02726
3.708,-0.01433
3.712,-0.04355
3.716,-0.02658
3.72,0.00145
3.724,0.02608
3.728,-0.00181
3.732,0.01145
3.736,0.00992
3.74,-0.00074
3.744,0.00784
3.748,0.01228
3.752,0.07558
3.756,0.03653
3.76,0.06384
3.764,-0.05553
3.768,0.06275
3.772,-0.02015
3.776,-0.01652
3.78,0.02036
3.784,0.0479
3.788,-0.02738
3.792,-0.00296
3.796,-0.0608
3.8,0.01421
3.804,0.02893
3.808,-0.00797
3.812,0.02445
3.816,-0.00993
3.82,-0.01743
3.824,0.04201
3.828,-0.00231
3.832,0.0753
3.836,0.03197
3.84,-0.01178
3.844,0.00215
3.848,-0.00369
3.852,-0.03996
3.856,0.05018
3.86,0.01672
3.864,0.0035
3.868,-0.05771
3.872,0.05852
3.876,0.01589
3.88,0.01512
3.884,0.01389
3.888,0.03394
3.892,-0.05965
3.896,-0.02875
3.9,0.05967
3.904,0.00436
3.908,0.024
3.912,0.00523
3.916,-0.03009
3.92,0.06493
3.924,0.00484
3.928,0.0107
3.932,0.01411
3.936,0.02404
3.94,0.05462
3.944,-0.04659
3.948,0.02743
3.952,0.02688
3.956,-0.03783
3.96,0.02183
3.964,-0.0481
3.968,0.00174
3.972,0.02326
3.976,0.02079
3.98,0.06898
3.984,0.05955
3.988,0.03077
3.992,0.12966
3.996,0.11684
4.0,0.09505
4.004,0.15473
4.008,0.09819
4.012,0.0706
4.016,0.08743
4.02,0.10478
4.024,0.11721
4.028,0.1268
4.032,0.06272
4.036,0.05456
4.04,0.04836
4.044,0.09131
4.048,0.02234
4.052,0.02561
4.056,0.06289
4.06,0.03082
4.064,-0.0162
4.068,0.03209
4.072,0.04134
4.076,-0.01314
4.08,0.07872
4.084,0.0185
4.088,0.071
4.092,0.07324
4.096,0.02931
4.1,0.05069
4.104,-0.00248
4.108,-0.00168
4.112,0.0545
4.116,-0.00235
4.12,0.05133
4.124,0.05081
4.128,-0.0031
4.132,-0.05766
4.136,-0.11075
4.14,-0.16843
4.144,-0.06684
4.148,-0.07522
4.152,0.07288
4.156,0.22699
4.16,0.49764
4.164,0.67671
4.168,0.86811
4.172,0.99258
4.176,0.95977
4.18,0.93165
4.184,0.74853
4.188,0.47946
4.192,0.33079
4.196,0.06312
4.2,-0.09048
4.204,-0.16107
4.208,-0.17713
4.212,-0.18712
4.216,-0.11953
4.22,-0.01438
4.224,0.01196
4.228,0.01922
4.232,0.01565
4.236,0.01732
4.24,0.02076
4.244,-0.03759
4.248,-0.00806
4.252,-0.02502
4.256,-0.02819
4.26,0.01566
4.264,-0.0083
4.268,0.00844
4.272,0.00862
4.276,0.00587
4.28,-0.00128
4.284,0.02315
4.288,0.05482
4.292,0.05175
4.296,0.0293
4.3,0.04184
4.304,0.01973
4.308,-0.04048
4.312,-0.01115
4.316,-0.00304
4.32,-0.02199
4.324,0.08394
4.328,-0.04842
4.332,0.01664
4.336,0.01252
4.34,-0.00568
4.344,0.05823
4.348,0.0832
4.352,-0.00561
4.356,0.06478
4.36,0.05395
4.364,0.01005
4.368,0.05941
4.372,0.07837
4.376,0.04243
4.38,0.04002
4.384,0.06701
4.388,0.09342
4.392,0.14857
4.396,0.11831
4.4,0.16323
4.404,0.09446
4.408,0.12148
4.412,0.14982
4.416,0.20072
4.42,0.13998
4.424,0.22714
4.428,0.23006
4.432,0.18341
4.436,0.23065
4.44,0.25497
4.444,0.29032
4.448,0.19911
4.452,0.22277
4.456,0.19285
4.46,0.17642
4.464,0.29519
4.468,0.1884
4.472,0.19815
4.476,0.23168
4.48,0.23725
4.484,0.21508
4.488,0.22723
4.492,0.23639
4.496,0.09563
4.5,0.1262
4.504,0.09366
4.508,0.10896
4.512,0.10419
4.516,0.06715
4.52,0.13738
4.524,0.14669
4.528,0.04843
4.532,0.11242
4.536,0.05789
4.54,0.07689
4.544,0.05888
4.548,0.04562
4.552,0.01693
4.556,0.06981
4.56,0.07379
4.564,0.06541
4.568,0.07981
4.572,0.00858
4.576,0.0193
4.58,0.01021
4.584,0.02337
4.588,0.02883
4.592,-0.02994
4.596,0.05204
4.6,0.02625
4.604,0.05252
4.608,0.0194
4.612,0.04315
4.616,-0.02171
4.62,0.02555
4.624,0.03815
4.628,0.0798
4.632,0.00983
4.636,-0.03115
4.64,-0.04586
4.644,0.03133
4.648,0.01296
4.652,0.05483
4.656,0.03664
4.66,-0.0269
4.664,0.03101
4.668,-0.00203
4.672,0.02824
4.676,-0.01249
4.68,0.0072
4.684,0.00925
4.688,0.03199
4.692,0.02699
4.696,-0.00441
4.7,0.06238
4.704,0.03291
4.708,0.05609
4.712,0.03513
4.716,-0.00555
4.72,0.04838
4.724,0.04654
4.728,0.02846
4.732,0.06057
4.736,0.03771
4.74,0.01223
4.744,0.02192
4.748,0.04469
4.752,0.04022
4.756,-0.03153
4.76,0.02637
4.764,-0.01113
4.768,0.04402
4.772,0.07018
4.776,-0.0032
4.78,0.0803
4.784,0.05355
4.788,-0.01083
4.792,0.06965
4.796,0.0605
4.8,0.06362
4.804,0.05048
4.808,0.10332
4.812,0.16377
4.816,0.15613
4.82,0.0938
4.824,0.10425
4.828,0.14027
4.832,0.10245
4.836,0.10021
4.84,0.14985
4.844,0.11582
4.848,0.08673
4.852,0.10783
4.856,0.11956
4.86,0.14139
4.864,0.06166
4.868,0.07136
4.872,0.03582
4.876,0.01182
4.88,-0.01957
4.884,0.01614
4.888,0.03855
4.892,0.04131
4.896,0.00961
4.9,-0.01917
4.904,-0.0225
4.908,0.03013
4.912,-0.01325
4.916,0.09216
4.92,-0.01483
4.924,0.07202
4.928,0.01544
4.932,0.0599
4.936,0.02571
4.94,0.00936
4.944,-0.02387
4.948,-0.04543
4.952,-0.05772
4.956,-0.14625
4.96,0.02594
4.964,0.12469
4.968,0.31376
4.972,0.50522
4.976,0.73771
4.98,0.92506
4.984,1.00697
4.988,1.04612
4.992,0.87434
4.996,0.71948
5.0,0.49946
5.004,0.23912
5.008,0.06392
5.012,-0.01739
5.016,-0.13196
5.02,-0.17792
5.024,-0.06954
5.028,-0.07529
5.032,-0.0549
5.036,-0.00656
5.04,0.06967
5.044,0.05981
5.048,0.12286
5.052,-0.01089
5.056,-0.02331
5.06,0.028
5.064,0.09375
5.068,0.07043
5.072,0.02587
5.076,0.02591
5.08,0.07692
5.084,0.07563
5.088,0.04711
5.092,0.01774
5.096,0.03902
5.1,0.03964
5.104,0.01183
5.108,0.01122
5.112,0.03188
5.116,0.05244
5.12,-0.05833
5.124,0.02043
5.128,0.06501
5.132,-0.00365
5.136,0.06549
5.14,0.02384
5.144,0.03293
5.148,0.01862
5.152,0.07502
5.156,0.05244
5.16,0.06233
5.164,0.05287
5.168,0.02455
5.172,0.06661
5.176,0.08706
5.18,0.01216
5.184,0.08296
5.188,0.09825
5.192,0.11767
5.196,0.14017
5.2,0.07008
5.204,0.10067
5.208,0.14005
5.212,0.18429
5.216,0.12438
5.22,0.13772
5.224,0.1377
5.228,0.20776
5.232,0.22171
5.236,0.17086
5.24,0.18189
5.244,0.1571
5.248,0.24197
5.252,0.26182
5.256,0.27745
5.26,0.25674
5.264,0.21145
5.268,0.18903
5.272,0.29024
5.276,0.24034
5.28,0.29095
5.284,0.23457
5.288,0.2003
5.292,0.22456
5.296,0.20459
5.3,0.20473
5.304,0.1715
5.308,0.1437
5.312,0.16432
5.316,0.19793
5.32,0.07304
5.324,0.15195
5.328,0.16221
5.332,0.10321
5.336,0.09396
5.34,0.12688
5.344,0.06361
5.348,0.08709
5.352,0.03788
5.356,0.08501
5.36,0.05612
5.364,0.03107
5.368,0.1374
5.372,0.07072
5.376,0.07397
5.38,0.11696
5.384,0.10955
5.388,0.21666
5.392,0.10353
5.396,0.13686
5.4,0.10801
5.404,0.12259
5.408,0.09617
5.412,0.13507
5.416,0.0745
5.42,0.11922
5.424,0.08137
5.428,0.07051
5.432,-0.01215
5.436,0.01196
5.44,0.07485
5.444,0.02729
5.448,-0.00317
5.452,0.00597
5.456,0.05584
5.46,-0.00695
5.464,0.05897
5.468,0.01105
5.472,0.0572
5.476,0.00031
5.48,0.07539
5.484,0.02859
5.488,-0.01096
5.492,0.0586
5.496,-0.02287
5.5,-0.04474
5.504,0.01439
5.508,-0.03573
5.512,-0.03815
5.516,-0.07752
5.52,-0.03427
5.524,-0.12336
5.528,0.00144
5.532,0.18457
5.536,0.29665
5.54,0.48589
5.544,0.6638
5.548,0.88103
5.552,0.9886
5.556,1.02517
5.56,0.90128
5.564,0.73328
5.568,0.54302
5.572,0.34202
5.576,0.13731
5.58,-0.05336
5.584,-0.03841
5.588,-0.16294
5.592,-0.1437
5.596,-0.09285
5.6,-0.02347
5.604,-0.02882
5.608,-0.0591
5.612,0.04125
5.616,0.06058
5.62,0.07201
5.624,0.03645
5.628,0.02711
5.632,0.01665
5.636,0.07545
5.64,0.11404
5.644,0.02983
5.648,0.06426
5.652,0.02818
5.656,0.12259
5.66,0.05139
5.664,0.04966
5.668,0.03375
5.672,-0.04302
5.676,0.04152
5.68,0.07367
5.684,0.09945
5.688,0.04009
5.692,0.04626
5.696,0.06464
5.7,0.04821
5.704,0.08979
5.708,-0.01671
5.712,0.01051
5.716,0.01022
5.72,0.06454
5.724,0.00194
5.728,0.02374
5.732,0.11339
5.736,0.09445
5.74,0.03817
5.744,0.06805
5.748,0.0437
5.752,0.0804
5.756,0.10155
5.76,0.00788
5.764,0.10992
5.768,0.06153
5.772,0.10252
5.776,0.11521
5.78,0.10949
5.784,0.18497
5.788,0.15219
5.792,0.18592
5.796,0.17667
5.8,0.18809
5.804,0.1799
5.808,0.2818
5.812,0.17848
5.816,0.20838
5.82,0.21587
5.824,0.2248
5.828,0.27654
5.832,0.24528
5.836,0.20851
5.84,0.2506
5.844,0.20503
5.848,0.15114
5.852,0.16556
5.856,0.25141
5.86,0.28908
5.864,0.21392
5.868,0.1888
5.872,0.14629
5.876,0.16273
5.88,0.18067
5.884,0.16686
5.888,0.14854
5.892,0.10031
5.896,0.12671
5.9,0.10967
5.904,0.06968
5.908,0.11259
5.912,0.09409
5.916,0.14829
5.92,0.11261
5.924,0.02969
5.928,0.10635
5.932,0.07464
5.936,0.23428
5.94,0.1051
5.944,0.17277
5.948,0.12208
5.952,0.15999
5.956,0.09182
5.96,0.10136
5.964,0.13638
5.968,0.18058
5.972,0.11798
5.976,0.13689
5.98,0.09421
5.984,0.13857
5.988,0.02823
5.992,0.00874
5.996,0.06142
6.0,-0.00969
6.004,0.01632
6.008,-0.03075
6.012,0.00389
6.016,0.00664
6.02,0.00411
6.024,0.00818
6.028,0.0398
6.032,0.07212
6.036,0.00466
6.04,-0.01386
6.044,0.02869
6.048,0.01262
6.052,0.03152
6.056,0.03223
6.06,0.02385
6.064,0.03366
6.068,0.05955
6.072,-0.00149
6.076,-0.09606
6.08,-0.05469
6.084,-0.07525
6.088,-0.05232
6.092,0.01317
6.096,0.18278
6.1,0.3503
6.104,0.52986
6.108,0.75926
6.112,0.95307
6.116,0.97516
6.12,1.01677
6.124,0.8053
6.128,0.61545
6.132,0.39399
6.136,0.17204
6.14,0.02927
6.144,-0.08712
6.148,-0.10174
6.152,-0.14737
6.156,-0.11848
6.16,-0.055
6.164,-0.00787
6.168,-0.00518
6.172,0.03759
6.176,0.01072
6.18,-0.00245
6.184,0.04168
6.188,0.04007
6.192,0.08921
6.196,-0.02155
6.2,-0.04282
6.204,-0.00025
6.208,0.0368
6.212,0.01812
6.216,-0.00336
6.22,0.0761
6.224,0.04706
6.228,-0.03109
6.232,0.02536
6.236,0.09052
6.24,-0.01698
6.244,0.01282
6.248,0.03679
6.252,-0.03745
6.256,0.01631
6.26,-0.01447
6.264,0.03876
6.268,0.00373
6.272,0.02398
6.276,0.04725
6.28,0.01807
6.284,0.04591
6.288,-0.06623
6.292,0.01322
6.296,0.05349
6.3,-0.0048
6.304,0.02093
6.308,0.1218
6.312,0.11831
6.316,0.07618
6.32,0.05966
6.324,0.08914
6.328,0.0954
6.332,0.06822
6.336,0.07633
6.34,0.16053
6.344,0.12578
6.348,0.13791
6.352,0.09797
6.356,0.15912
6.36,0.18348
6.364,0.20173
6.368,0.16527
6.372,0.17964
6.376,0.22135
6.38,0.16652
6.384,0.24199
6.388,0.24066
6.392,0.26995
6.396,0.20176
6.4,0.18729
6.404,0.25902
6.408,0.24254
6.412,0.1543
6.416,0.20823
6.42,0.20646
6.424,0.21771
6.428,0.18413
6.432,0.16951
6.436,0.14916
6.44,0.20668
6.444,0.18823
6.448,0.1259
6.452,0.10912
6.456,0.04924
6.46,0.14075
6.464,0.09691
6.468,0.05922
6.472,0.07387
6.476,0.04235
6.48,0.01553
6.484,0.00547
6.488,0.05596
6.492,0.03882
6.496,-0.03442
6.5,0.066
6.504,-0.01211
6.508,0.05071
6.512,-0.04656
6.516,0.02799
6.52,0.02823
6.524,0.02809
6.528,0.07761
6.532,0.04026
6.536,0.01676
6.54,-0.00391
6.544,0.00353
6.548,0.01557
6.552,0.02679
6.556,-0.01137
6.56,0.00313
6.564,-0.00822
6.568,-0.07061
6.572,0.01735
6.576,-0.03352
6.58,-0.00955
6.584,-0.03018
6.588,0.07164
6.592,0.02214
6.596,0.03084
6.6,0.00545
6.604,0.01633
6.608,0.00458
6.612,0.01523
6.616,-0.00233
6.62,0.02162
6.624,-0.00084
6.628,0.01559
6.632,0.0152
6.636,0.01323
6.64,-0.04257
6.644,0.00443
6.648,0.02901
6.652,-0.01208
6.656,-0.01284
6.66,-0.01381
6.664,0.00232
6.668,0.00703
6.672,-0.02918
6.676,0.04602
6.68,0.06908
6.684,-0.00251
6.688,0.03734
6.692,-0.03094
6.696,-0.00013
6.7,0.01384
6.704,0.01516
6.708,0.03207
6.712,0.02785
6.716,0.07907
6.72,0.00103
6.724,-0.01785
6.728,0.02189
6.732,0.00982
6.736,-0.02522
6.74,-0.02896
6.744,0.04482
6.748,-0.01004
6.752,-0.00489
6.756,-0.00571
6.76,-0.04733
6.764,-0.03024
6.768,-0.01441
6.772,-0.0105
6.776,0.02942
6.78,0.03441
6.784,-0.00352
6.788,-0.04827
6.792,-0.0132
6.796,-0.03993
6.8,-0.00865
6.804,-0.02225
6.808,0.0166
6.812,-0.02502
6.816,-0.05718
6.82,-0.02612
6.824,0.04357
6.828,0.02665
6.832,-0.04234
6.836,0.0263
6.84,0.00072
6.844,-0.01783
6.848,0.00572
6.852,-0.00227
6.856,-0.03868
6.86,0.06321
6.864,-0.00863
6.868,-0.00894
6.872,-0.03373
6.876,0.03384
6.88,-0.00712
6.884,-0.03703
6.888,-0.0643
6.892,-0.04221
6.896,0.01467
6.9,-0.00793
6.904,0.0038
6.908,-0.04778
6.912,-0.0603
6.916,0.07023
6.92,0.03642
6.924,0.04223
6.928,0.08494
6.932,-0.00158
6.936,0.03601
6.94,0.05669
6.944,0.05197
6.948,0.00542
6.952,0.04429
6.956,-0.01632
6.96,-0.00294
6.964,0.01322
6.968,0.00208
6.972,0.02544
6.976,0.0182
6.98,0.03836
6.984,0.05569
6.988,-0.01097
6.992,0.01191
6.996,0.05643
7.0,0.03914
7.004,0.12057
7.008,0.09166
7.012,0.12958
7.016,0.0776
7.02,0.09305
7.024,0.12804
7.028,0.11495
7.032,0.07618
7.036,0.00414
7.04,0.02258
7.044,0.04356
7.048,0.07315
7.052,0.02699
7.056,-0.01612
7.06,-0.03163
7.064,0.01829
7.068,0.04394
7.072,0.01645
7.076,0.04125
7.08,-0.01922
7.084,-0.08995
7.088,-0.00326
7.092,0.02829
7.096,-0.01737
7.1,-0.02376
7.104,-0.01263
7.108,-0.01876
7.112,0.01881
7.116,0.03238
7.12,0.00806
7.124,-0.05684
7.128,-0.01183
7.132,0.03183
7.136,0.01946
7.14,-0.05213
7.144,-0.16114
7.148,-0.10797
7.152,-0.05546
7.156,0.03395
7.16,0.19788
7.164,0.45644
7.168,0.63649
7.172,0.82974
7.176,0.98975
7.18,1.05012
7.184,0.93084
7.188,0.71459
7.192,0.54342
7.196,0.28281
7.2,0.06996
7.204,-0.11
7.208,-0.17393
7.212,-0.22016
7.216,-0.17944
7.22,-0.09329
7.224,-0.068
7.228,-0.05296
7.232,0.01072
7.236,-0.01974
7.24,-0.00795
7.244,0.00311
7.248,-0.04302
7.252,-0.00476
7.256,-0.09127
7.26,-0.05309
7.264,-0.08419
7.268,0.02287
7.272,-0.03387
7.276,-0.00137
7.28,-0.02378
7.284,-0.06131
7.288,-0.03225
7.292,0.00876
7.296,0.01544
7.3,0.023
7.304,0.02064
7.308,0.03536
7.312,0.07522
7.316,0.00222
7.32,-0.02504
7.324,-0.01738
7.328,0.00841
7.332,-0.02524
7.336,0.04668
7.34,-0.04363
7.344,0.02415
7.348,0.02896
7.352,-0.07563
7.356,-0.00577
7.36,0.04459
7.364,-0.01013
7.368,0.01488
7.372,0.02773
7.376,0.03863
7.38,0.03869
7.384,0.06174
7.388,0.04121
7.392,0.09535
7.396,0.02555
7.4,0.0711
7.404,0.12839
7.408,0.04082
7.412,0.13162
7.416,0.14859
7.42,0.13065
7.424,0.12952
7.428,0.08498
7.432,0.16559
7.436,0.192
7.44,0.15848
7.444,0.21729
7.448,0.23124
7.452,0.1783
7.456,0.16923
7.46,0.24273
7.464,0.21377
7.468,0.19814
7.472,0.20145
7.476,0.15544
7.48,0.1448
7.484,0.22441
7.488,0.1605
7.492,0.1188
7.496,0.18393
7.5,0.17213
7.504,0.09888
7.508,0.06944
7.512,0.0924
7.516,0.05939
7.52,0.06404
7.524,0.12509
7.528,-0.00744
7.532,0.00882
7.536,-0.01983
7.54,0.11323
7.544,0.02451
7.548,0.0218
7.552,-0.00612
7.556,0.04652
7.56,0.01883
7.564,0.04723
7.568,-0.00942
7.572,-0.02652
7.576,0.00085
7.58,0.07906
7.584,-0.04501
7.588,-0.03043
7.592,-0.0056
7.596,0.0677
7.6,-0.02315
7.604,-0.03577
7.608,-0.00753
7.612,0.00319
7.616,-0.02505
7.62,0.04354
7.624,0.00082
7.628,-0.04818
7.632,0.01043
7.636,-0.01464
7.64,-0.0338
7.644,-0.03046
7.648,0.07542
7.652,0.03921
7.656,-0.0668
7.66,-0.02137
7.664,-0.00268
7.668,0.02478
7.672,0.02202
7.676,0.0442
7.68,-0.02694
7.684,0.00053
7.688,0.03553
7.692,-0.05284
7.696,-0.09428
7.7,-0.00368
7.704,-0.02396
7.708,-0.02686
7.712,-0.05052
7.716,0.02456
7.72,-0.01264
7.724,0.03874
7.728,0.03759
7.732,0.01142
7.736,0.0223
7.74,0.03314
7.744,0.10651
7.748,0.03391
7.752,0.07998
7.756,0.09481
7.76,0.00667
7.764,0.08297
7.768,0.0155
7.772,-0.02357
7.776,0.02149
7.78,0.04131
7.784,0.0292
7.788,-0.00469
7.792,-0.00936
7.796,-0.06009
7.8,0.01132
7.804,-0.0273
7.808,-0.04008
7.812,-0.01149
7.816,-0.04321
7.82,0.00276
7.824,0.02733
7.828,0.02459
7.832,-0.0717
7.836,-0.03435
7.84,-0.08489
7.844,-0.00093
7.848,-0.01402
7.852,-0.02627
7.856,-0.05215
7.86,-0.00725
7.864,-0.03785
7.868,-0.06883
7.872,-0.09021
7.876,-0.14399
7.88,-0.1554
7.884,-0.12063
7.888,-0.06064
7.892,0.14762
7.896,0.37873
7.9,0.59971
7.904,0.80374
7.908,0.84868
7.912,0.93366
7.916,0.90534
7.92,0.72981
7.924,0.55549
7.928,0.30641
7.932,0.0985
7.936,-0.0256
7.94,-0.18432
7.944,-0.13265
7.948,-0.14621
7.952,-0.13289
7.956,-0.0917
7.96,-0.0455
7.964,-0.05622
7.968,-0.025
7.972,-0.0216
7.976,-0.09839
7.98,-0.00984
7.984,0.00723
7.988,0.02952
7.992,-0.04364
7.996,0.01686
8.0,-0.04638
8.004,0.00175
8.008,-0.05238
8.012,-0.0719
8.016,-0.0241
8.02,-0.00824
8.024,-0.05872
8.028,-0.02852
8.032,0.02812
8.036,-0.01772
8.04,-0.061
8.044,0.00774
8.048,-0.01729
8.052,0.05304
8.056,0.00732
8.06,-0.04387
8.064,0.00958
8.068,-0.01476
8.072,-0.01344
8.076,-0.05578
8.08,0.01125
8.084,-0.01998
8.088,-0.04562
8.092,0.03579
8.096,0.04489
8.1,-0.01982
8.104,0.01467
8.108,-0.01425
8.112,0.03723
8.116,0.01085
8.12,0.04788
8.124,0.03879
8.128,0.05007
8.132,0.03775
8.136,0.09955
8.14,0.06235
8.144,0.09756
8.148,0.09185
8.152,0.13265
8.156,0.092
8.16,0.19763
8.164,0.14553
8.168,0.11399
8.172,0.0865
8.176,0.17198
8.18,0.20859
8.184,0.21076
8.188,0.19093
8.192,0.20563
8.196,0.24277
8.2,0.22608
8.204,0.19114
8.208,0.1086
8.212,0.19379
8.216,0.22179
8.22,0.17827
8.224,0.13433
8.228,0.12528
8.232,0.06529
8.236,0.04442
8.24,0.08973
8.244,0.06224
8.248,0.16684
8.252,0.14842
8.256,0.06552
8.26,0.10141
8.264,0.02237
8.268,0.02345
8.272,0.0398
8.276,0.01341
8.28,0.00756
8.284,0.00548
8.288,0.02908
8.292,-0.00632
8.296,0.01864
8.3,-0.00982
8.304,-0.04453
8.308,0.04403
8.312,-0.00527
8.316,-0.0338
8.32,0.02281
8.324,-0.00427
8.328,-0.02609
8.332,-0.06106
8.336,-0.01832
8.34,-0.06293
8.344,-0.02108
8.348,-0.07949
8.352,-0.087
8.356,0.00314
8.36,-0.00958
8.364,-0.02671
8.368,-0.01752
8.372,-0.05953
8.376,-0.063
8.38,0.01527
8.384,0.06194
8.388,0.0341
8.392,0.10261
8.396,0.05976
8.4,0.11406
8.404,0.07379
8.408,-0.00708
8.412,0.04067
8.416,0.02697
8.42,0.04543
8.424,-0.02365
8.428,0.00934
8.432,-0.00012
8.436,-0.01473
8.44,-0.00257
8.444,-0.01464
8.448,-0.03207
8.452,-0.0219
8.456,-0.02438
8.46,0.01463
8.464,-0.0463
8.468,-0.00953
8.472,-0.05748
8.476,-0.04168
8.48,0.01255
8.484,-0.00199
8.488,-0.00518
8.492,-0.04499
8.496,-0.06902
8.5,-0.06691
8.504,-0.0401
8.508,-0.05089
8.512,0.03836
8.516,-0.02054
8.52,-0.0168
8.524,-0.08088
8.528,-0.09043
8.532,-0.09953
8.536,-0.10634
8.54,0.04238
8.544,0.24337
8.548,0.44956
8.552,0.69727
8.556,0.87904
8.56,0.92672
8.564,0.98381
8.568,0.85098
8.572,0.67803
8.576,0.43621
8.58,0.25707
8.584,0.08637
8.588,-0.12875
8.592,-0.22264
8.596,-0.18311
8.6,-0.11921
8.604,-0.10901
8.608,-0.04104
8.612,-0.053
8.616,-0.06461
8.62,-0.10192
8.624,-0.04432
8.628,-0.03806
8.632,-0.08204
8.636,-0.02118
8.64,-0.02602
8.644,-0.01314
8.648,-0.05795
8.652,-0.03691
8.656,-0.08107
8.66,-0.03333
8.664,-0.01595
8.668,-0.08787
8.672,-0.03487
8.676,-0.06106
8.68,0.00775
8.684,-0.01689
8.688,-0.05944
8.692,-0.04206
8.696,-0.06806
8.7,-0.04759
8.704,-0.00402
8.708,-0.02828
8.712,-0.05373
8.716,0.00753
8.72,-0.0155
8.724,-0.04219
8.728,0.02438
8.732,0.03422
8.736,-0.05029
8.74,-0.00638
8.744,-0.02855
8.748,-0.02112
8.752,-0.05319
8.756,-0.05182
8.76,-0.02533
8.764,0.00463
8.768,0.03465
8.772,0.01298
8.776,0.02789
8.78,0.04539
8.784,0.11574
8.788,0.02213
8.792,0.08082
8.796,0.09253
8.8,0.14015
8.804,0.06387
8.808,0.19574
8.812,0.17875
8.816,0.18759
8.82,0.2143
8.824,0.14267
8.828,0.14554
8.832,0.16612
8.836,0.19062
8.84,0.22252
8.844,0.15786
8.848,0.15184
8.852,0.20782
8.856,0.21216
8.86,0.20734
8.864,0.17669
8.868,0.16659
8.872,0.14797
8.876,0.11112
8.88,0.09669
8.884,0.04026
8.888,0.08395
8.892,0.04634
8.896,0.09609
8.9,0.0558
8.904,0.04941
8.908,0.03168
8.912,-0.00296
8.916,-0.00403
8.92,-0.02429
8.924,0.04772
8.928,-0.03577
8.932,-0.00491
8.936,-0.05964
8.94,0.03429
8.944,-0.0068
8.948,0.06533
8.952,-0.03938
8.956,-0.02078
8.96,0.00207
8.964,-0.04534
8.968,-0.05762
8.972,0.0052
8.976,-0.03213
8.98,-0.07871
8.984,0.01114
8.988,-0.03217
8.992,0.05032
8.996,0.02354
9.0,-0.09503
9.004,-0.04619
9.008,0.02828
9.012,-0.04885
9.016,-0.04001
9.02,0.01209
9.024,-0.04482
9.028,-0.03314
9.032,-0.04918
9.036,-0.00022
9.04,-0.04201
9.044,-0.05886
9.048,-0.02101
9.052,-0.0317
9.056,-0.02204
9.06,-0.00958
9.064,-0.06549
9.068,-0.02702
9.072,-0.02162
9.076,0.02274
9.08,-0.00461
9.084,-0.01596
9.088,-0.02341
9.092,-0.05062
9.096,-0.04875
9.1,-0.03572
9.104,-0.01746
9.108,-0.02654
9.112,-0.07074
9.116,0.00372
9.12,-0.01436
9.124,-0.10175
9.128,-0.05319
9.132,-0.05148
9.136,-0.06819
9.14,-0.00358
9.144,-0.02389
9.148,0.00899
9.152,-0.02014
9.156,0.08483
9.16,-0.08055
9.164,-0.05744
9.168,-0.04422
9.172,0.01849
9.176,-0.10147
9.18,-0.0259
9.184,-0.0309
9.188,-0.02845
9.192,-0.05056
9.196,-0.05211
9.2,-0.03006
9.204,0.03886
9.208,-0.03371
9.212,0.02156
9.216,-0.01441
9.22,-0.00951
9.224,-0.10792
9.228,-0.00879
9.232,0.03794
9.236,0.00445
9.24,-0.00055
9.244,-0.04862
9.248,-0.11121
9.252,-0.08295
9.256,0.00863
9.26,-0.05176
9.264,-0.06351
9.268,0.01422
9.272,-0.08425
9.276,0.06911
9.28,-0.00518
9.284,-0.06497
9.288,-0.00769
9.292,-0.03498
9.296,-0.02741
9.3,-0.04677
9.304,-0.05404
9.308,-0.05526
9.312,-0.02478
9.316,0.00755
9.32,-0.00432
9.324,0.02191
9.328,-0.03401
9.332,-0.06585
9.336,-0.04804
9.34,-0.05905
9.344,-0.03045
9.348,-0.00308
9.352,-0.00598
9.356,0.02369
9.36,-0.07518
9.364,0.00483
9.368,-0.03507
9.372,-0.0382
9.376,0.00512
9.38,-0.01793
9.384,-0.07407
9.388,-0.03426
9.392,-0.06587
9.396,-0.06707
9.4,-0.0595
9.404,-0.0831
9.408,-0.00722
9.412,-0.03387
9.416,-0.04339
9.42,-0.02953
9.424,-0.0192
9.428,-0.05551
9.432,-0.07041
9.436,0.00669
9.44,-0.03297
9.444,0.04171
9.448,-0.00459
9.452,-0.03415
9.456,0.01085
9.46,-0.05326
9.464,-0.01378
9.468,-0.01533
9.472,0.00835
9.476,-0.00023
9.48,0.01268
9.484,-0.05025
9.488,0.02064
9.492,0.01805
9.496,-0.02619
9.5,0.00993
9.504,-0.02132
9.508,-0.09276
9.512,0.00059
9.516,-0.07222
9.52,-0.00308
9.524,-0.00417
9.528,0.05852
9.532,-0.04364
9.536,-0.06709
9.54,0.01181
9.544,-0.04435
9.548,0.02824
9.552,-0.01995
9.556,0.01825
9.56,-0.05179
9.564,-0.02237
9.568,0.00736
9.572,-0.03376
9.576,-0.01615
9.58,-0.02079
9.584,-0.00047
9.588,0.00772
9.592,-0.00544
9.596,-0.05918
9.6,-0.00308
9.604,0.01484
9.608,-0.08003
9.612,-0.07982
9.616,-0.07743
9.62,-0.0242
9.624,0.01993
9.628,-0.02485
9.632,0.003
9.636,-0.00777
9.64,-0.06196
9.644,-0.06501
9.648,0.01989
9.652,-0.00365
9.656,0.0151
9.66,0.04992
9.664,0.00321
9.668,0.09853
9.672,0.02475
9.676,0.09537
9.68,0.12342
9.684,0.05039
9.688,0.07769
9.692,0.07415
9.696,0.09583
9.7,0.07809
9.704,0.00809
9.708,0.13219
9.712,0.02815
9.716,-0.01239
9.72,0.02224
9.724,0.01965
9.728,-0.05131
9.732,0.011
9.736,0.05859
9.74,-0.04415
9.744,-0.00832
9.748,-0.03916
9.752,-0.03343
9.756,0.01398
9.76,-0.01327
9.764,0.00343
9.768,-0.04641
9.772,-0.01377
9.776,-0.04677
9.78,-0.0337
9.784,0.04221
9.788,-0.04277
9.792,-0.01298
9.796,0.09589
9.8,0.04274
9.804,-0.02901
9.808,-0.06239
9.812,-0.06237
9.816,-0.10766
9.82,-0.10716
9.824,-0.11787
9.828,-0.0133
9.832,0.16884
9.836,0.354
9.84,0.53729
9.844,0.80497
9.848,0.91652
9.852,1.01206
9.856,0.91356
9.86,0.75996
9.864,0.59972
9.868,0.35269
9.872,0.09681
9.876,-0.01011
9.88,-0.06483
9.884,-0.22778
9.888,-0.1368
9.892,-0.11954
9.896,0.00286
9.9,-0.02945
9.904,-0.01374
9.908,-0.01068
9.912,0.04112
9.916,0.00522
9.92,0.0808
9.924,0.005
9.928,0.01422
9.932,0.00205
9.936,0.00413
9.94,-0.02372
9.944,-0.0086
9.948,0.00069
9.952,0.00864
9.956,0.04938
9.96,0.02415
9.964,-0.01481
9.968,-0.02556
9.972,0.06134
9.976,0.10218
9.98,-0.01947
9.984,0.01944
9.988,-0.08489
9.992,0.01282
9.996,0.04256
