t_seg,ecg_mV
0.0,-0.0385
0.004,-0.07029
0.008,-0.00065
0.012,-0.03077
0.016,-0.06019
0.02,-0.02386
0.024,0.00752
0.028,-0.02176
0.032,-0.03115
0.036,-0.09322
0.04,-0.06726
0.044,-0.01946
0.048,-0.01988
0.052,0.01096
0.056,0.04451
0.06,-0.02524
0.064,-0.04943
0.068,-0.03334
0.072,-0.06372
0.076,0.00601
0.08,-0.05698
0.084,0.0274
0.088,0.00998
0.092,0.02768
0.096,0.0257
0.1,-0.01361
0.104,-0.0301
0.108,0.05113
0.112,-0.04949
0.116,-0.0405
0.12,-0.05381
0.124,-0.03847
0.128,-0.06484
0.132,-0.02121
0.136,-0.05227
0.14,0.02708
0.144,-0.03126
0.148,-0.12208
0.152,-0.04493
0.156,0.01656
0.16,0.04801
0.164,-0.04859
0.168,-0.03611
0.172,0.02183
0.176,0.00438
0.18,-0.04207
0.184,-0.03788
0.188,-0.06326
0.192,-0.01635
0.196,0.04803
0.2,-0.03961
0.204,0.01969
0.208,-0.04729
0.212,0.01954
0.216,0.06636
0.22,-0.04058
0.224,0.03293
0.228,0.03833
0.232,0.05159
0.236,0.05193
0.24,0.06741
0.244,0.0672
0.248,0.04469
0.252,0.07486
0.256,0.04866
0.26,0.02006
0.264,0.12465
0.268,0.05212
0.272,0.03606
0.276,-0.00697
0.28,0.07668
0.284,0.025
0.288,0.01357
0.292,0.026
0.296,0.00501
0.3,0.01256
0.304,0.05175
0.308,-0.03823
0.312,0.08134
0.316,-0.1035
0.32,-0.08851
0.324,-0.04691
0.328,-0.09751
0.332,0.07565
0.336,0.00999
0.34,0.01499
0.344,0.00267
0.348,-0.01021
0.352,-0.01404
0.356,-0.07222
0.36,-0.00538
0.364,-0.03607
0.368,-0.05389
0.372,-0.05283
0.376,-0.08408
0.38,-0.07404
0.384,-0.14037
0.388,-0.13456
0.392,0.00266
0.396,0.28424
0.4,0.49217
0.404,0.687
0.408,0.85473
0.412,0.93471
0.416,0.98516
0.42,0.85697
0.424,0.64652
0.428,0.47896
0.432,0.22193
0.436,-0.01714
0.44,-0.04926
0.444,-0.2086
0.448,-0.23234
0.452,-0.17559
0.456,-0.13367
0.46,-0.0596
0.464,-0.06066
0.468,-0.04492
0.472,-0.01084
0.476,0.00237
0.48,-0.05293
0.484,-0.04545
0.488,0.00352
0.492,0.00225
0.496,0.09993
0.5,-0.03732
0.504,-0.0559
0.508,0.00763
0.512,0.02385
0.516,0.01729
0.52,-0.06876
0.524,-0.05564
0.528,-0.08874
0.532,-0.01775
0.536,0.05093
0.54,-0.06128
0.544,-0.05218
0.548,-0.06993
0.552,0.03857
0.556,-0.00697
0.56,0.00585
0.564,-0.01494
0.568,-0.03548
0.572,0.04165
0.576,-0.02424
0.58,-0.05494
0.584,0.04589
0.588,-0.05735
0.592,0.01958
0.596,-0.00757
0.6,-0.01195
0.604,-0.03414
0.608,0.03832
0.612,0.00613
0.616,0.00011
0.62,0.02654
0.624,0.05831
0.628,0.01386
0.632,0.08358
0.636,0.05312
0.64,0.08805
0.644,0.07487
0.648,0.13496
0.652,0.21847
0.656,0.12178
0.66,0.13134
0.664,0.14711
0.668,0.21176
0.672,0.15913
0.676,0.21229
0.68,0.18378
0.684,0.21123
0.688,0.25899
0.692,0.17338
0.696,0.22151
0.7,0.25509
0.704,0.1679
0.708,0.10462
0.712,0.21982
0.716,0.14144
0.72,0.19709
0.724,0.16537
0.728,0.15586
0.732,0.10429
0.736,0.08793
0.74,0.06751
0.744,0.07116
0.748,0.09017
0.752,0.09998
0.756,0.08677
0.76,0.03643
0.764,0.04985
0.768,0.03908
0.772,0.01188
0.776,0.00437
0.78,0.04901
0.784,-0.02218
0.788,-0.02729
0.792,-0.02414
0.796,-0.00519
0.8,-0.04601
0.804,-0.02474
0.808,-0.03475
0.812,0.03121
0.816,-0.0034
0.82,0.00675
0.824,-0.02307
0.828,0.05451
0.832,-0.06318
0.836,0.00765
0.84,-0.02183
0.844,-0.05395
0.848,-0.0665
0.852,0.03297
0.856,-0.03265
0.86,0.03435
0.864,0.00812
0.868,0.04242
0.872,-0.00428
0.876,-0.03753
0.88,0.0167
0.884,0.08741
0.888,0.0088
0.892,-0.00739
0.896,0.00612
0.9,-0.01155
0.904,0.04806
0.908,0.0083
0.912,-0.00978
0.916,-0.0041
0.92,0.01479
0.924,-0.00053
0.928,0.05459
0.932,0.01465
0.936,0.04152
0.94,0.00401
0.944,-0.00589
0.948,-0.00347
0.952,-0.03403
0.956,0.02707
0.96,-0.02306
0.964,0.02236
0.968,-0.00648
0.972,0.03629
0.976,-0.02683
0.98,0.03586
0.984,0.10833
0.988,0.09032
0.992,0.05439
0.996,0.0613
1.0,0.13198
1.004,0.10876
1.008,0.06819
1.012,0.09846
1.016,0.08659
1.02,0.03269
1.024,0.07295
1.028,-0.01108
1.032,0.04405
1.036,0.05483
1.04,0.01531
1.044,0.03259
1.048,0.05703
1.052,0.0252
1.056,-0.01876
1.06,0.01597
1.064,0.04706
1.068,-0.01566
1.072,0.01941
1.076,0.00296
1.08,0.03312
1.084,-0.04554
1.088,-0.04661
1.092,-0.01181
1.096,0.03173
1.1,0.03606
1.104,-0.00507
1.108,-0.04993
1.112,-0.02234
1.116,-0.01378
1.12,-0.01673
1.124,-0.01524
1.128,-0.09345
1.132,-0.12681
1.136,-0.0891
1.14,0.00778
1.144,0.15565
1.148,0.31846
1.152,0.55785
1.156,0.76568
1.16,0.90154
1.164,0.98661
1.168,0.90125
1.172,0.81564
1.176,0.61319
1.18,0.38872
1.184,0.13986
1.188,0.01555
1.192,-0.13943
1.196,-0.19205
1.2,-0.11232
1.204,-0.12186
1.208,-0.03544
1.212,-0.07166
1.216,-0.00932
1.22,0.0012
1.224,-0.02351
1.228,0.03331
1.232,-0.02099
1.236,-0.0297
1.24,0.0292
1.244,0.00548
1.248,-0.01761
1.252,0.01692
1.256,0.01682
1.26,0.00315
1.264,0.02387
1.268,-0.00527
1.272,-0.0175
1.276,0.0725
1.28,0.08018
1.284,-0.02103
1.288,0.02019
1.292,0.01478
1.296,-0.04106
1.3,-0.02345
1.304,0.02078
1.308,0.02313
1.312,0.05157
1.316,0.01525
1.32,0.01744
1.324,0.01039
1.328,-0.07171
1.332,-0.02824
1.336,0.04653
1.34,0.01581
1.344,0.09672
1.348,-0.00723
1.352,0.00062
1.356,0.0744
1.36,0.09447
1.364,0.04079
1.368,0.03877
1.372,0.03697
1.376,0.07572
1.38,0.07844
1.384,0.05477
1.388,0.15764
1.392,0.0781
1.396,0.19901
1.4,0.19833
1.404,0.19839
1.408,0.12943
1.412,0.23509
1.416,0.24549
1.42,0.25861
1.424,0.30649
1.428,0.20996
1.432,0.28925
1.436,0.31869
1.44,0.34902
1.444,0.32829
1.448,0.32781
1.452,0.33884
1.456,0.36708
1.46,0.25939
1.464,0.29575
1.468,0.28504
1.472,0.30127
1.476,0.24543
1.48,0.19669
1.484,0.19104
1.488,0.18551
1.492,0.20752
1.496,0.11125
1.5,0.13831
1.504,0.15251
1.508,0.06186
1.512,0.01379
1.516,0.09933
1.52,0.03148
1.524,-0.01091
1.528,0.0343
1.532,0.05712
1.536,0.01487
1.54,0.09094
1.544,0.05848
1.548,-0.00468
1.552,-0.01139
1.556,-0.01383
1.56,0.01638
1.564,-0.04957
1.568,-0.0751
1.572,-0.05205
1.576,-0.15934
1.58,-0.07636
1.584,0.06057
1.588,0.2239
1.592,0.42003
1.596,0.63794
1.6,0.78334
1.604,0.96152
1.608,1.01478
1.612,1.00931
1.616,0.85674
1.62,0.65482
1.624,0.41581
1.628,0.16843
1.632,-0.04303
1.636,-0.11347
1.64,-0.10198
1.644,-0.10341
1.648,-0.07714
1.652,-0.03284
1.656,-0.03472
1.66,-0.05266
1.664,-0.02775
1.668,0.03682
1.672,0.11989
1.676,0.02667
1.68,-0.00231
1.684,-0.0003
1.688,-0.03133
1.692,0.04518
1.696,-0.01974
1.7,-0.00306
1.704,0.01854
1.708,0.06303
1.712,0.00529
1.716,0.01351
1.72,0.03672
1.724,0.01081
1.728,-0.00411
1.732,-0.00108
1.736,0.04378
1.74,0.0083
1.744,0.0533
1.748,0.03166
1.752,0.01923
1.756,0.01706
1.76,0.01778
1.764,0.04996
1.768,-0.02284
1.772,0.04187
1.776,-0.02018
1.78,0.08169
1.784,0.08506
1.788,-0.02279
1.792,0.01954
1.796,0.0634
1.8,0.0131
1.804,0.07291
1.808,0.06897
1.812,0.08713
1.816,0.06224
1.82,0.07168
1.824,0.08973
1.828,0.09705
1.832,0.12252
1.836,0.13211
1.84,0.17614
1.844,0.16989
1.848,0.13077
1.852,0.15447
1.856,0.22881
1.86,0.21915
1.864,0.17598
1.868,0.26233
1.872,0.17355
1.876,0.22208
1.88,0.1813
1.884,0.22447
1.888,0.26024
1.892,0.27968
1.896,0.22591
1.9,0.25908
1.904,0.21287
1.908,0.1267
1.912,0.22092
1.916,0.22666
1.92,0.1612
1.924,0.1606
1.928,0.23362
1.932,0.14206
1.936,0.2029
1.94,0.09175
1.944,0.13619
1.948,0.09797
1.952,0.10915
1.956,0.14277
1.96,0.10023
1.964,0.09551
1.968,0.0857
1.972,0.05627
1.976,0.04842
1.98,0.1273
1.984,0.02381
1.988,-0.00987
1.992,0.06907
1.996,0.07505
2.0,-0.01647
2.004,0.004
2.008,0.00165
2.012,0.01713
2.016,0.03336
2.02,0.01281
2.024,0.07982
2.028,0.01414
2.032,0.01496
2.036,-0.00089
2.04,0.01357
2.044,0.00452
2.048,-0.00873
2.052,0.04493
2.056,0.06605
2.06,0.0378
2.064,-0.02492
2.068,0.00813
2.072,0.06049
2.076,0.03703
2.08,0.02511
2.084,0.01709
2.088,0.0528
2.092,0.0085
2.096,-0.03573
2.1,-0.00659
2.104,0.04119
2.108,0.06252
2.112,0.03782
2.116,0.03125
2.12,0.05229
2.124,0.07727
2.128,-0.05641
2.132,0.02547
2.136,0.05035
2.14,-0.06376
2.144,0.07109
2.148,0.0213
2.152,-0.00261
2.156,0.00616
2.16,0.01917
2.164,0.02649
2.168,-0.02585
2.172,0.01023
2.176,0.03661
2.18,0.05168
2.184,0.06059
2.188,0.05315
2.192,0.03202
2.196,0.0972
2.2,0.02279
2.204,0.09581
2.208,0.07934
2.212,0.14061
2.216,0.10528
2.22,0.15879
2.224,0.05645
2.228,0.08499
2.232,0.11289
2.236,0.0977
2.24,0.10618
2.244,0.09879
2.248,0.08316
2.252,0.03917
2.256,0.04161
2.26,0.01031
2.264,0.10423
2.268,0.05828
2.272,0.06095
2.276,0.00709
2.28,0.08505
2.284,0.04905
2.288,0.03048
2.292,0.05833
2.296,0.02351
2.3,0.05697
2.304,0.03376
2.308,0.03495
2.312,-0.02159
2.316,0.02388
2.32,-0.02699
2.324,0.06223
2.328,0.01002
2.332,0.02042
2.336,0.04536
2.34,0.05189
2.344,-0.00893
2.348,-0.00587
2.352,-0.09661
2.356,-0.04976
2.36,-0.10483
2.364,-0.01276
2.368,0.08752
2.372,0.26427
2.376,0.49195
2.38,0.68734
2.384,0.89582
2.388,1.0426
2.392,1.06523
2.396,0.93085
2.4,0.79334
2.404,0.47959
2.408,0.26969
2.412,-0.02724
2.416,-0.02422
2.42,-0.06158
2.424,-0.1533
2.428,-0.13319
2.432,-0.06006
2.436,-0.00174
2.44,-0.06394
2.444,0.03696
2.448,0.01131
2.452,0.06003
2.456,0.06349
2.46,0.06953
2.464,0.00018
2.468,0.0431
2.472,0.07315
2.476,-0.02816
2.48,0.04573
2.484,-0.00113
2.488,0.07243
2.492,-0.00903
2.496,0.02297
2.5,0.06856
2.504,0.04016
2.508,-0.01734
2.512,0.08978
2.516,-8e-05
2.52,0.04346
2.524,-0.01781
2.528,0.04065
2.532,0.00552
2.536,0.04514
2.54,0.01916
2.544,0.01115
2.548,0.02804
2.552,0.04387
2.556,0.05597
2.56,0.00992
2.564,0.0112
2.568,0.02452
2.572,0.02112
2.576,0.06431
2.58,0.07177
2.584,0.03261
2.588,0.10416
2.592,0.1126
2.596,0.11616
2.6,0.12076
2.604,0.10715
2.608,0.12055
2.612,0.19857
2.616,0.21333
2.62,0.20317
2.624,0.09445
2.628,0.13568
2.632,0.14288
2.636,0.25493
2.64,0.22887
2.644,0.25499
2.648,0.23739
2.652,0.20624
2.656,0.25699
2.66,0.21812
2.664,0.22856
2.668,0.24787
2.672,0.30046
2.676,0.28392
2.68,0.2648
2.684,0.20778
2.688,0.24834
2.692,0.2575
2.696,0.20767
2.7,0.22614
2.704,0.16256
2.708,0.23323
2.712,0.20586
2.716,0.14494
2.72,0.14544
2.724,0.20163
2.728,0.11449
2.732,0.08166
2.736,0.11387
2.74,0.11786
2.744,0.02891
2.748,0.12097
2.752,0.05867
2.756,0.05856
2.76,0.08114
2.764,0.08749
2.768,0.10672
2.772,0.02702
2.776,0.13249
2.78,0.02671
2.784,0.06366
2.788,-0.00329
2.792,-0.00732
2.796,-0.01623
2.8,-0.00197
2.804,0.01527
2.808,-0.00271
2.812,0.08202
2.816,0.06063
2.82,0.09002
2.824,-0.00569
2.828,0.04663
2.832,0.08784
2.836,0.02599
2.84,0.09477
2.844,-0.00106
2.848,0.02118
2.852,-0.01195
2.856,0.03704
2.86,0.01072
2.864,0.06025
2.868,0.03285
2.872,0.06383
2.876,0.05801
2.88,0.00818
2.884,0.07105
2.888,0.05737
2.892,0.10077
2.896,0.04942
2.9,-0.04043
2.904,-0.06436
2.908,0.05845
2.912,0.00082
2.916,0.05621
2.92,0.05327
2.924,0.06806
2.928,0.02626
2.932,0.02489
2.936,0.0408
2.94,0.03285
2.944,0.01417
2.948,-0.0084
2.952,0.02501
2.956,0.00124
2.96,0.04245
2.964,0.08946
2.968,0.05314
2.972,0.01647
2.976,0.05167
2.98,0.02281
2.984,0.09482
2.988,0.04945
2.992,0.00682
2.996,0.00594
3.0,0.0922
3.004,0.01751
3.008,0.05738
3.012,0.07526
3.016,0.05793
3.02,0.05227
3.024,-0.02554
3.028,0.10592
3.032,0.11402
3.036,0.15486
3.04,0.1157
3.044,0.15174
3.048,0.08723
3.052,0.15098
3.056,0.2103
3.06,0.08213
3.064,0.12763
3.068,0.14455
3.072,0.10866
3.076,0.05899
3.08,0.02652
3.084,0.06195
3.088,0.08512
3.092,0.05767
3.096,0.08688
3.1,0.05111
3.104,0.09621
3.108,0.07392
3.112,-0.01162
3.116,0.05822
3.12,-0.02606
3.124,-0.02238
3.128,-0.0263
3.132,0.02793
3.136,0.05859
3.14,0.02351
3.144,0.01709
3.148,0.00326
3.152,0.00564
3.156,0.06437
3.16,-0.0082
3.164,0.07904
3.168,-0.03423
3.172,-0.10663
3.176,-0.16385
3.18,-0.16137
3.184,0.0169
3.188,0.05795
3.192,0.17898
3.196,0.34244
3.2,0.41583
3.204,0.48466
3.208,0.5768
3.212,0.53448
3.216,0.49155
3.22,0.39264
3.224,0.24146
3.228,0.04602
3.232,-0.0057
3.236,-0.0743
3.24,-0.18141
3.244,-0.14847
3.248,-0.12829
3.252,-0.056
3.256,-0.03441
3.26,0.06237
3.264,0.08808
3.268,0.03657
3.272,-0.00165
3.276,-0.00843
3.28,0.03259
3.284,-0.02282
3.288,0.06744
3.292,0.00543
3.296,0.02922
3.3,0.04735
3.304,0.05696
3.308,0.06564
3.312,0.01063
3.316,0.05173
3.32,0.02173
3.324,0.01185
3.328,-0.02497
3.332,-0.0273
3.336,-0.04885
3.34,0.00983
3.344,0.02369
3.348,0.04808
3.352,-0.03858
3.356,0.00364
3.36,0.0093
3.364,0.05778
3.368,0.10212
3.372,0.04181
3.376,0.04509
3.38,0.1372
3.384,-0.01126
3.388,0.00323
3.392,0.07464
3.396,0.08763
3.4,0.02733
3.404,0.07712
3.408,0.11218
3.412,0.09337
3.416,0.0876
3.42,0.10076
3.424,0.17436
3.428,0.12086
3.432,0.1023
3.436,0.10307
3.44,0.09457
3.444,0.15281
3.448,0.17535
3.452,0.25109
3.456,0.2105
3.46,0.19933
3.464,0.17325
3.468,0.2669
3.472,0.26773
3.476,0.30434
3.48,0.16967
3.484,0.27716
3.488,0.20696
3.492,0.2626
3.496,0.23704
3.5,0.16444
3.504,0.20536
3.508,0.22839
3.512,0.23488
3.516,0.17467
3.52,0.18715
3.524,0.14355
3.528,0.15804
3.532,0.20771
3.536,0.12253
3.54,0.21581
3.544,0.11691
3.548,0.10566
3.552,0.13496
3.556,0.12377
3.56,0.08344
3.564,0.09829
3.568,0.06862
3.572,0.08098
3.576,0.02434
3.58,0.0623
3.584,0.08727
3.588,0.0205
3.592,0.02356
3.596,0.06026
3.6,-0.01247
3.604,-0.005
3.608,0.05268
3.612,0.04258
3.616,0.00473
3.62,0.06256
3.624,0.02731
3.628,0.04483
3.632,0.05152
3.636,0.05266
3.64,0.04556
3.644,-0.00597
3.648,0.02319
3.652,0.10235
3.656,0.00253
3.66,0.02393
3.664,0.02982
3.668,0.0507
3.672,0.04355
3.676,-0.00052
3.68,0.03615
3.684,0.04519
3.688,0.06806
3.692,-0.01376
3.696,0.10629
3.7,0.0216
3.704,-0.0213
3.708,0.01035
3.712,-0.00714
3.716,0.02644
3.72,0.01387
3.724,0.03784
3.728,-0.05029
3.732,0.03595
3.736,0.01732
3.74,0.00932
3.744,0.00012
3.748,0.04804
3.752,0.01502
3.756,0.09814
3.76,0.08656
3.764,0.02961
3.768,0.04212
3.772,-0.03465
3.776,-0.07719
3.78,0.0117
3.784,0.00443
3.788,0.01915
3.792,0.01974
3.796,0.08249
3.8,0.02132
3.804,0.03526
3.808,-0.01751
3.812,0.03684
3.816,-0.0086
3.82,0.00949
3.824,0.01554
3.828,0.025
3.832,0.06853
3.836,-0.06921
3.84,0.05119
3.844,0.07652
3.848,-0.00011
3.852,-0.01368
3.856,0.02546
3.86,0.05457
3.864,0.039
3.868,0.00064
3.872,0.02095
3.876,0.03488
3.88,-0.032
3.884,-0.01039
3.888,0.01507
3.892,0.04441
3.896,0.00169
3.9,0.02934
3.904,0.0382
3.908,-0.02106
3.912,0.01758
3.916,0.04271
3.92,0.00253
3.924,0.00767
3.928,0.06201
3.932,0.01506
3.936,-0.05384
3.94,-0.02194
3.944,0.02466
3.948,-0.00874
3.952,0.02087
3.956,0.06206
3.96,0.02647
3.964,-0.0585
3.968,0.05389
3.972,0.07939
3.976,0.12887
3.98,0.12083
3.984,0.1047
3.988,0.0715
3.992,0.13344
3.996,0.0861
4.0,0.12319
4.004,0.09143
4.008,0.19684
4.012,0.11627
4.016,0.06288
4.02,0.06874
4.024,0.09685
4.028,0.07561
4.032,0.06198
4.036,0.01971
4.04,0.05228
4.044,0.00722
4.048,0.04602
4.052,0.00765
4.056,-0.0349
4.06,0.04265
4.064,-0.0067
4.068,0.00444
4.072,0.05939
4.076,0.0737
4.08,-0.04447
4.084,-0.02102
4.088,0.00322
4.092,0.08552
4.096,-0.05446
4.1,-0.04033
4.104,-0.02609
4.108,-0.11387
4.112,0.01834
4.116,-0.03233
4.12,-0.05554
4.124,-0.154
4.128,-0.06979
4.132,0.02094
4.136,0.12735
4.14,0.21529
4.144,0.50426
4.148,0.67253
4.152,0.84562
4.156,1.05353
4.16,0.93931
4.164,0.90706
4.168,0.71161
4.172,0.40681
4.176,0.25117
4.18,0.08797
4.184,-0.09054
4.188,-0.1387
4.192,-0.21961
4.196,-0.15641
4.2,-0.10976
4.204,-0.06299
4.208,0.00657
4.212,-0.0072
4.216,0.04922
4.22,0.04156
4.224,0.04221
4.228,-0.07529
4.232,-0.01601
4.236,-0.04846
4.24,0.03517
4.244,0.00854
4.248,-0.0081
4.252,0.0093
4.256,0.02076
4.26,0.01541
4.264,-0.0252
4.268,0.01833
4.272,0.08544
4.276,-0.02186
4.28,0.09268
4.284,0.06428
4.288,-0.00627
4.292,-0.06239
4.296,0.06557
4.3,0.00973
4.304,-0.00685
4.308,-0.03966
4.312,0.03851
4.316,-0.01875
4.32,0.01613
4.324,-0.00477
4.328,0.02262
4.332,-0.01972
4.336,0.00148
4.34,-0.04805
4.344,0.05423
4.348,0.0239
4.352,-0.01422
4.356,0.04429
4.36,0.02863
4.364,0.12704
4.368,0.07737
4.372,0.08911
4.376,0.14098
4.38,0.13691
4.384,0.11652
4.388,0.12535
4.392,0.14125
4.396,0.19163
4.4,0.15737
4.404,0.17967
4.408,0.16175
4.412,0.13519
4.416,0.22021
4.42,0.21887
4.424,0.23269
4.428,0.15196
4.432,0.22479
4.436,0.26903
4.44,0.15758
4.444,0.2196
4.448,0.24731
4.452,0.1321
4.456,0.20042
4.46,0.22915
4.464,0.17903
4.468,0.22861
4.472,0.13356
4.476,0.2016
4.48,0.07666
4.484,0.09495
4.488,0.08519
4.492,0.15568
4.496,0.04025
4.5,0.05951
4.504,0.06933
4.508,0.04714
4.512,0.01536
4.516,-0.02277
4.52,0.08421
4.524,-0.02793
4.528,0.07617
4.532,-0.0262
4.536,0.0659
4.54,-0.00925
4.544,-0.0272
4.548,0.01213
4.552,-0.02404
4.556,0.01926
4.56,-0.02506
4.564,-0.00418
4.568,-0.00519
4.572,0.03052
4.576,0.00844
4.58,0.02328
4.584,0.01387
4.588,-0.02694
4.592,-0.02021
4.596,0.01416
4.6,-0.00093
4.604,0.02972
4.608,-0.00286
4.612,-0.06416
4.616,-0.00109
4.62,-0.06367
4.624,-0.01798
4.628,-0.0283
4.632,-0.00214
4.636,0.01246
4.64,-0.0269
4.644,0.05888
4.648,-0.05279
4.652,-0.02654
4.656,-0.00108
4.66,-0.07574
4.664,-0.03255
4.668,-0.04163
4.672,-0.05896
4.676,-0.00854
4.68,0.01444
4.684,-0.01891
4.688,0.01804
4.692,0.02918
4.696,-0.02514
4.7,-0.09335
4.704,0.01315
4.708,-0.02372
4.712,-0.01589
4.716,-0.00282
4.72,0.04875
4.724,-0.00408
4.728,0.04361
4.732,-0.03681
4.736,-0.05357
4.74,-0.03219
4.744,-0.05315
4.748,-0.03168
4.752,-0.03594
4.756,-0.03878
4.76,-0.0456
4.764,-0.01477
4.768,0.04118
4.772,0.00861
4.776,-0.0216
4.78,0.02836
4.784,-0.00046
4.788,-0.0034
4.792,-0.01111
4.796,0.0032
4.8,-0.03444
4.804,-0.0155
4.808,0.08859
4.812,-0.04203
4.816,-0.01782
4.82,0.077
4.824,0.04447
4.828,-0.02058
4.832,0.02031
4.836,-0.00503
4.84,0.06666
4.844,0.02148
4.848,0.01202
4.852,-0.01115
4.856,-0.01373
4.86,-0.09795
4.864,-0.01847
4.868,0.05832
4.872,-0.03427
4.876,-0.03972
4.88,0.01928
4.884,0.00935
4.888,0.03375
4.892,-0.03571
4.896,-0.05278
4.9,-0.00602
4.904,-0.01018
4.908,0.03055
4.912,0.03863
4.916,-0.06686
4.92,-0.00623
4.924,-0.01906
4.928,0.0396
4.932,-0.01757
4.936,0.08134
4.94,-0.05552
4.944,0.02479
4.948,0.0421
4.952,0.03711
4.956,0.02488
4.96,-0.0738
4.964,-0.0428
4.968,0.00674
4.972,0.01405
4.976,-0.006
4.98,0.02403
4.984,0.02382
4.988,-0.00031
4.992,0.00041
4.996,-0.03376
5.0,-0.06951
5.004,-0.0157
5.008,-0.00728
5.012,-0.00993
5.016,-0.03838
5.02,-0.08058
5.024,-0.0221
5.028,-0.02811
5.032,-0.05189
5.036,-0.00237
5.04,-0.01329
5.044,0.03467
5.048,0.09087
5.052,-0.01979
5.056,-0.02735
5.06,0.05802
5.064,0.01084
5.068,0.01701
5.072,0.07304
5.076,0.0782
5.08,0.07285
5.084,0.00041
5.088,0.05898
5.092,0.07443
5.096,0.04243
5.1,0.13501
5.104,0.10214
5.108,0.04523
5.112,0.08241
5.116,0.08442
5.12,0.05672
5.124,0.00668
5.128,0.0535
5.132,0.00055
5.136,0.08137
5.14,0.00541
5.144,-0.00242
5.148,0.0387
5.152,0.02671
5.156,-0.00537
5.16,0.03773
5.164,-0.06983
5.168,-0.01682
5.172,0.00838
5.176,0.00178
5.18,-0.02278
5.184,-0.08961
5.188,-0.00475
5.192,-0.04809
5.196,-0.00814
5.2,-0.11627
5.204,-0.02129
5.208,0.00967
5.212,-0.08526
5.216,-0.01664
5.22,-0.10787
5.224,-0.11564
5.228,-0.11719
5.232,-0.0285
5.236,0.11478
5.24,0.37214
5.244,0.48289
5.248,0.78712
5.252,0.90463
5.256,0.9593
5.26,0.86648
5.264,0.79283
5.268,0.5517
5.272,0.35592
5.276,0.11785
5.28,-0.01988
5.284,-0.12251
5.288,-0.17463
5.292,-0.23313
5.296,-0.12264
5.3,-0.09885
5.304,-0.07319
5.308,-0.10635
5.312,-0.06924
5.316,-0.00229
5.32,-0.03746
5.324,0.00503
5.328,-0.02959
5.332,-0.00919
5.336,0.03461
5.34,0.00862
5.344,-0.01793
5.348,0.00239
5.352,-0.03982
5.356,0.00392
5.36,-0.05034
5.364,0.02545
5.368,-0.00473
5.372,-0.04842
5.376,-0.0481
5.38,0.00745
5.384,-0.06254
5.388,-0.0107
5.392,-0.02768
5.396,0.01752
5.4,0.01287
5.404,0.05452
5.408,-0.03768
5.412,-0.03737
5.416,-0.02671
5.42,-0.01669
5.424,-0.03678
5.428,-0.01317
5.432,0.02059
5.436,0.00015
5.44,-0.04458
5.444,-0.01896
5.448,-0.03252
5.452,-0.00418
5.456,0.06203
5.46,0.00097
5.464,0.03479
5.468,0.03903
5.472,-0.0132
5.476,0.09006
5.48,0.02459
5.484,0.07501
5.488,0.1209
5.492,0.09177
5.496,0.14484
5.5,0.10153
5.504,0.13761
5.508,0.08991
5.512,0.23555
5.516,0.16848
5.52,0.14664
5.524,0.21213
5.528,0.2077
5.532,0.22016
5.536,0.16984
5.54,0.20456
5.544,0.2301
5.548,0.20127
5.552,0.23109
5.556,0.16074
5.56,0.15582
5.564,0.16106
5.568,0.22694
5.572,0.18478
5.576,0.08275
5.58,0.12342
5.584,0.09783
5.588,0.01536
5.592,0.10626
5.596,0.0163
5.6,0.09476
5.604,0.03428
5.608,0.03302
5.612,0.02457
5.616,-0.00015
5.62,-0.00084
5.624,0.00262
5.628,-0.02973
5.632,-0.02736
5.636,-0.024
5.64,0.03784
5.644,-0.01616
5.648,-0.03842
5.652,-0.01726
5.656,-0.03334
5.66,-0.00315
5.664,0.03931
5.668,-0.02987
5.672,-0.01899
5.676,-0.051
5.68,-0.03949
5.684,-0.03485
5.688,-0.02227
5.692,-0.03706
5.696,-0.01083
5.7,0.01214
5.704,-0.02732
5.708,-0.00096
5.712,-0.01022
5.716,-0.01247
5.72,-0.07487
5.724,-0.00689
5.728,0.00161
5.732,-0.09392
5.736,0.03272
5.74,-0.08454
5.744,-0.07596
5.748,-0.0795
5.752,0.01091
5.756,0.04389
5.76,0.00945
5.764,-0.0701
5.768,-0.04562
5.772,-0.05158
5.776,-0.09919
5.78,-0.02375
5.784,-0.07345
5.788,-0.01946
5.792,-0.01947
5.796,-0.00899
5.8,0.00976
5.804,-0.02335
5.808,-0.04715
5.812,-0.01651
5.816,-0.06361
5.82,0.01854
5.824,-0.0276
5.828,0.02412
5.832,-0.06626
5.836,-0.08032
5.84,-0.07194
5.844,-0.05644
5.848,-0.04964
5.852,-0.03941
5.856,-0.0762
5.86,0.00507
5.864,-0.04521
5.868,-0.01625
5.872,-0.02881
5.876,-0.0438
5.88,0.00372
5.884,-0.0316
5.888,-0.01926
5.892,0.06399
5.896,0.00951
5.9,0.07603
5.904,0.06452
5.908,0.05296
5.912,0.08048
5.916,0.09908
5.92,0.09252
5.924,0.04786
5.928,0.0926
5.932,0.09136
5.936,0.08529
5.94,0.10033
5.944,0.10787
5.948,0.01075
5.952,-0.00964
5.956,0.01389
5.96,0.01122
5.964,0.00223
5.968,-0.00819
5.972,-0.05489
5.976,-0.03352
5.98,-0.09051
5.984,-0.04961
5.988,-0.05056
5.992,-0.03687
5.996,0.00932
6.0,-0.06999
6.004,-0.11621
6.008,-0.01919
6.012,0.00102
6.016,-0.039
6.02,-0.04031
6.024,0.00162
6.028,-0.01415
6.032,-0.1087
6.036,0.00173
6.04,-0.03956
6.044,-0.11078
6.048,-0.12516
6.052,-0.16511
6.056,-0.20764
6.06,-0.07099
6.064,0.09417
6.068,0.25561
6.072,0.45745
6.076,0.66683
6.08,0.87437
6.084,0.90539
6.088,0.94689
6.092,0.81292
6.096,0.57733
6.1,0.36199
6.104,0.12878
6.108,-0.01676
6.112,-0.10358
6.116,-0.20407
6.12,-0.18769
6.124,-0.07801
6.128,-0.22622
6.132,-0.03096
6.136,-0.05917
6.14,-0.01679
6.144,-0.00615
6.148,-0.01092
6.152,-0.00871
6.156,-0.08532
6.16,0.01233
6.164,-0.06721
6.168,-0.01912
6.172,-0.03441
6.176,-0.06016
6.18,-0.01714
6.184,-0.04636
6.188,-0.08981
6.192,0.02803
6.196,-0.08627
6.2,0.03183
6.204,-0.04738
6.208,-0.10054
6.212,-0.01833
6.216,0.02115
6.22,0.0216
6.224,-0.07877
6.228,-0.02924
6.232,-0.08129
6.236,-0.00098
6.24,-0.06983
6.244,-0.02091
6.248,-0.05016
6.252,-0.03067
6.256,0.01899
6.26,0.02277
6.264,-0.03733
6.268,0.00183
6.272,-0.03922
6.276,-0.06321
6.28,-0.01941
6.284,-0.00335
6.288,0.06715
6.292,0.02446
6.296,0.08284
6.3,0.05293
6.304,0.04725
6.308,0.13773
6.312,0.08604
6.316,0.10515
6.32,0.13714
6.324,0.12257
6.328,0.12416
6.332,0.122
6.336,0.23088
6.34,0.19245
6.344,0.25882
6.348,0.15503
6.352,0.2658
6.356,0.26827
6.36,0.33443
6.364,0.37637
6.368,0.28409
6.372,0.29427
6.376,0.24803
6.38,0.25102
6.384,0.1928
6.388,0.23144
6.392,0.21299
6.396,0.23227
6.4,0.1917
6.404,0.16845
6.408,0.04541
6.412,0.06095
6.416,0.08714
6.42,0.05486
6.424,0.02855
6.428,0.0518
6.432,0.01481
6.436,0.04763
6.44,0.07577
6.444,-0.0065
6.448,0.0357
6.452,0.01139
6.456,-0.00991
6.46,-0.04838
6.464,0.02446
6.468,-0.04314
6.472,0.01401
6.476,-0.06611
6.48,-0.11764
6.484,-0.14628
6.488,-0.11956
6.492,-0.10488
6.496,0.08257
6.5,0.21884
6.504,0.46135
6.508,0.70564
6.512,0.85144
6.516,0.98064
6.52,1.00252
6.524,0.84819
6.528,0.59652
6.532,0.39453
6.536,0.20413
6.54,0.02854
6.544,-0.13721
6.548,-0.24538
6.552,-0.17595
6.556,-0.14005
6.56,-0.14119
6.564,-0.07703
6.568,-0.06333
6.572,0.00558
6.576,-0.07467
6.58,-0.04717
6.584,-0.03349
6.588,-0.02849
6.592,0.00831
6.596,-0.02391
6.6,-0.05164
6.604,-0.01287
6.608,-0.03094
6.612,0.00553
6.616,-0.02269
6.62,-0.0118
6.624,-0.00785
6.628,-0.03375
6.632,-0.00814
6.636,-0.06639
6.64,-0.02622
6.644,-0.00324
6.648,-0.05419
6.652,0.00128
6.656,-0.0355
6.66,0.04675
6.664,-0.03172
6.668,-0.03258
6.672,0.06484
6.676,0.02075
6.68,0.01017
6.684,0.03216
6.688,-0.0479
6.692,-0.03634
6.696,-0.01301
6.7,-0.01959
6.704,0.02266
6.708,0.00843
6.712,0.06317
6.716,-0.00811
6.72,0.01179
6.724,0.01652
6.728,0.10156
6.732,0.02152
6.736,0.06402
6.74,0.09521
6.744,0.08613
6.748,0.09217
6.752,0.10101
6.756,0.11285
6.76,0.06458
6.764,0.09868
6.768,0.167
6.772,0.12106
6.776,0.18738
6.78,0.17073
6.784,0.19294
6.788,0.22237
6.792,0.19456
6.796,0.15872
6.8,0.25803
6.804,0.18498
6.808,0.16664
6.812,0.16996
6.816,0.15006
6.82,0.15446
6.824,0.10825
6.828,0.208
6.832,0.1639
6.836,0.17251
6.84,0.11572
6.844,0.14977
6.848,0.07503
6.852,0.07381
6.856,0.0585
6.86,0.09706
6.864,0.07404
6.868,0.02832
6.872,0.00963
6.876,0.05091
6.88,0.02048
6.884,-0.02349
6.888,0.0187
6.892,-0.03412
6.896,-0.04327
6.9,-0.05597
6.904,0.01709
6.908,-0.03265
6.912,-0.00151
6.916,-0.01817
6.92,0.03472
6.924,-0.04432
6.928,0.05175
6.932,0.05727
6.936,0.03583
6.94,0.08858
6.944,0.05518
6.948,0.11568
6.952,0.07553
6.956,0.01513
6.96,0.12524
6.964,0.12856
6.968,0.07889
6.972,0.04171
6.976,0.05841
6.98,0.01605
6.984,0.04682
6.988,-0.05965
6.992,-0.0156
6.996,-0.00868
7.0,-0.03212
7.004,0.04681
7.008,-0.05057
7.012,0.00575
7.016,0.05243
7.02,0.00163
7.024,-0.04474
7.028,-0.02119
7.032,0.0281
7.036,0.02552
7.04,0.01653
7.044,-0.00807
7.048,-0.07149
7.052,0.04263
7.056,-0.01217
7.06,-0.08404
7.064,0.02276
7.068,0.02711
7.072,-0.0423
7.076,-0.02511
7.08,-0.09774
7.084,-0.17639
7.088,-0.14754
7.092,-0.02673
7.096,0.16181
7.1,0.27189
7.104,0.57834
7.108,0.72644
7.112,0.97993
7.116,0.99518
7.12,0.96
7.124,0.7524
7.128,0.59869
7.132,0.34181
7.136,0.11336
7.14,-0.04316
7.144,-0.15215
7.148,-0.17883
7.152,-0.18656
7.156,-0.08722
7.16,-0.10511
7.164,-0.11422
7.168,-0.04692
7.172,-0.03769
7.176,0.02931
7.18,0.00108
7.184,-0.02847
7.188,-0.06202
7.192,-0.00751
7.196,-0.05515
7.2,-0.00095
7.204,0.0126
7.208,0.01264
7.212,0.01697
7.216,-0.09008
7.22,0.03937
7.224,0.06705
7.228,0.00101
7.232,-0.06255
7.236,0.00263
7.24,-0.08505
7.244,0.00969
7.248,-0.04243
7.252,0.00065
7.256,-0.03013
7.26,-0.05328
7.264,-0.00767
7.268,-0.04963
7.272,-0.00571
7.276,0.05749
7.28,0.00038
7.284,-0.04356
7.288,-0.00716
7.292,0.12156
7.296,-0.02614
7.3,-0.05039
7.304,-0.01507
7.308,-0.02496
7.312,0.04503
7.316,0.03891
7.32,0.03893
7.324,0.03134
7.328,0.06477
7.332,0.09706
7.336,0.07521
7.34,0.09379
7.344,0.07227
7.348,0.07162
7.352,0.14543
7.356,0.11409
7.36,0.19189
7.364,0.13866
7.368,0.18125
7.372,0.17339
7.376,0.18197
7.38,0.18769
7.384,0.18424
7.388,0.20302
7.392,0.24083
7.396,0.20773
7.4,0.23733
7.404,0.20937
7.408,0.17815
7.412,0.22299
7.416,0.22106
7.42,0.16285
7.424,0.13551
7.428,0.19101
7.432,0.11504
7.436,0.14025
7.44,0.16093
7.444,0.12356
7.448,0.03339
7.452,0.09839
7.456,0.00377
7.46,0.09379
7.464,0.05236
7.468,0.1147
7.472,0.03705
7.476,-0.00967
7.48,0.05181
7.484,0.02435
7.488,-0.04025
7.492,0.04119
7.496,-0.02294
7.5,0.0403
7.504,-0.07709
7.508,0.02393
7.512,0.0015
7.516,0.00783
7.52,-0.03069
7.524,-0.01704
7.528,0.00936
7.532,0.01001
7.536,0.05314
7.54,0.00664
7.544,0.02098
7.548,0.01053
7.552,0.01347
7.556,0.01741
7.56,0.07959
7.564,0.08993
7.568,0.02847
7.572,0.068
7.576,0.10627
7.58,0.04962
7.584,0.1219
7.588,0.12087
7.592,0.08366
7.596,0.1107
7.6,-0.01151
7.604,0.07871
7.608,0.00161
7.612,0.02292
7.616,0.00247
7.62,-0.02884
7.624,0.01819
7.628,0.07726
7.632,-0.01571
7.636,-0.02945
7.64,-0.03285
7.644,-0.00762
7.648,-0.01238
7.652,-0.05307
7.656,-0.03577
7.66,0.03711
7.664,-0.01735
7.668,-0.0202
7.672,-0.04257
7.676,0.09183
7.68,-0.02654
7.684,0.01487
7.688,-0.00304
7.692,-0.03625
7.696,-0.04355
7.7,-0.10288
7.704,-0.13411
7.708,-0.03886
7.712,-0.0934
7.716,-0.01264
7.72,0.03573
7.724,0.21518
7.728,0.34326
7.732,0.51882
7.736,0.54385
7.74,0.57596
7.744,0.55227
7.748,0.46786
7.752,0.26864
7.756,0.14144
7.76,-0.02078
7.764,-0.13148
7.768,-0.14451
7.772,-0.15016
7.776,-0.19429
7.78,-0.13121
7.784,-0.1433
7.788,-0.08007
7.792,-0.02506
7.796,-0.00223
7.8,0.01213
7.804,0.0231
7.808,-0.00601
7.812,0.03197
7.816,0.0121
7.82,-0.02543
7.824,0.04615
7.828,-0.00762
7.832,-0.03128
7.836,0.02014
7.84,0.00176
7.844,-0.01946
7.848,-0.05085
7.852,0.00912
7.856,-0.0167
7.86,0.01063
7.864,0.03726
7.868,-0.05319
7.872,-0.01595
7.876,0.01677
7.88,-0.02694
7.884,-0.00778
7.888,-0.00449
7.892,0.01132
7.896,-0.0296
7.9,0.06342
7.904,-0.03165
7.908,-0.07679
7.912,0.0585
7.916,0.01128
7.92,-0.03394
7.924,0.01461
7.928,0.04047
7.932,0.00154
7.936,0.06044
7.94,0.08612
7.944,-0.00601
7.948,0.08637
7.952,0.05469
7.956,0.06449
7.96,0.11859
7.964,0.07825
7.968,0.17349
7.972,0.12428
7.976,0.15511
7.98,0.10814
7.984,0.12992
7.988,0.1504
7.992,0.19556
7.996,0.17605
8.0,0.21691
8.004,0.29807
8.008,0.22605
8.012,0.22591
8.016,0.27903
8.02,0.21321
8.024,0.18794
8.028,0.18124
8.032,0.19299
8.036,0.22443
8.04,0.20122
8.044,0.18936
8.048,0.18964
8.052,0.15342
8.056,0.19557
8.06,0.19292
8.064,0.15964
8.068,0.10178
8.072,0.08933
8.076,0.09391
8.08,0.03452
8.084,0.1214
8.088,0.14182
8.092,0.09278
8.096,0.1071
8.1,0.07351
8.104,0.04231
8.108,0.07872
8.112,0.08659
8.116,0.02298
8.12,0.00205
8.124,0.05361
8.128,0.05923
8.132,-0.00423
8.136,-0.02296
8.14,0.02273
8.144,-0.01629
8.148,-0.00444
8.152,0.04219
8.156,0.03068
8.16,0.01059
8.164,0.001
8.168,-0.00253
8.172,0.03757
8.176,0.05259
8.18,0.02133
8.184,0.0929
8.188,-0.01869
8.192,-0.01752
8.196,0.02807
8.2,0.06888
8.204,-0.03187
8.208,-0.00891
8.212,0.06004
8.216,0.08303
8.22,0.07104
8.224,0.05159
8.228,0.11487
8.232,0.08144
8.236,0.08278
8.24,0.05581
8.244,0.11658
8.248,0.1062
8.252,0.1307
8.256,0.1056
8.26,0.10735
8.264,0.07646
8.268,0.0523
8.272,0.03602
8.276,0.06153
8.28,0.08208
8.284,0.03116
8.288,-0.0352
8.292,-0.04917
8.296,0.00167
8.3,0.03256
8.304,-0.03735
8.308,0.05882
8.312,0.0492
8.316,0.0462
8.32,-0.00235
8.324,0.04627
8.328,0.00023
8.332,0.01128
8.336,0.09561
8.34,-0.00103
8.344,0.00906
8.348,-0.02093
8.352,0.09335
8.356,-0.01911
8.36,-0.04799
8.364,-0.08389
8.368,-0.08583
8.372,-0.09839
8.376,-0.08095
8.38,0.03628
8.384,0.21815
8.388,0.3797
8.392,0.56643
8.396,0.75969
8.4,0.92876
8.404,1.04773
8.408,0.93418
8.412,0.78023
8.416,0.70244
8.42,0.37231
8.424,0.24259
8.428,-0.0071
8.432,-0.07302
8.436,-0.16456
8.44,-0.15131
8.444,-0.04597
8.448,-0.09238
8.452,0.05988
8.456,-0.04065
8.46,0.02108
8.464,0.02157
8.468,-0.03852
8.472,0.02341
8.476,0.02246
8.48,0.05907
8.484,-0.00135
8.488,0.04398
8.492,-0.03024
8.496,0.01149
8.5,0.05966
8.504,-0.03677
8.508,0.06099
8.512,-0.00107
8.516,-0.08007
8.52,-0.04189
8.524,-0.02245
8.528,0.00463
8.532,0.08137
8.536,0.03837
8.54,-0.00488
8.544,-0.02063
8.548,0.0383
8.552,-0.00217
8.556,0.01698
8.56,0.03931
8.564,0.02356
8.568,0.02714
8.572,0.00907
8.576,0.08077
8.58,0.05068
8.584,-0.0018
8.588,0.00287
8.592,0.00762
8.596,-0.0059
8.6,0.00883
8.604,0.01802
8.608,0.01122
8.612,0.09204
8.616,0.07352
8.62,0.08233
8.624,0.06288
8.628,0.11676
8.632,0.14535
8.636,0.11028
8.64,0.13739
8.644,0.1895
8.648,0.1443
8.652,0.22579
8.656,0.25584
8.66,0.1645
8.664,0.25929
8.668,0.24808
8.672,0.21006
8.676,0.25664
8.68,0.27391
8.684,0.27622
8.688,0.2869
8.692,0.21211
8.696,0.1897
8.7,0.2563
8.704,0.20562
8.708,0.18475
8.712,0.23517
8.716,0.19195
8.72,0.18903
8.724,0.25061
8.728,0.18161
8.732,0.11934
8.736,0.12333
8.74,0.1473
8.744,0.15962
8.748,0.14746
8.752,0.10779
8.756,0.17716
8.76,0.06246
8.764,0.03221
8.768,0.05249
8.772,0.08151
8.776,0.05939
8.78,0.01906
8.784,0.05834
8.788,0.01287
8.792,0.04333
8.796,0.02277
8.8,0.06405
8.804,0.04225
8.808,0.11768
8.812,-0.04033
8.816,0.06849
8.82,0.01706
8.824,0.01645
8.828,-0.00155
8.832,0.09299
8.836,0.01086
8.84,0.07214
8.844,0.03173
8.848,-0.00042
8.852,0.07127
8.856,0.00104
8.86,0.03443
8.864,0.02972
8.868,0.04835
8.872,0.01198
8.876,0.00126
8.88,-0.03917
8.884,0.0337
8.888,-0.02755
8.892,0.02696
8.896,0.03801
8.9,0.00418
8.904,-0.00497
8.908,0.04407
8.912,0.07416
8.916,0.05674
8.92,-0.02838
8.924,0.00422
8.928,0.00965
8.932,-0.00016
8.936,0.04036
8.94,-0.00593
8.944,0.0414
8.948,-0.01006
8.952,-0.03041
8.956,0.05702
8.96,-0.03935
8.964,0.03357
8.968,-0.02192
8.972,0.07655
8.976,-0.00626
8.98,0.016
8.984,0.04166
8.988,0.0249
8.992,0.01443
8.996,0.00317
9.0,0.0305
9.004,0.0328
9.008,0.02775
9.012,0.00086
9.016,0.0231
9.02,0.0648
9.024,0.02324
9.028,0.04928
9.032,0.11363
9.036,-0.01794
9.04,0.08179
9.044,-0.01861
9.048,0.10152
9.052,0.04596
9.056,0.03645
9.06,0.01001
9.064,0.08682
9.068,0.07752
9.072,0.05252
9.076,0.11186
9.08,0.0508
9.084,0.15965
9.088,0.15288
9.092,0.19802
9.096,0.08287
9.1,0.13114
9.104,0.18574
9.108,0.09001
9.112,0.113
9.116,0.0672
9.12,0.10575
9.124,0.07097
9.128,0.02921
9.132,0.07339
9.136,-0.02013
9.14,0.09577
9.144,0.03268
9.148,0.0192
9.152,-0.00074
9.156,0.08132
9.16,-0.00677
9.164,0.04419
9.168,0.05255
9.172,0.1156
9.176,0.00237
9.18,0.09747
9.184,0.032
9.188,-0.01094
9.192,0.03569
9.196,0.05373
9.2,0.04545
9.204,-0.01119
9.208,0.03529
9.212,0.0012
9.216,-0.02981
9.22,0.01352
9.224,-0.14532
9.228,-0.02509
9.232,0.02864
9.236,0.16113
9.24,0.32309
9.244,0.52113
9.248,0.71615
9.252,0.88207
9.256,1.01279
9.26,1.02053
9.264,0.79616
9.268,0.68415
9.272,0.4903
9.276,0.27824
9.28,0.05333
9.284,-0.11461
9.288,-0.13381
9.292,-0.21773
9.296,-0.03791
9.3,-0.04354
9.304,-0.05114
9.308,-0.01837
9.312,-0.07748
9.316,0.02546
9.32,0.07578
9.324,-0.00628
9.328,0.04668
9.332,0.03536
9.336,0.04032
9.34,0.09775
9.344,0.05405
9.348,0.02009
9.352,0.02361
9.356,0.05956
9.36,0.07519
9.364,-0.02901
9.368,0.00471
9.372,0.03647
9.376,0.05358
9.38,0.0504
9.384,-0.00238
9.388,0.05135
9.392,0.03152
9.396,0.02152
9.4,0.03852
9.404,0.038
9.408,-0.00123
9.412,0.02618
9.416,0.02417
9.42,0.01018
9.424,0.06681
9.428,0.03292
9.432,-0.03227
9.436,0.06919
9.44,0.0882
9.444,0.04466
9.448,0.04682
9.452,0.06205
9.456,0.09567
9.46,0.08554
9.464,0.10359
9.468,0.17142
9.472,0.10418
9.476,0.05346
9.48,0.14368
9.484,0.1484
9.488,0.13539
9.492,0.24181
9.496,0.17483
9.5,0.15951
9.504,0.19054
9.508,0.20048
9.512,0.20683
9.516,0.2435
9.52,0.23066
9.524,0.24998
9.528,0.25968
9.532,0.27841
9.536,0.19821
9.54,0.26506
9.544,0.15183
9.548,0.25014
9.552,0.24072
9.556,0.27716
9.56,0.19182
9.564,0.25375
9.568,0.2177
9.572,0.14881
9.576,0.19775
9.58,0.21032
9.584,0.16236
9.588,0.14158
9.592,0.16279
9.596,0.18077
9.6,0.12717
9.604,0.07819
9.608,0.02583
9.612,0.08341
9.616,0.10329
9.62,0.05812
9.624,0.08358
9.628,0.00087
9.632,0.05067
9.636,0.07373
9.64,0.02835
9.644,0.09544
9.648,0.04582
9.652,-0.00782
9.656,0.04599
9.66,0.12421
9.664,0.05728
9.668,0.04482
9.672,0.04681
9.676,-0.0178
9.68,0.0519
9.684,0.0205
9.688,0.08138
9.692,0.04812
9.696,0.04936
9.7,0.06
9.704,0.04308
9.708,0.04038
9.712,-0.01162
9.716,0.00233
9.72,0.04975
9.724,0.01369
9.728,0.04723
9.732,0.04902
9.736,0.06151
9.74,0.02669
9.744,0.04463
9.748,-0.01872
9.752,0.06542
9.756,0.10976
9.76,0.01631
9.764,0.04216
9.768,0.05305
9.772,0.08742
9.776,0.189
9.78,0.11751
9.784,0.15059
9.788,0.12657
9.792,0.09336
9.796,0.13549
9.8,0.10446
9.804,0.16553
9.808,0.06294
9.812,0.07574
9.816,0.06054
9.82,0.12623
9.824,0.09077
9.828,0.01255
9.832,0.05271
9.836,0.09517
9.84,0.05377
9.844,0.04714
9.848,-0.01267
9.852,0.08512
9.856,-0.01383
9.86,0.04677
9.864,-0.01145
9.868,-0.0086
9.872,-0.02178
9.876,0.01218
9.88,0.06751
9.884,0.06693
9.888,0.03623
9.892,0.05614
9.896,-0.00824
9.9,0.03486
9.904,-0.0043
9.908,0.02509
9.912,-0.06623
9.916,-0.0272
9.92,-0.06331
9.924,-0.03058
9.928,0.02006
9.932,0.22718
9.936,0.43987
9.94,0.53636
9.944,0.79618
9.948,0.98711
9.952,1.0723
9.956,0.99196
9.96,0.83672
9.964,0.6708
9.968,0.41258
9.972,0.18884
9.976,0.00771
9.98,-0.12256
9.984,-0.11358
9.988,-0.13303
9.992,-0.08182
9.996,-0.04161
