t_seg,ecg_mV
0.0,0.00492
0.004,0.02611
0.008,0.00936
0.012,0.02625
0.016,0.02976
0.02,0.01111
0.024,0.00224
0.028,-0.01777
0.032,-0.06121
0.036,-0.09484
0.04,-0.05462
0.044,-0.00492
0.048,0.1627
0.052,0.32842
0.056,0.54777
0.06,0.75796
0.064,0.92677
0.068,1.03313
0.072,0.97449
0.076,0.85307
0.08,0.66527
0.084,0.44808
0.088,0.21034
0.092,0.04804
0.096,-0.08882
0.1,-0.14609
0.104,-0.11797
0.108,-0.1246
0.112,-0.06299
0.116,-0.03623
0.12,0.00786
0.124,0.02136
0.128,0.02524
0.132,0.0019
0.136,0.02265
0.14,0.00549
0.144,0.02515
0.148,0.01567
0.152,0.03594
0.156,0.03781
0.16,0.01435
0.164,0.04378
0.168,0.00879
0.172,0.06077
0.176,0.03462
0.18,0.03001
0.184,0.01102
0.188,0.02365
0.192,0.02765
0.196,0.03163
0.2,-0.00494
0.204,-0.00362
0.208,0.03302
0.212,0.02491
0.216,0.00766
0.22,0.03145
0.224,0.04108
0.228,0.04495
0.232,0.01261
0.236,0.03954
0.24,0.02912
0.244,0.02839
0.248,0.05269
0.252,0.04519
0.256,0.05094
0.26,0.03918
0.264,0.05571
0.268,0.07154
0.272,0.08361
0.276,0.07451
0.28,0.0891
0.284,0.11249
0.288,0.11992
0.292,0.12699
0.296,0.13606
0.3,0.13516
0.304,0.15303
0.308,0.15966
0.312,0.18867
0.316,0.19942
0.32,0.22162
0.324,0.22584
0.328,0.23434
0.332,0.23187
0.336,0.26141
0.34,0.21722
0.344,0.24383
0.348,0.2287
0.352,0.24087
0.356,0.22766
0.36,0.22894
0.364,0.24384
0.368,0.21497
0.372,0.20762
0.376,0.22325
0.38,0.18872
0.384,0.15639
0.388,0.16936
0.392,0.14408
0.396,0.15553
0.4,0.1184
0.404,0.13303
0.408,0.11584
0.412,0.07897
0.416,0.11053
0.42,0.08811
0.424,0.09368
0.428,0.0629
0.432,0.06506
0.436,0.05872
0.44,0.05685
0.444,0.04865
0.448,0.03901
0.452,0.03173
0.456,0.02674
0.46,0.03015
0.464,0.01572
0.468,0.01235
0.472,-0.00603
0.476,0.00918
0.48,0.0064
0.484,0.01923
0.488,0.03254
0.492,0.02715
0.496,0.0049
0.5,0.01174
0.504,-0.00555
0.508,-0.00618
0.512,0.02168
0.516,0.02004
0.52,0.01811
0.524,-0.00396
0.528,0.03214
0.532,0.06046
0.536,0.00546
0.54,-0.00417
0.544,-0.00381
0.548,0.01695
0.552,-0.00019
0.556,0.01255
0.56,-0.00042
0.564,0.01341
0.568,0.00028
0.572,0.00431
0.576,0.00645
0.58,0.01864
0.584,0.00507
0.588,0.03623
0.592,0.04804
0.596,0.01528
0.6,0.03759
0.604,0.01906
0.608,0.06578
0.612,0.06177
0.616,0.06573
0.62,0.09329
0.624,0.10658
0.628,0.13467
0.632,0.13991
0.636,0.11468
0.64,0.12108
0.644,0.09247
0.648,0.09978
0.652,0.06882
0.656,0.05335
0.66,0.08309
0.664,0.03099
0.668,0.03928
0.672,0.05495
0.676,0.02215
0.68,0.03013
0.684,0.02535
0.688,-0.00064
0.692,0.03294
0.696,-0.00087
0.7,-0.01054
0.704,0.02151
0.708,0.00895
0.712,-0.00267
0.716,-0.00027
0.72,-0.01562
0.724,0.0104
0.728,0.00545
0.732,-0.01033
0.736,-0.00176
0.74,0.01136
0.744,0.01748
0.748,0.00302
0.752,-0.0301
0.756,-0.0638
0.76,-0.08215
0.764,-0.08408
0.768,-0.01289
0.772,0.08111
0.776,0.24058
0.78,0.48556
0.784,0.69942
0.788,0.87536
0.792,1.00191
0.796,1.00745
0.8,0.90954
0.804,0.71429
0.808,0.46913
0.812,0.30687
0.816,0.05771
0.82,-0.06494
0.824,-0.13636
0.828,-0.17966
0.832,-0.10901
0.836,-0.08217
0.84,-0.05307
0.844,-0.02209
0.848,-0.01179
0.852,-0.00899
0.856,0.00921
0.86,0.02692
0.864,0.01804
0.868,0.01147
0.872,0.00709
0.876,0.01168
0.88,-0.00554
0.884,-0.00696
0.888,-0.00419
0.892,-0.00614
0.896,0.01559
0.9,0.02108
0.904,0.01385
0.908,0.00946
0.912,0.02723
0.916,0.01817
0.92,0.00443
0.924,-0.00701
0.928,0.01818
0.932,0.00523
0.936,0.02066
0.94,0.01087
0.944,0.01895
0.948,0.02491
0.952,0.02584
0.956,-0.00103
0.96,-0.00848
0.964,0.00271
0.968,0.01421
0.972,0.03699
0.976,0.01961
0.98,0.03492
0.984,0.04007
0.988,0.0395
0.992,0.03638
0.996,0.04151
1.0,0.05685
1.004,0.06256
1.008,0.10371
1.012,0.07052
1.016,0.08994
1.02,0.10771
1.024,0.11231
1.028,0.10003
1.032,0.12557
1.036,0.15832
1.04,0.15847
1.044,0.18916
1.048,0.18425
1.052,0.19485
1.056,0.19049
1.06,0.20801
1.064,0.21921
1.068,0.20181
1.072,0.22213
1.076,0.22324
1.08,0.21478
1.084,0.2286
1.088,0.21916
1.092,0.19718
1.096,0.19635
1.1,0.17682
1.104,0.1566
1.108,0.12146
1.112,0.17118
1.116,0.12084
1.12,0.14822
1.124,0.12322
1.128,0.11168
1.132,0.10746
1.136,0.04601
1.14,0.07449
1.144,0.09246
1.148,0.03889
1.152,0.06808
1.156,0.04122
1.16,0.05259
1.164,0.03122
1.168,0.01197
1.172,0.02246
1.176,-0.00107
1.18,0.0
1.184,0.00236
1.188,0.00721
1.192,-0.03215
1.196,-0.00207
1.2,-0.00413
1.204,-0.01614
1.208,-0.01819
1.212,-0.0055
1.216,0.02517
1.22,0.02222
1.224,-0.01392
1.228,0.01257
1.232,0.00323
1.236,-0.00271
1.24,0.00059
1.244,0.00449
1.248,-0.00579
1.252,-0.00922
1.256,0.00547
1.26,-0.01343
1.264,-0.02458
1.268,-0.00496
1.272,-0.00391
1.276,-0.01409
1.28,-0.00955
1.284,-0.00649
1.288,-0.00261
1.292,0.00174
1.296,0.00774
1.3,-0.03127
1.304,-0.00102
1.308,0.01187
1.312,-0.02969
1.316,-0.00351
1.32,-0.00675
1.324,-0.04171
1.328,-0.02375
1.332,-0.00336
1.336,-0.02335
1.34,-0.01573
1.344,0.00337
1.348,-0.03514
1.352,-0.00049
1.356,-0.00547
1.36,0.01346
1.364,-0.03595
1.368,0.00397
1.372,-0.00458
1.376,-0.01262
1.38,-0.00914
1.384,0.00526
1.388,-0.00797
1.392,-0.00663
1.396,-0.0172
1.4,0.00395
1.404,0.00706
1.408,-0.01768
1.412,-0.01276
1.416,0.00529
1.42,-0.02427
1.424,-0.00106
1.428,0.0195
1.432,0.00663
1.436,0.00284
1.44,-0.02053
1.444,-0.0105
1.448,-0.01126
1.452,0.02912
1.456,-0.00129
1.46,0.02009
1.464,0.04188
1.468,0.04297
1.472,0.02418
1.476,0.08788
1.48,0.0636
1.484,0.05991
1.488,0.09259
1.492,0.11425
1.496,0.0642
1.5,0.07817
1.504,0.06196
1.508,0.07539
1.512,0.0634
1.516,0.06095
1.52,0.0114
1.524,0.01366
1.528,0.00992
1.532,-0.01173
1.536,-0.00162
1.54,-0.01566
1.544,0.00177
1.548,-0.01399
1.552,0.01601
1.556,-0.01572
1.56,-0.02713
1.564,-0.03264
1.568,-0.01475
1.572,-0.01619
1.576,-0.02464
1.58,-0.01989
1.584,-0.01072
1.588,-0.02386
1.592,-0.02374
1.596,-0.02213
1.6,-0.01103
1.604,-0.02982
1.608,-0.03062
1.612,-0.09634
1.616,-0.10764
1.62,-0.13832
1.624,-0.03959
1.628,0.09187
1.632,0.27719
1.636,0.4806
1.64,0.66096
1.644,0.91659
1.648,0.97149
1.652,0.96561
1.656,0.858
1.66,0.6481
1.664,0.42835
1.668,0.21071
1.672,0.00661
1.676,-0.11146
1.68,-0.1503
1.684,-0.18467
1.688,-0.17072
1.692,-0.11157
1.696,-0.06983
1.7,-0.02751
1.704,-0.02288
1.708,-0.01436
1.712,-0.0096
1.716,-0.05333
1.72,-0.02606
1.724,-0.03596
1.728,-0.02303
1.732,-0.00688
1.736,-0.0466
1.74,-0.01161
1.744,-0.02216
1.748,-0.01365
1.752,-0.02118
1.756,0.00481
1.76,-0.00413
1.764,-0.00713
1.768,-0.01727
1.772,-0.01767
1.776,-0.01089
1.78,0.011
1.784,-0.01229
1.788,0.00253
1.792,-0.05046
1.796,-0.03618
1.8,-0.0023
1.804,-0.0099
1.808,-0.028
1.812,-0.02789
1.816,-0.01113
1.82,-0.03885
1.824,0.02201
1.828,0.01085
1.832,0.00346
1.836,-0.01529
1.84,-0.01371
1.844,0.02187
1.848,0.01584
1.852,0.00756
1.856,0.06457
1.86,0.04272
1.864,0.0523
1.868,0.09524
1.872,0.06369
1.876,0.07644
1.88,0.09158
1.884,0.10813
1.888,0.12142
1.892,0.15187
1.896,0.14133
1.9,0.13214
1.904,0.17991
1.908,0.17737
1.912,0.18458
1.916,0.17446
1.92,0.19186
1.924,0.18504
1.928,0.21783
1.932,0.1946
1.936,0.18782
1.94,0.18033
1.944,0.19467
1.948,0.17934
1.952,0.17065
1.956,0.16294
1.96,0.15861
1.964,0.13675
1.968,0.13364
1.972,0.09288
1.976,0.12051
1.98,0.10072
1.984,0.05739
1.988,0.08408
1.992,0.05314
1.996,0.05083
2.0,0.04024
2.004,0.02226
2.008,-0.00873
2.012,0.00936
2.016,-0.00716
2.02,-0.00558
2.024,0.01425
2.028,-0.01227
2.032,0.00369
2.036,-0.0065
2.04,0.00826
2.044,-0.01204
2.048,-0.02581
2.052,-0.03798
2.056,-0.00897
2.06,-0.00681
2.064,-0.05001
2.068,-0.03085
2.072,-0.02509
2.076,0.01014
2.08,-0.01895
2.084,-0.01741
2.088,-0.01143
2.092,-0.02283
2.096,0.01139
2.1,-0.03276
2.104,-0.02475
2.108,-0.02507
2.112,-0.01485
2.116,-0.02417
2.12,0.00628
2.124,-0.04715
2.128,-0.02567
2.132,-0.00379
2.136,-0.01369
2.14,-0.03119
2.144,-0.0079
2.148,-0.04259
2.152,-0.01169
2.156,-0.01854
2.16,-0.00991
2.164,0.01349
2.168,0.00865
2.172,0.0207
2.176,0.04812
2.18,0.05364
2.184,0.07796
2.188,0.06348
2.192,0.06889
2.196,0.05814
2.2,0.07879
2.204,0.07291
2.208,0.04554
2.212,0.05076
2.216,0.03045
2.22,0.00792
2.224,-0.0127
2.228,-0.01073
2.232,0.02266
2.236,-0.0299
2.24,-0.0157
2.244,-0.02611
2.248,-0.04273
2.252,-0.02357
2.256,-0.01171
2.26,-0.04474
2.264,-0.0241
2.268,-0.03126
2.272,-0.02676
2.276,-0.04099
2.28,-0.05206
2.284,-0.05684
2.288,-0.03477
2.292,-0.02895
2.296,-0.03248
2.3,-0.04596
2.304,-0.04453
2.308,-0.06899
2.312,-0.11922
2.316,-0.14236
2.32,-0.14431
2.324,-0.08109
2.328,0.03979
2.332,0.18135
2.336,0.38228
2.34,0.60368
2.344,0.78294
2.348,0.92249
2.352,0.973
2.356,0.88188
2.36,0.71024
2.364,0.50906
2.368,0.2609
2.372,0.06745
2.376,-0.07016
2.38,-0.16251
2.384,-0.20108
2.388,-0.16113
2.392,-0.13669
2.396,-0.11976
2.4,-0.05655
2.404,-0.06132
2.408,-0.04821
2.412,-0.02466
2.416,-0.06223
2.42,-0.02282
2.424,-0.02694
2.428,-0.02404
2.432,-0.01311
2.436,-0.04273
2.44,-0.00115
2.444,-0.00256
2.448,-0.02671
2.452,-0.02423
2.456,-0.03751
2.46,-0.02774
2.464,-0.04881
2.468,-0.01248
2.472,-0.05072
2.476,-0.03466
2.48,-0.03021
2.484,-0.04886
2.488,-0.03722
2.492,-0.01613
2.496,-0.04473
2.5,-0.05812
2.504,-0.02615
2.508,-0.03085
2.512,-0.02028
2.516,-0.01091
2.52,-0.02999
2.524,-0.03393
2.528,-0.02052
2.532,-0.0217
2.536,-0.01473
2.54,0.02479
2.544,0.02645
2.548,0.03743
2.552,0.04024
2.556,0.03579
2.56,0.038
2.564,0.02327
2.568,0.05411
2.572,0.08642
2.576,0.08367
2.58,0.0846
2.584,0.08464
2.588,0.10054
2.592,0.12067
2.596,0.11491
2.6,0.15505
2.604,0.13909
2.608,0.19285
2.612,0.17192
2.616,0.17994
2.62,0.17286
2.624,0.18314
2.628,0.16854
2.632,0.20711
2.636,0.19267
2.64,0.20105
2.644,0.18644
2.648,0.17859
2.652,0.19231
2.656,0.14725
2.66,0.16215
2.664,0.15616
2.668,0.14313
2.672,0.12438
2.676,0.13154
2.68,0.06086
2.684,0.08922
2.688,0.06188
2.692,0.04911
2.696,0.06436
2.7,0.03549
2.704,0.06108
2.708,0.01736
2.712,0.00352
2.716,0.01804
2.72,-0.00117
2.724,0.00177
2.728,-0.01668
2.732,5e-05
2.736,-0.01328
2.74,-0.01838
2.744,-0.00851
2.748,-0.00697
2.752,-0.04232
2.756,-0.02166
2.76,-0.01055
2.764,-0.03695
2.768,-0.01525
2.772,-0.03042
2.776,-0.03905
2.78,-0.03033
2.784,-0.04181
2.788,-0.01965
2.792,-0.01767
2.796,-0.00462
2.8,-0.03532
2.804,-0.01898
2.808,-0.01453
2.812,0.00033
2.816,-0.02458
2.82,-0.08064
2.824,-0.01113
2.828,-0.0126
2.832,-0.01212
2.836,0.00762
2.84,-0.01679
2.844,0.01642
2.848,0.01219
2.852,0.02207
2.856,0.06619
2.86,0.05284
2.864,0.07098
2.868,0.07695
2.872,0.09197
2.876,0.0628
2.88,0.03299
2.884,0.04783
2.888,0.04981
2.892,0.02474
2.896,0.02836
2.9,0.00488
2.904,-0.00642
2.908,-0.00832
2.912,-0.0329
2.916,-0.05612
2.92,-0.01769
2.924,-0.01983
2.928,0.00115
2.932,-0.0038
2.936,-0.05373
2.94,-0.03175
2.944,-0.03647
2.948,-0.01833
2.952,-0.03425
2.956,-0.02206
2.96,-0.05566
2.964,-0.00174
2.968,-0.0025
2.972,-0.0108
2.976,-0.01299
2.98,-0.01768
2.984,-0.04615
2.988,-0.05883
2.992,-0.09935
2.996,-0.13172
3.0,-0.1455
3.004,-0.11134
3.008,0.04059
3.012,0.16702
3.016,0.35996
3.02,0.57217
3.024,0.81198
3.028,0.92785
3.032,0.98452
3.036,0.88685
3.04,0.71733
3.044,0.50307
3.048,0.2657
3.052,0.07774
3.056,-0.10088
3.06,-0.16262
3.064,-0.17846
3.068,-0.16548
3.072,-0.13959
3.076,-0.11629
3.08,-0.06213
3.084,-0.02876
3.088,-0.04138
3.092,-0.02344
3.096,-0.04228
3.1,-0.05551
3.104,-0.0451
3.108,-0.02733
3.112,-0.03067
3.116,-0.03064
3.12,-0.02384
3.124,-0.03178
3.128,-0.04747
3.132,-0.04294
3.136,-0.03328
3.14,-0.05538
3.144,-0.01793
3.148,-0.03423
3.152,-0.0615
3.156,-0.02525
3.16,-0.05148
3.164,-0.02451
3.168,-0.03391
3.172,-0.02576
3.176,-0.04592
3.18,-0.02804
3.184,-0.03288
3.188,-0.04243
3.192,-0.01372
3.196,-0.02174
3.2,-0.02456
3.204,-0.00887
3.208,-0.00566
3.212,-0.00487
3.216,-0.01322
3.22,-0.00663
3.224,-0.00814
3.228,0.0263
3.232,0.01458
3.236,0.01017
3.24,0.02812
3.244,0.04263
3.248,0.06554
3.252,0.11023
3.256,0.10068
3.26,0.07615
3.264,0.08579
3.268,0.10889
3.272,0.13871
3.276,0.15259
3.28,0.13182
3.284,0.16258
3.288,0.15156
3.292,0.17514
3.296,0.19444
3.3,0.18652
3.304,0.19493
3.308,0.19755
3.312,0.1921
3.316,0.21952
3.32,0.19833
3.324,0.1835
3.328,0.20012
3.332,0.18225
3.336,0.17468
3.34,0.16402
3.344,0.12839
3.348,0.14212
3.352,0.1008
3.356,0.09239
3.36,0.09273
3.364,0.07145
3.368,0.05674
3.372,0.05889
3.376,0.05059
3.38,0.05656
3.384,0.02458
3.388,0.04416
3.392,0.02707
3.396,0.01627
3.4,0.00692
3.404,0.00558
3.408,0.0011
3.412,-0.01615
3.416,0.01756
3.42,-0.00671
3.424,-0.01907
3.428,-0.0225
3.432,-0.01379
3.436,-0.01394
3.44,0.0009
3.444,-0.01231
3.448,-0.01988
3.452,-0.01218
3.456,-0.01388
3.46,-0.04547
3.464,-0.02539
3.468,-0.05536
3.472,-0.02171
3.476,-0.04864
3.48,-0.03653
3.484,-0.021
3.488,-0.00793
3.492,0.00391
3.496,-0.00158
3.5,-0.01697
3.504,-0.02835
3.508,-0.01174
3.512,-0.00354
3.516,-0.05859
3.52,-0.02101
3.524,-0.01232
3.528,-0.0146
3.532,-0.00893
3.536,-0.01778
3.54,-0.02921
3.544,0.00313
3.548,-0.03235
3.552,-0.02674
3.556,-0.01962
3.56,-0.00866
3.564,0.0039
3.568,-0.02095
3.572,-0.0101
3.576,-0.04175
3.58,-0.02425
3.584,-0.02338
3.588,-0.01967
3.592,-0.01363
3.596,-0.02018
3.6,-0.03022
3.604,-0.0183
3.608,-0.00605
3.612,-0.04916
3.616,-0.02634
3.62,-0.02187
3.624,-0.01105
3.628,-0.0425
3.632,-0.02155
3.636,-0.03449
3.64,-0.0164
3.644,-0.0295
3.648,-0.02912
3.652,-0.01575
3.656,0.00492
3.66,-0.00236
3.664,-0.02244
3.668,-0.03274
3.672,-0.02895
3.676,0.00635
3.68,-0.01376
3.684,0.02989
3.688,0.04614
3.692,0.04474
3.696,0.05208
3.7,0.02771
3.704,0.05033
3.708,0.05975
3.712,0.0734
3.716,0.08574
3.72,0.05525
3.724,0.08293
3.728,0.0598
3.732,0.0565
3.736,0.06387
3.74,-0.00747
3.744,0.02248
3.748,0.01831
3.752,0.0217
3.756,-0.00567
3.76,-0.03428
3.764,-0.01525
3.768,-0.00763
3.772,-0.02578
3.776,-0.00443
3.78,-0.03496
3.784,-0.00888
3.788,-0.04049
3.792,-0.02315
3.796,0.00326
3.8,-0.02438
3.804,-0.02319
3.808,-0.03347
3.812,-0.01626
3.816,0.00119
3.82,-0.02929
3.824,-0.00998
3.828,-0.02469
3.832,-0.07873
3.836,-0.09394
3.84,-0.11176
3.844,-0.11648
3.848,-0.08759
3.852,0.00562
3.856,0.13983
3.86,0.32124
3.864,0.54719
3.868,0.77072
3.872,0.92021
3.876,0.98126
3.88,0.9482
3.884,0.79156
3.888,0.56616
3.892,0.34985
3.896,0.12913
3.9,-0.02893
3.904,-0.11368
3.908,-0.16393
3.912,-0.18534
3.916,-0.15915
3.92,-0.10913
3.924,-0.06122
3.928,-0.04278
3.932,-0.02069
3.936,0.02034
3.94,-0.01097
3.944,-0.00155
3.948,-0.02839
3.952,-0.00051
3.956,-0.00298
3.96,-0.01759
3.964,0.01214
3.968,-0.01605
3.972,-0.01843
3.976,-0.01192
3.98,-0.02191
3.984,-0.00786
3.988,-0.00053
3.992,-0.0019
3.996,-0.02766
4.0,-0.00472
4.004,-0.02009
4.008,-0.01212
4.012,-0.02497
4.016,-0.02343
4.02,-0.01944
4.024,-0.0036
4.028,-0.00856
4.032,0.01377
4.036,0.01402
4.04,-0.01281
4.044,-0.01292
4.048,-0.00609
4.052,-0.00233
4.056,0.00112
4.06,0.00157
4.064,-0.0007
4.068,0.0155
4.072,0.00886
4.076,0.04257
4.08,0.04683
4.084,0.04592
4.088,0.08809
4.092,0.07694
4.096,0.0725
4.1,0.1054
4.104,0.11382
4.108,0.10639
4.112,0.14431
4.116,0.15689
4.12,0.16006
4.124,0.18358
4.128,0.16517
4.132,0.19993
4.136,0.21004
4.14,0.18048
4.144,0.20884
4.148,0.17584
4.152,0.18153
4.156,0.21872
4.16,0.20701
4.164,0.18467
4.168,0.18586
4.172,0.18539
4.176,0.19064
4.18,0.18418
4.184,0.17317
4.188,0.14397
4.192,0.16782
4.196,0.16237
4.2,0.14396
4.204,0.12139
4.208,0.13098
4.212,0.11798
4.216,0.0926
4.22,0.08242
4.224,0.07183
4.228,0.07715
4.232,0.03633
4.236,0.0423
4.24,0.05383
4.244,0.01705
4.248,0.02482
4.252,0.02231
4.256,0.00376
4.26,0.00943
4.264,0.00897
4.268,0.02903
4.272,0.02923
4.276,-0.03009
4.28,0.00668
4.284,-0.01763
4.288,0.00462
4.292,0.01165
4.296,-0.02
4.3,0.009
4.304,0.01198
4.308,0.01023
4.312,0.00789
4.316,-0.00819
4.32,-0.01373
4.324,-0.0097
4.328,0.01134
4.332,0.01169
4.336,0.00245
4.34,-0.02086
4.344,0.0232
4.348,-0.01456
4.352,0.01671
4.356,0.02213
4.36,0.0217
4.364,0.0527
4.368,0.05374
4.372,0.04971
4.376,0.04396
4.38,0.09574
4.384,0.06886
4.388,0.08409
4.392,0.11866
4.396,0.08879
4.4,0.11587
4.404,0.1178
4.408,0.07005
4.412,0.08324
4.416,0.0527
4.42,0.05676
4.424,0.04071
4.428,0.00392
4.432,0.01246
4.436,0.00451
4.44,0.01235
4.444,-0.01392
4.448,-0.00915
4.452,-0.00753
4.456,-0.02569
4.46,0.00031
4.464,-0.01223
4.468,0.00246
4.472,-0.00131
4.476,0.01443
4.48,-0.01867
4.484,0.01694
4.488,-0.01131
4.492,0.02191
4.496,-0.00025
4.5,0.01901
4.504,-0.01424
4.508,-0.00135
4.512,-0.01694
4.516,-0.06988
4.52,-0.10612
4.524,-0.1488
4.528,-0.05416
4.532,0.02544
4.536,0.19907
4.54,0.40306
4.544,0.63649
4.548,0.81678
4.552,0.97862
4.556,1.01755
4.56,0.92689
4.564,0.76328
4.568,0.51272
4.572,0.34208
4.576,0.1229
4.58,-0.05264
4.584,-0.12946
4.588,-0.14153
4.592,-0.14181
4.596,-0.12829
4.6,-0.06624
4.604,-0.00415
4.608,0.00859
4.612,-0.00272
4.616,0.01035
4.62,0.00861
4.624,0.00091
4.628,0.01175
4.632,-0.01271
4.636,0.00354
4.64,0.002
4.644,0.00565
4.648,-0.00962
4.652,0.03693
4.656,0.00952
4.66,-0.01871
4.664,0.00944
4.668,-0.01132
4.672,0.00321
4.676,0.02325
4.68,0.01054
4.684,-0.00765
4.688,0.00307
4.692,0.00938
4.696,0.04627
4.7,-0.01181
4.704,-0.01194
4.708,0.02919
4.712,0.03422
4.716,-0.03235
4.72,0.01928
4.724,-0.00144
4.728,0.04379
4.732,0.0405
4.736,0.02151
4.74,0.0234
4.744,0.03333
4.748,0.07972
4.752,0.03624
4.756,0.07719
4.76,0.05512
4.764,0.08195
4.768,0.0581
4.772,0.11009
4.776,0.09769
4.78,0.1313
4.784,0.13412
4.788,0.1258
4.792,0.13388
4.796,0.1891
4.8,0.14565
4.804,0.17406
4.808,0.16788
4.812,0.21615
4.816,0.18807
4.82,0.17802
4.824,0.21418
4.828,0.21741
4.832,0.2304
4.836,0.23808
4.84,0.2194
4.844,0.23028
4.848,0.22375
4.852,0.23138
4.856,0.23198
4.86,0.19973
4.864,0.19821
4.868,0.17555
4.872,0.17331
4.876,0.14448
4.88,0.1406
4.884,0.1053
4.888,0.1037
4.892,0.11589
4.896,0.08035
4.9,0.08296
4.904,0.06616
4.908,0.08819
4.912,0.06565
4.916,0.04356
4.92,0.05291
4.924,0.0588
4.928,0.04216
4.932,0.04808
4.936,0.03809
4.94,0.01407
4.944,0.02409
4.948,0.03026
4.952,0.03743
4.956,0.03171
4.96,0.01661
4.964,0.01205
4.968,0.01856
4.972,0.01052
4.976,0.03714
4.98,-0.00286
4.984,0.01879
4.988,0.01738
4.992,0.03146
4.996,-0.00938
5.0,0.02673
5.004,0.00292
5.008,0.01811
5.012,0.00534
5.016,0.02021
5.02,0.00391
5.024,0.01375
5.028,0.02043
5.032,0.01804
5.036,0.01482
5.04,-0.00264
5.044,0.01516
5.048,-0.0221
5.052,0.02812
5.056,0.01373
5.06,0.03678
5.064,0.0202
5.068,0.03455
5.072,0.0341
5.076,-0.00672
5.08,0.00106
5.084,0.02955
5.088,0.02591
5.092,-0.00569
5.096,0.04541
5.1,0.00548
5.104,0.02215
5.108,-0.00364
5.112,0.01692
5.116,0.02133
5.12,0.03557
5.124,0.0004
5.128,0.0098
5.132,0.03031
5.136,0.01834
5.14,-0.00125
5.144,0.01642
5.148,0.0177
5.152,0.02484
5.156,0.03705
5.16,0.02378
5.164,0.03545
5.168,-0.00168
5.172,0.02512
5.176,0.05342
5.18,0.02418
5.184,0.03296
5.188,0.03821
5.192,0.07437
5.196,0.07962
5.2,0.10037
5.204,0.08205
5.208,0.1126
5.212,0.10978
5.216,0.13235
5.22,0.12638
5.224,0.12704
5.228,0.12054
5.232,0.09711
5.236,0.09367
5.24,0.0906
5.244,0.09764
5.248,0.05328
5.252,0.02186
5.256,0.05457
5.26,0.00498
5.264,0.01835
5.268,0.02749
5.272,0.02018
5.276,0.02169
5.28,0.013
5.284,0.03951
5.288,0.02519
5.292,0.02463
5.296,0.02331
5.3,0.02696
5.304,0.03709
5.308,0.04327
5.312,0.01663
5.316,0.02796
5.32,0.00423
5.324,0.01364
5.328,-0.00517
5.332,0.01624
5.336,-0.03152
5.34,-0.05587
5.344,-0.09245
5.348,-0.11046
5.352,-0.08328
5.356,0.04751
5.36,0.19941
5.364,0.40277
5.368,0.59401
5.372,0.81703
5.376,0.95127
5.38,1.02651
5.384,0.95768
5.388,0.76643
5.392,0.60188
5.396,0.37549
5.4,0.14763
5.404,-0.03326
5.408,-0.09333
5.412,-0.14065
5.416,-0.15276
5.42,-0.09231
5.424,-0.04193
5.428,-0.03064
5.432,0.01253
5.436,0.05397
5.44,0.03271
5.444,0.02505
5.448,0.03313
5.452,0.03443
5.456,0.03245
5.46,0.02987
5.464,0.03395
5.468,0.03299
5.472,0.0238
5.476,0.04486
5.48,0.00563
5.484,0.02647
5.488,0.02922
5.492,0.01065
5.496,0.01478
5.5,0.01858
5.504,0.00954
5.508,0.02059
5.512,0.00697
5.516,0.03573
5.52,0.04507
5.524,0.05679
5.528,0.02758
5.532,0.00642
5.536,0.0246
5.54,0.0304
5.544,0.03852
5.548,0.01795
5.552,0.05023
5.556,0.02128
5.56,0.04493
5.564,0.07136
5.568,0.03078
5.572,0.04536
5.576,0.08024
5.58,0.07146
5.584,0.08134
5.588,0.09175
5.592,0.08891
5.596,0.0957
5.6,0.09692
5.604,0.11511
5.608,0.10993
5.612,0.14962
5.616,0.17301
5.62,0.19525
5.624,0.19898
5.628,0.17893
5.632,0.21561
5.636,0.2183
5.64,0.22677
5.644,0.23223
5.648,0.22563
5.652,0.24088
5.656,0.22525
5.66,0.2225
5.664,0.2128
5.668,0.24775
5.672,0.2371
5.676,0.23333
5.68,0.22309
5.684,0.20101
5.688,0.20553
5.692,0.21705
5.696,0.17494
5.7,0.18686
5.704,0.18273
5.708,0.13106
5.712,0.12885
5.716,0.13315
5.72,0.11596
5.724,0.12316
5.728,0.0963
5.732,0.09478
5.736,0.098
5.74,0.08141
5.744,0.09146
5.748,0.04256
5.752,0.06479
5.756,0.03739
5.76,0.0491
5.764,0.03423
5.768,0.06024
5.772,0.03067
5.776,0.01867
5.78,0.04315
5.784,0.04845
5.788,0.03073
5.792,0.01362
5.796,0.01196
5.8,0.03474
5.804,0.02225
5.808,0.02099
5.812,0.0401
5.816,0.03634
5.82,0.02372
5.824,0.01859
5.828,0.03633
5.832,0.00522
5.836,0.02032
5.84,0.02815
5.844,0.02896
5.848,0.01674
5.852,0.00967
5.856,0.02422
5.86,0.01889
5.864,0.04863
5.868,0.03076
5.872,0.01811
5.876,0.02215
5.88,0.04292
5.884,0.01847
5.888,0.04719
5.892,0.0278
5.896,0.04309
5.9,0.01313
5.904,0.01434
5.908,0.03634
5.912,0.01606
5.916,0.03576
5.92,0.03499
5.924,-0.00186
5.928,0.01772
5.932,0.03346
5.936,0.0594
5.94,0.06219
5.944,0.02936
5.948,0.05197
5.952,0.0175
5.956,0.02904
5.96,0.05322
5.964,0.02189
5.968,0.04238
5.972,0.05957
5.976,0.02306
5.98,0.01914
5.984,0.00747
5.988,0.05115
5.992,0.06009
5.996,0.02132
6.0,0.02641
6.004,0.0305
6.008,0.01619
6.012,0.0336
6.016,0.0275
6.02,0.01223
6.024,0.0626
6.028,0.02774
6.032,0.0429
6.036,0.03498
6.04,0.0345
6.044,0.04272
6.048,0.0712
6.052,0.07797
6.056,0.0329
6.06,0.07017
6.064,0.05668
6.068,0.08544
6.072,0.10898
6.076,0.10426
6.08,0.12089
6.084,0.15526
6.088,0.1125
6.092,0.1016
6.096,0.10493
6.1,0.10501
6.104,0.09859
6.108,0.08258
6.112,0.04121
6.116,0.07465
6.12,0.05887
6.124,0.06386
6.128,0.03727
6.132,0.05633
6.136,0.05436
6.14,0.03767
6.144,0.00645
6.148,0.03954
6.152,0.0232
6.156,0.0511
6.16,0.02665
6.164,0.00998
6.168,0.00444
6.172,0.05716
6.176,0.02387
6.18,0.05238
6.184,0.04204
6.188,0.01855
6.192,0.03862
6.196,0.00855
6.2,0.00997
6.204,0.00933
6.208,-0.04644
6.212,-0.08362
6.216,-0.09236
6.22,-0.02803
6.224,0.09246
6.228,0.21511
6.232,0.41874
6.236,0.63972
6.24,0.88239
6.244,0.99893
6.248,1.01023
6.252,0.9534
6.256,0.77664
6.26,0.58992
6.264,0.34679
6.268,0.13926
6.272,0.00716
6.276,-0.08127
6.28,-0.14592
6.284,-0.13535
6.288,-0.05601
6.292,-0.05838
6.296,-0.00218
6.3,0.01363
6.304,0.03824
6.308,-0.00573
6.312,0.02606
6.316,0.05172
6.32,0.01595
6.324,0.0028
6.328,0.04713
6.332,0.02155
6.336,0.02833
6.34,0.02724
6.344,0.04314
6.348,0.02947
6.352,0.02284
6.356,0.02645
6.36,0.02325
6.364,0.03895
6.368,0.04329
6.372,0.01524
6.376,0.04751
6.38,0.01224
6.384,0.02725
6.388,0.01758
6.392,0.03452
6.396,0.0338
6.4,0.0367
6.404,0.03637
6.408,0.03014
6.412,0.05277
6.416,0.02577
6.42,0.06893
6.424,0.03713
6.428,0.04743
6.432,0.08279
6.436,0.04856
6.44,0.00417
6.444,0.07487
6.448,0.06261
6.452,0.07421
6.456,0.08954
6.46,0.08458
6.464,0.12814
6.468,0.11689
6.472,0.12854
6.476,0.14259
6.48,0.15514
6.484,0.15664
6.488,0.14666
6.492,0.17279
6.496,0.19364
6.5,0.22699
6.504,0.2199
6.508,0.23288
6.512,0.23048
6.516,0.22153
6.52,0.25986
6.524,0.23719
6.528,0.25943
6.532,0.25586
6.536,0.25052
6.54,0.24936
6.544,0.25024
6.548,0.22211
6.552,0.18416
6.556,0.21372
6.56,0.21559
6.564,0.19959
6.568,0.17578
6.572,0.15668
6.576,0.1341
6.58,0.13928
6.584,0.12365
6.588,0.12943
6.592,0.11432
6.596,0.09154
6.6,0.08372
6.604,0.05872
6.608,0.08503
6.612,0.07895
6.616,0.07684
6.62,0.04157
6.624,0.03655
6.628,0.04681
6.632,0.04904
6.636,0.01887
6.64,0.02395
6.644,0.04246
6.648,0.05847
6.652,0.07828
6.656,0.0384
6.66,0.04569
6.664,0.0369
6.668,0.0259
6.672,0.02273
6.676,0.03255
6.68,0.01557
6.684,0.01769
6.688,0.00086
6.692,0.0007
6.696,0.00825
6.7,0.02014
6.704,0.01041
6.708,0.00106
6.712,0.01301
6.716,0.03288
6.72,-0.00495
6.724,0.01588
6.728,0.01547
6.732,0.01021
6.736,0.02728
6.74,0.02876
6.744,0.01967
6.748,0.02868
6.752,0.01889
6.756,0.00384
6.76,0.02271
6.764,0.04253
6.768,-0.00929
6.772,0.02903
6.776,0.02147
6.78,0.02294
6.784,0.01103
6.788,0.02031
6.792,0.02179
6.796,0.02612
6.8,0.03073
6.804,0.02732
6.808,0.05735
6.812,0.04744
6.816,0.00295
6.82,0.03052
6.824,0.04593
6.828,-0.00783
6.832,0.01571
6.836,0.03467
6.84,0.02221
6.844,-0.01087
6.848,0.06302
6.852,0.03391
6.856,0.03515
6.86,0.00239
6.864,0.05134
6.868,0.02386
6.872,0.01575
6.876,0.01151
6.88,0.01167
6.884,0.00238
6.888,0.04011
6.892,0.02528
6.896,0.0152
6.9,0.02111
6.904,0.01738
6.908,0.01923
6.912,0.01941
6.916,0.02115
6.92,0.006
6.924,0.00542
6.928,0.00916
6.932,0.00565
6.936,0.03076
6.94,0.04229
6.944,0.00449
6.948,0.01792
6.952,0.03314
6.956,0.01191
6.96,0.04177
6.964,0.0267
6.968,0.01049
6.972,0.05213
6.976,0.04168
6.98,0.06819
6.984,0.07076
6.988,0.04972
6.992,0.05497
6.996,0.0889
7.0,0.10727
7.004,0.11386
7.008,0.11557
7.012,0.11929
7.016,0.11895
7.02,0.09501
7.024,0.14592
7.028,0.08958
7.032,0.05695
7.036,0.03632
7.04,0.06155
7.044,0.04954
7.048,0.01439
7.052,0.03595
7.056,0.02387
7.06,0.00652
7.064,0.01047
7.068,0.02556
7.072,0.02828
7.076,0.0228
7.08,0.03255
7.084,0.02755
7.088,-0.01245
7.092,0.02025
7.096,0.02523
7.1,0.02283
7.104,0.02009
7.108,0.00739
7.112,0.01754
7.116,0.00709
7.12,0.01905
7.124,-0.01634
7.128,-0.03649
7.132,-0.05946
7.136,-0.08716
7.14,-0.0615
7.144,-0.06939
7.148,0.09244
7.152,0.2656
7.156,0.45226
7.16,0.66981
7.164,0.86518
7.168,0.99261
7.172,0.98831
7.176,0.92785
7.18,0.77146
7.184,0.5424
7.188,0.30732
7.192,0.10393
7.196,-0.04963
7.2,-0.14564
7.204,-0.15376
7.208,-0.13865
7.212,-0.08958
7.216,-0.04506
7.22,-0.02654
7.224,0.01338
7.228,0.02913
7.232,0.01116
7.236,0.00088
7.24,0.03504
7.244,0.02678
7.248,0.02145
7.252,0.03683
7.256,-0.00397
7.26,0.02854
7.264,-0.00665
7.268,0.01818
7.272,0.03879
7.276,0.0229
7.28,0.0274
7.284,0.02647
7.288,0.0106
7.292,-0.0025
7.296,0.03109
7.3,0.02499
7.304,0.00766
7.308,-0.00014
7.312,0.01699
7.316,0.02272
7.32,-0.00688
7.324,0.02416
7.328,0.00588
7.332,0.04149
7.336,0.03093
7.34,-0.00631
7.344,0.00468
7.348,0.02373
7.352,0.04967
7.356,0.02174
7.36,0.04848
7.364,0.02317
7.368,0.06661
7.372,0.05069
7.376,0.05783
7.38,0.07512
7.384,0.0765
7.388,0.0903
7.392,0.10867
7.396,0.09261
7.4,0.163
7.404,0.12032
7.408,0.1573
7.412,0.16096
7.416,0.16761
7.42,0.1766
7.424,0.20111
7.428,0.21615
7.432,0.21451
7.436,0.23912
7.44,0.20434
7.444,0.22583
7.448,0.2393
7.452,0.21772
7.456,0.25517
7.46,0.22722
7.464,0.20327
7.468,0.21158
7.472,0.20762
7.476,0.17548
7.48,0.19468
7.484,0.19754
7.488,0.16723
7.492,0.18869
7.496,0.14211
7.5,0.13042
7.504,0.1081
7.508,0.11159
7.512,0.09505
7.516,0.06253
7.52,0.07047
7.524,0.10052
7.528,0.07206
7.532,0.02595
7.536,0.05559
7.54,0.03095
7.544,0.04688
7.548,0.03694
7.552,0.04286
7.556,0.00415
7.56,0.01616
7.564,-0.01747
7.568,0.02422
7.572,0.01268
7.576,0.00732
7.58,0.00554
7.584,0.02401
7.588,-0.00267
7.592,0.00748
7.596,0.0108
7.6,-0.00188
7.604,-0.01588
7.608,0.00915
7.612,0.00539
7.616,0.04017
7.62,0.03261
7.624,0.02291
7.628,0.03186
7.632,0.02546
7.636,0.04369
7.64,0.04575
7.644,0.0531
7.648,0.07807
7.652,0.09052
7.656,0.09182
7.66,0.08451
7.664,0.08246
7.668,0.1141
7.672,0.09822
7.676,0.09899
7.68,0.11328
7.684,0.06592
7.688,0.02893
7.692,0.04872
7.696,0.00659
7.7,0.02758
7.704,-0.00662
7.708,0.00114
7.712,-0.00631
7.716,-0.01605
7.72,0.00671
7.724,-0.01142
7.728,0.01167
7.732,-0.00616
7.736,0.0029
7.74,-0.02954
7.744,-0.01335
7.748,0.02496
7.752,0.0034
7.756,0.01205
7.76,0.01908
7.764,-0.00872
7.768,-0.0038
7.772,0.01579
7.776,-0.01811
7.78,-0.00235
7.784,-0.01897
7.788,-0.05546
7.792,-0.07213
7.796,-0.07922
7.8,-0.09083
7.804,0.02896
7.808,0.18779
7.812,0.41796
7.816,0.61336
7.82,0.8159
7.824,0.95005
7.828,0.98648
7.832,0.92507
7.836,0.76587
7.84,0.55404
7.844,0.30953
7.848,0.09351
7.852,-0.05451
7.856,-0.13988
7.86,-0.17333
7.864,-0.14591
7.868,-0.12327
7.872,-0.09856
7.876,-0.03222
7.88,-0.0056
7.884,-0.00401
7.888,0.0033
7.892,0.00358
7.896,-0.00385
7.9,-0.01711
7.904,-0.00825
7.908,0.00323
7.912,-0.00698
7.916,-0.00408
7.92,-0.00585
7.924,-0.03249
7.928,0.00626
7.932,0.00342
7.936,-0.01623
7.94,0.01687
7.944,0.01441
7.948,-0.00703
7.952,-0.01615
7.956,-0.00584
7.96,0.00349
7.964,-0.0242
7.968,-0.00015
7.972,0.00993
7.976,0.0069
7.98,-0.00668
7.984,-0.02966
7.988,0.00358
7.992,-0.00302
7.996,-0.03259
8.0,-0.00139
8.004,-0.00404
8.008,-0.01694
8.012,0.04013
8.016,0.01868
8.02,0.03563
8.024,0.04199
8.028,0.05432
8.032,0.04636
8.036,0.06424
8.04,0.07441
8.044,0.0811
8.048,0.05347
8.052,0.09188
8.056,0.10693
8.06,0.13179
8.064,0.13258
8.068,0.13013
8.072,0.17144
8.076,0.199
8.08,0.16066
8.084,0.17727
8.088,0.18525
8.092,0.18716
8.096,0.19952
8.1,0.2028
8.104,0.21659
8.108,0.23409
8.112,0.22255
8.116,0.18298
8.12,0.21458
8.124,0.19355
8.128,0.21121
8.132,0.17489
8.136,0.15044
8.14,0.18247
8.144,0.16113
8.148,0.14275
8.152,0.11675
8.156,0.11216
8.16,0.10286
8.164,0.07792
8.168,0.09805
8.172,0.07747
8.176,0.08352
8.18,0.05077
8.184,0.04568
8.188,0.05033
8.192,0.03591
8.196,0.01811
8.2,0.02943
8.204,0.02396
8.208,-0.02929
8.212,0.00731
8.216,-0.00258
8.22,-0.02454
8.224,-0.02565
8.228,-0.00137
8.232,-0.01002
8.236,-0.01816
8.24,0.0001
8.244,-0.04487
8.248,-0.02717
8.252,0.00844
8.256,0.0066
8.26,-0.01689
8.264,0.00737
8.268,-0.0148
8.272,-0.02727
8.276,-0.01487
8.28,-0.02234
8.284,-0.00254
8.288,-0.01733
8.292,0.00526
8.296,0.00792
8.3,-0.01524
8.304,-0.0257
8.308,-0.01223
8.312,-0.02326
8.316,-0.00609
8.32,-0.03106
8.324,-0.04298
8.328,0.00935
8.332,-0.0172
8.336,0.01064
8.34,-0.00953
8.344,-0.0064
8.348,-0.00319
8.352,-0.03605
8.356,0.01096
8.36,0.00436
8.364,-0.0123
8.368,-0.02516
8.372,0.00142
8.376,-0.02261
8.38,-0.0132
8.384,-0.04559
8.388,0.00732
8.392,-0.03521
8.396,-0.01304
8.4,-0.03251
8.404,-0.01512
8.408,-0.02542
8.412,-0.01603
8.416,-0.03025
8.42,-0.01826
8.424,-0.01322
8.428,-0.01474
8.432,-0.02219
8.436,-0.01826
8.44,-0.01161
8.444,-0.02245
8.448,0.00601
8.452,-0.02177
8.456,-0.02738
8.46,-0.0087
8.464,-0.01939
8.468,0.00627
8.472,0.00338
8.476,-0.05746
8.48,-0.02208
8.484,0.0019
8.488,-0.01283
8.492,-0.02664
8.496,-0.01269
8.5,-0.00897
8.504,-0.02489
8.508,-0.02158
8.512,-0.0045
8.516,-0.01758
8.52,-0.00805
8.524,0.01338
8.528,0.01973
8.532,0.00972
8.536,0.02887
8.54,0.00901
8.544,0.0181
8.548,0.04432
8.552,0.03506
8.556,0.04601
8.56,0.05914
8.564,0.10026
8.568,0.09428
8.572,0.06357
8.576,0.06242
8.58,0.07172
8.584,0.0569
8.588,0.03127
8.592,0.04444
8.596,0.03666
8.6,0.02822
8.604,0.02745
8.608,-0.00887
8.612,-0.00871
8.616,-0.02005
8.62,-0.0062
8.624,-0.03778
8.628,-0.03554
8.632,-0.03244
8.636,-0.02247
8.64,-0.0209
8.644,-0.03118
8.648,-0.01158
8.652,-0.0467
8.656,-0.03284
8.66,-0.04232
8.664,-0.02921
8.668,-0.03473
8.672,-0.0395
8.676,-0.02415
8.68,-0.04504
8.684,-0.06341
8.688,-0.08135
8.692,-0.11427
8.696,-0.11633
8.7,-0.10237
8.704,-0.04553
8.708,0.13207
8.712,0.28819
8.716,0.49354
8.72,0.68478
8.724,0.89051
8.728,0.96735
8.732,0.95515
8.736,0.80337
8.74,0.62546
8.744,0.40599
8.748,0.19412
8.752,0.00917
8.756,-0.11775
8.76,-0.17194
8.764,-0.19664
8.768,-0.16235
8.772,-0.11105
8.776,-0.08463
8.78,-0.06166
8.784,-0.04365
8.788,-0.04258
8.792,-0.03741
8.796,-0.04076
8.8,-0.03671
8.804,-0.03583
8.808,-0.04249
8.812,-0.01121
8.816,-0.01565
8.82,-0.03762
8.824,-0.02008
8.828,-0.01031
8.832,-0.04356
8.836,-0.01818
8.84,-0.03057
8.844,-0.00641
8.848,-0.03276
8.852,-0.01385
8.856,-0.01266
8.86,-0.03957
8.864,0.00121
8.868,-0.02861
8.872,-0.01565
8.876,-0.00013
8.88,-0.03138
8.884,-0.0229
8.888,-0.04228
8.892,-0.0001
8.896,-0.00166
8.9,-0.01492
8.904,-0.00112
8.908,-0.0012
8.912,0.00634
8.916,-0.01597
8.92,0.01254
8.924,-0.00078
8.928,-0.00344
8.932,0.05469
8.936,0.02477
8.94,0.03036
8.944,0.03132
8.948,0.03601
8.952,0.04318
8.956,0.1096
8.96,0.09808
8.964,0.10507
8.968,0.09573
8.972,0.13623
8.976,0.13341
8.98,0.16984
8.984,0.15758
8.988,0.16838
8.992,0.17347
8.996,0.1423
9.0,0.2018
9.004,0.1904
9.008,0.17492
9.012,0.17421
9.016,0.20437
9.02,0.1827
9.024,0.18538
9.028,0.15222
9.032,0.17305
9.036,0.14963
9.04,0.14489
9.044,0.13253
9.048,0.10305
9.052,0.10205
9.056,0.0708
9.06,0.10109
9.064,0.0561
9.068,0.08709
9.072,0.04183
9.076,0.06589
9.08,0.05503
9.084,0.02766
9.088,0.03084
9.092,0.01673
9.096,0.01625
9.1,0.00931
9.104,-0.02266
9.108,-0.01973
9.112,-0.00992
9.116,-0.01337
9.12,-0.04097
9.124,-0.03141
9.128,-0.01497
9.132,-0.00388
9.136,-0.02237
9.14,-0.02031
9.144,-0.02616
9.148,-0.03402
9.152,-0.02597
9.156,-0.00112
9.16,-0.03105
9.164,-0.04683
9.168,-0.03722
9.172,-0.03841
9.176,-0.04606
9.18,-0.01782
9.184,-0.01289
9.188,-0.02784
9.192,-0.04103
9.196,-0.03492
9.2,-0.04404
9.204,-0.03482
9.208,-0.00956
9.212,-0.00307
9.216,-0.03125
9.22,-0.04414
9.224,-0.0579
9.228,-0.03379
9.232,0.00283
9.236,-0.01086
9.24,-0.01598
9.244,-0.01375
9.248,-0.0156
9.252,0.01388
9.256,0.00145
9.26,-0.00436
9.264,0.03158
9.268,0.01764
9.272,0.02145
9.276,0.04601
9.28,0.04576
9.284,0.08777
9.288,0.05449
9.292,0.06221
9.296,0.07964
9.3,0.05097
9.304,0.07523
9.308,0.0475
9.312,0.03816
9.316,0.00191
9.32,0.02441
9.324,0.01152
9.328,-0.03962
9.332,-0.01851
9.336,-0.02881
9.34,-0.01313
9.344,-0.00939
9.348,-0.01697
9.352,-0.03597
9.356,-0.02742
9.36,-0.00509
9.364,-0.02363
9.368,-0.03708
9.372,-0.01345
9.376,0.00176
9.38,-0.02075
9.384,-0.03392
9.388,-0.03558
9.392,-0.0564
9.396,-0.0369
9.4,-0.03613
9.404,-0.05334
9.408,-0.08977
9.412,-0.10558
9.416,-0.14495
9.42,-0.17511
9.424,-0.07252
9.428,0.01091
9.432,0.16987
9.436,0.4124
9.44,0.6151
9.444,0.846
9.448,0.91681
9.452,0.93831
9.456,0.88545
9.46,0.71197
9.464,0.46122
9.468,0.23987
9.472,0.05107
9.476,-0.09664
9.48,-0.18325
9.484,-0.17411
9.488,-0.18617
9.492,-0.16113
9.496,-0.09221
9.5,-0.063
9.504,-0.01637
9.508,0.00051
9.512,-0.01378
9.516,-0.01466
9.52,-0.03174
9.524,-0.03821
9.528,-0.0421
9.532,-0.02459
9.536,-0.02832
9.54,-0.03201
9.544,-0.00228
9.548,-0.01631
9.552,-0.0729
9.556,-0.03919
9.56,-0.04663
9.564,-0.04782
9.568,-0.03661
9.572,-0.03326
9.576,-0.00703
9.58,-0.03544
9.584,-0.03015
9.588,0.00452
9.592,-0.0352
9.596,-0.01581
9.6,-0.04311
9.604,-0.04388
9.608,-0.03673
9.612,-0.0397
9.616,-0.01659
9.62,-0.02972
9.624,-0.00497
9.628,0.00558
9.632,-0.00696
9.636,-0.00836
9.64,0.02644
9.644,-0.02052
9.648,0.01236
9.652,0.03387
9.656,0.0242
9.66,0.02666
9.664,0.03775
9.668,0.05721
9.672,0.05944
9.676,0.08662
9.68,0.08969
9.684,0.07319
9.688,0.12442
9.692,0.11569
9.696,0.13879
9.7,0.14094
9.704,0.16684
9.708,0.14661
9.712,0.16105
9.716,0.17803
9.72,0.17919
9.724,0.17614
9.728,0.20102
9.732,0.17199
9.736,0.18509
9.74,0.18141
9.744,0.16722
9.748,0.17706
9.752,0.16638
9.756,0.16821
9.76,0.16264
9.764,0.12147
9.768,0.13858
9.772,0.12265
9.776,0.09249
9.78,0.10135
9.784,0.08372
9.788,0.07705
9.792,0.05981
9.796,0.06474
9.8,0.04385
9.804,0.0284
9.808,0.02223
9.812,0.03389
9.816,-0.01448
9.82,0.00185
9.824,-0.02059
9.828,0.00952
9.832,-0.03276
9.836,-0.02078
9.84,-0.0247
9.844,-0.00683
9.848,-0.02445
9.852,-0.06441
9.856,-0.02247
9.86,-0.02192
9.864,-0.02352
9.868,-0.00884
9.872,-0.05088
9.876,-0.0343
9.88,-0.01603
9.884,-0.04083
9.888,-0.03759
9.892,-0.02128
9.896,-0.0209
9.9,-0.03424
9.904,-0.0091
9.908,-0.0298
9.912,-0.00919
9.916,-0.03424
9.92,-0.03102
9.924,-0.03366
9.928,-0.04171
9.932,-0.03146
9.936,-0.01702
9.94,-0.05084
9.944,-0.04513
9.948,-0.02263
9.952,-0.05703
9.956,-0.01969
9.96,-0.0184
9.964,0.0092
9.968,-0.03726
9.972,-0.01925
9.976,-0.04091
9.98,-0.03652
9.984,-0.01241
9.988,-0.00969
9.992,-0.01527
9.996,0.00346
