t_seg,ecg_mV
0.0,-0.01612
0.004,-0.06147
0.008,-0.0121
0.012,-0.00317
0.016,-0.03994
0.02,-0.03289
0.024,0.01288
0.028,-0.00134
0.032,0.00062
0.036,-0.00703
0.04,0.06335
0.044,-0.04405
0.048,-0.01952
0.052,-0.00922
0.056,-0.00592
0.06,-0.07262
0.064,-0.09025
0.068,0.01412
0.072,-0.00128
0.076,-0.02324
0.08,-0.0674
0.084,-0.05379
0.088,-0.07747
0.092,-0.07257
0.096,0.0024
0.1,-0.0099
0.104,-0.0251
0.108,-0.01636
0.112,-0.01686
0.116,-0.05745
0.12,0.00343
0.124,-0.04338
0.128,-0.03488
0.132,-0.05159
0.136,-0.05425
0.14,-0.01256
0.144,0.03269
0.148,0.00769
0.152,-0.01613
0.156,-0.01493
0.16,-0.01986
0.164,-0.00206
0.168,-0.01434
0.172,0.00026
0.176,-0.10607
0.18,0.0191
0.184,-0.06672
0.188,0.04658
0.192,0.02019
0.196,-0.03918
0.2,0.02283
0.204,-0.00891
0.208,0.01597
0.212,-0.05114
0.216,0.00332
0.22,-0.00877
0.224,-0.02412
0.228,-0.03256
0.232,-0.03997
0.236,-0.01493
0.24,0.02272
0.244,-0.04344
0.248,-0.09923
0.252,0.00303
0.256,-0.01304
0.26,-0.08428
0.264,-0.00047
0.268,-0.0342
0.272,-0.02165
0.276,-0.0337
0.28,0.0204
0.284,0.04981
0.288,0.05945
0.292,-0.02679
0.296,0.03882
0.3,0.07343
0.304,-0.01564
0.308,0.01828
0.312,0.02885
0.316,0.071
0.32,0.09305
0.324,0.03309
0.328,0.01491
0.332,0.06362
0.336,0.04003
0.34,0.02909
0.344,-0.00436
0.348,0.08051
0.352,0.05045
0.356,0.08356
0.36,0.01777
0.364,-0.0116
0.368,0.02238
0.372,0.06901
0.376,-0.01216
0.38,-0.00217
0.384,0.03136
0.388,-0.0484
0.392,-0.06745
0.396,-0.07049
0.4,-0.00492
0.404,0.01168
0.408,0.04005
0.412,-0.02896
0.416,-0.08499
0.42,-0.09106
0.424,-0.0131
0.428,0.02727
0.432,-0.00246
0.436,0.06123
0.44,-0.08044
0.444,-0.0513
0.448,-0.05826
0.452,-0.0209
0.456,-0.08006
0.46,-0.17419
0.464,-0.11577
0.468,-0.00741
0.472,0.17559
0.476,0.29788
0.48,0.54034
0.484,0.78294
0.488,0.90284
0.492,0.93388
0.496,0.85882
0.5,0.7902
0.504,0.55045
0.508,0.37737
0.512,0.15858
0.516,-0.05742
0.52,-0.11942
0.524,-0.20663
0.528,-0.15032
0.532,-0.13153
0.536,-0.06947
0.54,-0.0441
0.544,-0.0712
0.548,-0.00467
0.552,-0.02972
0.556,-0.00542
0.56,0.00868
0.564,0.01903
0.568,-0.04406
0.572,-0.03275
0.576,-0.04119
0.58,-0.05159
0.584,0.04881
0.588,0.03024
0.592,-0.00057
0.596,-0.01698
0.6,-0.05414
0.604,0.04614
0.608,-0.02622
0.612,-0.01315
0.616,-0.00754
0.62,-0.06579
0.624,-0.01865
0.628,-0.00055
0.632,-0.00147
0.636,-0.00376
0.64,-0.02449
0.644,0.04306
0.648,0.0325
0.652,-0.0747
0.656,0.015
0.66,0.07233
0.664,0.03744
0.668,-0.00434
0.672,-0.08868
0.676,0.05259
0.68,-0.00286
0.684,-0.02363
0.688,0.04392
0.692,0.00586
0.696,0.0463
0.7,0.0611
0.704,0.06197
0.708,0.08813
0.712,0.06021
0.716,0.12305
0.72,0.06529
0.724,0.06914
0.728,0.08266
0.732,0.13419
0.736,0.21338
0.74,0.11793
0.744,0.16101
0.748,0.16285
0.752,0.22076
0.756,0.20199
0.76,0.27785
0.764,0.13409
0.768,0.26696
0.772,0.16901
0.776,0.2088
0.78,0.16214
0.784,0.26993
0.788,0.17911
0.792,0.16499
0.796,0.15818
0.8,0.1521
0.804,0.17903
0.808,0.18936
0.812,0.20069
0.816,0.14406
0.82,0.0942
0.824,0.14053
0.828,0.11856
0.832,0.11984
0.836,0.06614
0.84,0.0292
0.844,-0.01325
0.848,0.03072
0.852,0.02484
0.856,-0.00728
0.86,0.02227
0.864,0.09505
0.868,-0.0329
0.872,0.04169
0.876,0.00938
0.88,-0.04017
0.884,0.03253
0.888,-0.00317
0.892,0.02025
0.896,0.01188
0.9,0.03796
0.904,0.0214
0.908,0.04201
0.912,-0.03095
0.916,0.01665
0.92,0.02632
0.924,0.0283
0.928,-0.01469
0.932,0.02332
0.936,-0.02986
0.94,0.07643
0.944,-0.00079
0.948,-0.01505
0.952,0.0017
0.956,-0.0358
0.96,0.03435
0.964,0.00856
0.968,-0.009
0.972,0.05031
0.976,0.03197
0.98,0.1349
0.984,-0.03312
0.988,0.00366
0.992,0.11464
0.996,0.09202
1.0,0.09686
1.004,0.08882
1.008,0.12815
1.012,0.12365
1.016,0.06016
1.02,0.04595
1.024,0.10666
1.028,0.10631
1.032,0.10004
1.036,0.07387
1.04,0.01643
1.044,-0.01462
1.048,0.00704
1.052,-0.03016
1.056,-0.04097
1.06,-0.07679
1.064,-0.04194
1.068,-0.06467
1.072,-0.02171
1.076,-0.05617
1.08,0.02576
1.084,-0.0191
1.088,-0.02892
1.092,0.003
1.096,0.00538
1.1,-0.00454
1.104,-0.04314
1.108,0.03385
1.112,-0.03314
1.116,-0.0222
1.12,0.00902
1.124,-0.01497
1.128,-0.13559
1.132,-0.05994
1.136,-0.07077
1.14,-0.06025
1.144,0.15171
1.148,0.32204
1.152,0.57306
1.156,0.77833
1.16,0.94326
1.164,0.99459
1.168,0.90816
1.172,0.79769
1.176,0.58048
1.18,0.38897
1.184,0.11737
1.188,-0.00497
1.192,-0.10364
1.196,-0.14074
1.2,-0.15391
1.204,-0.09268
1.208,-0.0668
1.212,-0.06505
1.216,0.04798
1.22,0.00528
1.224,-0.00606
1.228,-0.02489
1.232,0.00584
1.236,0.03818
1.24,-0.03936
1.244,0.00405
1.248,0.06436
1.252,0.00416
1.256,-0.00227
1.26,0.0132
1.264,-0.03507
1.268,0.01998
1.272,-0.04682
1.276,-0.05184
1.28,0.02014
1.284,0.0191
1.288,0.048
1.292,-0.01461
1.296,0.04562
1.3,-0.01526
1.304,0.06618
1.308,-0.01463
1.312,0.00723
1.316,0.046
1.32,0.0256
1.324,0.02514
1.328,0.00256
1.332,-0.03903
1.336,-0.0213
1.34,0.0435
1.344,0.00138
1.348,0.04338
1.352,0.07625
1.356,0.00184
1.36,0.07691
1.364,0.01937
1.368,0.0523
1.372,0.02952
1.376,0.03539
1.38,0.04794
1.384,0.09711
1.388,0.10984
1.392,0.1428
1.396,0.18083
1.4,0.07577
1.404,0.18324
1.408,0.2143
1.412,0.0959
1.416,0.11005
1.42,0.25559
1.424,0.1883
1.428,0.18609
1.432,0.2629
1.436,0.25778
1.44,0.21962
1.444,0.25503
1.448,0.22975
1.452,0.22847
1.456,0.25615
1.46,0.18432
1.464,0.18995
1.468,0.22905
1.472,0.23451
1.476,0.16926
1.48,0.12139
1.484,0.26216
1.488,0.1404
1.492,0.08647
1.496,0.08593
1.5,0.15966
1.504,0.18947
1.508,0.04334
1.512,0.11352
1.516,0.05324
1.52,0.09277
1.524,0.0685
1.528,0.00249
1.532,0.02061
1.536,0.05446
1.54,0.05922
1.544,-0.00102
1.548,0.03127
1.552,0.01177
1.556,-0.01222
1.56,0.01219
1.564,0.01252
1.568,0.01069
1.572,-0.01161
1.576,0.02073
1.58,0.05956
1.584,0.06225
1.588,-0.00818
1.592,0.03435
1.596,0.05574
1.6,-0.04256
1.604,-0.01393
1.608,0.05059
1.612,0.01931
1.616,0.00418
1.62,0.01308
1.624,0.02134
1.628,-8e-05
1.632,-2e-05
1.636,0.02382
1.64,-0.05547
1.644,-0.01024
1.648,-0.05837
1.652,0.04649
1.656,-0.01756
1.66,0.09515
1.664,-0.0134
1.668,0.04262
1.672,-0.03257
1.676,0.05856
1.68,-0.05342
1.684,0.03295
1.688,0.03651
1.692,0.03821
1.696,0.05474
1.7,0.04713
1.704,0.13128
1.708,0.07352
1.712,0.14465
1.716,0.07219
1.72,0.12846
1.724,0.15203
1.728,0.0975
1.732,0.12991
1.736,0.1364
1.74,0.05206
1.744,0.07431
1.748,0.09483
1.752,0.03243
1.756,0.05455
1.76,0.01385
1.764,0.05943
1.768,0.08251
1.772,0.03003
1.776,0.03233
1.78,-0.00995
1.784,0.02929
1.788,-0.0149
1.792,0.03265
1.796,0.0546
1.8,-0.03576
1.804,-0.0151
1.808,0.04591
1.812,-0.00181
1.816,0.04373
1.82,0.05792
1.824,0.03764
1.828,0.05076
1.832,0.01692
1.836,0.04568
1.84,0.08761
1.844,0.01329
1.848,-0.00734
1.852,-0.03486
1.856,-0.12302
1.86,-0.08403
1.864,0.00661
1.868,0.14067
1.872,0.33773
1.876,0.57639
1.88,0.76187
1.884,0.92797
1.888,1.00371
1.892,0.98865
1.896,0.86681
1.9,0.68597
1.904,0.47744
1.908,0.1965
1.912,0.04018
1.916,-0.12572
1.92,-0.15199
1.924,-0.11786
1.928,-0.10079
1.932,-0.01344
1.936,-0.05969
1.94,-0.02487
1.944,-0.00912
1.948,0.02619
1.952,-0.07733
1.956,0.04671
1.96,0.05038
1.964,0.00764
1.968,0.01957
1.972,0.0496
1.976,0.03178
1.98,0.04427
1.984,0.00063
1.988,-0.07461
1.992,0.08906
1.996,0.00596
2.0,0.00412
2.004,0.05354
2.008,0.0567
2.012,0.00108
2.016,0.03863
2.02,0.02763
2.024,-0.00243
2.028,0.03262
2.032,0.00342
2.036,-0.00076
2.04,0.04969
2.044,0.02127
2.048,0.02229
2.052,-0.0141
2.056,0.01515
2.06,0.00735
2.064,0.02134
2.068,0.05338
2.072,0.03258
2.076,0.02836
2.08,0.02807
2.084,-0.00491
2.088,0.0326
2.092,0.12515
2.096,0.11968
2.1,0.15929
2.104,0.11935
2.108,0.11529
2.112,0.13777
2.116,0.12612
2.12,0.13212
2.124,0.15372
2.128,0.1036
2.132,0.23332
2.136,0.17436
2.14,0.23556
2.144,0.19946
2.148,0.20966
2.152,0.27518
2.156,0.29618
2.16,0.22728
2.164,0.28014
2.168,0.21077
2.172,0.2511
2.176,0.20948
2.18,0.21622
2.184,0.26709
2.188,0.21033
2.192,0.19577
2.196,0.23556
2.2,0.1469
2.204,0.23958
2.208,0.16147
2.212,0.20657
2.216,0.1873
2.22,0.17542
2.224,0.15201
2.228,0.05571
2.232,0.10471
2.236,0.13169
2.24,0.0431
2.244,0.06374
2.248,0.07999
2.252,0.04286
2.256,0.02635
2.26,0.05972
2.264,0.06664
2.268,0.02529
2.272,0.023
2.276,0.07377
2.28,0.05041
2.284,0.04182
2.288,0.00555
2.292,-0.0272
2.296,-0.0152
2.3,0.05244
2.304,0.06804
2.308,-0.03755
2.312,0.05352
2.316,0.02902
2.32,0.04157
2.324,0.06744
2.328,0.05382
2.332,0.03691
2.336,0.07969
2.34,0.01253
2.344,-0.03685
2.348,0.0291
2.352,0.03977
2.356,0.01006
2.36,0.00259
2.364,-0.00296
2.368,0.07616
2.372,0.0144
2.376,0.03623
2.38,0.03821
2.384,-0.0268
2.388,-0.03396
2.392,0.0249
2.396,-0.00476
2.4,0.03093
2.404,-0.01594
2.408,0.04863
2.412,0.02528
2.416,0.10867
2.42,0.03996
2.424,0.11746
2.428,0.07202
2.432,0.02904
2.436,0.0318
2.44,0.05527
2.444,0.00135
2.448,0.06002
2.452,0.02785
2.456,0.04362
2.46,0.05412
2.464,-0.01218
2.468,0.0685
2.472,-0.014
2.476,0.03233
2.48,0.02997
2.484,0.00707
2.488,0.0173
2.492,0.02786
2.496,0.04249
2.5,0.01072
2.504,0.03521
2.508,0.07946
2.512,-0.01831
2.516,0.02221
2.52,0.0503
2.524,0.09399
2.528,0.08135
2.532,0.117
2.536,0.07584
2.54,0.00017
2.544,0.10167
2.548,0.11465
2.552,0.15828
2.556,0.1304
2.56,0.1174
2.564,0.1019
2.568,0.1461
2.572,0.10704
2.576,0.06716
2.58,0.10809
2.584,0.03965
2.588,0.13877
2.592,0.07937
2.596,0.00736
2.6,0.07205
2.604,0.04906
2.608,0.0761
2.612,0.10583
2.616,0.07414
2.62,0.03573
2.624,-0.01855
2.628,0.00739
2.632,0.03749
2.636,0.0103
2.64,0.07812
2.644,0.02086
2.648,0.07335
2.652,0.00431
2.656,0.00587
2.66,0.10131
2.664,0.00941
2.668,0.06412
2.672,0.02109
2.676,-0.0142
2.68,-0.00526
2.684,0.01771
2.688,-0.10167
2.692,-0.09775
2.696,-0.07996
2.7,-0.02749
2.704,0.16948
2.708,0.24212
2.712,0.53787
2.716,0.72929
2.72,0.90527
2.724,0.94005
2.728,1.02146
2.732,0.88566
2.736,0.67354
2.74,0.48798
2.744,0.20391
2.748,0.04342
2.752,-0.13946
2.756,-0.14584
2.76,-0.14941
2.764,-0.14522
2.768,-0.06845
2.772,0.0001
2.776,0.0307
2.78,0.0106
2.784,0.0151
2.788,0.04666
2.792,0.06099
2.796,0.04786
2.8,0.09276
2.804,0.0703
2.808,0.00621
2.812,0.06556
2.816,-0.03881
2.82,0.02766
2.824,-0.0023
2.828,0.02034
2.832,0.02434
2.836,0.03122
2.84,0.07295
2.844,0.07734
2.848,-0.0024
2.852,0.02342
2.856,0.06596
2.86,0.02752
2.864,0.01585
2.868,0.10501
2.872,0.02304
2.876,0.06263
2.88,0.01506
2.884,-0.00693
2.888,0.06725
2.892,0.02627
2.896,0.03919
2.9,0.03104
2.904,0.08172
2.908,0.06636
2.912,0.10339
2.916,0.06405
2.92,0.10979
2.924,0.02015
2.928,0.03949
2.932,0.07634
2.936,0.0298
2.94,0.11551
2.944,0.10189
2.948,0.13664
2.952,0.18678
2.956,0.13302
2.96,0.14593
2.964,0.16191
2.968,0.1442
2.972,0.17375
2.976,0.1687
2.98,0.25877
2.984,0.19434
2.988,0.24005
2.992,0.22362
2.996,0.21011
3.0,0.20653
3.004,0.21866
3.008,0.31338
3.012,0.21472
3.016,0.27719
3.02,0.25417
3.024,0.28459
3.028,0.22188
3.032,0.26704
3.036,0.22188
3.04,0.1564
3.044,0.14197
3.048,0.16259
3.052,0.15466
3.056,0.14353
3.06,0.15125
3.064,0.13324
3.068,0.0785
3.072,0.06355
3.076,0.15325
3.08,0.04905
3.084,0.08227
3.088,0.0633
3.092,0.08168
3.096,0.06593
3.1,0.07513
3.104,0.06641
3.108,0.03396
3.112,0.06441
3.116,0.07561
3.12,-0.02919
3.124,-0.04961
3.128,0.03419
3.132,0.02534
3.136,0.05771
3.14,0.00073
3.144,-0.00686
3.148,0.03598
3.152,-0.04086
3.156,0.05581
3.16,0.05815
3.164,0.01584
3.168,0.0609
3.172,-0.00643
3.176,0.03401
3.18,0.08448
3.184,0.19951
3.188,0.12187
3.192,0.09471
3.196,0.21371
3.2,0.07029
3.204,0.0773
3.208,0.12679
3.212,0.0975
3.216,0.09505
3.22,0.08468
3.224,0.03909
3.228,0.06483
3.232,0.05958
3.236,0.09047
3.24,0.01964
3.244,0.05269
3.248,0.04007
3.252,0.06284
3.256,0.04091
3.26,0.0503
3.264,0.03558
3.268,-0.00149
3.272,0.04547
3.276,0.01629
3.28,0.04088
3.284,0.03347
3.288,0.05966
3.292,0.01357
3.296,-0.006
3.3,0.01864
3.304,0.01258
3.308,0.06783
3.312,-0.01887
3.316,0.00921
3.32,-0.00074
3.324,-0.07725
3.328,-0.07295
3.332,-0.08412
3.336,0.02626
3.34,0.19033
3.344,0.33984
3.348,0.57478
3.352,0.69351
3.356,0.90365
3.36,0.98677
3.364,0.95244
3.368,0.87043
3.372,0.69356
3.376,0.4294
3.38,0.22333
3.384,0.03568
3.388,-0.08595
3.392,-0.24388
3.396,-0.10758
3.4,-0.11774
3.404,-0.06614
3.408,-0.04055
3.412,0.00402
3.416,-0.02001
3.42,0.01386
3.424,-0.037
3.428,-0.02221
3.432,0.05523
3.436,-0.00493
3.44,0.04527
3.444,0.01644
3.448,0.0352
3.452,-0.0142
3.456,0.05929
3.46,0.01208
3.464,0.00768
3.468,0.03292
3.472,0.01409
3.476,-0.0075
3.48,0.00085
3.484,0.04966
3.488,0.03018
3.492,0.0417
3.496,-0.00788
3.5,0.02345
3.504,-0.03406
3.508,-0.02879
3.512,-0.05966
3.516,-0.04389
3.52,0.01504
3.524,0.02416
3.528,-0.00571
3.532,0.05586
3.536,0.05189
3.54,0.06844
3.544,0.05958
3.548,-0.00085
3.552,0.02057
3.556,0.09059
3.56,0.05292
3.564,0.06537
3.568,0.10549
3.572,0.10361
3.576,0.0898
3.58,0.13799
3.584,0.16882
3.588,0.13315
3.592,0.10393
3.596,0.22411
3.6,0.21001
3.604,0.16137
3.608,0.11645
3.612,0.21479
3.616,0.1435
3.62,0.17908
3.624,0.27309
3.628,0.23152
3.632,0.21073
3.636,0.19623
3.64,0.21781
3.644,0.17992
3.648,0.1991
3.652,0.22104
3.656,0.17267
3.66,0.25968
3.664,0.16082
3.668,0.24928
3.672,0.14661
3.676,0.19749
3.68,0.17019
3.684,0.15908
3.688,0.16425
3.692,0.10438
3.696,0.12976
3.7,0.10137
3.704,0.16499
3.708,0.05687
3.712,0.07951
3.716,0.05067
3.72,0.05863
3.724,0.07458
3.728,0.05194
3.732,0.06065
3.736,0.06719
3.74,0.05727
3.744,0.05888
3.748,-0.00879
3.752,0.07398
3.756,0.02292
3.76,0.05848
3.764,-0.03154
3.768,0.0175
3.772,0.0173
3.776,0.03363
3.78,0.02417
3.784,0.05225
3.788,-0.00164
3.792,0.0221
3.796,0.03168
3.8,0.03647
3.804,-0.04551
3.808,0.01886
3.812,0.03226
3.816,0.02812
3.82,0.03085
3.824,-0.00769
3.828,-0.03079
3.832,0.0052
3.836,0.04021
3.84,-0.058
3.844,0.00726
3.848,-0.0026
3.852,0.11727
3.856,0.04213
3.86,0.0651
3.864,0.08609
3.868,0.01172
3.872,0.01171
3.876,0.01177
3.88,-0.01222
3.884,0.03761
3.888,0.03689
3.892,-0.0425
3.896,0.06095
3.9,0.00771
3.904,-0.00166
3.908,0.03217
3.912,-0.02858
3.916,-0.00709
3.92,0.05609
3.924,0.0298
3.928,-0.05166
3.932,-0.01168
3.936,0.04446
3.94,0.02304
3.944,-0.02939
3.948,0.01828
3.952,0.04859
3.956,0.03806
3.96,-0.00169
3.964,0.10451
3.968,0.0899
3.972,0.04106
3.976,0.02222
3.98,0.09675
3.984,0.15715
3.988,0.09022
3.992,0.12919
3.996,0.06649
4.0,0.11105
4.004,0.12077
4.008,0.18865
4.012,0.09201
4.016,0.13854
4.02,0.09276
4.024,0.08862
4.028,0.07748
4.032,0.06759
4.036,0.09458
4.04,0.0386
4.044,-0.00484
4.048,-0.01057
4.052,-0.01052
4.056,0.00151
4.06,0.04281
4.064,0.06782
4.068,-0.0525
4.072,0.03196
4.076,0.01221
4.08,0.0714
4.084,-0.02419
4.088,-0.05601
4.092,-0.02151
4.096,0.0001
4.1,0.02827
4.104,0.03691
4.108,-0.03713
4.112,0.03082
4.116,0.01359
4.12,-0.01873
4.124,-0.09101
4.128,-0.10472
4.132,-0.09948
4.136,-0.08595
4.14,0.17923
4.144,0.38899
4.148,0.58222
4.152,0.73032
4.156,0.89192
4.16,1.0108
4.164,0.9794
4.168,0.81079
4.172,0.64086
4.176,0.42768
4.18,0.124
4.184,-0.09033
4.188,-0.11134
4.192,-0.1143
4.196,-0.12291
4.2,-0.1046
4.204,-0.13595
4.208,-0.06098
4.212,-0.01301
4.216,-0.00907
4.22,0.02953
4.224,-0.03891
4.228,0.00222
4.232,-0.04945
4.236,0.0022
4.24,0.00177
4.244,0.0209
4.248,-0.05633
4.252,0.02357
4.256,0.0843
4.26,-0.01606
4.264,0.0343
4.268,0.00107
4.272,-0.02207
4.276,0.0293
4.28,-0.04078
4.284,0.02511
4.288,-0.03745
4.292,0.00136
4.296,-0.0165
4.3,0.05788
4.304,-0.00672
4.308,0.03047
4.312,0.04885
4.316,0.00999
4.32,0.02488
4.324,-0.02441
4.328,0.05764
4.332,-0.03042
4.336,-0.0053
4.34,0.05884
4.344,0.06916
4.348,0.05567
4.352,0.07731
4.356,0.01363
4.36,0.09958
4.364,-0.01375
4.368,0.056
4.372,0.06444
4.376,0.06644
4.38,0.05677
4.384,0.12464
4.388,0.12069
4.392,0.13651
4.396,0.12321
4.4,0.19239
4.404,0.14619
4.408,0.19763
4.412,0.17884
4.416,0.219
4.42,0.26135
4.424,0.19351
4.428,0.17078
4.432,0.26948
4.436,0.18603
4.44,0.19617
4.444,0.18495
4.448,0.18933
4.452,0.21686
4.456,0.22446
4.46,0.18462
4.464,0.15135
4.468,0.22485
4.472,0.24739
4.476,0.188
4.48,0.1667
4.484,0.15904
4.488,0.16744
4.492,0.10031
4.496,0.1553
4.5,0.10896
4.504,0.08061
4.508,0.07061
4.512,0.08084
4.516,0.0334
4.52,0.04174
4.524,0.00696
4.528,0.0978
4.532,-0.04639
4.536,0.02189
4.54,-0.03866
4.544,-0.02628
4.548,-0.00775
4.552,-0.00755
4.556,-0.02725
4.56,-0.0392
4.564,-0.01786
4.568,0.02103
4.572,0.02695
4.576,-0.04831
4.58,0.09032
4.584,-0.03813
4.588,0.03427
4.592,0.03741
4.596,0.01312
4.6,0.00676
4.604,0.01804
4.608,0.00912
4.612,0.02949
4.616,-0.03427
4.62,-0.06875
4.624,0.00986
4.628,-0.05246
4.632,-0.02069
4.636,0.0141
4.64,-0.04822
4.644,-0.00721
4.648,0.04247
4.652,-0.03818
4.656,0.00694
4.66,-0.01732
4.664,-0.07614
4.668,0.00955
4.672,-0.03128
4.676,0.06006
4.68,-0.07744
4.684,0.0124
4.688,0.03209
4.692,0.03652
4.696,0.05024
4.7,0.01367
4.704,-0.04409
4.708,-0.01991
4.712,-0.00349
4.716,-0.01172
4.72,-0.04989
4.724,-0.09577
4.728,0.0295
4.732,-0.00206
4.736,-0.02205
4.74,-0.01619
4.744,-0.02254
4.748,-0.01369
4.752,0.00685
4.756,0.00476
4.76,-0.03
4.764,0.01646
4.768,0.01144
4.772,0.00096
4.776,0.00988
4.78,0.02081
4.784,0.01298
4.788,0.0419
4.792,0.02496
4.796,0.04585
4.8,0.03588
4.804,0.0677
4.808,0.04804
4.812,0.11736
4.816,0.06748
4.82,0.1476
4.824,0.09684
4.828,0.08091
4.832,0.10395
4.836,0.06087
4.84,0.05293
4.844,-0.03572
4.848,0.06134
4.852,0.04026
4.856,-0.00715
4.86,-0.02407
4.864,0.03457
4.868,-0.04624
4.872,0.00818
4.876,0.02061
4.88,0.03492
4.884,0.00945
4.888,-0.05436
4.892,-0.0227
4.896,-0.01289
4.9,0.0187
4.904,-0.00436
4.908,-0.04515
4.912,-0.00555
4.916,0.0167
4.92,-0.01015
4.924,0.06607
4.928,-0.05395
4.932,-0.04228
4.936,-0.06864
4.94,-0.07768
4.944,-0.18931
4.948,-0.12492
4.952,-0.04288
4.956,0.20241
4.96,0.31901
4.964,0.55803
4.968,0.78191
4.972,0.90063
4.976,0.98595
4.98,0.88973
4.984,0.87205
4.988,0.54512
4.992,0.34524
4.996,0.14549
5.0,-0.02628
5.004,-0.10704
5.008,-0.17272
5.012,-0.16057
5.016,-0.13758
5.02,-0.04674
5.024,-0.01381
5.028,-0.03533
5.032,-0.07101
5.036,-0.0182
5.04,-0.05516
5.044,-0.00601
5.048,-0.03965
5.052,0.03465
5.056,-0.01969
5.06,-0.04056
5.064,-0.00234
5.068,-0.02356
5.072,-0.02529
5.076,0.00195
5.08,-0.04716
5.084,-0.02716
5.088,-0.01871
5.092,-0.04356
5.096,-0.05995
5.1,0.04946
5.104,-0.01033
5.108,-0.06019
5.112,-0.00176
5.116,0.00694
5.12,-0.00745
5.124,-0.00242
5.128,-0.00136
5.132,0.00662
5.136,0.01143
5.14,-0.04364
5.144,0.05419
5.148,0.0189
5.152,-0.02188
5.156,0.00557
5.16,-0.01363
5.164,0.07794
5.168,0.01636
5.172,0.01294
5.176,0.06005
5.18,0.02819
5.184,0.04087
5.188,0.02892
5.192,0.07274
5.196,0.0876
5.2,0.02155
5.204,0.10978
5.208,0.12961
5.212,0.03285
5.216,0.10711
5.22,0.14616
5.224,0.16145
5.228,0.15806
5.232,0.20999
5.236,0.22141
5.24,0.19048
5.244,0.20961
5.248,0.21317
5.252,0.14182
5.256,0.1466
5.26,0.14408
5.264,0.24163
5.268,0.2207
5.272,0.14218
5.276,0.1617
5.28,0.14483
5.284,0.08231
5.288,0.17848
5.292,0.12501
5.296,0.09165
5.3,0.11045
5.304,0.12262
5.308,0.11164
5.312,0.06771
5.316,0.11677
5.32,0.03843
5.324,0.05688
5.328,0.06488
5.332,0.07752
5.336,0.06505
5.34,0.01315
5.344,0.06116
5.348,0.01633
5.352,-0.04421
5.356,-0.00776
5.36,-0.02531
5.364,0.01037
5.368,0.03666
5.372,-0.02255
5.376,-0.03934
5.38,-0.02857
5.384,0.03767
5.388,-0.03938
5.392,0.00524
5.396,-0.02112
5.4,0.02197
5.404,-0.04996
5.408,-0.05958
5.412,-0.02795
5.416,-0.02765
5.42,-0.07072
5.424,-0.08697
5.428,0.00428
5.432,0.02103
5.436,-0.05172
5.44,0.05959
5.444,0.004
5.448,-0.00969
5.452,0.06567
5.456,0.00582
5.46,0.09529
5.464,0.06756
5.468,0.12676
5.472,0.15602
5.476,0.07059
5.48,0.09836
5.484,0.05094
5.488,0.01316
5.492,0.03415
5.496,-0.02216
5.5,-0.03341
5.504,0.03804
5.508,-0.00489
5.512,0.03455
5.516,-0.03899
5.52,-0.05736
5.524,-0.08728
5.528,-0.04064
5.532,-0.02792
5.536,-0.0235
5.54,-0.05029
5.544,-0.01476
5.548,0.04853
5.552,-0.05423
5.556,-0.0181
5.56,-0.0427
5.564,-0.04145
5.568,0.01614
5.572,-0.01644
5.576,0.03149
5.58,0.00554
5.584,-0.06093
5.588,-0.07406
5.592,-0.12963
5.596,-0.10019
5.6,-0.01991
5.604,0.02493
5.608,0.18395
5.612,0.45007
5.616,0.69427
5.62,0.88912
5.624,0.90354
5.628,0.89768
5.632,0.79023
5.636,0.71292
5.64,0.45634
5.644,0.1765
5.648,-0.05067
5.652,-0.03946
5.656,-0.12736
5.66,-0.22003
5.664,-0.12973
5.668,-0.09649
5.672,-0.15514
5.676,-0.02831
5.68,-0.08544
5.684,-0.01698
5.688,0.00469
5.692,-0.02859
5.696,-0.0365
5.7,-0.04033
5.704,-0.00944
5.708,-0.02904
5.712,-0.07917
5.716,-0.05682
5.72,-0.04051
5.724,-0.04366
5.728,-0.01109
5.732,-0.02681
5.736,-0.06943
5.74,-0.048
5.744,-0.00931
5.748,-0.01446
5.752,-0.00495
5.756,-0.01435
5.76,-0.01789
5.764,-0.02016
5.768,-0.09976
5.772,-0.01643
5.776,0.01838
5.78,0.00603
5.784,-0.02594
5.788,-0.09687
5.792,-0.00475
5.796,-0.00955
5.8,-0.00887
5.804,0.03184
5.808,-0.00865
5.812,-0.0058
5.816,-0.03448
5.82,0.00759
5.824,-0.03214
5.828,-0.00415
5.832,0.02031
5.836,0.04634
5.84,0.07407
5.844,0.06668
5.848,0.08832
5.852,0.11555
5.856,0.04032
5.86,0.13835
5.864,0.15763
5.868,0.09194
5.872,0.16768
5.876,0.15535
5.88,0.15972
5.884,0.11723
5.888,0.16405
5.892,0.19032
5.896,0.20679
5.9,0.25706
5.904,0.18033
5.908,0.18194
5.912,0.21369
5.916,0.1084
5.92,0.15776
5.924,0.14646
5.928,0.22466
5.932,0.12911
5.936,0.11002
5.94,0.14256
5.944,0.13423
5.948,0.0814
5.952,0.06004
5.956,0.02421
5.96,0.04802
5.964,0.1433
5.968,0.06108
5.972,0.11185
5.976,0.02607
5.98,0.03628
5.984,-0.0138
5.988,0.03251
5.992,0.05269
5.996,0.02014
6.0,-0.0658
6.004,-0.00507
6.008,-0.0748
6.012,-0.00034
6.016,-0.02793
6.02,-0.09018
6.024,0.0155
6.028,-0.03617
6.032,-0.05059
6.036,-0.10319
6.04,0.02445
6.044,0.0014
6.048,0.01675
6.052,-0.00035
6.056,-0.03189
6.06,-0.07693
6.064,-0.06779
6.068,-0.00451
6.072,-0.03174
6.076,0.01251
6.08,0.01379
6.084,-0.04774
6.088,-0.08984
6.092,0.00315
6.096,0.0175
6.1,-0.0398
6.104,-0.02525
6.108,-0.00791
6.112,-0.048
6.116,-0.04848
6.12,0.03211
6.124,0.07205
6.128,0.0719
6.132,0.02447
6.136,0.05523
6.14,0.05327
6.144,0.01982
6.148,0.09073
6.152,0.12034
6.156,0.06419
6.16,0.01668
6.164,0.04055
6.168,0.06135
6.172,0.03577
6.176,-0.01017
6.18,0.0287
6.184,-0.0017
6.188,-0.00194
6.192,0.0019
6.196,-0.05518
6.2,0.00023
6.204,0.03917
6.208,-0.05835
6.212,0.00116
6.216,-0.01628
6.22,-0.0303
6.224,-0.02955
6.228,-0.01846
6.232,-0.0672
6.236,-0.03065
6.24,-0.00511
6.244,-0.03214
6.248,-0.05805
6.252,-0.03663
6.256,-0.02306
6.26,-0.01411
6.264,-0.02091
6.268,-0.09748
6.272,-0.09542
6.276,-0.15562
6.28,-0.16193
6.284,-0.12912
6.288,0.03368
6.292,0.27788
6.296,0.37831
6.3,0.62229
6.304,0.76482
6.308,0.93312
6.312,0.90327
6.316,0.87493
6.32,0.71186
6.324,0.48882
6.328,0.27853
6.332,0.01815
6.336,-0.17314
6.34,-0.20634
6.344,-0.12404
6.348,-0.22716
6.352,-0.08522
6.356,-0.12863
6.36,-0.07548
6.364,0.01095
6.368,-0.03242
6.372,-0.08506
6.376,-0.02973
6.38,-0.00421
6.384,-0.04866
6.388,-0.0968
6.392,-0.02345
6.396,-0.01531
6.4,-0.02865
6.404,-0.00609
6.408,-0.05359
6.412,-0.06659
6.416,-0.03709
6.42,0.02075
6.424,-0.01783
6.428,-0.06815
6.432,0.03048
6.436,-0.00299
6.44,-0.02129
6.444,-0.03563
6.448,-0.07395
6.452,-0.01163
6.456,-0.04334
6.46,0.00206
6.464,-0.04861
6.468,-0.06474
6.472,-0.00278
6.476,-0.0531
6.48,-0.02974
6.484,-0.0511
6.488,-0.08236
6.492,0.04988
6.496,-0.0582
6.5,-0.01616
6.504,0.07989
6.508,0.00565
6.512,0.01743
6.516,0.01737
6.52,0.06485
6.524,0.01026
6.528,0.14153
6.532,0.0726
6.536,-0.03033
6.54,0.11504
6.544,0.09908
6.548,0.11225
6.552,0.12342
6.556,0.05293
6.56,0.17562
6.564,0.16187
6.568,0.14972
6.572,0.15517
6.576,0.12946
6.58,0.19035
6.584,0.18144
6.588,0.14683
6.592,0.16207
6.596,0.22769
6.6,0.1935
6.604,0.16643
6.608,0.14285
6.612,0.17649
6.616,0.10578
6.62,0.12471
6.624,0.12802
6.628,0.12902
6.632,0.15626
6.636,0.06273
6.64,0.11531
6.644,0.05695
6.648,0.088
6.652,0.09442
6.656,0.1296
6.66,0.08803
6.664,0.06432
6.668,0.02626
6.672,-0.01182
6.676,0.05598
6.68,0.01704
6.684,0.00586
6.688,0.06071
6.692,-0.02158
6.696,-0.00948
6.7,-0.00547
6.704,-0.04808
6.708,-0.0166
6.712,-0.00777
6.716,-0.01079
6.72,-0.07631
6.724,0.03735
6.728,-0.07356
6.732,-0.09581
6.736,-0.05291
6.74,0.04768
6.744,-0.09775
6.748,-0.09061
6.752,-0.04309
6.756,0.01198
6.76,-0.02596
6.764,-0.07513
6.768,-0.06684
6.772,0.03295
6.776,-0.05473
6.78,-0.01837
6.784,0.06635
6.788,-0.00449
6.792,-0.04014
6.796,-0.01424
6.8,0.02734
6.804,-0.02377
6.808,-0.05301
6.812,-0.01761
6.816,-0.08879
6.82,-0.08476
6.824,-0.03355
6.828,-0.07025
6.832,0.00742
6.836,0.00448
6.84,-0.00869
6.844,-0.03749
6.848,0.00272
6.852,0.02006
6.856,0.05915
6.86,0.00384
6.864,-0.01916
6.868,-0.04396
6.872,-0.02256
6.876,-0.01887
6.88,0.00223
6.884,-0.02252
6.888,0.01792
6.892,0.04605
6.896,0.00783
6.9,-0.04511
6.904,-0.01818
6.908,-0.08306
6.912,-0.02935
6.916,-0.02917
6.92,-0.02111
6.924,-0.0572
6.928,0.0274
6.932,0.01463
6.936,-0.01359
6.94,-0.04032
6.944,-0.0195
6.948,-0.05845
6.952,-0.01204
6.956,-0.02787
6.96,-0.00533
6.964,-0.06924
6.968,-0.00742
6.972,0.02258
6.976,-0.01985
6.98,-0.01748
6.984,0.02376
6.988,-0.01606
6.992,-0.0122
6.996,-0.06075
7.0,-0.07666
7.004,-0.06828
7.008,-0.05458
7.012,0.00098
7.016,0.029
7.02,-0.06807
7.024,-0.05905
7.028,-0.05166
7.032,0.01015
7.036,-0.02865
7.04,-0.02455
7.044,-0.02273
7.048,0.02327
7.052,-0.02674
7.056,-0.02069
7.06,0.01361
7.064,0.01512
7.068,0.01871
7.072,0.07093
7.076,0.02801
7.08,0.01493
7.084,0.04614
7.088,0.0823
7.092,0.08564
7.096,0.13061
7.1,0.08085
7.104,0.03136
7.108,0.03617
7.112,0.0624
7.116,0.02779
7.12,0.00376
7.124,0.00021
7.128,-0.00109
7.132,-0.02524
7.136,-0.00931
7.14,0.00493
7.144,-0.03204
7.148,-0.02831
7.152,-0.07111
7.156,-0.01223
7.16,-0.0369
7.164,0.0166
7.168,-0.041
7.172,0.05776
7.176,-0.01344
7.18,0.02137
7.184,0.06349
7.188,0.03713
7.192,0.02328
7.196,-0.06475
7.2,-0.02192
7.204,-0.03402
7.208,-0.04289
7.212,-0.00896
7.216,-0.08709
7.22,-0.11716
7.224,-0.1422
7.228,0.0135
7.232,0.15758
7.236,0.32496
7.24,0.5369
7.244,0.80229
7.248,0.87697
7.252,0.98937
7.256,0.89348
7.26,0.73975
7.264,0.48724
7.268,0.31613
7.272,0.12394
7.276,-0.09318
7.28,-0.16142
7.284,-0.13727
7.288,-0.13925
7.292,-0.10262
7.296,-0.09813
7.3,-0.01725
7.304,-0.01063
7.308,0.0252
7.312,0.01215
7.316,-0.06634
7.32,0.05884
7.324,-8e-05
7.328,-0.0418
7.332,0.03014
7.336,-0.01427
7.34,0.11562
7.344,0.00949
7.348,-0.01567
7.352,-0.0022
7.356,0.03807
7.36,0.03544
7.364,-0.03649
7.368,-0.07834
7.372,0.02321
7.376,-0.03611
7.38,-0.04311
7.384,-0.01583
7.388,-0.03438
7.392,0.01684
7.396,-0.01491
7.4,-0.02833
7.404,-0.00705
7.408,-0.04794
7.412,-0.02861
7.416,-0.03084
7.42,0.02893
7.424,-0.05648
7.428,0.0025
7.432,-0.01928
7.436,0.03228
7.44,0.02337
7.444,0.03242
7.448,-0.02598
7.452,0.02177
7.456,0.04485
7.46,0.10317
7.464,0.05254
7.468,0.05819
7.472,0.1132
7.476,0.13569
7.48,0.21727
7.484,0.15306
7.488,0.07038
7.492,0.12534
7.496,0.20675
7.5,0.17584
7.504,0.19454
7.508,0.25439
7.512,0.21139
7.516,0.19784
7.52,0.19831
7.524,0.17944
7.528,0.22038
7.532,0.22985
7.536,0.20242
7.54,0.19389
7.544,0.21581
7.548,0.19385
7.552,0.20819
7.556,0.18398
7.56,0.20411
7.564,0.1257
7.568,0.18417
7.572,0.1264
7.576,0.18092
7.58,0.18738
7.584,0.12517
7.588,0.08213
7.592,0.14962
7.596,0.00683
7.6,0.05297
7.604,0.03546
7.608,0.12246
7.612,0.02575
7.616,0.0331
7.62,0.01042
7.624,0.00336
7.628,0.06755
7.632,0.01772
7.636,0.05643
7.64,0.01296
7.644,0.00942
7.648,0.01882
7.652,0.00408
7.656,-0.03478
7.66,-0.00748
7.664,0.01485
7.668,-0.00294
7.672,0.01064
7.676,-0.0201
7.68,-0.0363
7.684,0.02697
7.688,-0.00522
7.692,0.0335
7.696,-0.11717
7.7,-0.0092
7.704,-0.02185
7.708,-0.01623
7.712,-0.05678
7.716,-0.03196
7.72,0.01517
7.724,0.01171
7.728,0.01039
7.732,-0.01144
7.736,-0.01905
7.74,0.0017
7.744,-0.00814
7.748,-0.02632
7.752,-0.03408
7.756,0.04218
7.76,-0.00735
7.764,0.0286
7.768,0.01095
7.772,-0.05482
7.776,0.03148
7.78,0.01256
7.784,-0.01524
7.788,-0.01455
7.792,-0.02286
7.796,0.02788
7.8,-0.02736
7.804,-0.02787
7.808,-0.07627
7.812,-0.01571
7.816,0.00624
7.82,0.00423
7.824,0.01538
7.828,-0.00968
7.832,0.01622
7.836,-0.02938
7.84,-0.04607
7.844,-0.04386
7.848,0.01479
7.852,-0.01821
7.856,-0.01182
7.86,-0.03448
7.864,-0.00084
7.868,0.01052
7.872,0.00662
7.876,0.01689
7.88,-0.05899
7.884,0.03134
7.888,-0.04111
7.892,0.03225
7.896,0.02153
7.9,0.02399
7.904,0.04158
7.908,-0.02814
7.912,-0.014
7.916,-0.04056
7.92,0.04694
7.924,0.07359
7.928,0.08738
7.932,0.044
7.936,0.088
7.94,0.01502
7.944,0.14383
7.948,0.10642
7.952,0.09735
7.956,0.04947
7.96,0.07623
7.964,0.14002
7.968,0.12742
7.972,0.12021
7.976,0.08047
7.98,0.10241
7.984,0.04437
7.988,0.04729
7.992,0.04828
7.996,0.03285
8.0,0.02035
8.004,-0.0167
8.008,0.01409
8.012,-0.04099
8.016,0.01032
8.02,0.05291
8.024,-0.0167
8.028,0.0188
8.032,-0.00882
8.036,0.05765
8.04,0.05674
8.044,0.02871
8.048,-0.03385
8.052,0.00572
8.056,0.02414
8.06,0.03869
8.064,0.0293
8.068,0.00678
8.072,-0.04738
8.076,0.01747
8.08,-0.0415
8.084,-0.10487
8.088,-0.09122
8.092,-0.00955
8.096,0.08378
8.1,0.25962
8.104,0.51571
8.108,0.70209
8.112,0.87729
8.116,0.97741
8.12,0.99689
8.124,0.86168
8.128,0.69327
8.132,0.54805
8.136,0.22219
8.14,0.02681
8.144,-0.05304
8.148,-0.08298
8.152,-0.19654
8.156,-0.14425
8.16,-0.07568
8.164,-0.05709
8.168,-0.02185
8.172,0.00605
8.176,0.06211
8.18,0.01715
8.184,-0.01818
8.188,0.05287
8.192,0.01447
8.196,-0.02634
8.2,-0.01772
8.204,0.00525
8.208,-0.03236
8.212,0.03223
8.216,0.09199
8.22,0.03524
8.224,0.00177
8.228,0.09889
8.232,0.00518
8.236,0.01502
8.24,0.00554
8.244,-0.03886
8.248,-0.0417
8.252,0.08498
8.256,0.02197
8.26,0.04063
8.264,-0.01528
8.268,0.03823
8.272,-0.01898
8.276,0.02542
8.28,0.00426
8.284,0.01585
8.288,0.02859
8.292,0.05409
8.296,0.02123
8.3,-0.01785
8.304,0.04739
8.308,0.01125
8.312,0.01926
8.316,0.0639
8.32,0.04855
8.324,0.04016
8.328,0.06911
8.332,0.12711
8.336,0.06896
8.34,0.0645
8.344,0.15988
8.348,0.11805
8.352,0.1257
8.356,0.15264
8.36,0.13906
8.364,0.20094
8.368,0.20303
8.372,0.20494
8.376,0.25502
8.38,0.14476
8.384,0.25432
8.388,0.27421
8.392,0.25792
8.396,0.20771
8.4,0.25153
8.404,0.21077
8.408,0.1811
8.412,0.26094
8.416,0.19251
8.42,0.24958
8.424,0.20817
8.428,0.18186
8.432,0.18806
8.436,0.12734
8.44,0.14253
8.444,0.17212
8.448,0.08199
8.452,0.16252
8.456,0.14547
8.46,0.15925
8.464,0.12668
8.468,0.1122
8.472,0.01438
8.476,0.08272
8.48,0.04567
8.484,0.00596
8.488,0.06689
8.492,0.05043
8.496,0.03883
8.5,0.09402
8.504,0.06372
8.508,0.06915
8.512,0.07053
8.516,0.06058
8.52,0.02498
8.524,-0.01201
8.528,0.05039
8.532,0.02589
8.536,-0.00667
8.54,0.0725
8.544,0.05015
8.548,0.01873
8.552,0.00337
8.556,-0.02311
8.56,-0.03042
8.564,0.03809
8.568,0.03418
8.572,0.07041
8.576,-0.02485
8.58,0.00333
8.584,0.01196
8.588,-0.03194
8.592,-0.02265
8.596,0.03966
8.6,0.06654
8.604,0.01473
8.608,-0.00557
8.612,0.00759
8.616,0.08802
8.62,-0.03029
8.624,0.023
8.628,0.00372
8.632,0.01488
8.636,-0.03063
8.64,0.01084
8.644,0.07637
8.648,0.03612
8.652,0.03782
8.656,-0.02676
8.66,-0.01663
8.664,-0.01174
8.668,-0.01533
8.672,0.04979
8.676,0.00233
8.68,0.04227
8.684,0.06536
8.688,0.06437
8.692,0.03358
8.696,0.09779
8.7,0.0297
8.704,-0.01446
8.708,0.02464
8.712,0.03795
8.716,0.00946
8.72,0.03326
8.724,-0.01612
8.728,0.02561
8.732,0.02269
8.736,0.03488
8.74,-0.00875
8.744,0.00355
8.748,0.00445
8.752,-0.01023
8.756,0.05513
8.76,0.02128
8.764,-0.0518
8.768,0.05703
8.772,-0.00266
8.776,-0.03088
8.78,0.03368
8.784,-0.05765
8.788,-0.00963
8.792,0.09635
8.796,0.04167
8.8,0.05523
8.804,0.0016
8.808,0.0902
8.812,0.00077
8.816,0.07649
8.82,0.02128
8.824,0.00554
8.828,0.03636
8.832,0.08358
8.836,-0.02022
8.84,0.05916
8.844,0.04986
8.848,0.01959
8.852,0.02431
8.856,0.0396
8.86,0.05785
8.864,0.00444
8.868,-0.00192
8.872,-0.0384
8.876,0.0436
8.88,-0.00543
8.884,0.01394
8.888,0.0112
8.892,0.01351
8.896,-0.00658
8.9,0.041
8.904,-0.04049
8.908,-0.0034
8.912,-0.02422
8.916,0.04264
8.92,0.01956
8.924,0.0601
8.928,0.00451
8.932,0.00036
8.936,-0.00033
8.94,0.04357
8.944,-0.02537
8.948,-0.00376
8.952,0.0091
8.956,-0.00166
8.96,0.02569
8.964,0.0074
8.968,0.06625
8.972,0.07949
8.976,0.02053
8.98,-0.01169
8.984,-0.00135
8.988,0.03251
8.992,0.03668
8.996,0.04233
9.0,0.08044
9.004,0.05516
9.008,0.05112
9.012,0.09425
9.016,0.07324
9.02,0.14031
9.024,0.15072
9.028,0.13117
9.032,0.09659
9.036,0.10492
9.04,0.10037
9.044,0.10522
9.048,0.13441
9.052,0.08338
9.056,0.0298
9.06,0.11058
9.064,0.0582
9.068,0.03759
9.072,0.07223
9.076,0.02814
9.08,0.04693
9.084,0.00942
9.088,0.0763
9.092,0.06608
9.096,0.07507
9.1,0.02428
9.104,0.03097
9.108,0.09869
9.112,0.04386
9.116,0.00887
9.12,0.07533
9.124,0.06285
9.128,0.05493
9.132,0.03074
9.136,0.00373
9.14,-0.02689
9.144,0.06299
9.148,0.04336
9.152,0.04298
9.156,0.07913
9.16,-0.00591
9.164,-0.11453
9.168,-0.03058
9.172,0.00378
9.176,0.12211
9.18,0.3562
9.184,0.50286
9.188,0.74475
9.192,0.87194
9.196,1.028
9.2,1.00245
9.204,0.88395
9.208,0.71773
9.212,0.47194
9.216,0.23402
9.22,0.05692
9.224,-0.06294
9.228,-0.08982
9.232,-0.07518
9.236,-0.09531
9.24,-0.09776
9.244,-0.00867
9.248,-0.02632
9.252,0.06774
9.256,0.07263
9.26,0.06638
9.264,0.09168
9.268,0.01987
9.272,0.05867
9.276,0.05327
9.28,2e-05
9.284,0.07626
9.288,0.07924
9.292,0.05792
9.296,0.01438
9.3,0.02127
9.304,0.04303
9.308,0.02037
9.312,0.0646
9.316,0.02355
9.32,-0.00603
9.324,0.016
9.328,0.04688
9.332,0.05236
9.336,0.03516
9.34,0.03697
9.344,0.02673
9.348,0.06758
9.352,-0.00664
9.356,0.05493
9.36,0.07274
9.364,0.04523
9.368,0.09012
9.372,0.06955
9.376,-0.00901
9.38,0.06812
9.384,0.01305
9.388,0.03413
9.392,0.05175
9.396,0.03431
9.4,0.04779
9.404,0.07643
9.408,0.10191
9.412,0.08265
9.416,0.0976
9.42,0.23471
9.424,0.17946
9.428,0.19056
9.432,0.2638
9.436,0.31915
9.44,0.28453
9.444,0.27575
9.448,0.32615
9.452,0.29333
9.456,0.27674
9.46,0.32535
9.464,0.29624
9.468,0.28226
9.472,0.25117
9.476,0.32873
9.48,0.31752
9.484,0.23058
9.488,0.22013
9.492,0.239
9.496,0.18792
9.5,0.25211
9.504,0.25576
9.508,0.21701
9.512,0.16808
9.516,0.14574
9.52,0.23054
9.524,0.19061
9.528,0.1613
9.532,0.13729
9.536,0.13989
9.54,0.10562
9.544,0.10203
9.548,0.08102
9.552,0.05522
9.556,0.0841
9.56,0.07314
9.564,-0.00852
9.568,-0.05817
9.572,-0.08164
9.576,-0.01759
9.58,0.00698
9.584,0.20983
9.588,0.33826
9.592,0.59755
9.596,0.82071
9.6,0.97149
9.604,0.99735
9.608,0.98741
9.612,0.85834
9.616,0.6372
9.62,0.36685
9.624,0.20337
9.628,0.01068
9.632,-0.07383
9.636,-0.20185
9.64,-0.17094
9.644,-0.11962
9.648,-0.09298
9.652,-0.02866
9.656,-0.02594
9.66,0.05026
9.664,0.09321
9.668,-0.02899
9.672,0.05945
9.676,0.04369
9.68,0.03431
9.684,0.09843
9.688,0.07297
9.692,0.0733
9.696,0.07125
9.7,-0.00294
9.704,-0.00212
9.708,0.04489
9.712,0.03247
9.716,0.03382
9.72,0.04901
9.724,0.00965
9.728,-0.00707
9.732,0.00374
9.736,0.03117
9.74,0.06662
9.744,0.03265
9.748,0.00646
9.752,0.05463
9.756,0.02007
9.76,0.04163
9.764,0.02235
9.768,0.01777
9.772,0.01337
9.776,0.01525
9.78,0.07056
9.784,0.04723
9.788,0.07532
9.792,0.10867
9.796,0.09639
9.8,0.08294
9.804,0.08577
9.808,0.01595
9.812,0.08454
9.816,0.10969
9.82,0.06563
9.824,0.08355
9.828,0.20637
9.832,0.1048
9.836,0.17909
9.84,0.18756
9.844,0.15885
9.848,0.18375
9.852,0.1313
9.856,0.1853
9.86,0.18603
9.864,0.25389
9.868,0.21425
9.872,0.24188
9.876,0.24928
9.88,0.23089
9.884,0.21372
9.888,0.17823
9.892,0.28968
9.896,0.30023
9.9,0.21686
9.904,0.15952
9.908,0.20412
9.912,0.17019
9.916,0.14893
9.92,0.16541
9.924,0.21308
9.928,0.19882
9.932,0.1089
9.936,0.10103
9.94,0.1393
9.944,0.11117
9.948,0.05255
9.952,0.07366
9.956,0.0707
9.96,0.05022
9.964,0.00725
9.968,0.04254
9.972,0.07111
9.976,0.11583
9.98,-0.01157
9.984,0.09457
9.988,0.05429
9.992,0.05864
9.996,0.04472
