t_seg,ecg_mV
0.0,-0.02292
0.004,-0.06011
0.008,-0.02278
0.012,-0.01675
0.016,-0.03413
0.02,-0.0414
0.024,-0.01272
0.028,-0.03195
0.032,-0.02194
0.036,-0.03556
0.04,-0.02256
0.044,-0.03402
0.048,-0.03676
0.052,-0.05022
0.056,-0.0286
0.06,-0.0029
0.064,-0.02086
0.068,-0.05004
0.072,-0.07314
0.076,-0.00986
0.08,-0.02463
0.084,-0.02416
0.088,-0.02168
0.092,-0.04305
0.096,-0.03329
0.1,-0.04561
0.104,-0.02393
0.108,-0.00499
0.112,-0.01985
0.116,-0.01861
0.12,-0.00928
0.124,-0.02432
0.128,-0.00298
0.132,-0.01993
0.136,-0.02338
0.14,-0.02394
0.144,-0.01183
0.148,-0.01249
0.152,-0.03059
0.156,-0.0136
0.16,0.00523
0.164,-0.02052
0.168,-0.02399
0.172,-0.02343
0.176,-0.03658
0.18,-0.02523
0.184,-0.03735
0.188,-0.03435
0.192,-0.0588
0.196,-0.01478
0.2,-0.02604
0.204,-0.07998
0.208,-0.0073
0.212,-0.02793
0.216,-0.04247
0.22,-0.03102
0.224,-0.01269
0.228,-0.01471
0.232,-0.04203
0.236,-0.05152
0.24,-0.04489
0.244,-0.03098
0.248,-0.01368
0.252,-0.05349
0.256,-0.01543
0.26,-0.02503
0.264,-0.04836
0.268,-0.03738
0.272,-0.04837
0.276,-0.03163
0.28,-0.03547
0.284,-0.03196
0.288,-0.03908
0.292,-0.05901
0.296,-0.03458
0.3,-0.04159
0.304,-0.07713
0.308,-0.0511
0.312,-0.01376
0.316,-0.02846
0.32,-0.05766
0.324,-0.03865
0.328,-0.00239
0.332,-0.04432
0.336,-0.01077
0.34,-0.02005
0.344,-0.04015
0.348,-0.03315
0.352,0.00449
0.356,-0.01776
0.36,-0.03648
0.364,-0.01847
0.368,-0.03013
0.372,-0.02832
0.376,-0.03653
0.38,-0.03221
0.384,-0.03461
0.388,-0.03171
0.392,-0.044
0.396,-0.00649
0.4,0.01675
0.404,0.00171
0.408,-0.02612
0.412,0.03375
0.416,-0.0084
0.42,0.01983
0.424,0.02957
0.428,0.02052
0.432,0.08237
0.436,0.07104
0.44,0.07433
0.444,0.0828
0.448,0.09781
0.452,0.07002
0.456,0.05993
0.46,0.03177
0.464,0.03505
0.468,0.01108
0.472,0.02015
0.476,0.00749
0.48,-0.00943
0.484,-0.0121
0.488,-0.01123
0.492,-0.02816
0.496,-0.01853
0.5,-0.02903
0.504,-0.03378
0.508,-0.02041
0.512,-0.02823
0.516,-0.03264
0.52,-0.06285
0.524,-0.03078
0.528,-0.02646
0.532,-0.02066
0.536,-0.02541
0.54,-0.03741
0.544,-0.03596
0.548,-0.0342
0.552,-0.01824
0.556,-0.04448
0.56,-0.07005
0.564,-0.13668
0.568,-0.13203
0.572,-0.09808
0.576,-0.04288
0.58,0.12194
0.584,0.30291
0.588,0.52086
0.592,0.74903
0.596,0.87583
0.6,0.96565
0.604,0.94174
0.608,0.8051
0.612,0.5849
0.616,0.34729
0.62,0.16298
0.624,-0.0104
0.628,-0.15384
0.632,-0.18496
0.636,-0.22898
0.64,-0.1671
0.644,-0.10672
0.648,-0.05037
0.652,-0.04727
0.656,-0.03014
0.66,-0.03577
0.664,-0.0058
0.668,-0.01981
0.672,-0.03138
0.676,-0.04318
0.68,-0.03176
0.684,-0.03429
0.688,-0.03171
0.692,-0.04625
0.696,0.00531
0.7,-0.01217
0.704,-0.02678
0.708,-0.02578
0.712,-0.02893
0.716,0.02042
0.72,-0.03359
0.724,-0.01071
0.728,-0.00438
0.732,-0.02634
0.736,-0.03725
0.74,-0.03811
0.744,-0.00368
0.748,-0.03927
0.752,-0.005
0.756,-0.03261
0.76,-0.02255
0.764,-0.02154
0.768,-0.02681
0.772,-0.02636
0.776,-0.02269
0.78,-0.00953
0.784,-0.0178
0.788,-0.00761
0.792,-0.0036
0.796,-0.00273
0.8,0.00849
0.804,0.02184
0.808,0.04248
0.812,0.05091
0.816,0.02819
0.82,0.08367
0.824,0.09099
0.828,0.08107
0.832,0.09789
0.836,0.11307
0.84,0.15545
0.844,0.15392
0.848,0.10151
0.852,0.15659
0.856,0.1532
0.86,0.17634
0.864,0.19561
0.868,0.20245
0.872,0.20175
0.876,0.20229
0.88,0.21116
0.884,0.20964
0.888,0.17552
0.892,0.19076
0.896,0.18722
0.9,0.1773
0.904,0.16315
0.908,0.17617
0.912,0.15512
0.916,0.12737
0.92,0.1547
0.924,0.12403
0.928,0.07438
0.932,0.11211
0.936,0.085
0.94,0.05227
0.944,0.05113
0.948,0.04472
0.952,0.03574
0.956,0.04021
0.96,0.03562
0.964,0.0315
0.968,-0.00828
0.972,-0.01587
0.976,0.02188
0.98,0.00174
0.984,-0.01651
0.988,0.01709
0.992,-0.02422
0.996,-0.00916
1.0,-0.00779
1.004,-0.00618
1.008,-0.02128
1.012,-0.01987
1.016,-0.00739
1.02,-0.02007
1.024,-0.04988
1.028,-0.02733
1.032,-0.0189
1.036,-0.01124
1.04,-0.03461
1.044,-0.02842
1.048,-0.03452
1.052,-0.05416
1.056,0.00215
1.06,-0.02765
1.064,-0.04915
1.068,-0.00688
1.072,-0.01569
1.076,-0.01943
1.08,-0.01315
1.084,-0.02751
1.088,-0.03172
1.092,-0.01331
1.096,-0.01315
1.1,-0.02027
1.104,0.01297
1.108,-0.03716
1.112,0.0055
1.116,-0.02354
1.12,-0.02069
1.124,-0.0174
1.128,-0.01653
1.132,0.00763
1.136,-0.01944
1.14,-0.02528
1.144,-0.04444
1.148,-0.01512
1.152,-0.01539
1.156,-0.01377
1.16,0.00371
1.164,0.00645
1.168,0.04893
1.172,0.03389
1.176,0.0492
1.18,0.08362
1.184,0.05869
1.188,0.06695
1.192,0.0832
1.196,0.10714
1.2,0.05186
1.204,0.06692
1.208,0.05859
1.212,0.03266
1.216,0.04266
1.22,0.02677
1.224,-0.01122
1.228,0.01113
1.232,-0.01324
1.236,-0.00724
1.24,-0.00832
1.244,-0.02967
1.248,0.01625
1.252,-0.02167
1.256,-0.02149
1.26,-0.00338
1.264,-0.02474
1.268,-0.02328
1.272,0.01678
1.276,-0.01104
1.28,-0.03471
1.284,-0.02251
1.288,-0.0161
1.292,-0.01661
1.296,-0.03016
1.3,-0.01908
1.304,-0.02142
1.308,-0.04009
1.312,-0.08855
1.316,-0.10982
1.32,-0.12035
1.324,-0.09514
1.328,0.02321
1.332,0.23162
1.336,0.38843
1.34,0.61113
1.344,0.80915
1.348,0.93701
1.352,0.98259
1.356,0.90024
1.36,0.71421
1.364,0.55372
1.368,0.2893
1.372,0.06294
1.376,-0.07832
1.38,-0.15226
1.384,-0.17646
1.388,-0.15258
1.392,-0.12126
1.396,-0.06973
1.4,-0.0714
1.404,-0.01981
1.408,-0.00836
1.412,-0.02079
1.416,-0.00726
1.42,-0.00773
1.424,0.02228
1.428,-0.0158
1.432,-0.01743
1.436,-0.01597
1.44,0.00087
1.444,-0.0219
1.448,-0.01309
1.452,-0.0096
1.456,0.00851
1.46,0.0002
1.464,-0.04979
1.468,-0.02859
1.472,-0.0023
1.476,-0.00699
1.48,0.00347
1.484,-0.0265
1.488,-0.01798
1.492,0.00354
1.496,0.03022
1.5,-0.00335
1.504,0.00293
1.508,0.02101
1.512,0.00896
1.516,-0.01327
1.52,0.00913
1.524,0.01186
1.528,0.00351
1.532,0.02483
1.536,0.01992
1.54,0.04439
1.544,0.02154
1.548,0.03663
1.552,0.03143
1.556,0.02998
1.56,0.05062
1.564,0.06513
1.568,0.05878
1.572,0.06615
1.576,0.12766
1.58,0.15927
1.584,0.12862
1.588,0.11749
1.592,0.14991
1.596,0.14017
1.6,0.16042
1.604,0.16997
1.608,0.17957
1.612,0.17749
1.616,0.21195
1.62,0.25877
1.624,0.21133
1.628,0.2175
1.632,0.19225
1.636,0.22917
1.64,0.21986
1.644,0.22127
1.648,0.20131
1.652,0.22352
1.656,0.16786
1.66,0.18122
1.664,0.1936
1.668,0.16577
1.672,0.16617
1.676,0.12
1.68,0.10643
1.684,0.09248
1.688,0.08336
1.692,0.08506
1.696,0.08283
1.7,0.05325
1.704,0.07706
1.708,0.02754
1.712,0.05105
1.716,0.03581
1.72,0.0367
1.724,0.0381
1.728,0.0362
1.732,0.01093
1.736,0.0175
1.74,0.00839
1.744,0.01091
1.748,-0.008
1.752,-0.01334
1.756,0.00653
1.76,0.02399
1.764,-0.01144
1.768,0.00352
1.772,-0.01402
1.776,0.0111
1.78,-0.00155
1.784,-0.01327
1.788,-0.00629
1.792,0.03408
1.796,-0.00611
1.8,-0.00164
1.804,0.00767
1.808,-0.00686
1.812,0.0001
1.816,-0.01729
1.82,0.00953
1.824,-0.007
1.828,0.01149
1.832,0.00403
1.836,0.01119
1.84,0.00546
1.844,-0.01222
1.848,0.00869
1.852,-0.0068
1.856,-0.00524
1.86,0.02646
1.864,0.01715
1.868,0.00445
1.872,0.0065
1.876,0.00446
1.88,-0.00223
1.884,-0.01133
1.888,0.01582
1.892,-0.00644
1.896,-0.00728
1.9,0.01614
1.904,0.02455
1.908,-0.002
1.912,0.02094
1.916,-0.00821
1.92,0.03335
1.924,0.01585
1.928,0.00712
1.932,0.00691
1.936,0.0166
1.94,0.00751
1.944,0.02658
1.948,0.00669
1.952,0.03052
1.956,-0.02296
1.96,0.01831
1.964,0.04006
1.968,-0.00613
1.972,0.0253
1.976,-0.00087
1.98,0.01529
1.984,0.00989
1.988,0.00422
1.992,0.00972
1.996,0.0221
2.0,-0.01203
2.004,0.02103
2.008,0.00496
2.012,-0.00503
2.016,0.02571
2.02,0.00268
2.024,-0.01845
2.028,0.02517
2.032,0.01548
2.036,0.00245
2.04,0.01177
2.044,0.01381
2.048,-0.01691
2.052,-0.03475
2.056,0.01393
2.06,0.01907
2.064,-0.00865
2.068,0.02985
2.072,0.01156
2.076,0.03383
2.08,0.00899
2.084,0.00302
2.088,0.02118
2.092,0.00134
2.096,0.01466
2.1,0.02905
2.104,0.00747
2.108,0.00733
2.112,0.01131
2.116,0.00196
2.12,0.01896
2.124,-0.02961
2.128,0.02128
2.132,0.00505
2.136,-0.00784
2.14,0.01594
2.144,-0.00534
2.148,0.02078
2.152,0.02373
2.156,0.05216
2.16,0.07922
2.164,0.06395
2.168,0.09823
2.172,0.07956
2.176,0.10023
2.18,0.08426
2.184,0.10669
2.188,0.09781
2.192,0.11151
2.196,0.08824
2.2,0.11577
2.204,0.07996
2.208,0.0708
2.212,0.02231
2.216,0.05208
2.22,0.01483
2.224,0.04044
2.228,0.04386
2.232,0.03948
2.236,-0.00042
2.24,0.00205
2.244,0.00721
2.248,0.00179
2.252,0.01434
2.256,0.02867
2.26,0.01199
2.264,0.02323
2.268,0.04541
2.272,0.02514
2.276,0.01408
2.28,0.00565
2.284,0.03501
2.288,0.012
2.292,0.01508
2.296,-0.00176
2.3,-0.01901
2.304,-0.08753
2.308,-0.0795
2.312,-0.07643
2.316,-0.0561
2.32,0.04196
2.324,0.15905
2.328,0.35461
2.332,0.54996
2.336,0.75894
2.34,0.95359
2.344,1.01134
2.348,0.9783
2.352,0.81635
2.356,0.6126
2.36,0.38393
2.364,0.21659
2.368,0.03074
2.372,-0.07845
2.376,-0.11438
2.38,-0.12906
2.384,-0.12922
2.388,-0.06735
2.392,-0.00257
2.396,0.00747
2.4,0.00719
2.404,-0.0055
2.408,0.00133
2.412,0.02247
2.416,0.0018
2.42,0.02163
2.424,0.00639
2.428,0.0146
2.432,0.02771
2.436,0.02562
2.44,-0.00411
2.444,0.01428
2.448,0.01301
2.452,-0.00141
2.456,0.01035
2.46,0.0202
2.464,0.01885
2.468,0.01356
2.472,0.01598
2.476,-0.01091
2.48,0.00895
2.484,0.005
2.488,0.03272
2.492,-0.01163
2.496,0.0242
2.5,-0.00089
2.504,0.02239
2.508,0.02077
2.512,0.03395
2.516,0.00369
2.52,0.03515
2.524,0.05075
2.528,0.03145
2.532,0.04099
2.536,0.05541
2.54,0.02864
2.544,0.07211
2.548,0.05301
2.552,0.04064
2.556,0.09477
2.56,0.09733
2.564,0.10418
2.568,0.12985
2.572,0.1273
2.576,0.163
2.58,0.14012
2.584,0.16364
2.588,0.17848
2.592,0.20001
2.596,0.17215
2.6,0.21316
2.604,0.24034
2.608,0.22986
2.612,0.24574
2.616,0.22079
2.62,0.24447
2.624,0.23564
2.628,0.21993
2.632,0.21068
2.636,0.22998
2.64,0.24768
2.644,0.2176
2.648,0.23607
2.652,0.18736
2.656,0.19458
2.66,0.2166
2.664,0.14263
2.668,0.12894
2.672,0.15205
2.676,0.15849
2.68,0.15454
2.684,0.10952
2.688,0.11628
2.692,0.10403
2.696,0.0941
2.7,0.0797
2.704,0.06848
2.708,0.08114
2.712,0.05996
2.716,0.05499
2.72,0.04033
2.724,0.02985
2.728,0.0398
2.732,0.02657
2.736,0.03142
2.74,0.01494
2.744,0.03413
2.748,0.04723
2.752,0.03667
2.756,0.01186
2.76,0.02222
2.764,0.03636
2.768,0.03659
2.772,0.02916
2.776,0.03148
2.78,0.01393
2.784,0.00058
2.788,0.04049
2.792,0.01903
2.796,0.00745
2.8,0.04619
2.804,0.02602
2.808,0.0076
2.812,0.01503
2.816,0.04683
2.82,0.04313
2.824,0.01164
2.828,-0.01995
2.832,-0.00331
2.836,-0.00107
2.84,0.01794
2.844,0.0422
2.848,0.03447
2.852,0.02089
2.856,0.00757
2.86,0.0016
2.864,0.01611
2.868,0.03626
2.872,0.03922
2.876,-0.00701
2.88,0.02676
2.884,0.02847
2.888,0.02651
2.892,0.00125
2.896,0.02038
2.9,0.0277
2.904,0.0204
2.908,0.04665
2.912,0.01817
2.916,0.03679
2.92,0.01698
2.924,0.03326
2.928,0.05863
2.932,0.04849
2.936,0.06907
2.94,0.07721
2.944,0.06688
2.948,0.10065
2.952,0.10708
2.956,0.13041
2.96,0.14437
2.964,0.11056
2.968,0.11393
2.972,0.1083
2.976,0.11845
2.98,0.09146
2.984,0.09648
2.988,0.0772
2.992,0.05558
2.996,0.06606
3.0,0.03946
3.004,0.02653
3.008,0.01501
3.012,0.04432
3.016,0.03055
3.02,0.03993
3.024,0.01982
3.028,0.03487
3.032,0.01207
3.036,0.02225
3.04,0.0388
3.044,0.01546
3.048,0.01974
3.052,0.0045
3.056,0.01866
3.06,0.035
3.064,0.0199
3.068,0.00408
3.072,0.0008
3.076,0.01681
3.08,-0.01252
3.084,-0.04587
3.088,-0.09006
3.092,-0.07781
3.096,-0.06814
3.1,0.04478
3.104,0.19682
3.108,0.36883
3.112,0.61954
3.116,0.79375
3.12,0.96328
3.124,1.03717
3.128,0.95709
3.132,0.83014
3.136,0.62057
3.14,0.41265
3.144,0.16446
3.148,0.01051
3.152,-0.10193
3.156,-0.14375
3.16,-0.1299
3.164,-0.09213
3.168,-0.05243
3.172,-0.01184
3.176,-0.02124
3.18,0.04006
3.184,0.01634
3.188,0.03156
3.192,0.02772
3.196,0.04301
3.2,0.02191
3.204,0.0276
3.208,0.02147
3.212,0.05124
3.216,0.01629
3.22,0.04182
3.224,0.03434
3.228,0.04794
3.232,0.01537
3.236,0.02046
3.24,0.04867
3.244,0.00799
3.248,0.04385
3.252,0.02806
3.256,0.0269
3.26,0.03933
3.264,0.01027
3.268,0.03291
3.272,0.03644
3.276,0.02854
3.28,0.04416
3.284,0.04643
3.288,0.04814
3.292,0.02721
3.296,0.02644
3.3,0.0542
3.304,0.04539
3.308,0.04862
3.312,0.08299
3.316,0.0539
3.32,0.04897
3.324,0.07796
3.328,0.0931
3.332,0.06669
3.336,0.08241
3.34,0.1137
3.344,0.10586
3.348,0.12267
3.352,0.1611
3.356,0.14009
3.36,0.19884
3.364,0.19722
3.368,0.17049
3.372,0.20711
3.376,0.20462
3.38,0.21138
3.384,0.21245
3.388,0.23642
3.392,0.24166
3.396,0.23562
3.4,0.25805
3.404,0.25322
3.408,0.2213
3.412,0.2436
3.416,0.26845
3.42,0.24733
3.424,0.23327
3.428,0.22657
3.432,0.23099
3.436,0.20908
3.44,0.17228
3.444,0.19271
3.448,0.17491
3.452,0.11196
3.456,0.15689
3.46,0.13805
3.464,0.11834
3.468,0.08535
3.472,0.09427
3.476,0.10752
3.48,0.08636
3.484,0.08579
3.488,0.06141
3.492,0.04121
3.496,0.03036
3.5,0.03735
3.504,0.02901
3.508,0.06569
3.512,0.02459
3.516,0.04896
3.52,0.031
3.524,0.06341
3.528,0.0347
3.532,0.02091
3.536,0.05479
3.54,0.04356
3.544,0.04604
3.548,0.0443
3.552,0.02066
3.556,0.00153
3.56,0.05398
3.564,0.0556
3.568,0.03075
3.572,0.02196
3.576,0.04061
3.58,0.03567
3.584,0.0478
3.588,0.02777
3.592,0.04476
3.596,0.04066
3.6,0.02582
3.604,0.02513
3.608,0.03853
3.612,0.03378
3.616,0.0458
3.62,0.02174
3.624,0.0265
3.628,0.06666
3.632,0.0442
3.636,0.04739
3.64,0.08189
3.644,0.07277
3.648,0.07275
3.652,0.10919
3.656,0.08828
3.66,0.09114
3.664,0.09871
3.668,0.11184
3.672,0.1234
3.676,0.11904
3.68,0.11874
3.684,0.09457
3.688,0.07056
3.692,0.09134
3.696,0.06019
3.7,0.06396
3.704,0.04847
3.708,0.05982
3.712,0.04191
3.716,0.03188
3.72,0.04046
3.724,0.04519
3.728,0.03993
3.732,-0.00091
3.736,0.03932
3.74,0.04453
3.744,0.03691
3.748,0.06706
3.752,0.05204
3.756,0.02925
3.76,0.04592
3.764,0.05827
3.768,0.02195
3.772,0.02174
3.776,0.02154
3.78,0.00842
3.784,-0.01696
3.788,-0.02896
3.792,-0.05323
3.796,-0.08353
3.8,-0.04876
3.804,0.01855
3.808,0.14584
3.812,0.364
3.816,0.57671
3.82,0.78392
3.824,0.93694
3.828,1.00368
3.832,1.01222
3.836,0.87865
3.84,0.64703
3.844,0.41977
3.848,0.21823
3.852,0.06401
3.856,-0.06518
3.86,-0.12856
3.864,-0.1276
3.868,-0.09704
3.872,-0.05169
3.876,-0.01997
3.88,0.02374
3.884,0.02914
3.888,0.01607
3.892,0.02507
3.896,0.02352
3.9,0.03078
3.904,0.02168
3.908,0.03343
3.912,0.05577
3.916,0.02284
3.92,0.01267
3.924,0.02499
3.928,0.01106
3.932,0.03401
3.936,0.03337
3.94,0.04915
3.944,0.01564
3.948,0.03553
3.952,0.02522
3.956,0.01181
3.96,0.0426
3.964,0.02497
3.968,0.01207
3.972,0.04649
3.976,0.02013
3.98,0.03988
3.984,0.0279
3.988,0.0145
3.992,0.04006
3.996,0.03623
4.0,0.03966
4.004,0.0241
4.008,0.06475
4.012,0.07432
4.016,0.02247
4.02,0.06481
4.024,0.05009
4.028,0.07007
4.032,0.05714
4.036,0.0705
4.04,0.07832
4.044,0.1208
4.048,0.08864
4.052,0.13496
4.056,0.14979
4.06,0.1292
4.064,0.17038
4.068,0.15087
4.072,0.16718
4.076,0.18356
4.08,0.20175
4.084,0.21593
4.088,0.22387
4.092,0.23523
4.096,0.22471
4.1,0.24784
4.104,0.22672
4.108,0.23417
4.112,0.24135
4.116,0.24024
4.12,0.21232
4.124,0.20474
4.128,0.22103
4.132,0.21138
4.136,0.21252
4.14,0.17771
4.144,0.17072
4.148,0.21278
4.152,0.16091
4.156,0.13457
4.16,0.12061
4.164,0.1251
4.168,0.12448
4.172,0.10828
4.176,0.11162
4.18,0.11068
4.184,0.09793
4.188,0.10213
4.192,0.05683
4.196,0.04298
4.2,0.07496
4.204,0.0385
4.208,0.01457
4.212,0.04598
4.216,0.03087
4.22,0.02515
4.224,0.01497
4.228,0.02161
4.232,0.03987
4.236,0.02691
4.24,0.03176
4.244,0.03783
4.248,0.01691
4.252,0.00537
4.256,0.03612
4.26,0.03917
4.264,0.05859
4.268,0.02794
4.272,0.00137
4.276,0.02901
4.28,0.02888
4.284,0.01762
4.288,0.01083
4.292,0.00026
4.296,0.01998
4.3,0.02197
4.304,0.0407
4.308,0.03035
4.312,0.02122
4.316,0.01832
4.32,0.00855
4.324,0.02369
4.328,0.04125
4.332,0.01068
4.336,0.03521
4.34,0.02064
4.344,0.01861
4.348,0.05245
4.352,0.04297
4.356,0.09488
4.36,0.03922
4.364,0.06957
4.368,0.11045
4.372,0.11545
4.376,0.11502
4.38,0.1124
4.384,0.1192
4.388,0.10218
4.392,0.11169
4.396,0.09792
4.4,0.07865
4.404,0.07714
4.408,0.07563
4.412,0.04265
4.416,0.00628
4.42,0.02422
4.424,0.00705
4.428,0.03519
4.432,0.03163
4.436,0.01751
4.44,0.03687
4.444,0.01288
4.448,0.03389
4.452,0.05578
4.456,0.01836
4.46,0.01944
4.464,0.00804
4.468,0.00784
4.472,0.05079
4.476,-0.00828
4.48,0.0022
4.484,0.03773
4.488,0.02233
4.492,-0.00146
4.496,0.00186
4.5,-0.06069
4.504,-0.06757
4.508,-0.12379
4.512,-0.03899
4.516,0.0586
4.52,0.20069
4.524,0.42636
4.528,0.64799
4.532,0.84486
4.536,0.97983
4.54,1.02877
4.544,0.9353
4.548,0.78823
4.552,0.56782
4.556,0.33747
4.56,0.10315
4.564,-0.02653
4.568,-0.11448
4.572,-0.1348
4.576,-0.14175
4.58,-0.09596
4.584,-0.04024
4.588,-0.03763
4.592,0.03159
4.596,0.00541
4.6,0.00393
4.604,0.03162
4.608,0.02941
4.612,0.01279
4.616,0.03736
4.62,0.02382
4.624,0.00462
4.628,0.017
4.632,0.01159
4.636,0.04478
4.64,0.00936
4.644,0.00197
4.648,-0.01197
4.652,0.0201
4.656,0.00735
4.66,0.022
4.664,0.01818
4.668,0.03336
4.672,0.00464
4.676,-0.01224
4.68,0.01389
4.684,0.0294
4.688,0.00229
4.692,0.03795
4.696,0.00701
4.7,0.03303
4.704,0.02682
4.708,0.02707
4.712,0.0174
4.716,0.03029
4.72,0.01826
4.724,0.0441
4.728,0.06734
4.732,0.04409
4.736,0.04289
4.74,0.09742
4.744,0.06483
4.748,0.10825
4.752,0.10376
4.756,0.1075
4.76,0.12106
4.764,0.1098
4.768,0.11892
4.772,0.14837
4.776,0.14464
4.78,0.16084
4.784,0.18472
4.788,0.1644
4.792,0.19477
4.796,0.21324
4.8,0.21653
4.804,0.21588
4.808,0.2005
4.812,0.20845
4.816,0.22893
4.82,0.25017
4.824,0.23716
4.828,0.22618
4.832,0.24469
4.836,0.22722
4.84,0.19634
4.844,0.20339
4.848,0.20633
4.852,0.15838
4.856,0.14636
4.86,0.16877
4.864,0.1352
4.868,0.10993
4.872,0.13442
4.876,0.1101
4.88,0.08728
4.884,0.07491
4.888,0.09886
4.892,0.05823
4.896,0.05454
4.9,0.02535
4.904,0.04848
4.908,0.03316
4.912,0.01935
4.916,0.02752
4.92,0.04933
4.924,0.02677
4.928,0.01979
4.932,0.01536
4.936,0.00171
4.94,-1e-05
4.944,0.02866
4.948,0.02321
4.952,0.02425
4.956,0.00334
4.96,0.00162
4.964,0.02282
4.968,0.03793
4.972,0.01354
4.976,0.00552
4.98,-0.01737
4.984,0.00654
4.988,0.00433
4.992,-0.00118
4.996,0.01574
5.0,0.00637
5.004,0.01665
5.008,0.03127
5.012,-0.01924
5.016,0.00608
5.02,0.0107
5.024,0.00664
5.028,-0.00783
5.032,0.01426
5.036,0.00943
5.04,-0.01281
5.044,-0.01296
5.048,-0.00038
5.052,0.02678
5.056,-0.00654
5.06,-0.00302
5.064,0.00223
5.068,-0.01378
5.072,0.01215
5.076,0.00939
5.08,0.01344
5.084,-3e-05
5.088,0.00368
5.092,0.01588
5.096,-0.00238
5.1,0.00924
5.104,0.03306
5.108,0.00332
5.112,-0.00237
5.116,0.01529
5.12,0.01221
5.124,0.00542
5.128,0.00136
5.132,-0.00148
5.136,-0.00452
5.14,0.02219
5.144,0.01221
5.148,-0.00254
5.152,0.0195
5.156,-7e-05
5.16,0.0181
5.164,0.01847
5.168,0.01227
5.172,0.04862
5.176,0.06427
5.18,0.0867
5.184,0.08302
5.188,0.06337
5.192,0.08064
5.196,0.09844
5.2,0.11052
5.204,0.08015
5.208,0.08024
5.212,0.08887
5.216,0.04905
5.22,0.06162
5.224,0.04808
5.228,0.03211
5.232,0.04738
5.236,0.02802
5.24,-0.02509
5.244,-9e-05
5.248,0.00551
5.252,-0.00349
5.256,0.01875
5.26,-0.02309
5.264,-0.00182
5.268,-0.01547
5.272,-0.01097
5.276,0.00693
5.28,0.02774
5.284,0.00208
5.288,-0.01317
5.292,-0.02324
5.296,0.00769
5.3,-0.01248
5.304,0.01638
5.308,0.00404
5.312,-0.0242
5.316,-0.04606
5.32,-0.08959
5.324,-0.11421
5.328,-0.0881
5.332,-0.05913
5.336,0.07455
5.34,0.22658
5.344,0.44544
5.348,0.66425
5.352,0.85115
5.356,1.00381
5.36,0.97482
5.364,0.91351
5.368,0.71128
5.372,0.47419
5.376,0.23603
5.38,0.0736
5.384,-0.0608
5.388,-0.15798
5.392,-0.17384
5.396,-0.16579
5.4,-0.1202
5.404,-0.04848
5.408,-0.0308
5.412,0.00922
5.416,-0.0118
5.42,-0.0088
5.424,-0.00393
5.428,-0.01726
5.432,-0.01419
5.436,-0.00917
5.44,-0.01386
5.444,-0.02548
5.448,0.00076
5.452,-0.01799
5.456,-0.01128
5.46,-0.00945
5.464,-0.01342
5.468,0.00296
5.472,-0.01165
5.476,-0.00254
5.48,-0.01799
5.484,0.00923
5.488,-0.00804
5.492,0.01859
5.496,0.00891
5.5,0.01248
5.504,0.02989
5.508,-0.0207
5.512,-0.01186
5.516,-0.00062
5.52,0.01087
5.524,-0.01403
5.528,0.00436
5.532,0.03497
5.536,-0.02495
5.54,0.01943
5.544,0.02651
5.548,0.03266
5.552,0.02935
5.556,0.02408
5.56,0.02199
5.564,0.07839
5.568,0.03459
5.572,0.04559
5.576,0.07645
5.58,0.06627
5.584,0.08399
5.588,0.13271
5.592,0.12201
5.596,0.1523
5.6,0.17994
5.604,0.16934
5.608,0.14845
5.612,0.20071
5.616,0.16455
5.62,0.22096
5.624,0.19095
5.628,0.2032
5.632,0.22012
5.636,0.19522
5.64,0.18538
5.644,0.215
5.648,0.19881
5.652,0.19776
5.656,0.19191
5.66,0.1839
5.664,0.16823
5.668,0.16043
5.672,0.13794
5.676,0.12395
5.68,0.14047
5.684,0.11588
5.688,0.13134
5.692,0.07913
5.696,0.07271
5.7,0.07668
5.704,0.07719
5.708,0.06183
5.712,0.03129
5.716,0.0219
5.72,0.0337
5.724,0.00611
5.728,0.03183
5.732,0.00543
5.736,-0.00435
5.74,-0.0309
5.744,0.01702
5.748,0.01413
5.752,0.00545
5.756,-0.0421
5.76,-0.0099
5.764,-0.00716
5.768,-0.00622
5.772,-0.0312
5.776,-0.01528
5.78,-0.00486
5.784,-0.04988
5.788,-0.01835
5.792,0.00052
5.796,-0.03036
5.8,-0.00842
5.804,-0.00698
5.808,0.00985
5.812,-0.01752
5.816,-0.0168
5.82,-0.02876
5.824,-0.01811
5.828,-0.02174
5.832,-0.0134
5.836,-0.0083
5.84,-0.03788
5.844,0.0051
5.848,-0.0236
5.852,-0.02469
5.856,-0.04462
5.86,-0.00051
5.864,-0.01771
5.868,-0.00109
5.872,-0.01666
5.876,-0.00595
5.88,-0.02838
5.884,-0.02597
5.888,-0.0029
5.892,-0.01169
5.896,-0.01162
5.9,-0.02408
5.904,-0.02219
5.908,-0.04424
5.912,-0.02295
5.916,-0.02844
5.92,-0.00692
5.924,-0.01518
5.928,-0.02242
5.932,-0.02615
5.936,-0.02224
5.94,-0.05072
5.944,-0.02464
5.948,-0.02082
5.952,-0.01887
5.956,-0.02679
5.96,-0.03518
5.964,-0.00674
5.968,-0.03221
5.972,-0.01374
5.976,-0.01362
5.98,-0.0047
5.984,-0.03059
5.988,-0.0383
5.992,-0.01937
5.996,-0.02376
6.0,-0.01162
6.004,-0.00923
6.008,0.01477
6.012,0.00995
6.016,0.045
6.02,0.05585
6.024,0.0596
6.028,0.04948
6.032,0.0687
6.036,0.06256
6.04,0.08196
6.044,0.06452
6.048,0.06953
6.052,0.07126
6.056,0.02126
6.06,0.05883
6.064,-0.00245
6.068,0.00977
6.072,0.02508
6.076,-0.01326
6.08,-0.01261
6.084,-0.01199
6.088,-0.01891
6.092,0.00659
6.096,-0.01587
6.1,-0.0359
6.104,-0.01712
6.108,-0.0262
6.112,-0.01748
6.116,-0.02477
6.12,-0.02975
6.124,-0.02915
6.128,-0.04099
6.132,-0.02732
6.136,-0.01559
6.14,-0.03241
6.144,-0.01181
6.148,-0.03968
6.152,-0.06767
6.156,-0.04994
6.16,-0.09271
6.164,-0.13254
6.168,-0.13177
6.172,-0.08008
6.176,0.03441
6.18,0.212
6.184,0.44228
6.188,0.64413
6.192,0.82232
6.196,0.94646
6.2,0.95579
6.204,0.84435
6.208,0.7057
6.212,0.46468
6.216,0.23523
6.22,0.03812
6.224,-0.10294
6.228,-0.14744
6.232,-0.18787
6.236,-0.18134
6.24,-0.14682
6.244,-0.07402
6.248,-0.0685
6.252,-0.02967
6.256,-0.05089
6.26,-0.00739
6.264,-0.04097
6.268,-0.04527
6.272,-0.01
6.276,-0.03002
6.28,-0.03467
6.284,-0.01633
6.288,-0.02286
6.292,-0.03273
6.296,0.00555
6.3,-0.04729
6.304,0.01158
6.308,-0.01866
6.312,-0.03006
6.316,-0.01757
6.32,-0.04647
6.324,-0.03444
6.328,-0.03152
6.332,-0.05422
6.336,-0.0206
6.34,-0.01983
6.344,-0.05044
6.348,-0.01524
6.352,-0.01174
6.356,-0.0242
6.36,-0.02802
6.364,-0.0459
6.368,-0.00875
6.372,0.01278
6.376,-0.03306
6.38,0.04218
6.384,-0.01122
6.388,0.00655
6.392,0.00987
6.396,0.04745
6.4,0.00778
6.404,0.02199
6.408,0.01078
6.412,0.04564
6.416,0.04204
6.42,0.07048
6.424,0.06765
6.428,0.07765
6.432,0.10757
6.436,0.11387
6.44,0.13348
6.444,0.08902
6.448,0.14141
6.452,0.15405
6.456,0.16094
6.46,0.12914
6.464,0.19373
6.468,0.20428
6.472,0.18662
6.476,0.19716
6.48,0.20655
6.484,0.15735
6.488,0.17269
6.492,0.18864
6.496,0.16229
6.5,0.16503
6.504,0.16959
6.508,0.12937
6.512,0.13055
6.516,0.10995
6.52,0.13649
6.524,0.12796
6.528,0.07933
6.532,0.06107
6.536,0.07235
6.54,0.08608
6.544,0.0716
6.548,0.0256
6.552,0.01232
6.556,0.00914
6.56,0.01903
6.564,-0.00442
6.568,-0.00032
6.572,-0.01455
6.576,0.03021
6.58,-0.04147
6.584,-0.01358
6.588,-0.02519
6.592,-0.02441
6.596,0.0112
6.6,-0.02088
6.604,-0.05043
6.608,-0.00239
6.612,-0.03081
6.616,-0.0229
6.62,-0.02886
6.624,-0.02364
6.628,-0.00693
6.632,-0.0193
6.636,-0.03154
6.64,-0.03805
6.644,-0.03829
6.648,-0.05173
6.652,-0.02989
6.656,-0.02373
6.66,-0.02457
6.664,-0.01831
6.668,-0.01684
6.672,-0.00888
6.676,-0.04898
6.68,-0.04585
6.684,-0.02154
6.688,-0.03012
6.692,-0.0286
6.696,-0.0177
6.7,-0.05575
6.704,-0.02608
6.708,-0.01357
6.712,-0.04501
6.716,-0.04514
6.72,-0.02977
6.724,-0.0239
6.728,-0.03873
6.732,-0.03504
6.736,-0.03094
6.74,-0.04081
6.744,-0.03794
6.748,-0.02653
6.752,-0.01031
6.756,-0.03435
6.76,0.00325
6.764,-0.02901
6.768,-0.04276
6.772,-0.0295
6.776,-0.03858
6.78,-0.0193
6.784,-0.02973
6.788,-0.02224
6.792,-0.03254
6.796,-0.05624
6.8,-0.04734
6.804,-0.01498
6.808,-0.05683
6.812,-0.02959
6.816,-0.0146
6.82,-0.04292
6.824,-0.01015
6.828,-0.02965
6.832,-0.02029
6.836,-0.02016
6.84,-0.05159
6.844,-0.03489
6.848,-0.02705
6.852,-0.04073
6.856,-0.01441
6.86,-0.03182
6.864,-0.0359
6.868,-0.03131
6.872,-0.01318
6.876,-0.03043
6.88,-0.05072
6.884,-0.01135
6.888,-0.01667
6.892,-0.00819
6.896,0.00455
6.9,0.01976
6.904,0.01009
6.908,0.02617
6.912,0.05051
6.916,0.06608
6.92,0.0855
6.924,0.05994
6.928,0.05095
6.932,0.07046
6.936,0.02852
6.94,0.06042
6.944,0.03647
6.948,0.02359
6.952,0.01654
6.956,-0.00335
6.96,0.01253
6.964,0.00699
6.968,-0.03219
6.972,-0.03616
6.976,-0.05511
6.98,-0.06737
6.984,-0.05013
6.988,-0.02029
6.992,-0.05074
6.996,0.00435
7.0,-0.02712
7.004,-0.00159
7.008,-0.03289
7.012,-0.01905
7.016,-0.00961
7.02,-0.04331
7.024,-0.03996
7.028,-0.02993
7.032,-0.0304
7.036,-0.02869
7.04,-0.05424
7.044,-0.08358
7.048,-0.12702
7.052,-0.15691
7.056,-0.12876
7.06,-0.07685
7.064,0.0851
7.068,0.26068
7.072,0.48763
7.076,0.68504
7.08,0.87579
7.084,0.94039
7.088,0.94823
7.092,0.84076
7.096,0.62922
7.1,0.39757
7.104,0.18433
7.108,0.00025
7.112,-0.15454
7.116,-0.20414
7.12,-0.21291
7.124,-0.16099
7.128,-0.08917
7.132,-0.06997
7.136,-0.04972
7.14,-0.0164
7.144,-0.04132
7.148,-0.00453
7.152,-0.02739
7.156,-0.01402
7.16,-0.03283
7.164,-0.05023
7.168,-0.03239
7.172,-0.05865
7.176,-0.05858
7.18,-0.02088
7.184,-0.03537
7.188,-0.02164
7.192,-0.01205
7.196,-0.02049
7.2,-0.04382
7.204,-0.02602
7.208,-0.02326
7.212,-0.01936
7.216,-0.03735
7.22,-0.01928
7.224,-0.02701
7.228,-0.01396
7.232,-0.04059
7.236,-0.02193
7.24,-0.03847
7.244,-0.03558
7.248,-0.01398
7.252,-0.01563
7.256,-0.02902
7.26,-0.02218
7.264,-0.01369
7.268,0.00823
7.272,0.00797
7.276,-0.00486
7.28,-0.00165
7.284,0.01938
7.288,0.00329
7.292,0.02357
7.296,0.03195
7.3,0.03029
7.304,0.06595
7.308,0.06025
7.312,0.063
7.316,0.08827
7.32,0.10912
7.324,0.12993
7.328,0.13823
7.332,0.15614
7.336,0.16003
7.34,0.13984
7.344,0.1602
7.348,0.18198
7.352,0.20089
7.356,0.18322
7.36,0.17291
7.364,0.2123
7.368,0.19425
7.372,0.18479
7.376,0.18747
7.38,0.21202
7.384,0.16954
7.388,0.15983
7.392,0.15684
7.396,0.1465
7.4,0.12385
7.404,0.11146
7.408,0.10164
7.412,0.10864
7.416,0.08428
7.42,0.07957
7.424,0.04515
7.428,0.06318
7.432,0.08077
7.436,0.04912
7.44,0.04853
7.444,0.02257
7.448,0.0015
7.452,0.00586
7.456,0.00795
7.46,-0.01294
7.464,0.00895
7.468,-0.01678
7.472,-0.01068
7.476,0.01472
7.48,-0.0014
7.484,-0.03311
7.488,-0.02334
7.492,0.00019
7.496,-0.02896
7.5,-0.05076
7.504,-0.03393
7.508,-0.03054
7.512,-0.0187
7.516,-0.02422
7.52,-0.01813
7.524,-0.01336
7.528,-0.01352
7.532,0.01444
7.536,-0.02341
7.54,-0.02571
7.544,-0.02434
7.548,-0.0144
7.552,-0.03521
7.556,-0.02624
7.56,-0.01829
7.564,-0.03535
7.568,-0.02052
7.572,-0.01597
7.576,-0.02565
7.58,0.00794
7.584,-0.02653
7.588,-0.03593
7.592,-0.02749
7.596,-0.00748
7.6,-0.01578
7.604,-0.00909
7.608,-0.02913
7.612,-0.02696
7.616,0.00371
7.62,-0.00543
7.624,-0.04751
7.628,-0.00025
7.632,-0.03738
7.636,0.00143
7.64,-0.01097
7.644,0.01596
7.648,0.01446
7.652,0.03504
7.656,0.01949
7.66,0.04515
7.664,0.08839
7.668,0.07299
7.672,0.0636
7.676,0.09459
7.68,0.07327
7.684,0.08203
7.688,0.07836
7.692,0.05731
7.696,0.06464
7.7,0.03863
7.704,0.01622
7.708,-0.00175
7.712,-0.01367
7.716,0.0223
7.72,-0.01831
7.724,-0.00309
7.728,-0.02201
7.732,-0.02963
7.736,-0.0091
7.74,-0.0209
7.744,-0.02512
7.748,-0.02019
7.752,-0.00985
7.756,-0.05107
7.76,-0.02807
7.764,-0.01615
7.768,-0.01708
7.772,-0.02701
7.776,-0.0267
7.78,-0.00289
7.784,-0.02528
7.788,-0.00111
7.792,-0.0186
7.796,-0.05473
7.8,-0.11461
7.804,-0.128
7.808,-0.13423
7.812,-0.07931
7.816,0.01659
7.82,0.18174
7.824,0.40878
7.828,0.61807
7.832,0.8116
7.836,0.94562
7.84,0.97575
7.844,0.8943
7.848,0.73432
7.852,0.46007
7.856,0.25597
7.86,0.0836
7.864,-0.09591
7.868,-0.15714
7.872,-0.1737
7.876,-0.1564
7.88,-0.11217
7.884,-0.08858
7.888,-0.06303
7.892,-0.03363
7.896,-0.01413
7.9,-0.02442
7.904,-0.01369
7.908,-0.05213
7.912,-0.01781
7.916,0.00239
7.92,-0.04423
7.924,-0.00318
7.928,-0.03626
7.932,-0.00758
7.936,-0.00842
7.94,-0.00615
7.944,-0.03178
7.948,-0.00584
7.952,0.00832
7.956,-0.05017
7.96,-0.01568
7.964,-0.0115
7.968,-0.00481
7.972,-0.0429
7.976,-0.01164
7.98,0.0041
7.984,0.01106
7.988,-0.01231
7.992,-0.0109
7.996,-0.00095
8.0,0.01553
8.004,-0.00472
8.008,0.00027
8.012,0.02655
8.016,0.00493
8.02,0.00631
8.024,0.00341
8.028,0.03123
8.032,0.02424
8.036,0.02003
8.04,0.00547
8.044,0.0266
8.048,0.05414
8.052,0.04712
8.056,0.0794
8.06,0.07474
8.064,0.09715
8.068,0.10714
8.072,0.12428
8.076,0.11164
8.08,0.13394
8.084,0.15849
8.088,0.14974
8.092,0.17618
8.096,0.20303
8.1,0.19078
8.104,0.185
8.108,0.19792
8.112,0.18963
8.116,0.20021
8.12,0.21537
8.124,0.23599
8.128,0.19782
8.132,0.18719
8.136,0.21648
8.14,0.17703
8.144,0.1782
8.148,0.18485
8.152,0.16305
8.156,0.13839
8.16,0.1312
8.164,0.13806
8.168,0.13445
8.172,0.10723
8.176,0.09846
8.18,0.05245
8.184,0.08268
8.188,0.04452
8.192,0.04154
8.196,0.03754
8.2,0.00436
8.204,0.01193
8.208,0.00377
8.212,0.03969
8.216,0.00518
8.22,-0.00263
8.224,0.03348
8.228,-0.01121
8.232,-0.01883
8.236,-0.01223
8.24,-0.01505
8.244,0.02168
8.248,0.0175
8.252,-0.00459
8.256,0.00212
8.26,0.00146
8.264,-0.0042
8.268,-0.02658
8.272,-0.02159
8.276,0.00034
8.28,-0.02306
8.284,0.01666
8.288,-0.01439
8.292,-0.01986
8.296,-0.01329
8.3,0.01249
8.304,-0.01295
8.308,-0.01944
8.312,-0.00896
8.316,0.01247
8.32,-0.01306
8.324,-0.00185
8.328,-0.01628
8.332,-0.00296
8.336,0.00567
8.34,0.00604
8.344,-0.05064
8.348,0.00809
8.352,0.01831
8.356,-0.00664
8.36,0.0352
8.364,0.01519
8.368,-0.01172
8.372,-0.026
8.376,0.01954
8.38,0.00559
8.384,-0.00433
8.388,-0.01414
8.392,0.00835
8.396,-0.0051
8.4,-0.00674
8.404,-0.0032
8.408,-0.00465
8.412,-0.03037
8.416,0.00197
8.42,0.01414
8.424,-0.0065
8.428,0.00988
8.432,0.00354
8.436,0.00653
8.44,0.02346
8.444,0.04988
8.448,-0.00501
8.452,0.04891
8.456,0.06763
8.46,0.05104
8.464,0.05787
8.468,0.10069
8.472,0.08543
8.476,0.09812
8.48,0.1141
8.484,0.08153
8.488,0.07074
8.492,0.08338
8.496,0.06736
8.5,0.04911
8.504,0.02621
8.508,0.0518
8.512,0.01608
8.516,0.01291
8.52,0.03053
8.524,-0.01557
8.528,0.01219
8.532,0.02217
8.536,-0.00875
8.54,0.00018
8.544,0.00292
8.548,0.02803
8.552,-0.00178
8.556,0.01737
8.56,0.01362
8.564,0.03018
8.568,-0.00023
8.572,0.01639
8.576,0.01539
8.58,-0.00826
8.584,-0.00817
8.588,-0.01644
8.592,-0.00137
8.596,-0.04931
8.6,-0.07365
8.604,-0.1432
8.608,-0.05621
8.612,0.03112
8.616,0.1804
8.62,0.3689
8.624,0.57722
8.628,0.78216
8.632,0.93985
8.636,0.99122
8.64,0.95343
8.644,0.82053
8.648,0.63364
8.652,0.35557
8.656,0.14822
8.66,-0.00948
8.664,-0.12237
8.668,-0.18014
8.672,-0.16253
8.676,-0.13198
8.68,-0.06535
8.684,-0.03012
8.688,-0.00719
8.692,0.02492
8.696,-0.01327
8.7,0.02141
8.704,0.02231
8.708,0.01542
8.712,0.0109
8.716,-0.01974
8.72,0.0327
8.724,0.00521
8.728,0.0048
8.732,0.03816
8.736,-0.00219
8.74,0.01941
8.744,0.00767
8.748,0.01441
8.752,0.01862
8.756,0.0078
8.76,0.0124
8.764,0.01469
8.768,0.02242
8.772,0.00775
8.776,0.03421
8.78,0.01233
8.784,0.00025
8.788,-0.01632
8.792,0.01081
8.796,0.01829
8.8,-0.00282
8.804,0.05478
8.808,-0.00553
8.812,0.04008
8.816,0.01117
8.82,0.01365
8.824,0.03117
8.828,0.04951
8.832,0.04055
8.836,0.03923
8.84,0.08892
8.844,0.07299
8.848,0.08724
8.852,0.09448
8.856,0.10179
8.86,0.12217
8.864,0.12891
8.868,0.15904
8.872,0.16855
8.876,0.15066
8.88,0.15911
8.884,0.18743
8.888,0.1947
8.892,0.21405
8.896,0.19737
8.9,0.21142
8.904,0.23075
8.908,0.23257
8.912,0.25161
8.916,0.23334
8.92,0.24564
8.924,0.22958
8.928,0.23177
8.932,0.198
8.936,0.22338
8.94,0.20703
8.944,0.20212
8.948,0.18639
8.952,0.17141
8.956,0.1672
8.96,0.14547
8.964,0.13549
8.968,0.13929
8.972,0.11746
8.976,0.09934
8.98,0.10202
8.984,0.0747
8.988,0.07594
8.992,0.05886
8.996,0.05648
9.0,0.03848
9.004,0.04718
9.008,0.04095
9.012,0.03955
9.016,0.04452
9.02,0.04605
9.024,0.02141
9.028,-0.00205
9.032,0.00653
9.036,0.01953
9.04,0.03326
9.044,0.02687
9.048,0.02232
9.052,0.00624
9.056,0.00253
9.06,0.03345
9.064,0.00794
9.068,0.01846
9.072,0.05006
9.076,0.02156
9.08,-0.01337
9.084,0.0024
9.088,0.05201
9.092,0.03902
9.096,-0.00699
9.1,0.02319
9.104,0.04322
9.108,0.03237
9.112,0.02095
9.116,0.03725
9.12,0.00169
9.124,0.00495
9.128,0.01958
9.132,0.01598
9.136,-0.00381
9.14,-0.00628
9.144,0.01322
9.148,0.03115
9.152,0.03819
9.156,0.00799
9.16,0.02209
9.164,0.02891
9.168,-0.02043
9.172,0.01681
9.176,0.00263
9.18,0.00861
9.184,0.01982
9.188,-0.0038
9.192,0.02415
9.196,0.01256
9.2,0.02398
9.204,0.04538
9.208,0.01756
9.212,0.01925
9.216,0.03488
9.22,0.0273
9.224,0.04642
9.228,0.02163
9.232,0.01872
9.236,0.04476
9.24,0.03465
9.244,0.03285
9.248,-0.00428
9.252,0.01638
9.256,0.02126
9.26,0.03166
9.264,0.02002
9.268,0.02483
9.272,-0.0157
9.276,-0.00105
9.28,0.03237
9.284,-0.00014
9.288,0.0222
9.292,-0.01544
9.296,0.0128
9.3,0.0431
9.304,-0.00139
9.308,0.01837
9.312,0.01472
9.316,0.01018
9.32,0.02441
9.324,0.02114
9.328,0.01435
9.332,0.03569
9.336,0.03781
9.34,0.03724
9.344,0.02416
9.348,0.03756
9.352,0.08577
9.356,0.07339
9.36,0.08228
9.364,0.09543
9.368,0.10532
9.372,0.12848
9.376,0.11355
9.38,0.12397
9.384,0.1105
9.388,0.1205
9.392,0.11889
9.396,0.08137
9.4,0.08309
9.404,0.05541
9.408,0.06513
9.412,0.04896
9.416,0.03087
9.42,0.05358
9.424,0.01604
9.428,0.04726
9.432,0.00504
9.436,0.02751
9.44,0.03133
9.444,0.02218
9.448,0.02043
9.452,0.00084
9.456,0.03687
9.46,0.04135
9.464,0.02026
9.468,0.02093
9.472,0.02749
9.476,0.00479
9.48,0.00924
9.484,0.01283
9.488,0.02332
9.492,0.0338
9.496,0.02869
9.5,-0.03778
9.504,-0.04308
9.508,-0.11633
9.512,-0.05845
9.516,0.01797
9.52,0.18561
9.524,0.36066
9.528,0.58194
9.532,0.75198
9.536,0.95708
9.54,1.03216
9.544,0.98113
9.548,0.86703
9.552,0.64984
9.556,0.41035
9.56,0.19201
9.564,0.042
9.568,-0.07465
9.572,-0.13939
9.576,-0.12825
9.58,-0.13177
9.584,-0.05614
9.588,-0.02668
9.592,0.02233
9.596,0.03969
9.6,0.01508
9.604,0.01779
9.608,-0.00101
9.612,0.02055
9.616,0.04348
9.62,0.01163
9.624,0.00538
9.628,0.02736
9.632,0.01653
9.636,0.04135
9.64,0.02277
9.644,0.04746
9.648,0.02146
9.652,0.03246
9.656,0.01272
9.66,0.01843
9.664,0.02776
9.668,0.02946
9.672,0.04834
9.676,0.01054
9.68,0.02172
9.684,0.04713
9.688,0.02979
9.692,0.03763
9.696,0.0028
9.7,0.02378
9.704,0.03505
9.708,0.01996
9.712,0.04735
9.716,0.05134
9.72,0.03483
9.724,0.04256
9.728,0.05863
9.732,0.0763
9.736,0.05671
9.74,0.06541
9.744,0.05332
9.748,0.08515
9.752,0.11008
9.756,0.11548
9.76,0.08986
9.764,0.15505
9.768,0.12786
9.772,0.16041
9.776,0.17022
9.78,0.16013
9.784,0.18565
9.788,0.18283
9.792,0.20141
9.796,0.21636
9.8,0.24921
9.804,0.25635
9.808,0.24807
9.812,0.23562
9.816,0.23684
9.82,0.24472
9.824,0.25699
9.828,0.2345
9.832,0.2469
9.836,0.22213
9.84,0.24594
9.844,0.23363
9.848,0.19337
9.852,0.18337
9.856,0.18642
9.86,0.17741
9.864,0.13483
9.868,0.13574
9.872,0.12597
9.876,0.11255
9.88,0.12924
9.884,0.13888
9.888,0.12629
9.892,0.11005
9.896,0.10316
9.9,0.09427
9.904,0.06736
9.908,0.08161
9.912,0.0422
9.916,0.05861
9.92,0.06329
9.924,0.0638
9.928,0.07209
9.932,0.07625
9.936,0.07381
9.94,0.04017
9.944,0.05802
9.948,0.06842
9.952,0.04728
9.956,0.04286
9.96,0.03058
9.964,0.01841
9.968,0.03268
9.972,0.03416
9.976,0.03829
9.98,0.02838
9.984,0.03843
9.988,0.04511
9.992,0.02905
9.996,0.05726
