t_seg,ecg_mV
0.0,-0.01953
0.004,-0.07499
0.008,-0.00396
0.012,0.01305
0.016,-0.01823
0.02,0.02496
0.024,0.05472
0.028,-0.04158
0.032,-0.05579
0.036,0.01259
0.04,0.00516
0.044,-0.02653
0.048,-0.01554
0.052,0.03673
0.056,0.02663
0.06,0.04328
0.064,-0.04422
0.068,-0.01698
0.072,-0.00164
0.076,0.01512
0.08,0.0186
0.084,-0.00468
0.088,0.00383
0.092,-0.01645
0.096,0.01234
0.1,0.02154
0.104,0.01815
0.108,-0.00692
0.112,0.01953
0.116,-0.01808
0.12,0.00538
0.124,0.03261
0.128,0.04189
0.132,-0.03582
0.136,0.00364
0.14,-0.00655
0.144,-0.031
0.148,0.03128
0.152,-0.03324
0.156,-0.01916
0.16,-0.09159
0.164,0.02299
0.168,-0.00492
0.172,-0.04056
0.176,0.03539
0.18,-0.00226
0.184,0.01444
0.188,0.05139
0.192,-0.04009
0.196,-0.00924
0.2,0.04257
0.204,-0.00373
0.208,0.0067
0.212,0.02793
0.216,0.05982
0.22,-0.01869
0.224,0.01091
0.228,-0.00434
0.232,0.05164
0.236,0.03994
0.24,0.04892
0.244,0.01275
0.248,0.09147
0.252,0.06405
0.256,0.0712
0.26,0.14637
0.264,0.09109
0.268,0.11244
0.272,0.10313
0.276,0.08126
0.28,0.12723
0.284,0.08984
0.288,0.08589
0.292,0.08183
0.296,0.05625
0.3,0.04645
0.304,-0.01136
0.308,-0.00085
0.312,0.01815
0.316,0.04297
0.32,0.0716
0.324,-0.01845
0.328,0.03337
0.332,0.05182
0.336,0.01267
0.34,-0.02257
0.344,-0.02221
0.348,-0.01458
0.352,-0.0213
0.356,0.03895
0.36,-0.00165
0.364,-0.00069
0.368,-0.04678
0.372,-0.03887
0.376,0.0345
0.38,0.0108
0.384,0.01499
0.388,-0.04085
0.392,-0.04411
0.396,-0.06136
0.4,-0.0834
0.404,-0.14892
0.408,-0.0054
0.412,0.12153
0.416,0.33734
0.42,0.58395
0.424,0.80057
0.428,0.94096
0.432,0.99991
0.436,1.02419
0.44,0.88564
0.444,0.62172
0.448,0.42446
0.452,0.22898
0.456,0.017
0.46,-0.09156
0.464,-0.1564
0.468,-0.18745
0.472,-0.10919
0.476,-0.03935
0.48,-0.00194
0.484,0.01479
0.488,0.03668
0.492,-0.08141
0.496,0.05816
0.5,0.09089
0.504,0.01277
0.508,0.03772
0.512,0.01766
0.516,0.01122
0.52,0.05685
0.524,0.04908
0.528,0.02378
0.532,0.02611
0.536,-0.01681
0.54,0.01288
0.544,0.03835
0.548,0.06806
0.552,-0.02635
0.556,0.02115
0.56,0.02749
0.564,0.11057
0.568,0.029
0.572,-0.00199
0.576,-0.01469
0.58,0.0356
0.584,-0.0031
0.588,0.08734
0.592,0.02393
0.596,-0.01306
0.6,0.04736
0.604,-0.0176
0.608,0.02574
0.612,0.04785
0.616,0.04249
0.62,0.0206
0.624,0.04662
0.628,0.04969
0.632,0.07807
0.636,0.00159
0.64,0.01646
0.644,0.10223
0.648,0.08953
0.652,0.1504
0.656,0.14736
0.66,0.12586
0.664,0.1437
0.668,0.18883
0.672,0.17528
0.676,0.10628
0.68,0.20702
0.684,0.15569
0.688,0.23473
0.692,0.18035
0.696,0.18468
0.7,0.18434
0.704,0.20978
0.708,0.26291
0.712,0.17398
0.716,0.31862
0.72,0.26754
0.724,0.21217
0.728,0.19071
0.732,0.19586
0.736,0.21692
0.74,0.21398
0.744,0.16152
0.748,0.14603
0.752,0.15412
0.756,0.23625
0.76,0.13508
0.764,0.09534
0.768,0.10083
0.772,0.08136
0.776,0.14619
0.78,0.04408
0.784,0.11284
0.788,0.0146
0.792,0.04936
0.796,0.07297
0.8,0.07782
0.804,0.03376
0.808,0.0081
0.812,0.04828
0.816,-0.04284
0.82,-0.01796
0.824,0.05067
0.828,0.06715
0.832,-0.00745
0.836,0.04454
0.84,0.00523
0.844,0.03334
0.848,0.00948
0.852,0.14746
0.856,0.04248
0.86,-0.01289
0.864,0.04883
0.868,0.01893
0.872,0.04889
0.876,0.03961
0.88,0.00285
0.884,-0.0058
0.888,0.02593
0.892,0.06625
0.896,0.01212
0.9,0.049
0.904,0.04225
0.908,-0.01064
0.912,0.03939
0.916,0.01226
0.92,0.11803
0.924,0.01324
0.928,0.11528
0.932,0.03347
0.936,-0.0362
0.94,-0.02466
0.944,0.01885
0.948,0.02388
0.952,-0.00121
0.956,0.06224
0.96,0.05576
0.964,0.08815
0.968,0.07664
0.972,0.0249
0.976,-0.00333
0.98,0.04919
0.984,0.01847
0.988,0.03322
0.992,0.03808
0.996,0.04415
1.0,0.06098
1.004,0.00248
1.008,0.06383
1.012,0.06386
1.016,0.04749
1.02,-0.02376
1.024,0.03083
1.028,0.01844
1.032,0.0019
1.036,0.05926
1.04,0.05926
1.044,0.04759
1.048,0.04051
1.052,0.07911
1.056,0.00589
1.06,-0.02188
1.064,0.10366
1.068,-0.00833
1.072,0.01273
1.076,0.02477
1.08,0.02897
1.084,0.05428
1.088,-0.01442
1.092,-0.0053
1.096,0.05161
1.1,-0.00528
1.104,0.06042
1.108,0.05502
1.112,-0.00423
1.116,0.0188
1.12,0.01916
1.124,0.06271
1.128,0.00969
1.132,0.00932
1.136,0.04072
1.14,0.01592
1.144,-0.00406
1.148,-0.0325
1.152,0.06722
1.156,0.02861
1.16,0.04698
1.164,0.06494
1.168,-0.01575
1.172,0.04786
1.176,0.05455
1.18,-0.00428
1.184,0.07424
1.188,0.05736
1.192,0.06424
1.196,0.05364
1.2,0.00132
1.204,0.03028
1.208,0.04108
1.212,0.04252
1.216,0.13288
1.22,0.06715
1.224,0.06719
1.228,0.15641
1.232,0.13592
1.236,0.1013
1.24,0.1376
1.244,0.17067
1.248,0.14259
1.252,0.07706
1.256,0.05653
1.26,0.03991
1.264,0.06094
1.268,0.0638
1.272,0.03852
1.276,0.05507
1.28,0.05228
1.284,0.00444
1.288,0.06616
1.292,0.01984
1.296,0.03316
1.3,0.02771
1.304,0.04391
1.308,0.02411
1.312,-0.00814
1.316,0.02047
1.32,0.05733
1.324,-0.00531
1.328,0.01937
1.332,0.03474
1.336,-0.00924
1.34,-0.00327
1.344,0.0154
1.348,-0.00734
1.352,0.01247
1.356,-0.05701
1.36,-0.08026
1.364,-0.07168
1.368,-0.03549
1.372,-0.04624
1.376,0.09656
1.38,0.17259
1.384,0.35162
1.388,0.35602
1.392,0.47208
1.396,0.44639
1.4,0.43239
1.404,0.33947
1.408,0.25367
1.412,0.09414
1.416,0.011
1.42,-0.12161
1.424,-0.17051
1.428,-0.123
1.432,-0.14922
1.436,-0.04392
1.44,-0.00046
1.444,-0.13312
1.448,0.02119
1.452,0.04589
1.456,0.0651
1.46,-0.06722
1.464,0.03202
1.468,-0.00966
1.472,0.07368
1.476,0.01152
1.48,-0.00626
1.484,0.05004
1.488,0.06423
1.492,0.06726
1.496,0.00292
1.5,0.0571
1.504,0.05635
1.508,0.0418
1.512,-0.00657
1.516,0.07168
1.52,0.00547
1.524,0.03993
1.528,0.02449
1.532,0.13709
1.536,0.00462
1.54,0.07456
1.544,0.10772
1.548,0.18359
1.552,0.11406
1.556,0.11975
1.56,0.09623
1.564,0.11071
1.568,0.12414
1.572,0.03382
1.576,0.1876
1.58,0.11415
1.584,0.12781
1.588,0.11456
1.592,0.06276
1.596,0.12153
1.6,0.15647
1.604,0.11815
1.608,0.16389
1.612,0.07741
1.616,0.09263
1.62,0.10566
1.624,0.14688
1.628,0.19517
1.632,0.15089
1.636,0.20341
1.64,0.19941
1.644,0.18296
1.648,0.22631
1.652,0.1898
1.656,0.1959
1.66,0.24692
1.664,0.28654
1.668,0.26598
1.672,0.26349
1.676,0.23529
1.68,0.24876
1.684,0.14763
1.688,0.12267
1.692,0.13717
1.696,0.10418
1.7,0.25449
1.704,0.4796
1.708,0.56827
1.712,0.84316
1.716,0.9978
1.72,1.18103
1.724,1.23327
1.728,1.10328
1.732,0.84336
1.736,0.68172
1.74,0.42551
1.744,0.16324
1.748,-0.00767
1.752,-0.03418
1.756,-0.0931
1.76,-0.11336
1.764,-0.02461
1.768,0.00441
1.772,0.04143
1.776,0.0109
1.78,-0.02281
1.784,-0.01624
1.788,0.01245
1.792,0.04189
1.796,0.01114
1.8,-0.00243
1.804,-0.0217
1.808,0.05274
1.812,0.06251
1.816,0.02827
1.82,0.02887
1.824,0.00181
1.828,0.04284
1.832,0.04276
1.836,-0.05639
1.84,0.04189
1.844,0.02478
1.848,0.09718
1.852,0.0399
1.856,0.05766
1.86,0.04271
1.864,0.04897
1.868,-0.04666
1.872,0.08222
1.876,0.01625
1.88,0.07661
1.884,0.07283
1.888,0.04897
1.892,0.01546
1.896,-0.01563
1.9,0.01748
1.904,0.02811
1.908,0.03945
1.912,0.06358
1.916,0.07344
1.92,0.08625
1.924,0.09321
1.928,0.12622
1.932,0.0234
1.936,0.1193
1.94,0.1626
1.944,0.1172
1.948,0.19112
1.952,0.10808
1.956,0.09352
1.96,0.19151
1.964,0.19701
1.968,0.21676
1.972,0.25701
1.976,0.14895
1.98,0.25073
1.984,0.2658
1.988,0.17482
1.992,0.30599
1.996,0.24873
2.0,0.23871
2.004,0.28528
2.008,0.22518
2.012,0.25265
2.016,0.16911
2.02,0.23635
2.024,0.18618
2.028,0.21795
2.032,0.20845
2.036,0.15687
2.04,0.17818
2.044,0.16526
2.048,0.15435
2.052,0.17196
2.056,0.12034
2.06,0.18131
2.064,0.10805
2.068,0.1025
2.072,0.07812
2.076,0.06758
2.08,0.03669
2.084,0.0959
2.088,0.09981
2.092,0.07832
2.096,0.04382
2.1,0.06797
2.104,0.03564
2.108,-0.01864
2.112,0.02814
2.116,0.08479
2.12,0.08528
2.124,0.02949
2.128,0.02988
2.132,0.02502
2.136,0.03802
2.14,0.05064
2.144,0.08885
2.148,-0.05954
2.152,0.0385
2.156,-0.00598
2.16,0.08508
2.164,0.03458
2.168,0.00946
2.172,0.05824
2.176,0.02947
2.18,0.04768
2.184,0.0259
2.188,0.03926
2.192,0.00252
2.196,0.06801
2.2,0.09018
2.204,0.01507
2.208,-0.06115
2.212,0.03038
2.216,0.01628
2.22,0.06799
2.224,0.05205
2.228,0.0376
2.232,0.02601
2.236,0.02293
2.24,0.01656
2.244,-0.02606
2.248,0.06267
2.252,0.02058
2.256,0.0655
2.26,0.03165
2.264,-0.05143
2.268,-0.02488
2.272,-0.08045
2.276,-0.00751
2.28,0.03536
2.284,0.03414
2.288,0.02284
2.292,0.02813
2.296,-0.01029
2.3,0.08534
2.304,-0.0349
2.308,0.04307
2.312,0.0303
2.316,0.07761
2.32,0.03357
2.324,0.03853
2.328,0.04303
2.332,0.09994
2.336,0.05742
2.34,0.03811
2.344,0.08852
2.348,0.04867
2.352,0.05898
2.356,0.02381
2.36,0.05025
2.364,0.04425
2.368,0.03587
2.372,0.03086
2.376,0.04768
2.38,-0.03174
2.384,0.07386
2.388,0.02306
2.392,0.0722
2.396,-0.0053
2.4,0.12354
2.404,0.13366
2.408,0.13081
2.412,0.12442
2.416,0.1216
2.42,0.15877
2.424,0.04775
2.428,0.10756
2.432,0.12948
2.436,0.1095
2.44,0.09161
2.444,0.06323
2.448,0.01932
2.452,0.01225
2.456,0.05912
2.46,0.02997
2.464,0.01556
2.468,0.02377
2.472,-0.04077
2.476,-0.04935
2.48,-0.02028
2.484,0.02942
2.488,-0.01269
2.492,0.0574
2.496,0.02472
2.5,0.04608
2.504,0.02198
2.508,0.03086
2.512,4e-05
2.516,0.11246
2.52,0.00491
2.524,0.00732
2.528,0.00521
2.532,-0.10658
2.536,-0.00731
2.54,-0.07271
2.544,-0.09391
2.548,-0.00782
2.552,0.08022
2.556,0.35794
2.56,0.51535
2.564,0.75488
2.568,0.90569
2.572,0.98166
2.576,1.10831
2.58,0.89363
2.584,0.6785
2.588,0.50775
2.592,0.29331
2.596,0.07642
2.6,-0.09032
2.604,-0.16251
2.608,-0.12417
2.612,-0.06231
2.616,-0.00193
2.62,-0.09658
2.624,-0.00575
2.628,-0.10037
2.632,0.08292
2.636,0.07612
2.64,-0.02242
2.644,0.04036
2.648,0.00314
2.652,0.01511
2.656,-0.0187
2.66,0.05428
2.664,0.00422
2.668,0.00189
2.672,0.0635
2.676,0.04365
2.68,0.01355
2.684,0.00499
2.688,-0.01139
2.692,0.10242
2.696,0.0295
2.7,0.01606
2.704,0.00822
2.708,0.00336
2.712,-0.01814
2.716,0.0111
2.72,-0.03887
2.724,0.03407
2.728,-0.02783
2.732,0.07207
2.736,-0.03191
2.74,0.00652
2.744,0.03477
2.748,-0.05366
2.752,-0.06209
2.756,0.02372
2.76,-0.0108
2.764,0.05941
2.768,0.04867
2.772,0.02734
2.776,0.09953
2.78,0.05517
2.784,0.06958
2.788,0.04986
2.792,0.09916
2.796,0.14239
2.8,0.01
2.804,0.18605
2.808,0.12115
2.812,0.19545
2.816,0.17884
2.82,0.15966
2.824,0.2607
2.828,0.17525
2.832,0.22055
2.836,0.20209
2.84,0.16356
2.844,0.25342
2.848,0.22778
2.852,0.22745
2.856,0.23171
2.86,0.20193
2.864,0.24915
2.868,0.19226
2.872,0.21905
2.876,0.1729
2.88,0.19965
2.884,0.17748
2.888,0.16095
2.892,0.1594
2.896,0.11408
2.9,0.17437
2.904,0.05373
2.908,0.1615
2.912,0.06813
2.916,0.04072
2.92,0.09093
2.924,0.0506
2.928,0.09931
2.932,0.02282
2.936,0.05784
2.94,0.04818
2.944,0.04299
2.948,0.07143
2.952,0.01282
2.956,-0.02969
2.96,0.03069
2.964,-0.02988
2.968,-0.00528
2.972,-0.01143
2.976,-0.04992
2.98,0.02666
2.984,-0.04039
2.988,0.01854
2.992,0.03575
2.996,-0.01983
3.0,0.02444
3.004,0.0212
3.008,-0.03413
3.012,-0.02834
3.016,-0.07407
3.02,-0.02859
3.024,-0.00721
3.028,0.02822
3.032,-0.01357
3.036,-0.01282
3.04,0.05674
3.044,0.019
3.048,-0.01145
3.052,0.04374
3.056,0.00062
3.06,0.01438
3.064,0.03194
3.068,0.02493
3.072,-0.06886
3.076,0.03429
3.08,0.01212
3.084,0.00941
3.088,0.0033
3.092,-0.06287
3.096,-0.01265
3.1,-0.00806
3.104,-0.08105
3.108,-0.01667
3.112,0.02115
3.116,-0.02525
3.12,0.01623
3.124,0.01435
3.128,0.0482
3.132,-0.00156
3.136,0.00627
3.14,-0.03064
3.144,0.02624
3.148,0.03675
3.152,0.04166
3.156,0.04737
3.16,-0.00453
3.164,-0.00135
3.168,-0.02556
3.172,-0.01272
3.176,-0.06799
3.18,-0.01728
3.184,0.00525
3.188,-0.05941
3.192,-0.03529
3.196,-0.02303
3.2,-0.0397
3.204,-0.02935
3.208,0.00721
3.212,-0.05406
3.216,-0.02229
3.22,0.04894
3.224,0.03956
3.228,-0.01583
3.232,-0.0004
3.236,-0.04835
3.24,0.05269
3.244,0.00416
3.248,0.06186
3.252,0.04622
3.256,-0.05568
3.26,-0.03059
3.264,-0.00816
3.268,-0.03639
3.272,-0.03125
3.276,-0.0202
3.28,-0.0405
3.284,-0.01741
3.288,0.01131
3.292,-0.00602
3.296,-0.0316
3.3,0.02259
3.304,-0.00282
3.308,-0.00049
3.312,-0.00296
3.316,-0.0444
3.32,0.02596
3.324,0.03257
3.328,-0.05133
3.332,-0.0378
3.336,-0.00232
3.34,0.01247
3.344,-0.03386
3.348,-0.03614
3.352,-0.03181
3.356,-0.0146
3.36,-0.01855
3.364,-0.01267
3.368,0.02956
3.372,-0.06015
3.376,-0.01721
3.38,0.0412
3.384,-0.0288
3.388,-0.04555
3.392,-0.01581
3.396,-0.04294
3.4,0.01474
3.404,0.03158
3.408,0.06909
3.412,-0.04677
3.416,-0.04458
3.42,0.02319
3.424,0.0211
3.428,-0.05062
3.432,-0.04239
3.436,0.03136
3.44,0.06121
3.444,0.03255
3.448,0.07889
3.452,0.06507
3.456,0.0565
3.46,0.11649
3.464,0.11683
3.468,0.08823
3.472,0.13412
3.476,0.10563
3.48,0.08171
3.484,0.10517
3.488,0.06145
3.492,0.05489
3.496,0.05382
3.5,0.01474
3.504,-0.02082
3.508,0.02883
3.512,-0.05243
3.516,-0.05583
3.52,0.07173
3.524,-0.00248
3.528,-0.00576
3.532,-0.06291
3.536,0.0292
3.54,-0.04497
3.544,-0.046
3.548,-0.05412
3.552,-0.00223
3.556,-0.00798
3.56,-0.00226
3.564,-0.01508
3.568,0.01578
3.572,-0.05072
3.576,0.05403
3.58,-0.00277
3.584,0.0386
3.588,-0.06654
3.592,-0.01602
3.596,-0.09865
3.6,-0.07514
3.604,-0.07882
3.608,-0.03742
3.612,0.12407
3.616,0.33774
3.62,0.5544
3.624,0.67241
3.628,0.89799
3.632,0.98006
3.636,0.90799
3.64,0.82256
3.644,0.63809
3.648,0.37569
3.652,0.23957
3.656,0.0528
3.66,-0.13142
3.664,-0.20409
3.668,-0.16368
3.672,-0.13949
3.676,-0.08303
3.68,-0.08671
3.684,-0.00879
3.688,-0.0891
3.692,-0.0745
3.696,-0.01131
3.7,-0.04772
3.704,0.00501
3.708,-0.05991
3.712,0.00178
3.716,0.04053
3.72,0.04236
3.724,-0.01828
3.728,-0.01968
3.732,0.02762
3.736,0.01331
3.74,-0.00437
3.744,-0.07799
3.748,-0.01573
3.752,-0.00194
3.756,-0.06518
3.76,0.03203
3.764,0.02642
3.768,0.0051
3.772,-0.05457
3.776,-0.00755
3.78,0.03996
3.784,0.00729
3.788,-0.03237
3.792,0.02512
3.796,0.01462
3.8,0.01438
3.804,-0.02123
3.808,0.00913
3.812,0.08357
3.816,0.02194
3.82,0.04327
3.824,0.06455
3.828,0.02346
3.832,0.07025
3.836,0.0369
3.84,-0.00713
3.844,-0.01834
3.848,0.0763
3.852,0.06733
3.856,0.10438
3.86,0.05515
3.864,0.05639
3.868,0.14696
3.872,0.04731
3.876,0.10342
3.88,0.18692
3.884,0.16725
3.888,0.13305
3.892,0.19639
3.896,0.17616
3.9,0.21928
3.904,0.24628
3.908,0.25812
3.912,0.20058
3.916,0.23005
3.92,0.19077
3.924,0.15667
3.928,0.23355
3.932,0.16476
3.936,0.19341
3.94,0.20218
3.944,0.14592
3.948,0.16649
3.952,0.0994
3.956,0.20284
3.96,0.11761
3.964,0.12271
3.968,0.13144
3.972,0.03219
3.976,0.03082
3.98,0.04174
3.984,0.01246
3.988,0.02408
3.992,0.06057
3.996,0.02564
4.0,0.01711
4.004,0.04898
4.008,-0.00571
4.012,0.02842
4.016,-0.04008
4.02,-0.05716
4.024,0.00179
4.028,-0.04196
4.032,-0.00685
4.036,-0.00821
4.04,-0.03724
4.044,0.0134
4.048,-0.04451
4.052,0.04124
4.056,-0.02018
4.06,0.00498
4.064,0.01193
4.068,0.09169
4.072,0.06545
4.076,0.03897
4.08,-0.02648
4.084,0.02823
4.088,0.06023
4.092,0.03818
4.096,0.08293
4.1,0.05164
4.104,0.07809
4.108,0.11693
4.112,0.08163
4.116,0.09503
4.12,0.00736
4.124,0.01338
4.128,0.1028
4.132,-0.00037
4.136,0.05545
4.14,-0.00509
4.144,-0.01423
4.148,0.01471
4.152,-0.04527
4.156,-0.00555
4.16,-0.06791
4.164,0.02955
4.168,0.01008
4.172,0.01137
4.176,0.02414
4.18,0.05395
4.184,0.00584
4.188,-0.01415
4.192,0.00235
4.196,-0.04982
4.2,-0.01367
4.204,-0.02358
4.208,0.01981
4.212,-0.09585
4.216,-0.08221
4.22,-0.0484
4.224,-0.06927
4.228,-0.0754
4.232,-0.14073
4.236,-0.11858
4.24,0.04643
4.244,0.18036
4.248,0.35792
4.252,0.5493
4.256,0.79278
4.26,0.91899
4.264,1.00268
4.268,0.8867
4.272,0.66647
4.276,0.57612
4.28,0.30449
4.284,0.10789
4.288,0.00691
4.292,-0.22254
4.296,-0.14552
4.3,-0.20048
4.304,-0.16157
4.308,-0.02695
4.312,-0.02086
4.316,-0.0157
4.32,-0.04875
4.324,-0.05496
4.328,-0.05342
4.332,-0.08074
4.336,-0.03982
4.34,-0.01583
4.344,-0.00644
4.348,-0.01507
4.352,0.0007
4.356,-0.07623
4.36,0.01613
4.364,-0.05408
4.368,-0.0074
4.372,-0.02907
4.376,-0.02111
4.38,-0.00214
4.384,-0.09736
4.388,-0.08122
4.392,-0.00232
4.396,-0.03563
4.4,0.03105
4.404,-0.03079
4.408,-0.07098
4.412,-0.05614
4.416,0.039
4.42,-0.04152
4.424,-0.03103
4.428,-0.05026
4.432,-0.03658
4.436,0.01657
4.44,0.03574
4.444,-0.00318
4.448,0.00194
4.452,0.0205
4.456,-0.04895
4.46,0.00553
4.464,-0.00836
4.468,0.08572
4.472,-0.01304
4.476,0.01517
4.48,0.05081
4.484,0.13513
4.488,0.03872
4.492,0.10911
4.496,0.06207
4.5,0.09389
4.504,0.10384
4.508,0.13062
4.512,0.12049
4.516,0.16407
4.52,0.18552
4.524,0.17064
4.528,0.13782
4.532,0.21994
4.536,0.18889
4.54,0.20711
4.544,0.19971
4.548,0.21085
4.552,0.14927
4.556,0.16241
4.56,0.22423
4.564,0.15411
4.568,0.14066
4.572,0.1618
4.576,0.15615
4.58,0.16056
4.584,0.19075
4.588,0.18601
4.592,0.19242
4.596,0.12912
4.6,0.1478
4.604,0.18575
4.608,0.13062
4.612,0.19145
4.616,0.09153
4.62,0.03782
4.624,0.14157
4.628,0.03082
4.632,0.03356
4.636,0.03148
4.64,-0.04004
4.644,-0.00961
4.648,-0.05515
4.652,-0.05211
4.656,0.03638
4.66,-0.04332
4.664,-0.01285
4.668,-0.05931
4.672,-0.02897
4.676,-0.00459
4.68,0.00546
4.684,-0.0354
4.688,0.0313
4.692,-0.03724
4.696,-0.02059
4.7,-0.06884
4.704,-0.07728
4.708,-0.02204
4.712,-0.04636
4.716,-0.04461
4.72,-0.0924
4.724,-0.14549
4.728,-0.20217
4.732,-0.118
4.736,-0.06362
4.74,0.09779
4.744,0.27346
4.748,0.55816
4.752,0.72889
4.756,0.92229
4.76,0.93889
4.764,0.92233
4.768,0.85001
4.772,0.51147
4.776,0.42024
4.78,0.09896
4.784,-0.0287
4.788,-0.16311
4.792,-0.16697
4.796,-0.19997
4.8,-0.18921
4.804,-0.11299
4.808,-0.01948
4.812,0.03377
4.816,-0.0139
4.82,-0.05829
4.824,-0.00057
4.828,0.00441
4.832,-0.08036
4.836,-0.02652
4.84,-0.09975
4.844,0.00408
4.848,-0.07345
4.852,-0.03905
4.856,-0.06423
4.86,0.02233
4.864,-0.00693
4.868,-0.01807
4.872,0.00955
4.876,-0.05316
4.88,-0.02104
4.884,-0.05732
4.888,-0.04931
4.892,-0.07494
4.896,-0.0234
4.9,-0.06155
4.904,0.00796
4.908,-0.05436
4.912,-0.08077
4.916,0.01317
4.92,-0.01519
4.924,-0.02009
4.928,0.00991
4.932,-0.03206
4.936,0.03656
4.94,-0.019
4.944,-0.01625
4.948,0.04545
4.952,0.03713
4.956,-0.02173
4.96,-0.06706
4.964,-0.01185
4.968,-0.02614
4.972,0.00776
4.976,0.04904
4.98,0.07032
4.984,0.08367
4.988,0.16473
4.992,0.05361
4.996,0.09872
5.0,0.12321
5.004,0.15289
5.008,0.16321
5.012,0.12476
5.016,0.13846
5.02,0.14959
5.024,0.13963
5.028,0.09147
5.032,0.15722
5.036,0.19683
5.04,0.19256
5.044,0.17693
5.048,0.23742
5.052,0.13531
5.056,0.19969
5.06,0.22978
5.064,0.18038
5.068,0.16602
5.072,0.17857
5.076,0.14344
5.08,0.15573
5.084,0.08605
5.088,0.10131
5.092,0.1153
5.096,0.10758
5.1,0.08558
5.104,0.02679
5.108,0.0392
5.112,0.04727
5.116,0.04224
5.12,0.01541
5.124,0.03053
5.128,0.07098
5.132,0.00041
5.136,-0.01847
5.14,0.00043
5.144,-0.01894
5.148,-0.03762
5.152,-0.04458
5.156,-0.02346
5.16,-0.04893
5.164,-0.03498
5.168,-0.05812
5.172,-0.01798
5.176,0.00124
5.18,-0.00231
5.184,0.01881
5.188,-0.04457
5.192,-0.00162
5.196,-0.05892
5.2,-0.0531
5.204,-0.06659
5.208,-0.01826
5.212,-0.01397
5.216,-0.05092
5.22,-0.07493
5.224,-0.07228
5.228,0.00325
5.232,-0.02374
5.236,-0.03997
5.24,0.00789
5.244,0.0079
5.248,-0.00571
5.252,0.00173
5.256,-0.05103
5.26,-0.12055
5.264,0.0236
5.268,-0.06319
5.272,-0.03495
5.276,-0.05724
5.28,-0.03169
5.284,-0.05965
5.288,-0.03133
5.292,-0.04398
5.296,-0.0177
5.3,-0.01683
5.304,-0.02624
5.308,-0.06117
5.312,0.01042
5.316,0.01464
5.32,-0.00316
5.324,-0.02829
5.328,0.00481
5.332,0.00609
5.336,0.08706
5.34,0.0535
5.344,0.01122
5.348,0.06634
5.352,0.07321
5.356,0.1017
5.36,0.11978
5.364,0.10633
5.368,0.015
5.372,0.01873
5.376,-0.02623
5.38,0.0148
5.384,0.02131
5.388,0.02705
5.392,-0.04857
5.396,-0.03604
5.4,0.00561
5.404,0.03765
5.408,-0.06677
5.412,-0.00759
5.416,0.01997
5.42,-0.03213
5.424,-0.0677
5.428,-0.00468
5.432,0.0166
5.436,0.04535
5.44,-0.11472
5.444,-0.01359
5.448,-0.09209
5.452,-0.05169
5.456,-0.10236
5.46,0.07202
5.464,0.03686
5.468,-0.06252
5.472,-0.08437
5.476,-0.09228
5.48,-0.15077
5.484,-0.18062
5.488,-0.06916
5.492,0.00532
5.496,0.15948
5.5,0.28732
5.504,0.5588
5.508,0.82615
5.512,0.90115
5.516,1.03024
5.52,0.87418
5.524,0.80504
5.528,0.60048
5.532,0.32355
5.536,0.10515
5.54,-0.02853
5.544,-0.1551
5.548,-0.18997
5.552,-0.17894
5.556,-0.15627
5.56,-0.0959
5.564,-0.05273
5.568,-0.00888
5.572,-0.05863
5.576,0.01344
5.58,-0.0141
5.584,-0.07602
5.588,-0.05928
5.592,-0.05611
5.596,-0.06139
5.6,0.08753
5.604,-0.04258
5.608,-0.05366
5.612,-0.01706
5.616,-0.00472
5.62,-0.01628
5.624,0.00279
5.628,-0.02501
5.632,0.03066
5.636,-0.02355
5.64,-0.00663
5.644,-0.01347
5.648,0.03357
5.652,-0.0476
5.656,-0.06526
5.66,0.00894
5.664,-0.0246
5.668,-0.0452
5.672,-0.0744
5.676,-0.04629
5.68,0.00787
5.684,-0.02148
5.688,-0.08448
5.692,0.03787
5.696,-0.00956
5.7,-0.02958
5.704,-0.02737
5.708,0.00819
5.712,-0.00829
5.716,0.00033
5.72,0.05596
5.724,0.05551
5.728,-0.00631
5.732,0.03186
5.736,0.0919
5.74,0.11976
5.744,0.10906
5.748,0.07777
5.752,0.21116
5.756,0.10628
5.76,0.13715
5.764,0.18741
5.768,0.12509
5.772,0.23057
5.776,0.16938
5.78,0.21812
5.784,0.24552
5.788,0.18986
5.792,0.19135
5.796,0.21623
5.8,0.22975
5.804,0.21923
5.808,0.20154
5.812,0.22062
5.816,0.16118
5.82,0.17773
5.824,0.14305
5.828,0.12562
5.832,0.14562
5.836,0.10395
5.84,0.10394
5.844,0.06748
5.848,0.12339
5.852,0.10043
5.856,0.00031
5.86,0.07221
5.864,0.10942
5.868,0.02706
5.872,0.03511
5.876,0.05031
5.88,-0.01719
5.884,0.02266
5.888,-0.05052
5.892,0.00818
5.896,0.00629
5.9,0.02307
5.904,-0.06419
5.908,0.03911
5.912,-0.06693
5.916,-0.09523
5.92,-0.04358
5.924,-0.03476
5.928,-0.08595
5.932,-0.00741
5.936,0.01196
5.94,-0.01045
5.944,-0.00242
5.948,-0.02311
5.952,-0.03419
5.956,-0.02482
5.96,-0.08138
5.964,0.02983
5.968,0.01706
5.972,-0.05768
5.976,0.02203
5.98,0.07768
5.984,0.04231
5.988,-0.02899
5.992,-0.01639
5.996,-0.00447
6.0,0.05183
6.004,0.01628
6.008,-0.04303
6.012,0.00281
6.016,-0.0317
6.02,0.06554
6.024,-0.02671
6.028,-0.08409
6.032,-0.04522
6.036,-0.0306
6.04,-0.00762
6.044,-0.02712
6.048,0.0244
6.052,-0.02677
6.056,-0.05298
6.06,-0.04683
6.064,0.04453
6.068,-0.00962
6.072,-0.02431
6.076,-0.02523
6.08,0.02236
6.084,0.0137
6.088,-0.03217
6.092,-0.01541
6.096,-0.01697
6.1,0.01203
6.104,-0.04086
6.108,-0.02906
6.112,-0.04993
6.116,0.07458
6.12,-0.03735
6.124,-0.02774
6.128,0.02488
6.132,-0.00869
6.136,0.00428
6.14,-0.04378
6.144,-0.0142
6.148,0.00251
6.152,0.00726
6.156,-0.01831
6.16,0.02382
6.164,-0.03738
6.168,-0.02046
6.172,-0.05003
6.176,0.00245
6.18,0.00156
6.184,-0.00436
6.188,0.00585
6.192,-0.07991
6.196,0.00245
6.2,-0.02526
6.204,-0.02032
6.208,-0.04522
6.212,-0.00456
6.216,-0.06865
6.22,0.02008
6.224,-0.0173
6.228,-0.00639
6.232,-0.01493
6.236,-0.00529
6.24,-0.00117
6.244,-0.04851
6.248,0.04352
6.252,0.00728
6.256,0.01277
6.26,-0.02291
6.264,0.09793
6.268,0.09755
6.272,0.05952
6.276,0.06982
6.28,0.05953
6.284,0.06942
6.288,0.06345
6.292,0.14564
6.296,0.06614
6.3,0.05425
6.304,0.05531
6.308,-0.02483
6.312,-0.00395
6.316,0.0465
6.32,-0.00608
6.324,0.00383
6.328,-0.01181
6.332,0.02587
6.336,-0.03234
6.34,-0.03718
6.344,-0.01518
6.348,-0.0495
6.352,0.03687
6.356,-0.04633
6.36,-0.04908
6.364,-0.00493
6.368,-0.0697
6.372,-0.02118
6.376,0.00158
6.38,0.04657
6.384,-0.0383
6.388,-0.01127
6.392,0.03665
6.396,0.01564
6.4,-0.046
6.404,-0.12288
6.408,-0.09634
6.412,-0.16413
6.416,-0.04911
6.42,0.08206
6.424,0.21766
6.428,0.38236
6.432,0.64495
6.436,0.88253
6.44,0.99021
6.444,1.02893
6.448,0.88487
6.452,0.78844
6.456,0.51667
6.46,0.24737
6.464,0.08097
6.468,-0.07216
6.472,-0.15981
6.476,-0.22086
6.48,-0.14108
6.484,-0.1284
6.488,-0.09725
6.492,0.00661
6.496,-0.02966
6.5,-0.00058
6.504,0.03345
6.508,-0.0333
6.512,0.0129
6.516,0.02344
6.52,-0.05726
6.524,-0.02412
6.528,0.00125
6.532,-0.01891
6.536,0.0039
6.54,-0.04112
6.544,-0.03622
6.548,0.01372
6.552,0.02269
6.556,-0.03529
6.56,0.02508
6.564,-0.05366
6.568,0.01735
6.572,0.00631
6.576,-0.05789
6.58,0.02951
6.584,0.04559
6.588,0.01574
6.592,-0.05769
6.596,-0.02779
6.6,-0.013
6.604,0.04415
6.608,0.02847
6.612,-0.0095
6.616,0.03058
6.62,0.02771
6.624,0.03721
6.628,0.07582
6.632,0.00247
6.636,0.08748
6.64,0.06975
6.644,0.04013
6.648,0.05404
6.652,0.04166
6.656,0.13694
6.66,0.08732
6.664,0.06721
6.668,0.13752
6.672,0.08391
6.676,0.15658
6.68,0.14319
6.684,0.22587
6.688,0.17418
6.692,0.19807
6.696,0.16424
6.7,0.17717
6.704,0.18836
6.708,0.1665
6.712,0.23136
6.716,0.14634
6.72,0.23311
6.724,0.2469
6.728,0.23825
6.732,0.2131
6.736,0.21421
6.74,0.18552
6.744,0.20214
6.748,0.15486
6.752,0.20597
6.756,0.13362
6.76,0.14308
6.764,0.09945
6.768,0.10861
6.772,0.08838
6.776,0.05068
6.78,0.0956
6.784,0.11978
6.788,0.11233
6.792,0.13607
6.796,0.06128
6.8,0.05363
6.804,0.12271
6.808,0.06436
6.812,0.04493
6.816,0.05145
6.82,0.02556
6.824,0.05055
6.828,0.02466
6.832,0.05991
6.836,0.02497
6.84,0.04517
6.844,0.03421
6.848,-0.03846
6.852,0.02454
6.856,-0.0136
6.86,0.07487
6.864,0.04346
6.868,-0.01535
6.872,0.09578
6.876,0.0321
6.88,0.01026
6.884,0.02951
6.888,-0.03388
6.892,-0.01491
6.896,0.00422
6.9,0.05151
6.904,-0.05135
6.908,-0.03568
6.912,-0.01161
6.916,0.00481
6.92,0.04312
6.924,0.07605
6.928,0.01326
6.932,0.01706
6.936,-0.01635
6.94,0.0365
6.944,0.03556
6.948,0.00082
6.952,-0.04503
6.956,0.01007
6.96,0.02744
6.964,-0.02273
6.968,0.02526
6.972,0.00457
6.976,-0.01617
6.98,-0.04199
6.984,0.03851
6.988,-0.02777
6.992,0.02038
6.996,0.05151
7.0,-0.02703
7.004,0.09568
7.008,-0.06122
7.012,-0.07365
7.016,-0.04311
7.02,0.02531
7.024,0.02166
7.028,-0.00109
7.032,0.04875
7.036,-0.04576
7.04,0.02504
7.044,0.06203
7.048,-0.00822
7.052,-0.06915
7.056,-0.01721
7.06,0.03856
7.064,0.00924
7.068,-0.00208
7.072,0.07121
7.076,0.0361
7.08,-0.01225
7.084,-0.0305
7.088,0.00363
7.092,0.04388
7.096,-0.04605
7.1,0.04543
7.104,0.06838
7.108,0.03895
7.112,0.02511
7.116,0.01176
7.12,0.02131
7.124,-0.01976
7.128,-0.04065
7.132,0.10545
7.136,-0.03939
7.14,-0.00875
7.144,0.03654
7.148,0.09011
7.152,0.04532
7.156,-0.00022
7.16,0.0064
7.164,-0.05019
7.168,0.01033
7.172,-0.03167
7.176,-0.01136
7.18,0.00994
7.184,0.01308
7.188,0.01343
7.192,0.02622
7.196,-0.01354
7.2,0.01099
7.204,-0.06228
7.208,0.02862
7.212,0.03085
7.216,0.00206
7.22,0.04454
7.224,-0.05091
7.228,0.02131
7.232,-0.02229
7.236,0.0489
7.24,0.06757
7.244,0.0042
7.248,0.0471
7.252,0.01495
7.256,-0.01561
7.26,-0.01252
7.264,0.06797
7.268,0.03965
7.272,0.00121
7.276,0.03399
7.28,0.07723
7.284,0.11101
7.288,0.06864
7.292,0.05429
7.296,0.03625
7.3,0.11091
7.304,0.14585
7.308,0.07191
7.312,0.06998
7.316,0.011
7.32,0.12024
7.324,0.08884
7.328,0.13204
7.332,0.11984
7.336,0.0606
7.34,0.05834
7.344,0.01292
7.348,0.04295
7.352,0.01281
7.356,0.03379
7.36,-0.0213
7.364,0.01056
7.368,0.04897
7.372,0.0402
7.376,-0.00099
7.38,0.01474
7.384,0.00676
7.388,0.02224
7.392,-0.02256
7.396,0.04383
7.4,0.00159
7.404,0.00668
7.408,0.04193
7.412,-0.02709
7.416,0.02006
7.42,0.0132
7.424,-0.0311
7.428,-0.00991
7.432,-0.03607
7.436,-0.07868
7.44,-0.13445
7.444,-0.05864
7.448,0.00287
7.452,0.11218
7.456,0.35216
7.46,0.59677
7.464,0.75447
7.468,0.9727
7.472,1.02447
7.476,0.93998
7.48,0.82711
7.484,0.64192
7.488,0.43214
7.492,0.22779
7.496,0.08239
7.5,-0.07076
7.504,-0.09186
7.508,-0.15107
7.512,-0.07123
7.516,-0.06425
7.52,0.02308
7.524,-0.03633
7.528,0.03468
7.532,0.02444
7.536,0.03194
7.54,-0.00131
7.544,0.01519
7.548,0.0474
7.552,-0.03226
7.556,-0.00876
7.56,0.01508
7.564,0.06666
7.568,0.09888
7.572,0.01823
7.576,-0.00061
7.58,0.013
7.584,-0.02331
7.588,0.01165
7.592,0.02924
7.596,-0.02952
7.6,0.11059
7.604,0.04605
7.608,0.04268
7.612,0.02224
7.616,-0.0065
7.62,0.07809
7.624,0.06988
7.628,-0.00252
7.632,0.02998
7.636,-0.00075
7.64,0.0591
7.644,0.06222
7.648,-0.01136
7.652,0.05192
7.656,0.04576
7.66,0.02923
7.664,0.0232
7.668,0.02631
7.672,0.03219
7.676,0.06314
7.68,0.10483
7.684,0.07977
7.688,0.08874
7.692,0.13764
7.696,0.15103
7.7,0.17487
7.704,0.15298
7.708,0.15651
7.712,0.15892
7.716,0.1884
7.72,0.15435
7.724,0.17515
7.728,0.23567
7.732,0.17453
7.736,0.21646
7.74,0.2321
7.744,0.20935
7.748,0.20453
7.752,0.22021
7.756,0.23476
7.76,0.30311
7.764,0.17883
7.768,0.20241
7.772,0.20174
7.776,0.24845
7.78,0.21074
7.784,0.16922
7.788,0.20598
7.792,0.22692
7.796,0.13522
7.8,0.12246
7.804,0.16235
7.808,0.1659
7.812,0.08276
7.816,0.0871
7.82,0.12203
7.824,0.137
7.828,0.0627
7.832,0.04024
7.836,0.08573
7.84,0.01711
7.844,0.00323
7.848,0.05107
7.852,0.01324
7.856,0.03288
7.86,0.07525
7.864,0.04486
7.868,0.01458
7.872,0.06987
7.876,0.01826
7.88,0.05712
7.884,-0.04793
7.888,0.06221
7.892,-0.04559
7.896,0.03568
7.9,0.06274
7.904,0.0642
7.908,0.01718
7.912,0.04389
7.916,-0.01376
7.92,0.01115
7.924,0.06588
7.928,0.05892
7.932,-0.03104
7.936,0.05158
7.94,0.04102
7.944,0.02328
7.948,0.08042
7.952,-0.03966
7.956,-0.00679
7.96,-0.02811
7.964,-0.02369
7.968,0.01647
7.972,0.06919
7.976,0.05484
7.98,0.0451
7.984,0.04133
7.988,-0.03715
7.992,0.02915
7.996,0.08763
8.0,0.10331
8.004,0.05999
8.008,0.06635
8.012,-0.01426
8.016,0.04951
8.02,0.06301
8.024,0.02682
8.028,0.09421
8.032,0.02745
8.036,-0.01548
8.04,0.02487
8.044,0.01787
8.048,0.0253
8.052,0.02616
8.056,0.02068
8.06,0.01626
8.064,-0.00109
8.068,0.04844
8.072,0.05501
8.076,0.09079
8.08,0.03462
8.084,0.01749
8.088,0.10059
8.092,0.01422
8.096,0.03063
8.1,0.03993
8.104,0.06452
8.108,0.01603
8.112,0.03391
8.116,0.0194
8.12,0.04399
8.124,-0.03513
8.128,-0.00021
8.132,0.03547
8.136,0.05415
8.14,-0.0585
8.144,0.02783
8.148,0.00182
8.152,0.01236
8.156,0.01831
8.16,0.04345
8.164,0.02783
8.168,-0.02116
8.172,0.05071
8.176,0.07734
8.18,-0.00359
8.184,0.01684
8.188,0.01515
8.192,0.1134
8.196,-0.01886
8.2,0.03907
8.204,0.03074
8.208,0.04669
8.212,0.08795
8.216,0.04082
8.22,0.02175
8.224,0.05146
8.228,0.03075
8.232,0.01521
8.236,-0.00811
8.24,0.02623
8.244,0.04826
8.248,0.01543
8.252,0.06601
8.256,-0.00386
8.26,0.05303
8.264,0.0404
8.268,0.03811
8.272,0.12612
8.276,0.1036
8.28,0.20939
8.284,0.09837
8.288,0.16769
8.292,0.09698
8.296,0.10735
8.3,0.1686
8.304,0.09424
8.308,0.10511
8.312,0.0974
8.316,0.0641
8.32,0.04333
8.324,0.07659
8.328,-0.01575
8.332,0.04229
8.336,0.01672
8.34,0.0934
8.344,0.0258
8.348,0.09019
8.352,-0.01761
8.356,0.00628
8.36,0.00871
8.364,0.01027
8.368,0.00622
8.372,0.0037
8.376,0.07362
8.38,-0.01862
8.384,0.05611
8.388,0.09031
8.392,0.03887
8.396,0.02486
8.4,0.0859
8.404,0.00817
8.408,-0.07758
8.412,-0.05129
8.416,-0.13203
8.42,-0.09329
8.424,0.00927
8.428,0.08587
8.432,0.27346
8.436,0.45128
8.44,0.7363
8.444,0.88039
8.448,1.02346
8.452,0.98932
8.456,0.90916
8.46,0.73739
8.464,0.54238
8.468,0.23969
8.472,0.07512
8.476,-0.05126
8.48,-0.0815
8.484,-0.12179
8.488,-0.12728
8.492,-0.1116
8.496,-0.0334
8.5,-0.01954
8.504,0.04553
8.508,0.0352
8.512,0.06048
8.516,0.09133
8.52,0.10136
8.524,0.08794
8.528,0.14238
8.532,0.08007
8.536,0.1296
8.54,0.12234
8.544,0.06907
8.548,0.15385
8.552,0.1133
8.556,0.0759
8.56,0.19448
8.564,0.13402
8.568,0.06173
8.572,0.08184
8.576,0.04923
8.58,0.05404
8.584,0.03586
8.588,0.05269
8.592,-0.01092
8.596,-0.00154
8.6,0.04905
8.604,0.0454
8.608,-0.00457
8.612,0.06907
8.616,-0.0352
8.62,0.05739
8.624,-0.00971
8.628,0.03659
8.632,0.03761
8.636,0.07889
8.64,0.03925
8.644,0.11125
8.648,0.06028
8.652,0.09581
8.656,0.07368
8.66,-0.01276
8.664,0.03634
8.668,0.03367
8.672,0.0653
8.676,0.13138
8.68,0.31877
8.684,0.48379
8.688,0.77296
8.692,0.98291
8.696,1.14666
8.7,1.17226
8.704,1.18288
8.708,1.05225
8.712,0.78759
8.716,0.59074
8.72,0.38181
8.724,0.22646
8.728,0.11972
8.732,0.06466
8.736,0.12751
8.74,0.06583
8.744,0.16151
8.748,0.12436
8.752,0.18041
8.756,0.16014
8.76,0.2141
8.764,0.22532
8.768,0.17828
8.772,0.18636
8.776,0.16496
8.78,0.17138
8.784,0.03395
8.788,0.14378
8.792,0.10601
8.796,0.08772
8.8,-0.01316
8.804,0.11737
8.808,0.08516
8.812,0.05992
8.816,0.05327
8.82,0.08172
8.824,0.07763
8.828,0.07767
8.832,0.06258
8.836,0.02653
8.84,0.03089
8.844,0.03355
8.848,0.01401
8.852,0.00609
8.856,0.02873
8.86,0.01107
8.864,0.01091
8.868,0.05231
8.872,-0.01031
8.876,0.06409
8.88,0.01183
8.884,0.08794
8.888,-0.02305
8.892,0.06994
8.896,0.02782
8.9,0.08128
8.904,0.05244
8.908,0.07738
8.912,0.07011
8.916,0.08925
8.92,0.14398
8.924,0.07312
8.928,0.12848
8.932,0.13841
8.936,0.15202
8.94,0.13225
8.944,0.1601
8.948,0.24106
8.952,0.2074
8.956,0.1995
8.96,0.22191
8.964,0.26566
8.968,0.23109
8.972,0.23223
8.976,0.27794
8.98,0.23591
8.984,0.18954
8.988,0.29259
8.992,0.24079
8.996,0.2449
9.0,0.17388
9.004,0.19764
9.008,0.19062
9.012,0.22485
9.016,0.23173
9.02,0.13451
9.024,0.19152
9.028,0.1922
9.032,0.13171
9.036,0.10574
9.04,0.09775
9.044,0.11078
9.048,0.02739
9.052,0.10176
9.056,0.06195
9.06,0.13983
9.064,0.04505
9.068,0.07598
9.072,-0.01586
9.076,0.0419
9.08,0.03788
9.084,0.07912
9.088,0.00511
9.092,0.00473
9.096,-0.01078
9.1,-0.00731
9.104,0.03863
9.108,0.04883
9.112,0.04316
9.116,0.01824
9.12,0.05802
9.124,-0.00151
9.128,-0.02352
9.132,-0.0244
9.136,-0.01065
9.14,0.00796
9.144,-0.03685
9.148,0.01811
9.152,-0.01657
9.156,-0.02359
9.16,0.05712
9.164,0.03106
9.168,-0.08044
9.172,0.0076
9.176,0.01277
9.18,0.02931
9.184,-0.02015
9.188,0.0396
9.192,0.0405
9.196,0.08021
9.2,0.00798
9.204,-0.02496
9.208,-0.0069
9.212,0.00963
9.216,-0.03334
9.22,-0.01694
9.224,-0.02263
9.228,0.01804
9.232,0.01623
9.236,0.01449
9.24,0.10721
9.244,0.10805
9.248,0.04118
9.252,0.0634
9.256,-0.0112
9.26,0.10154
9.264,0.18709
9.268,0.10626
9.272,0.13811
9.276,0.17884
9.28,0.14454
9.284,0.12361
9.288,0.12823
9.292,0.10268
9.296,0.108
9.3,0.05781
9.304,0.03998
9.308,0.04424
9.312,0.02773
9.316,0.08392
9.32,0.05294
9.324,0.01844
9.328,0.01063
9.332,0.0233
9.336,0.04927
9.34,0.00937
9.344,-0.02524
9.348,0.0108
9.352,0.01478
9.356,-0.02319
9.36,0.08821
9.364,-0.02649
9.368,-0.06714
9.372,-0.05583
9.376,0.02003
9.38,0.06865
9.384,0.02446
9.388,0.01638
9.392,-0.01546
9.396,-0.01782
9.4,-0.14711
9.404,-0.12623
9.408,-0.1356
9.412,-0.01969
9.416,0.11065
9.42,0.33846
9.424,0.56863
9.428,0.76353
9.432,0.87011
9.436,1.03065
9.44,0.93329
9.444,0.94167
9.448,0.62465
9.452,0.37491
9.456,0.1218
9.46,-0.01408
9.464,-0.16471
9.468,-0.18745
9.472,-0.1348
9.476,-0.09933
9.48,-0.06755
9.484,-0.04454
9.488,0.00703
9.492,-0.03735
9.496,-0.06329
9.5,0.00735
9.504,-0.00174
9.508,-0.04068
9.512,0.01655
9.516,0.04244
9.52,-0.00115
9.524,-0.00613
9.528,-0.00504
9.532,0.01962
9.536,0.013
9.54,-0.03592
9.544,-0.04694
9.548,-0.07698
9.552,0.01686
9.556,0.01604
9.56,-0.01058
9.564,0.00453
9.568,0.08106
9.572,0.01656
9.576,-0.00309
9.58,-0.00506
9.584,0.01748
9.588,0.01643
9.592,-0.02548
9.596,-0.00728
9.6,-0.01232
9.604,0.06261
9.608,0.0715
9.612,0.04858
9.616,-0.02999
9.62,0.08189
9.624,0.03006
9.628,0.061
9.632,0.02885
9.636,0.07437
9.64,0.0804
9.644,0.00049
9.648,-0.0004
9.652,0.06855
9.656,0.1004
9.66,0.14935
9.664,0.12628
9.668,0.10034
9.672,0.11776
9.676,0.1255
9.68,0.14334
9.684,0.14542
9.688,0.10759
9.692,0.21675
9.696,0.2424
9.7,0.20324
9.704,0.26132
9.708,0.18986
9.712,0.25924
9.716,0.19326
9.72,0.21943
9.724,0.36743
9.728,0.23586
9.732,0.26372
9.736,0.30605
9.74,0.29267
9.744,0.33644
9.748,0.30594
9.752,0.23998
9.756,0.18465
9.76,0.15467
9.764,0.21024
9.768,0.17893
9.772,0.18077
9.776,0.12705
9.78,0.07155
9.784,0.07929
9.788,0.03235
9.792,0.06908
9.796,0.00996
9.8,0.05345
9.804,0.09023
9.808,0.04281
9.812,0.03453
9.816,0.05578
9.82,0.05201
9.824,0.00354
9.828,0.09277
9.832,0.03282
9.836,0.04592
9.84,0.00794
9.844,0.05248
9.848,0.0064
9.852,0.05489
9.856,0.02154
9.86,0.06611
9.864,-0.02949
9.868,0.02025
9.872,-0.07302
9.876,-0.12386
9.88,-0.0067
9.884,0.04891
9.888,0.16458
9.892,0.42805
9.896,0.60964
9.9,0.84999
9.904,0.95543
9.908,1.05369
9.912,0.9066
9.916,0.67474
9.92,0.5045
9.924,0.26708
9.928,0.12574
9.932,-0.03184
9.936,-0.13414
9.94,-0.19518
9.944,-0.15595
9.948,-0.12673
9.952,-0.04581
9.956,0.01759
9.96,-0.06419
9.964,0.00133
9.968,-0.02369
9.972,0.04786
9.976,-0.02446
9.98,-0.02258
9.984,0.05305
9.988,0.01999
9.992,0.04493
9.996,0.00684
