t_seg,ecg_mV
0.0,-0.02815
0.004,-0.0594
0.008,0.00501
0.012,-0.08553
0.016,-0.02714
0.02,-0.01874
0.024,0.01446
0.028,-0.01301
0.032,-0.02971
0.036,-0.0235
0.04,0.00729
0.044,-0.0197
0.048,-0.01423
0.052,0.01096
0.056,0.00566
0.06,-0.01382
0.064,0.02525
0.068,-0.02991
0.072,-0.02754
0.076,0.02782
0.08,-0.01207
0.084,-0.05068
0.088,-0.05058
0.092,-0.00222
0.096,-0.07066
0.1,0.00194
0.104,-0.03589
0.108,-0.0457
0.112,-0.05401
0.116,0.00037
0.12,0.03129
0.124,-0.03076
0.128,-0.03832
0.132,-0.01912
0.136,0.03201
0.14,0.0347
0.144,-0.08854
0.148,-0.00553
0.152,-0.03027
0.156,0.01032
0.16,-0.00742
0.164,-0.04441
0.168,0.048
0.172,0.02815
0.176,0.09422
0.18,0.11985
0.184,0.04506
0.188,0.03045
0.192,0.11472
0.196,0.05351
0.2,0.15725
0.204,0.09182
0.208,0.08618
0.212,0.02699
0.216,0.05953
0.22,-0.00684
0.224,-0.02639
0.228,0.04788
0.232,0.03945
0.236,-0.037
0.24,-0.07056
0.244,0.03668
0.248,-0.0036
0.252,-0.03283
0.256,-0.04747
0.26,0.00624
0.264,-0.0066
0.268,0.04006
0.272,-0.02806
0.276,0.01589
0.28,-0.02983
0.284,-0.07336
0.288,0.00957
0.292,0.02204
0.296,-0.02561
0.3,0.03661
0.304,0.00666
0.308,-0.01193
0.312,-0.09399
0.316,-0.06797
0.32,-0.13967
0.324,-0.11781
0.328,-0.14698
0.332,-0.06187
0.336,-0.02833
0.34,0.1599
0.344,0.20558
0.348,0.35427
0.352,0.42594
0.356,0.4075
0.36,0.40606
0.364,0.30316
0.368,0.26327
0.372,0.09928
0.376,-0.01604
0.38,-0.13207
0.384,-0.16425
0.388,-0.17543
0.392,-0.16983
0.396,-0.13416
0.4,-0.02896
0.404,-0.02848
0.408,0.01856
0.412,0.03886
0.416,-0.01873
0.42,-0.06674
0.424,-0.00373
0.428,0.00337
0.432,0.04629
0.436,-0.00489
0.44,-0.03406
0.444,0.03684
0.448,-0.06973
0.452,-0.02322
0.456,-0.05363
0.46,-0.04892
0.464,-0.00316
0.468,0.01329
0.472,-0.04225
0.476,-0.09429
0.48,0.00164
0.484,-0.04513
0.488,-0.02241
0.492,0.01439
0.496,-0.04931
0.5,-0.00248
0.504,-0.00464
0.508,-0.00703
0.512,0.04524
0.516,0.06405
0.52,0.00709
0.524,-0.02068
0.528,0.02896
0.532,-0.06225
0.536,0.02422
0.54,0.01987
0.544,0.0455
0.548,0.01833
0.552,0.00936
0.556,0.10835
0.56,0.05656
0.564,0.07908
0.568,0.07678
0.572,0.05432
0.576,0.08891
0.58,0.0913
0.584,-0.01802
0.588,0.17047
0.592,0.1452
0.596,0.13317
0.6,0.10393
0.604,0.16721
0.608,0.11669
0.612,0.23831
0.616,0.13822
0.62,0.23094
0.624,0.27289
0.628,0.20357
0.632,0.19505
0.636,0.20811
0.64,0.23003
0.644,0.18556
0.648,0.27028
0.652,0.15124
0.656,0.18225
0.66,0.25599
0.664,0.21488
0.668,0.17725
0.672,0.12161
0.676,0.16887
0.68,0.16304
0.684,0.13857
0.688,0.10726
0.692,0.08295
0.696,0.06282
0.7,0.09082
0.704,0.07719
0.708,0.03358
0.712,0.06252
0.716,0.01139
0.72,0.05201
0.724,0.03187
0.728,-0.06011
0.732,-0.00523
0.736,0.02728
0.74,0.03446
0.744,0.02244
0.748,0.02382
0.752,-0.04805
0.756,0.04779
0.76,-0.01552
0.764,-0.00138
0.768,-0.03716
0.772,0.02076
0.776,-0.03463
0.78,0.0195
0.784,-0.01371
0.788,0.02526
0.792,-0.01811
0.796,0.00727
0.8,-0.04658
0.804,-0.01164
0.808,-0.04972
0.812,0.03035
0.816,0.00881
0.82,-0.00697
0.824,0.01352
0.828,0.08602
0.832,0.00101
0.836,0.04972
0.84,0.09635
0.844,0.10681
0.848,0.08215
0.852,0.09649
0.856,0.07583
0.86,0.05693
0.864,0.09994
0.868,0.08014
0.872,0.07656
0.876,0.08131
0.88,0.05915
0.884,0.00146
0.888,0.04036
0.892,0.05498
0.896,-0.02066
0.9,0.0323
0.904,0.04662
0.908,-0.0267
0.912,-0.06322
0.916,-0.0431
0.92,0.03672
0.924,0.01621
0.928,-0.02637
0.932,-0.0058
0.936,-0.02663
0.94,0.03466
0.944,-0.03045
0.948,0.00865
0.952,-0.0032
0.956,0.02589
0.96,-0.06436
0.964,0.01965
0.968,0.04951
0.972,-0.02014
0.976,-0.02726
0.98,-0.0545
0.984,-0.07677
0.988,-0.07888
0.992,-0.11555
0.996,-0.01425
1.0,0.04944
1.004,0.27888
1.008,0.5167
1.012,0.70172
1.016,0.94917
1.02,0.98312
1.024,0.85981
1.028,0.82083
1.032,0.62867
1.036,0.46807
1.04,0.23276
1.044,0.07515
1.048,-0.05877
1.052,-0.17185
1.056,-0.20393
1.06,-0.12669
1.064,-0.11668
1.068,-0.02579
1.072,-0.03723
1.076,-0.04279
1.08,-0.01162
1.084,-0.01191
1.088,-0.02768
1.092,-0.07536
1.096,-0.03537
1.1,0.03679
1.104,0.00142
1.108,-0.03266
1.112,0.03425
1.116,0.0326
1.12,-0.00934
1.124,-0.04165
1.128,-0.04068
1.132,-0.02414
1.136,-0.01116
1.14,0.06441
1.144,0.05282
1.148,-0.01294
1.152,-0.03762
1.156,0.01878
1.16,-0.01167
1.164,-0.02951
1.168,0.05046
1.172,0.01578
1.176,-0.00017
1.18,0.00633
1.184,0.04205
1.188,0.0133
1.192,0.01345
1.196,0.00746
1.2,0.03162
1.204,0.04923
1.208,0.02987
1.212,0.04219
1.216,0.08687
1.22,0.02542
1.224,0.12084
1.228,0.03988
1.232,0.02634
1.236,0.05637
1.24,0.12161
1.244,0.10755
1.248,0.15485
1.252,0.14681
1.256,0.16203
1.26,0.16198
1.264,0.14396
1.268,0.16131
1.272,0.271
1.276,0.12815
1.28,0.20234
1.284,0.2134
1.288,0.25976
1.292,0.3172
1.296,0.24239
1.3,0.26011
1.304,0.21907
1.308,0.3133
1.312,0.2046
1.316,0.16874
1.32,0.22253
1.324,0.23724
1.328,0.19445
1.332,0.12802
1.336,0.15024
1.34,0.14013
1.344,0.15857
1.348,0.12253
1.352,0.1385
1.356,0.12569
1.36,0.17165
1.364,0.14799
1.368,0.11063
1.372,0.01817
1.376,0.06894
1.38,0.04068
1.384,0.09668
1.388,0.01791
1.392,0.05778
1.396,0.07441
1.4,0.0767
1.404,0.08586
1.408,-0.00734
1.412,0.05379
1.416,0.06689
1.42,-0.00627
1.424,-0.01909
1.428,-0.01759
1.432,-0.00443
1.436,0.0267
1.44,-0.01035
1.444,0.01086
1.448,0.03082
1.452,0.09121
1.456,-0.0223
1.46,0.06347
1.464,-0.00271
1.468,0.00313
1.472,-0.01947
1.476,0.01469
1.48,0.00253
1.484,-0.0077
1.488,0.00467
1.492,-0.03254
1.496,-0.02655
1.5,0.03336
1.504,0.04203
1.508,0.04044
1.512,0.05644
1.516,0.02274
1.52,0.05624
1.524,0.07587
1.528,0.00619
1.532,0.1245
1.536,0.15169
1.54,0.07917
1.544,0.06498
1.548,0.14824
1.552,0.13105
1.556,0.14448
1.56,0.1472
1.564,0.0634
1.568,0.11714
1.572,0.08873
1.576,0.03026
1.58,0.03044
1.584,0.0825
1.588,0.03869
1.592,0.11829
1.596,0.05846
1.6,0.02943
1.604,0.04461
1.608,0.0193
1.612,-0.00207
1.616,-0.00481
1.62,0.08436
1.624,0.08651
1.628,-0.0287
1.632,0.03563
1.636,0.05031
1.64,0.05676
1.644,0.04741
1.648,0.00902
1.652,-0.00696
1.656,0.0172
1.66,0.00712
1.664,6e-05
1.668,0.01506
1.672,-0.01173
1.676,-0.06047
1.68,-0.04333
1.684,-0.00368
1.688,0.13064
1.692,0.24572
1.696,0.45351
1.7,0.62796
1.704,0.84966
1.708,1.0043
1.712,1.03299
1.716,0.93102
1.72,0.79203
1.724,0.59685
1.728,0.2843
1.732,0.0998
1.736,-0.01283
1.74,-0.14498
1.744,-0.1355
1.748,-0.14882
1.752,-0.09761
1.756,-0.04791
1.76,-0.0104
1.764,0.04696
1.768,0.0272
1.772,-0.02088
1.776,0.06752
1.78,-0.01375
1.784,0.04739
1.788,0.0513
1.792,0.0241
1.796,0.121
1.8,0.11736
1.804,0.03653
1.808,0.07254
1.812,0.07806
1.816,0.05614
1.82,0.13143
1.824,0.10659
1.828,0.11824
1.832,0.07071
1.836,0.12878
1.84,0.06682
1.844,0.05623
1.848,0.1045
1.852,0.10447
1.856,0.04412
1.86,0.04412
1.864,0.0595
1.868,0.0426
1.872,0.01628
1.876,0.04766
1.88,0.07649
1.884,-0.01946
1.888,0.07975
1.892,0.07574
1.896,0.07487
1.9,0.05271
1.904,0.07165
1.908,0.02801
1.912,0.10031
1.916,0.09496
1.92,0.14123
1.924,0.07826
1.928,0.086
1.932,0.1132
1.936,0.13009
1.94,0.1829
1.944,0.0558
1.948,0.1043
1.952,0.08318
1.956,0.03753
1.96,0.12869
1.964,0.13937
1.968,0.42993
1.972,0.58587
1.976,0.70333
1.98,0.95101
1.984,1.06883
1.988,1.22058
1.992,1.15834
1.996,1.0658
2.0,0.90959
2.004,0.68721
2.008,0.41666
2.012,0.2626
2.016,0.13706
2.02,0.03215
2.024,0.02379
2.028,-0.00143
2.032,0.06528
2.036,0.10998
2.04,0.10188
2.044,0.16356
2.048,0.09416
2.052,0.17243
2.056,0.11105
2.06,0.06588
2.064,0.04902
2.068,0.06422
2.072,0.08888
2.076,0.04386
2.08,0.11415
2.084,0.04018
2.088,0.11036
2.092,-0.02237
2.096,0.00982
2.1,0.00266
2.104,-0.01584
2.108,0.02863
2.112,0.05298
2.116,-0.03481
2.12,0.00083
2.124,0.07367
2.128,0.08971
2.132,0.02716
2.136,0.03106
2.14,0.06185
2.144,0.09734
2.148,0.00205
2.152,0.01945
2.156,0.04146
2.16,0.06438
2.164,0.03046
2.168,0.13567
2.172,0.05378
2.176,0.05429
2.18,0.08266
2.184,0.04522
2.188,0.07984
2.192,0.05489
2.196,0.16909
2.2,0.08408
2.204,0.04769
2.208,0.16468
2.212,0.10129
2.216,0.19483
2.22,0.16004
2.224,0.13902
2.228,0.16477
2.232,0.20993
2.236,0.23081
2.24,0.18033
2.244,0.22989
2.248,0.26029
2.252,0.24292
2.256,0.25797
2.26,0.19734
2.264,0.22669
2.268,0.33198
2.272,0.32558
2.276,0.22713
2.28,0.2491
2.284,0.2573
2.288,0.2492
2.292,0.23289
2.296,0.15603
2.3,0.18363
2.304,0.16726
2.308,0.21995
2.312,0.0682
2.316,0.21117
2.32,0.13226
2.324,0.14603
2.328,0.144
2.332,0.1725
2.336,0.13755
2.34,0.10265
2.344,0.16112
2.348,0.16187
2.352,0.15229
2.356,0.15611
2.36,0.14362
2.364,0.19651
2.368,0.17459
2.372,0.15796
2.376,0.10058
2.38,0.10042
2.384,0.09167
2.388,0.08718
2.392,0.08897
2.396,0.0379
2.4,0.09094
2.404,0.06436
2.408,0.04599
2.412,0.04849
2.416,0.10772
2.42,-0.00727
2.424,0.00231
2.428,-0.04187
2.432,0.07358
2.436,0.0113
2.44,0.06464
2.444,0.01927
2.448,0.08962
2.452,0.09025
2.456,0.03371
2.46,-0.02111
2.464,0.03799
2.468,-0.01536
2.472,0.01621
2.476,0.01432
2.48,-0.03548
2.484,-0.0875
2.488,-0.11016
2.492,-0.05827
2.496,-0.02089
2.5,0.12611
2.504,0.21002
2.508,0.44836
2.512,0.7003
2.516,0.85367
2.52,1.00866
2.524,1.05265
2.528,1.0241
2.532,0.79604
2.536,0.59277
2.54,0.38625
2.544,0.06359
2.548,-0.0597
2.552,-0.12099
2.556,-0.17512
2.56,-0.14929
2.564,-0.07671
2.568,-0.09387
2.572,-0.06207
2.576,-0.0038
2.58,-0.03335
2.584,-0.00859
2.588,0.0592
2.592,0.02788
2.596,0.03209
2.6,0.04406
2.604,0.0177
2.608,0.04782
2.612,0.02195
2.616,-0.01171
2.62,0.04021
2.624,-0.00518
2.628,0.07023
2.632,0.10647
2.636,0.01212
2.64,-0.03201
2.644,0.02832
2.648,0.01164
2.652,0.03953
2.656,-0.05419
2.66,0.02366
2.664,0.02192
2.668,0.06247
2.672,0.0077
2.676,0.05865
2.68,0.00188
2.684,0.03498
2.688,0.06315
2.692,-0.00431
2.696,0.02907
2.7,0.063
2.704,0.03162
2.708,-0.0284
2.712,0.05574
2.716,0.10788
2.72,0.11154
2.724,0.09265
2.728,0.07447
2.732,0.05665
2.736,0.07541
2.74,0.12307
2.744,0.07518
2.748,0.15362
2.752,0.1502
2.756,0.19312
2.76,0.14225
2.764,0.18216
2.768,0.16492
2.772,0.16589
2.776,0.19322
2.78,0.20628
2.784,0.17976
2.788,0.27921
2.792,0.18985
2.796,0.25953
2.8,0.2473
2.804,0.21269
2.808,0.28655
2.812,0.22221
2.816,0.28105
2.82,0.29582
2.824,0.18156
2.828,0.22929
2.832,0.1881
2.836,0.19894
2.84,0.18396
2.844,0.11874
2.848,0.12866
2.852,0.12461
2.856,0.15792
2.86,0.09797
2.864,0.11524
2.868,0.10566
2.872,0.05538
2.876,0.07178
2.88,0.08838
2.884,0.1482
2.888,0.03074
2.892,0.14529
2.896,0.04609
2.9,0.04678
2.904,0.08161
2.908,-0.00663
2.912,0.05326
2.916,0.05912
2.92,0.00789
2.924,0.00345
2.928,0.06786
2.932,0.07536
2.936,0.04227
2.94,0.02358
2.944,0.06471
2.948,0.0502
2.952,0.02321
2.956,0.04695
2.96,0.04516
2.964,0.11694
2.968,0.03249
2.972,0.02809
2.976,0.05907
2.98,-0.00282
2.984,0.05974
2.988,0.02929
2.992,0.09035
2.996,0.01461
3.0,-0.00765
3.004,0.0547
3.008,0.07989
3.012,-0.01491
3.016,0.05284
3.02,0.04614
3.024,0.0132
3.028,0.01195
3.032,-0.00318
3.036,0.03547
3.04,0.05333
3.044,0.02747
3.048,-0.03341
3.052,0.08532
3.056,0.09397
3.06,0.0368
3.064,0.04254
3.068,0.05894
3.072,0.04759
3.076,0.04211
3.08,0.05148
3.084,0.06498
3.088,0.11353
3.092,0.16457
3.096,0.09377
3.1,0.14207
3.104,0.20255
3.108,0.12262
3.112,0.14027
3.116,0.07129
3.12,0.0918
3.124,0.07761
3.128,0.02227
3.132,0.03287
3.136,0.02931
3.14,0.02441
3.144,0.05913
3.148,0.03705
3.152,0.06611
3.156,0.05343
3.16,0.04593
3.164,-0.00415
3.168,0.05576
3.172,0.05584
3.176,0.06413
3.18,0.01009
3.184,0.02272
3.188,0.02808
3.192,0.00514
3.196,-0.01678
3.2,0.02544
3.204,0.02578
3.208,0.03242
3.212,0.03075
3.216,0.02405
3.22,-0.03377
3.224,-0.06409
3.228,-0.13834
3.232,-0.06171
3.236,-0.06928
3.24,0.02263
3.244,0.31141
3.248,0.49906
3.252,0.64329
3.256,0.90341
3.26,1.01843
3.264,0.97766
3.268,0.87991
3.272,0.79192
3.276,0.49393
3.28,0.29128
3.284,0.05337
3.288,-0.08817
3.292,-0.08763
3.296,-0.1423
3.3,-0.17865
3.304,-0.09102
3.308,-0.05976
3.312,0.02266
3.316,-0.00853
3.32,0.01048
3.324,0.02859
3.328,0.08606
3.332,0.00941
3.336,-0.00424
3.34,0.01968
3.344,0.03529
3.348,0.04864
3.352,0.02094
3.356,0.05511
3.36,0.05376
3.364,0.06256
3.368,0.03476
3.372,-0.03835
3.376,-0.01267
3.38,0.01231
3.384,0.00246
3.388,0.02336
3.392,-0.01169
3.396,0.04781
3.4,0.02557
3.404,0.00836
3.408,-0.00537
3.412,0.02969
3.416,0.05843
3.42,0.00088
3.424,-0.002
3.428,0.05386
3.432,0.07545
3.436,0.00571
3.44,0.06437
3.444,0.02809
3.448,0.01149
3.452,0.04866
3.456,0.02549
3.46,0.06073
3.464,0.04599
3.468,0.07981
3.472,0.10747
3.476,0.08282
3.48,0.07287
3.484,0.08548
3.488,0.13892
3.492,0.19038
3.496,0.21466
3.5,0.1742
3.504,0.23086
3.508,0.24216
3.512,0.24426
3.516,0.25222
3.52,0.30568
3.524,0.26538
3.528,0.37398
3.532,0.28436
3.536,0.31541
3.54,0.26735
3.544,0.38855
3.548,0.28569
3.552,0.27543
3.556,0.2851
3.56,0.21103
3.564,0.26641
3.568,0.24614
3.572,0.26022
3.576,0.16914
3.58,0.20725
3.584,0.13282
3.588,0.17002
3.592,0.15843
3.596,0.175
3.6,0.1205
3.604,0.10919
3.608,0.17512
3.612,0.08491
3.616,0.09779
3.62,0.12395
3.624,0.08096
3.628,0.02052
3.632,0.04703
3.636,0.0363
3.64,0.06511
3.644,0.00097
3.648,-0.01626
3.652,-0.1031
3.656,-0.09891
3.66,-0.13659
3.664,-0.05618
3.668,-0.00154
3.672,0.12324
3.676,0.44014
3.68,0.65413
3.684,0.87067
3.688,0.97882
3.692,1.051
3.696,0.93266
3.7,0.76873
3.704,0.51999
3.708,0.31188
3.712,0.11271
3.716,-0.01279
3.72,-0.07015
3.724,-0.12271
3.728,-0.12218
3.732,-0.08884
3.736,-0.04336
3.74,-0.00238
3.744,-0.04235
3.748,0.04488
3.752,0.05999
3.756,-0.01025
3.76,0.00492
3.764,-0.03375
3.768,0.03912
3.772,0.03515
3.776,-0.0177
3.78,0.05099
3.784,0.05395
3.788,-0.0156
3.792,0.01407
3.796,0.01578
3.8,0.03124
3.804,-0.09067
3.808,0.00741
3.812,0.02525
3.816,-0.04902
3.82,-0.01346
3.824,0.02316
3.828,0.04202
3.832,-0.06768
3.836,0.03932
3.84,0.08441
3.844,0.01254
3.848,0.04153
3.852,0.00238
3.856,0.06579
3.86,0.01377
3.864,0.03606
3.868,-0.01132
3.872,0.12088
3.876,-0.05157
3.88,0.03933
3.884,-0.00148
3.888,0.01903
3.892,0.01597
3.896,-0.0199
3.9,0.04
3.904,0.05297
3.908,0.13284
3.912,0.1024
3.916,0.03311
3.92,0.08824
3.924,0.13185
3.928,0.17204
3.932,0.11659
3.936,0.18333
3.94,0.23951
3.944,0.23341
3.948,0.24843
3.952,0.16808
3.956,0.26165
3.96,0.18564
3.964,0.18619
3.968,0.16931
3.972,0.24256
3.976,0.21078
3.98,0.21989
3.984,0.27073
3.988,0.22568
3.992,0.12796
3.996,0.20416
4.0,0.14482
4.004,0.19887
4.008,0.19777
4.012,0.10225
4.016,0.17275
4.02,0.14771
4.024,0.1575
4.028,0.13078
4.032,0.13164
4.036,0.16994
4.04,0.12283
4.044,0.1955
4.048,0.14784
4.052,0.14985
4.056,0.13941
4.06,0.12693
4.064,0.15465
4.068,0.09245
4.072,0.02214
4.076,0.03765
4.08,0.05845
4.084,0.03011
4.088,0.01885
4.092,0.00638
4.096,0.05592
4.1,-0.02041
4.104,0.00744
4.108,0.02057
4.112,0.0083
4.116,-0.00052
4.12,0.02801
4.124,0.001
4.128,-0.06031
4.132,0.02316
4.136,-0.00896
4.14,-0.02574
4.144,-0.02818
4.148,-0.01636
4.152,-0.04119
4.156,-0.00234
4.16,0.01802
4.164,0.06511
4.168,-0.02136
4.172,-0.00483
4.176,-0.06729
4.18,-0.11546
4.184,-0.06807
4.188,-0.05388
4.192,0.13965
4.196,0.40618
4.2,0.51753
4.204,0.8249
4.208,0.95343
4.212,0.9864
4.216,0.97294
4.22,0.83224
4.224,0.65587
4.228,0.40708
4.232,0.24264
4.236,0.01087
4.24,-0.1915
4.244,-0.14989
4.248,-0.13823
4.252,-0.12153
4.256,-0.04729
4.26,-0.02505
4.264,0.01831
4.268,-0.08716
4.272,-0.00562
4.276,0.02363
4.28,-0.024
4.284,-0.04307
4.288,-0.00367
4.292,-0.03935
4.296,-0.01004
4.3,-0.06037
4.304,-0.02085
4.308,-0.03501
4.312,-0.01379
4.316,-0.04974
4.32,0.06084
4.324,-0.04135
4.328,-0.03254
4.332,0.03605
4.336,-0.02323
4.34,0.0363
4.344,0.0264
4.348,-0.01625
4.352,-0.00443
4.356,-0.04435
4.36,0.0267
4.364,0.01025
4.368,-0.03277
4.372,0.01437
4.376,-0.01616
4.38,-0.04252
4.384,0.00542
4.388,0.0475
4.392,0.0066
4.396,-0.00355
4.4,-0.01463
4.404,0.01682
4.408,0.063
4.412,-0.0037
4.416,0.08783
4.42,0.08789
4.424,0.07144
4.428,0.06381
4.432,0.04247
4.436,0.08356
4.44,0.11453
4.444,0.14574
4.448,0.09053
4.452,0.18395
4.456,0.12622
4.46,0.11119
4.464,0.1849
4.468,0.18097
4.472,0.20999
4.476,0.30982
4.48,0.24057
4.484,0.14534
4.488,0.20115
4.492,0.22484
4.496,0.22009
4.5,0.21667
4.504,0.23809
4.508,0.17319
4.512,0.23087
4.516,0.19552
4.52,0.26095
4.524,0.1548
4.528,0.12841
4.532,0.07661
4.536,0.06684
4.54,0.14529
4.544,0.09017
4.548,0.14171
4.552,0.09065
4.556,0.07825
4.56,0.07832
4.564,0.0022
4.568,0.09578
4.572,0.06438
4.576,-0.00064
4.58,0.03466
4.584,0.01542
4.588,0.02185
4.592,0.03762
4.596,0.01177
4.6,-0.01996
4.604,-0.0416
4.608,-0.07098
4.612,-0.01031
4.616,-0.02024
4.62,-0.00916
4.624,-0.03617
4.628,-0.03543
4.632,-0.01689
4.636,0.0251
4.64,0.03181
4.644,0.07571
4.648,0.04917
4.652,0.01944
4.656,0.08014
4.66,0.06414
4.664,0.0943
4.668,0.0923
4.672,0.05037
4.676,0.05537
4.68,0.10165
4.684,0.0496
4.688,0.02113
4.692,-0.04177
4.696,0.02031
4.7,-0.05947
4.704,-0.01716
4.708,0.01962
4.712,0.00612
4.716,-0.01916
4.72,-0.09097
4.724,0.01518
4.728,-0.01331
4.732,-0.04476
4.736,-0.0501
4.74,0.00456
4.744,-0.02787
4.748,0.00125
4.752,-0.06088
4.756,-0.01777
4.76,-0.03324
4.764,-0.06201
4.768,-0.02298
4.772,0.00075
4.776,-0.08924
4.78,-0.07202
4.784,-0.09432
4.788,-0.1604
4.792,-0.07749
4.796,0.03259
4.8,0.13295
4.804,0.31107
4.808,0.56635
4.812,0.74916
4.816,0.9567
4.82,0.92429
4.824,0.92445
4.828,0.73264
4.832,0.5979
4.836,0.36636
4.84,0.15881
4.844,-0.032
4.848,-0.16261
4.852,-0.19037
4.856,-0.17698
4.86,-0.17102
4.864,-0.11101
4.868,-0.05134
4.872,-0.03921
4.876,-0.01015
4.88,0.03033
4.884,0.01278
4.888,-0.00265
4.892,-0.06933
4.896,0.02519
4.9,0.03307
4.904,-0.06001
4.908,-0.05992
4.912,-0.02264
4.916,-0.07755
4.92,-0.04006
4.924,0.00352
4.928,-0.07349
4.932,-0.06243
4.936,-0.01201
4.94,-0.03622
4.944,0.00132
4.948,-0.02144
4.952,-0.01686
4.956,-0.06185
4.96,-0.06811
4.964,0.0017
4.968,-0.02875
4.972,-0.01237
4.976,-0.02339
4.98,0.0045
4.984,-0.00386
4.988,-0.02066
4.992,-0.02656
4.996,-0.00114
5.0,0.01661
5.004,-0.02491
5.008,-0.03896
5.012,0.06757
5.016,0.03592
5.02,0.01899
5.024,-0.05219
5.028,0.07975
5.032,0.03769
5.036,0.08515
5.04,0.08272
5.044,0.06515
5.048,0.13001
5.052,0.11249
5.056,0.1341
5.06,0.16084
5.064,0.08492
5.068,0.16866
5.072,0.16176
5.076,0.14635
5.08,0.13493
5.084,0.21667
5.088,0.14103
5.092,0.19885
5.096,0.20739
5.1,0.23291
5.104,0.2198
5.108,0.12321
5.112,0.14558
5.116,0.25814
5.12,0.19151
5.124,0.20964
5.128,0.21447
5.132,0.1585
5.136,0.17486
5.14,0.1445
5.144,0.12243
5.148,0.08223
5.152,0.12022
5.156,0.04642
5.16,0.02604
5.164,0.04886
5.168,0.04592
5.172,0.01707
5.176,0.03116
5.18,0.01874
5.184,0.01064
5.188,-0.02807
5.192,-0.01703
5.196,0.04602
5.2,0.02989
5.204,0.02214
5.208,0.02517
5.212,-0.00763
5.216,-0.00519
5.22,-0.04623
5.224,-0.01553
5.228,0.01519
5.232,-0.03057
5.236,-0.02222
5.24,-0.04353
5.244,0.03129
5.248,0.05612
5.252,-0.05444
5.256,-0.03841
5.26,-0.00179
5.264,-0.02864
5.268,-0.02657
5.272,-0.0036
5.276,-0.0205
5.28,-0.02598
5.284,-0.019
5.288,0.00997
5.292,-0.02493
5.296,0.00217
5.3,0.00446
5.304,0.06249
5.308,0.04676
5.312,-0.00557
5.316,0.07238
5.32,0.02037
5.324,0.13454
5.328,0.03209
5.332,0.06966
5.336,0.07418
5.34,0.06136
5.344,0.01841
5.348,0.05623
5.352,0.05906
5.356,0.03744
5.36,0.02747
5.364,-0.03391
5.368,-0.00797
5.372,-0.06597
5.376,-0.02637
5.38,0.05419
5.384,-0.04176
5.388,-0.04159
5.392,-0.0689
5.396,-0.00806
5.4,-0.03425
5.404,-0.05304
5.408,0.00542
5.412,-0.05122
5.416,-0.05864
5.42,0.01446
5.424,-0.05976
5.428,-0.01906
5.432,-0.08111
5.436,-0.08572
5.44,-0.06553
5.444,-0.04654
5.448,-0.10951
5.452,-0.16437
5.456,-0.07717
5.46,-0.05045
5.464,0.05291
5.468,0.34381
5.472,0.5058
5.476,0.72445
5.48,0.83233
5.484,0.96373
5.488,0.97599
5.492,0.7743
5.496,0.50819
5.5,0.35974
5.504,0.11715
5.508,-0.00933
5.512,-0.1108
5.516,-0.14992
5.52,-0.22591
5.524,-0.18927
5.528,-0.16226
5.532,-0.00583
5.536,-0.05333
5.54,-0.01659
5.544,-0.05247
5.548,-0.07319
5.552,0.00033
5.556,-0.00522
5.56,-0.05103
5.564,-0.04504
5.568,0.00614
5.572,-0.0367
5.576,-0.055
5.58,0.04035
5.584,0.02027
5.588,-0.05454
5.592,-0.08024
5.596,0.03069
5.6,-0.06233
5.604,-0.00288
5.608,0.00142
5.612,-0.06734
5.616,-0.03538
5.62,0.03269
5.624,-0.0243
5.628,-0.05138
5.632,-0.10254
5.636,0.02311
5.64,-0.04492
5.644,-0.0099
5.648,0.01493
5.652,0.02607
5.656,-0.03635
5.66,-0.0505
5.664,-0.00321
5.668,0.04624
5.672,0.01468
5.676,0.0651
5.68,-0.04534
5.684,-0.01121
5.688,0.00349
5.692,0.01478
5.696,0.05923
5.7,0.07532
5.704,0.0016
5.708,0.03579
5.712,0.04262
5.716,0.08741
5.72,0.12851
5.724,0.14169
5.728,0.02978
5.732,0.09677
5.736,0.15417
5.74,0.13342
5.744,0.12912
5.748,0.15887
5.752,0.11242
5.756,0.23988
5.76,0.23073
5.764,0.17586
5.768,0.21449
5.772,0.14696
5.776,0.20391
5.78,0.22322
5.784,0.23311
5.788,0.14482
5.792,0.14853
5.796,0.16699
5.8,0.11011
5.804,0.14827
5.808,0.09416
5.812,0.09908
5.816,0.10254
5.82,0.04765
5.824,0.08008
5.828,0.06509
5.832,0.01264
5.836,0.04226
5.84,0.02117
5.844,0.01368
5.848,-0.00491
5.852,-0.01506
5.856,-0.00265
5.86,0.00473
5.864,-0.02632
5.868,-0.01468
5.872,0.0292
5.876,-0.09196
5.88,0.00598
5.884,-0.07461
5.888,-0.00586
5.892,-0.03797
5.896,-0.0202
5.9,0.00676
5.904,-0.07618
5.908,-0.11171
5.912,-0.06237
5.916,-0.06625
5.92,-0.05041
5.924,-0.02655
5.928,-0.01831
5.932,0.00455
5.936,0.00742
5.94,-0.03912
5.944,-0.03602
5.948,0.0388
5.952,-0.00579
5.956,0.01147
5.96,0.05458
5.964,0.00595
5.968,-0.01725
5.972,-0.0234
5.976,0.04225
5.98,0.01535
5.984,0.07434
5.988,0.10573
5.992,0.08752
5.996,0.11448
6.0,0.02545
6.004,0.0227
6.008,0.01002
6.012,0.00477
6.016,0.05144
6.02,0.03101
6.024,0.02453
6.028,-0.01704
6.032,0.03222
6.036,-0.00305
6.04,-0.01123
6.044,-0.04284
6.048,-0.03504
6.052,-0.0157
6.056,-0.06534
6.06,-0.00583
6.064,-0.00753
6.068,0.02333
6.072,-0.00692
6.076,-0.03897
6.08,-0.07805
6.084,-0.03837
6.088,-0.05282
6.092,-0.00222
6.096,-0.12324
6.1,-0.05673
6.104,0.04936
6.108,-0.05877
6.112,-0.11209
6.116,-0.1354
6.12,-0.03803
6.124,-0.11918
6.128,-0.07771
6.132,0.02164
6.136,0.25033
6.14,0.41756
6.144,0.57498
6.148,0.79356
6.152,0.89677
6.156,0.92033
6.16,0.87449
6.164,0.74521
6.168,0.42838
6.172,0.29829
6.176,0.08091
6.18,-0.10317
6.184,-0.23448
6.188,-0.27825
6.192,-0.21081
6.196,-0.13793
6.2,-0.10175
6.204,-0.02333
6.208,0.00836
6.212,-0.0354
6.216,-0.0105
6.22,-0.00929
6.224,0.0206
6.228,-0.02374
6.232,-0.03033
6.236,-0.03701
6.24,-0.01407
6.244,-0.02698
6.248,-0.03682
6.252,-0.08298
6.256,-0.01862
6.26,-0.09086
6.264,-0.01578
6.268,-0.02278
6.272,-0.01496
6.276,-0.00839
6.28,-0.02787
6.284,0.00383
6.288,-0.06297
6.292,-0.05909
6.296,-0.02811
6.3,-0.03687
6.304,-0.03808
6.308,-0.0523
6.312,0.03071
6.316,-0.06032
6.32,-0.03979
6.324,-0.02265
6.328,0.03
6.332,-0.0319
6.336,-0.06368
6.34,0.00503
6.344,-0.00145
6.348,0.04439
6.352,0.05367
6.356,0.05255
6.36,0.03556
6.364,0.01811
6.368,0.01446
6.372,0.10525
6.376,0.1308
6.38,0.06139
6.384,0.10901
6.388,0.09247
6.392,0.05951
6.396,0.08389
6.4,0.11537
6.404,0.12403
6.408,0.12275
6.412,0.09228
6.416,0.11491
6.42,0.21253
6.424,0.26584
6.428,0.1806
6.432,0.1743
6.436,0.1808
6.44,0.1422
6.444,0.19288
6.448,0.16624
6.452,0.15537
6.456,0.19807
6.46,0.21354
6.464,0.09806
6.468,0.14955
6.472,0.15932
6.476,0.18186
6.48,0.09555
6.484,0.05556
6.488,0.04884
6.492,0.04985
6.496,0.08191
6.5,0.10582
6.504,0.04545
6.508,-0.00358
6.512,0.09129
6.516,0.03693
6.52,0.01789
6.524,-0.01121
6.528,-0.04604
6.532,-0.06421
6.536,0.01853
6.54,-0.00977
6.544,-0.01128
6.548,0.02037
6.552,0.0265
6.556,-0.03428
6.56,-0.05355
6.564,-0.01572
6.568,-0.01286
6.572,-0.02029
6.576,-0.09507
6.58,0.00618
6.584,-0.00459
6.588,0.02973
6.592,0.01988
6.596,0.01598
6.6,-0.0
6.604,-0.01441
6.608,-0.05501
6.612,0.00597
6.616,-0.04046
6.62,-0.03818
6.624,-0.05768
6.628,-0.02576
6.632,-0.0254
6.636,0.00292
6.64,0.03083
6.644,0.01158
6.648,-0.0593
6.652,-0.04529
6.656,0.04089
6.66,-0.05708
6.664,-0.03859
6.668,0.00015
6.672,0.0028
6.676,-0.02673
6.68,-0.03619
6.684,-0.01881
6.688,-0.06511
6.692,-0.00373
6.696,-0.01231
6.7,-0.00057
6.704,0.01695
6.708,0.04021
6.712,-0.02793
6.716,-0.00092
6.72,0.04812
6.724,0.06521
6.728,0.0308
6.732,0.05759
6.736,0.04093
6.74,0.10535
6.744,0.07852
6.748,0.02852
6.752,0.05905
6.756,0.09788
6.76,0.04314
6.764,-0.02289
6.768,-0.00242
6.772,0.00865
6.776,0.05614
6.78,-0.0289
6.784,0.00566
6.788,0.01263
6.792,-0.09313
6.796,-0.04276
6.8,0.00836
6.804,0.04146
6.808,-0.02761
6.812,-0.00315
6.816,-0.01913
6.82,-0.01775
6.824,-0.00787
6.828,0.00987
6.832,-0.07501
6.836,0.03837
6.84,0.02897
6.844,-0.04086
6.848,0.03286
6.852,-0.03812
6.856,-0.07643
6.86,-0.06006
6.864,-0.13941
6.868,-0.09322
6.872,-0.07579
6.876,0.11289
6.88,0.26242
6.884,0.51084
6.888,0.72496
6.892,0.88404
6.896,0.98461
6.9,0.97997
6.904,0.88758
6.908,0.65578
6.912,0.48568
6.916,0.13893
6.92,0.02208
6.924,-0.13076
6.928,-0.1625
6.932,-0.14518
6.936,-0.16103
6.94,-0.15424
6.944,-0.07756
6.948,-0.06902
6.952,0.0456
6.956,0.03838
6.96,-0.03273
6.964,-0.07564
6.968,-0.05772
6.972,-0.02466
6.976,-0.02123
6.98,-0.03149
6.984,-0.02085
6.988,0.06158
6.992,0.00268
6.996,0.01624
7.0,-0.04421
7.004,-0.03776
7.008,0.01366
7.012,-0.03746
7.016,-0.01165
7.02,0.0381
7.024,-0.0072
7.028,0.00404
7.032,0.00889
7.036,0.00235
7.04,-0.02214
7.044,-0.07477
7.048,-0.01072
7.052,0.02737
7.056,0.00496
7.06,-0.04228
7.064,0.00291
7.068,-0.04164
7.072,0.01591
7.076,-0.07152
7.08,-0.00696
7.084,0.00636
7.088,0.00217
7.092,0.01039
7.096,0.04296
7.1,0.00727
7.104,0.06569
7.108,0.01652
7.112,-0.01342
7.116,0.07765
7.12,0.09933
7.124,0.12532
7.128,0.15352
7.132,0.1224
7.136,0.15751
7.14,0.13173
7.144,0.20372
7.148,0.15182
7.152,0.13855
7.156,0.22236
7.16,0.22651
7.164,0.20271
7.168,0.17747
7.172,0.18437
7.176,0.21393
7.18,0.24265
7.184,0.22041
7.188,0.19783
7.192,0.21795
7.196,0.18866
7.2,0.21745
7.204,0.17857
7.208,0.25213
7.212,0.26697
7.216,0.25955
7.22,0.26274
7.224,0.25066
7.228,0.19802
7.232,0.17815
7.236,0.17346
7.24,0.2213
7.244,0.13839
7.248,0.13038
7.252,0.08015
7.256,-0.00042
7.26,0.02406
7.264,0.02888
7.268,-0.00958
7.272,-0.06907
7.276,0.02756
7.28,-0.00056
7.284,-0.08835
7.288,0.03522
7.292,0.08883
7.296,0.04914
7.3,-0.0348
7.304,-0.02016
7.308,-0.04697
7.312,0.0538
7.316,0.05367
7.32,0.01379
7.324,-0.00584
7.328,-0.02987
7.332,0.02074
7.336,0.00445
7.34,-0.01898
7.344,-0.06444
7.348,-0.0808
7.352,-0.11488
7.356,-0.08975
7.36,-0.09016
7.364,0.05422
7.368,0.24052
7.372,0.4953
7.376,0.71616
7.38,0.88713
7.384,1.02179
7.388,0.9383
7.392,0.83433
7.396,0.65002
7.4,0.40708
7.404,0.22989
7.408,0.01579
7.412,-0.12228
7.416,-0.15594
7.42,-0.14668
7.424,-0.2437
7.428,-0.0661
7.432,-0.06836
7.436,-0.02494
7.44,0.02722
7.444,-0.03533
7.448,0.0125
7.452,-0.03859
7.456,-0.00029
7.46,-0.02484
7.464,0.02417
7.468,0.00676
7.472,0.02984
7.476,0.01117
7.48,0.00622
7.484,-0.04931
7.488,-0.05585
7.492,0.00688
7.496,-0.03098
7.5,0.04043
7.504,-0.00271
7.508,0.08206
7.512,0.0258
7.516,0.02405
7.52,0.02918
7.524,0.01626
7.528,-0.01836
7.532,-0.01975
7.536,0.03295
7.54,0.00116
7.544,0.01866
7.548,0.01468
7.552,0.01153
7.556,0.06487
7.56,-0.03379
7.564,0.04984
7.568,-0.00195
7.572,0.02496
7.576,-0.03077
7.58,0.14558
7.584,0.01508
7.588,0.04538
7.592,0.00035
7.596,0.04721
7.6,0.08638
7.604,0.11812
7.608,0.09922
7.612,0.06583
7.616,0.11044
7.62,0.05225
7.624,0.15873
7.628,0.16355
7.632,0.17167
7.636,0.14506
7.64,0.1879
7.644,0.20735
7.648,0.22767
7.652,0.18654
7.656,0.17099
7.66,0.25459
7.664,0.18942
7.668,0.18394
7.672,0.2061
7.676,0.23357
7.68,0.24047
7.684,0.15388
7.688,0.19937
7.692,0.20759
7.696,0.19263
7.7,0.17271
7.704,0.13557
7.708,0.11071
7.712,0.12417
7.716,0.09631
7.72,0.09562
7.724,0.09909
7.728,0.07357
7.732,0.11212
7.736,0.0552
7.74,0.08848
7.744,0.02893
7.748,0.0106
7.752,0.0372
7.756,0.02365
7.76,0.00413
7.764,0.03923
7.768,0.01293
7.772,-0.00423
7.776,0.03432
7.78,0.02561
7.784,0.04959
7.788,0.00884
7.792,-0.03193
7.796,-0.0107
7.8,-0.00091
7.804,0.02395
7.808,-0.03565
7.812,0.0135
7.816,-0.00158
7.82,-0.04226
7.824,0.04172
7.828,-0.00943
7.832,0.00381
7.836,0.01936
7.84,-0.0295
7.844,0.03345
7.848,0.01783
7.852,0.02139
7.856,0.03028
7.86,-0.02813
7.864,0.00557
7.868,0.05276
7.872,-0.0378
7.876,-0.0737
7.88,-0.02792
7.884,-0.03441
7.888,-0.00726
7.892,0.04904
7.896,0.01817
7.9,-0.00098
7.904,-0.01719
7.908,0.01053
7.912,-0.00989
7.916,-0.02005
7.92,0.00775
7.924,0.03002
7.928,0.0484
7.932,0.06945
7.936,0.02928
7.94,0.00775
7.944,0.08151
7.948,0.02864
7.952,0.09071
7.956,0.07501
7.96,0.12794
7.964,0.05597
7.968,0.12463
7.972,0.15982
7.976,0.08232
7.98,0.08618
7.984,0.0946
7.988,0.06526
7.992,0.09186
7.996,0.0707
8.0,0.06101
8.004,0.03019
8.008,0.03986
8.012,0.05779
8.016,0.03561
8.02,-0.03245
8.024,-0.0083
8.028,0.03549
8.032,-0.03913
8.036,-0.01228
8.04,0.00664
8.044,-0.00532
8.048,0.03732
8.052,0.05436
8.056,0.00102
8.06,0.01434
8.064,-0.01718
8.068,0.01081
8.072,0.05742
8.076,-0.00177
8.08,-0.01112
8.084,-0.05437
8.088,-0.0978
8.092,-0.16192
8.096,-0.06707
8.1,-0.06376
8.104,0.08211
8.108,0.37058
8.112,0.509
8.116,0.71955
8.12,0.91613
8.124,0.96588
8.128,0.97084
8.132,0.84274
8.136,0.64624
8.14,0.42575
8.144,0.19193
8.148,0.00152
8.152,-0.12586
8.156,-0.18308
8.16,-0.15669
8.164,-0.02574
8.168,-0.03404
8.172,-0.06274
8.176,-0.01368
8.18,0.04134
8.184,-0.04636
8.188,-0.01329
8.192,0.09523
8.196,-0.04974
8.2,-0.03865
8.204,0.00319
8.208,0.02947
8.212,-0.04211
8.216,0.0264
8.22,0.02448
8.224,0.00371
8.228,0.01093
8.232,-0.001
8.236,-0.00585
8.24,0.04019
8.244,0.04667
8.248,0.00753
8.252,0.04483
8.256,0.05113
8.26,-0.02163
8.264,-0.01938
8.268,0.01347
8.272,0.04594
8.276,0.04297
8.28,0.02171
8.284,0.05092
8.288,0.03016
8.292,0.02545
8.296,0.05012
8.3,0.01953
8.304,0.06988
8.308,0.01399
8.312,0.02278
8.316,0.08041
8.32,0.04171
8.324,0.13841
8.328,0.11644
8.332,0.07995
8.336,0.08725
8.34,0.02231
8.344,0.15744
8.348,0.14631
8.352,0.07954
8.356,0.09564
8.36,0.14695
8.364,0.14553
8.368,0.22181
8.372,0.1618
8.376,0.19944
8.38,0.23612
8.384,0.22815
8.388,0.27335
8.392,0.25504
8.396,0.26214
8.4,0.23543
8.404,0.27436
8.408,0.22949
8.412,0.29685
8.416,0.22603
8.42,0.25012
8.424,0.22033
8.428,0.218
8.432,0.25767
8.436,0.17876
8.44,0.20694
8.444,0.21899
8.448,0.13658
8.452,0.18239
8.456,0.1919
8.46,0.1877
8.464,0.15684
8.468,0.14117
8.472,0.17802
8.476,0.17014
8.48,0.18747
8.484,0.11908
8.488,0.15637
8.492,0.11564
8.496,0.10957
8.5,0.23459
8.504,0.0821
8.508,0.11171
8.512,0.05005
8.516,0.12203
8.52,0.11149
8.524,0.0957
8.528,0.09969
8.532,0.08071
8.536,0.0928
8.54,0.06188
8.544,-0.05739
8.548,0.04898
8.552,0.02162
8.556,0.0447
8.56,-0.00306
8.564,-0.0065
8.568,0.05432
8.572,0.04124
8.576,-0.02237
8.58,0.03983
8.584,0.02238
8.588,-0.0164
8.592,-0.0101
8.596,-0.01057
8.6,-0.00021
8.604,0.0735
8.608,0.05665
8.612,0.03392
8.616,-0.04563
8.62,0.01676
8.624,-0.07646
8.628,-0.08393
8.632,-0.02917
8.636,0.11738
8.64,0.28889
8.644,0.51458
8.648,0.73728
8.652,0.93337
8.656,1.06735
8.66,0.98277
8.664,0.8491
8.668,0.66834
8.672,0.38474
8.676,0.19116
8.68,0.00388
8.684,-0.06245
8.688,-0.09621
8.692,-0.11279
8.696,-0.09054
8.7,-0.02032
8.704,-0.00126
8.708,-0.02263
8.712,0.0102
8.716,0.05059
8.72,0.09353
8.724,0.02482
8.728,0.06624
8.732,0.05744
8.736,0.0157
8.74,0.00501
8.744,0.04504
8.748,0.01212
8.752,0.03469
8.756,0.03732
8.76,-0.05032
8.764,-0.01173
8.768,0.03104
8.772,-0.01946
8.776,0.08113
8.78,0.03407
8.784,0.0572
8.788,0.03208
8.792,0.02978
8.796,0.04094
8.8,-0.03785
8.804,0.02635
8.808,0.08342
8.812,0.04328
8.816,0.03713
8.82,0.04838
8.824,0.06674
8.828,0.01769
8.832,0.04089
8.836,0.08875
8.84,0.06029
8.844,0.09133
8.848,0.0903
8.852,0.13829
8.856,0.06288
8.86,0.07728
8.864,0.09479
8.868,0.10384
8.872,0.07803
8.876,0.09646
8.88,0.11506
8.884,0.15981
8.888,0.16755
8.892,0.11548
8.896,0.16291
8.9,0.18575
8.904,0.22279
8.908,0.2287
8.912,0.22932
8.916,0.27437
8.92,0.22234
8.924,0.27732
8.928,0.18199
8.932,0.2748
8.936,0.26341
8.94,0.21295
8.944,0.27882
8.948,0.28461
8.952,0.25837
8.956,0.22992
8.96,0.235
8.964,0.19544
8.968,0.22587
8.972,0.17751
8.976,0.1522
8.98,0.22249
8.984,0.1964
8.988,0.19726
8.992,0.04635
8.996,0.13615
9.0,0.0783
9.004,0.10336
9.008,0.10896
9.012,0.09019
9.016,0.12378
9.02,0.11677
9.024,0.06064
9.028,0.04042
9.032,0.03503
9.036,0.08656
9.04,0.03396
9.044,0.02385
9.048,0.02926
9.052,0.0715
9.056,0.01797
9.06,0.03251
9.064,0.06736
9.068,-0.00726
9.072,0.07108
9.076,0.09281
9.08,0.01825
9.084,0.08206
9.088,-0.00673
9.092,0.01371
9.096,0.03882
9.1,0.05996
9.104,0.04396
9.108,-0.03982
9.112,0.00053
9.116,0.06302
9.12,-0.02881
9.124,0.01948
9.128,0.07057
9.132,-0.00276
9.136,0.05782
9.14,0.02816
9.144,0.01662
9.148,-0.01093
9.152,0.06715
9.156,0.01259
9.16,0.05621
9.164,0.03404
9.168,0.04897
9.172,0.06569
9.176,-0.0156
9.18,0.08533
9.184,0.08768
9.188,0.01239
9.192,-0.00997
9.196,0.04115
9.2,-0.02799
9.204,0.03796
9.208,-0.03137
9.212,0.04732
9.216,0.10111
9.22,-0.00332
9.224,0.05791
9.228,-0.02405
9.232,-0.00602
9.236,0.03902
9.24,0.04155
9.244,0.05252
9.248,0.07975
9.252,0.07832
9.256,0.06628
9.26,-0.01076
9.264,0.13825
9.268,0.10405
9.272,0.17389
9.276,0.1069
9.28,0.14807
9.284,0.26377
9.288,0.11998
9.292,0.06972
9.296,0.10642
9.3,0.09762
9.304,0.12698
9.308,-0.02442
9.312,0.12406
9.316,0.05236
9.32,0.07192
9.324,0.05463
9.328,0.02646
9.332,0.03551
9.336,0.0807
9.34,0.04524
9.344,0.03733
9.348,0.03206
9.352,0.00677
9.356,0.05346
9.36,-0.02575
9.364,0.03204
9.368,0.04187
9.372,0.08301
9.376,-0.01421
9.38,0.03442
9.384,-0.06048
9.388,0.06866
9.392,0.06027
9.396,0.01412
9.4,-0.06214
9.404,0.01379
9.408,-0.10175
9.412,-0.06187
9.416,-0.03665
9.42,0.13055
9.424,0.35463
9.428,0.55864
9.432,0.75014
9.436,0.97428
9.44,1.0414
9.444,1.01166
9.448,0.88378
9.452,0.62586
9.456,0.4582
9.46,0.21467
9.464,0.08996
9.468,-0.04814
9.472,-0.09081
9.476,-0.10335
9.48,-0.14439
9.484,-0.0711
9.488,-0.03864
9.492,-0.05829
9.496,0.01914
9.5,0.00865
9.504,0.01197
9.508,-0.00574
9.512,0.04594
9.516,0.01671
9.52,0.02793
9.524,0.01206
9.528,0.04995
9.532,0.04464
9.536,0.09109
9.54,0.0063
9.544,-0.04244
9.548,0.05073
9.552,0.08634
9.556,0.0006
9.56,0.02863
9.564,0.0402
9.568,-0.08731
9.572,0.00191
9.576,-0.00157
9.58,0.02379
9.584,0.00171
9.588,-0.03407
9.592,0.05951
9.596,0.07408
9.6,0.01324
9.604,-0.02246
9.608,0.06653
9.612,-0.00171
9.616,0.02016
9.62,0.02795
9.624,0.09769
9.628,0.08465
9.632,0.07706
9.636,0.06665
9.64,0.10867
9.644,0.06454
9.648,0.04849
9.652,0.0727
9.656,0.04418
9.66,0.11929
9.664,0.11148
9.668,0.21481
9.672,0.16906
9.676,0.12944
9.68,0.1815
9.684,0.19443
9.688,0.25403
9.692,0.25149
9.696,0.28077
9.7,0.35448
9.704,0.39236
9.708,0.41472
9.712,0.36664
9.716,0.31167
9.72,0.30819
9.724,0.33118
9.728,0.28468
9.732,0.37958
9.736,0.26243
9.74,0.29556
9.744,0.258
9.748,0.18762
9.752,0.24988
9.756,0.19307
9.76,0.19125
9.764,0.18368
9.768,0.1486
9.772,0.23245
9.776,0.08183
9.78,0.13003
9.784,0.15717
9.788,0.08728
9.792,0.10632
9.796,0.07566
9.8,0.06822
9.804,0.03924
9.808,0.07711
9.812,0.06269
9.816,0.02304
9.82,-0.03586
9.824,0.03875
9.828,-0.01861
9.832,0.00607
9.836,-0.05905
9.84,-0.10124
9.844,-0.04425
9.848,-0.01541
9.852,0.16706
9.856,0.38734
9.86,0.51782
9.864,0.8016
9.868,0.91175
9.872,1.03276
9.876,1.03523
9.88,0.83663
9.884,0.62421
9.888,0.35932
9.892,0.14621
9.896,0.02512
9.9,-0.06472
9.904,-0.1379
9.908,-0.21049
9.912,-0.09879
9.916,-0.02904
9.92,-0.00903
9.924,0.03309
9.928,0.04389
9.932,-0.03548
9.936,-0.01103
9.94,-0.00483
9.944,0.04707
9.948,0.01992
9.952,-0.01616
9.956,0.01725
9.96,0.01917
9.964,0.02337
9.968,0.01682
9.972,0.02182
9.976,0.0466
9.98,0.08315
9.984,0.04234
9.988,-0.00573
9.992,0.02821
9.996,-0.02295
