t_seg,ecg_mV
0.0,-0.01433
0.004,-0.00674
0.008,-0.00745
0.012,-0.04463
0.016,-0.01523
0.02,-0.01537
0.024,-0.01185
0.028,-0.01732
0.032,-0.03301
0.036,-0.0283
0.04,-0.01707
0.044,-0.04074
0.048,0.00601
0.052,-0.00582
0.056,-0.00685
0.06,-0.00195
0.064,-0.02923
0.068,-0.0242
0.072,-0.01511
0.076,-0.03283
0.08,-0.0288
0.084,-0.00808
0.088,-0.00347
0.092,-0.0191
0.096,-0.01498
0.1,-0.03343
0.104,-0.01971
0.108,-0.01248
0.112,-0.02706
0.116,-0.05743
0.12,-0.02871
0.124,0.00904
0.128,0.00062
0.132,0.00224
0.136,-0.01357
0.14,-0.00392
0.144,-0.0022
0.148,-0.00907
0.152,0.00918
0.156,-0.01499
0.16,-0.0012
0.164,-0.00726
0.168,-0.03302
0.172,-0.02867
0.176,-0.0116
0.18,-0.00219
0.184,0.00231
0.188,-0.00951
0.192,0.00439
0.196,-0.01606
0.2,0.00559
0.204,-0.01897
0.208,0.00481
0.212,0.00096
0.216,-0.02007
0.22,-0.02838
0.224,-0.00969
0.228,-0.01658
0.232,0.01145
0.236,0.00163
0.24,0.01374
0.244,-0.00671
0.248,-0.00998
0.252,-0.02529
0.256,0.02124
0.26,0.02997
0.264,0.04774
0.268,0.05276
0.272,0.0684
0.276,0.07921
0.28,0.05534
0.284,0.08542
0.288,0.11806
0.292,0.08032
0.296,0.08345
0.3,0.07669
0.304,0.07595
0.308,0.03971
0.312,0.05356
0.316,0.03026
0.32,0.02621
0.324,0.00242
0.328,0.01838
0.332,0.00602
0.336,-0.01221
0.34,-0.00323
0.344,-0.032
0.348,-0.02655
0.352,-0.00751
0.356,-0.00524
0.36,-0.0254
0.364,-0.01117
0.368,-0.00054
0.372,-0.02243
0.376,-0.01713
0.38,-0.03185
0.384,-0.00683
0.388,0.02219
0.392,-0.04477
0.396,-0.0062
0.4,-0.01799
0.404,-0.0398
0.408,-0.07676
0.412,-0.09365
0.416,-0.12963
0.42,-0.10532
0.424,0.01948
0.428,0.1699
0.432,0.3588
0.436,0.55595
0.44,0.77172
0.444,0.89919
0.448,0.99243
0.452,0.94271
0.456,0.8398
0.46,0.58722
0.464,0.34896
0.468,0.14316
0.472,-0.02553
0.476,-0.12792
0.48,-0.17428
0.484,-0.1772
0.488,-0.12806
0.492,-0.0731
0.496,-0.04603
0.5,-0.03781
0.504,-0.00295
0.508,-0.02514
0.512,-0.0173
0.516,0.01221
0.52,0.00392
0.524,-0.02157
0.528,0.00862
0.532,-0.02093
0.536,-0.01702
0.54,-0.01273
0.544,-0.01712
0.548,0.00117
0.552,0.0028
0.556,-0.00021
0.56,0.00809
0.564,-0.00472
0.568,-0.00249
0.572,0.00168
0.576,-0.0058
0.58,0.02987
0.584,0.0012
0.588,0.00171
0.592,-0.00629
0.596,0.01185
0.6,-0.0006
0.604,0.00626
0.608,-0.00918
0.612,-0.02993
0.616,0.00577
0.62,0.01459
0.624,-0.01653
0.628,0.02797
0.632,0.02535
0.636,0.02338
0.64,0.05463
0.644,0.04584
0.648,0.05668
0.652,0.07286
0.656,0.04455
0.66,0.05651
0.664,0.08498
0.668,0.05894
0.672,0.09934
0.676,0.10635
0.68,0.15829
0.684,0.12916
0.688,0.14893
0.692,0.16818
0.696,0.18186
0.7,0.17311
0.704,0.19725
0.708,0.23632
0.712,0.18885
0.716,0.23812
0.72,0.22031
0.724,0.20104
0.728,0.20719
0.732,0.23581
0.736,0.22712
0.74,0.21834
0.744,0.19827
0.748,0.21846
0.752,0.20737
0.756,0.17992
0.76,0.18126
0.764,0.18139
0.768,0.1513
0.772,0.16738
0.776,0.14422
0.78,0.11603
0.784,0.07796
0.788,0.09117
0.792,0.09891
0.796,0.08124
0.8,0.06691
0.804,0.05122
0.808,0.07785
0.812,0.06521
0.816,0.04844
0.82,0.06602
0.824,0.04467
0.828,0.03369
0.832,0.05411
0.836,0.05196
0.84,0.07208
0.844,0.06917
0.848,0.06771
0.852,0.07793
0.856,0.1017
0.86,0.09656
0.864,0.11262
0.868,0.10265
0.872,0.12106
0.876,0.08862
0.88,0.06677
0.884,0.0693
0.888,0.04801
0.892,0.05296
0.896,0.02035
0.9,0.00915
0.904,0.02372
0.908,0.02867
0.912,0.02642
0.916,0.01762
0.92,0.02572
0.924,-0.01418
0.928,-0.0084
0.932,0.03236
0.936,0.01223
0.94,0.01122
0.944,0.00894
0.948,0.00699
0.952,-0.00119
0.956,0.00546
0.96,0.02889
0.964,0.03341
0.968,0.0309
0.972,0.00509
0.976,0.00139
0.98,-0.03474
0.984,-0.04276
0.988,-0.09208
0.992,-0.09701
0.996,-0.06652
1.0,0.03111
1.004,0.23045
1.008,0.41523
1.012,0.6462
1.016,0.82692
1.02,0.96555
1.024,0.99343
1.028,0.92693
1.032,0.75495
1.036,0.54494
1.04,0.31908
1.044,0.10935
1.048,-0.05083
1.052,-0.14705
1.056,-0.13685
1.06,-0.14714
1.064,-0.11696
1.068,-0.05377
1.072,-0.03334
1.076,-0.01684
1.08,0.03176
1.084,0.01746
1.088,0.02587
1.092,-0.00573
1.096,0.01204
1.1,-0.001
1.104,0.02916
1.108,0.01171
1.112,-0.00967
1.116,0.01318
1.12,-0.01868
1.124,0.02398
1.128,0.04189
1.132,-0.01101
1.136,0.01037
1.14,0.02949
1.144,0.01168
1.148,0.00974
1.152,-0.00277
1.156,0.01243
1.16,-0.01505
1.164,0.00897
1.168,0.03376
1.172,0.00198
1.176,0.00821
1.18,0.02563
1.184,0.00353
1.188,0.02401
1.192,-0.0082
1.196,0.04653
1.2,0.01998
1.204,0.03915
1.208,0.05219
1.212,0.01716
1.216,0.02965
1.22,0.05194
1.224,0.07638
1.228,0.09827
1.232,0.0768
1.236,0.08856
1.24,0.105
1.244,0.09717
1.248,0.11682
1.252,0.14159
1.256,0.11992
1.26,0.1614
1.264,0.18501
1.268,0.16094
1.272,0.17305
1.276,0.21698
1.28,0.22737
1.284,0.19169
1.288,0.23581
1.292,0.24194
1.296,0.22542
1.3,0.24464
1.304,0.23693
1.308,0.25203
1.312,0.22074
1.316,0.23067
1.32,0.20043
1.324,0.23615
1.328,0.21126
1.332,0.19427
1.336,0.16994
1.34,0.18555
1.344,0.16965
1.348,0.15832
1.352,0.13651
1.356,0.13375
1.36,0.10915
1.364,0.07803
1.368,0.09059
1.372,0.07877
1.376,0.06996
1.38,0.09588
1.384,0.06362
1.388,0.06742
1.392,0.05295
1.396,0.05761
1.4,0.06778
1.404,0.07396
1.408,0.08259
1.412,0.05817
1.416,0.11332
1.42,0.12561
1.424,0.12208
1.428,0.10168
1.432,0.08952
1.436,0.09974
1.44,0.13513
1.444,0.08572
1.448,0.13369
1.452,0.06232
1.456,0.05264
1.46,0.06305
1.464,0.02959
1.468,0.03888
1.472,0.04574
1.476,0.04869
1.48,0.03058
1.484,0.00438
1.488,0.01983
1.492,0.0192
1.496,0.00527
1.5,0.00972
1.504,0.01892
1.508,-0.00071
1.512,0.00711
1.516,0.00181
1.52,0.01247
1.524,0.01221
1.528,0.00903
1.532,0.03303
1.536,0.03744
1.54,0.01254
1.544,0.02117
1.548,-0.00315
1.552,-0.01714
1.556,-0.03118
1.56,-0.0899
1.564,-0.05897
1.568,-0.01421
1.572,0.1536
1.576,0.30758
1.58,0.53409
1.584,0.71521
1.588,0.92429
1.592,1.04328
1.596,1.00428
1.6,0.8899
1.604,0.70406
1.608,0.47551
1.612,0.26492
1.616,0.06908
1.62,-0.08344
1.624,-0.13532
1.628,-0.15104
1.632,-0.10837
1.636,-0.06319
1.64,-0.03854
1.644,0.01226
1.648,0.03018
1.652,0.02342
1.656,0.00673
1.66,0.00641
1.664,0.02137
1.668,0.07889
1.672,0.01594
1.676,0.04318
1.68,0.0228
1.684,0.02422
1.688,0.01614
1.692,0.02935
1.696,0.00951
1.7,0.00331
1.704,0.02625
1.708,0.03358
1.712,0.0129
1.716,-0.00111
1.72,0.03545
1.724,0.03519
1.728,0.01551
1.732,0.00156
1.736,-0.00833
1.74,0.02948
1.744,0.05072
1.748,0.03441
1.752,0.02987
1.756,0.04639
1.76,0.0431
1.764,0.0408
1.768,0.05123
1.772,0.07601
1.776,0.07901
1.78,0.03359
1.784,0.04184
1.788,0.06808
1.792,0.07518
1.796,0.08271
1.8,0.08855
1.804,0.07884
1.808,0.10136
1.812,0.09496
1.816,0.1079
1.82,0.12965
1.824,0.11477
1.828,0.16632
1.832,0.16277
1.836,0.16723
1.84,0.21581
1.844,0.22111
1.848,0.21609
1.852,0.21894
1.856,0.19773
1.86,0.22698
1.864,0.26043
1.868,0.25013
1.872,0.23673
1.876,0.22969
1.88,0.26292
1.884,0.25098
1.888,0.21934
1.892,0.20712
1.896,0.24771
1.9,0.24097
1.904,0.20615
1.908,0.1757
1.912,0.20021
1.916,0.1662
1.92,0.1555
1.924,0.14066
1.928,0.11702
1.932,0.15811
1.936,0.09102
1.94,0.10894
1.944,0.10504
1.948,0.08856
1.952,0.08197
1.956,0.04354
1.96,0.06962
1.964,0.02867
1.968,0.04363
1.972,0.03538
1.976,0.05414
1.98,0.05428
1.984,0.00572
1.988,0.04394
1.992,0.04304
1.996,0.05701
2.0,0.01738
2.004,0.01839
2.008,0.04377
2.012,0.04406
2.016,0.0333
2.02,0.04175
2.024,0.05383
2.028,0.02017
2.032,0.01899
2.036,0.03466
2.04,0.03568
2.044,0.01628
2.048,0.00354
2.052,0.03197
2.056,0.03645
2.06,0.01899
2.064,0.03158
2.068,0.05163
2.072,0.06426
2.076,0.03555
2.08,0.06602
2.084,0.07573
2.088,0.09561
2.092,0.11329
2.096,0.12524
2.1,0.10072
2.104,0.15587
2.108,0.12174
2.112,0.13834
2.116,0.13271
2.12,0.10314
2.124,0.08245
2.128,0.09389
2.132,0.09667
2.136,0.04998
2.14,0.04798
2.144,0.06435
2.148,0.04345
2.152,0.07517
2.156,0.04394
2.16,0.02768
2.164,0.00444
2.168,0.0488
2.172,0.0367
2.176,0.0349
2.18,0.04201
2.184,0.03682
2.188,0.01918
2.192,0.05921
2.196,0.02614
2.2,0.00797
2.204,0.03399
2.208,0.02759
2.212,0.03556
2.216,0.04507
2.22,0.04599
2.224,0.01636
2.228,-0.02035
2.232,-0.05884
2.236,-0.09804
2.24,-0.06572
2.244,0.00506
2.248,0.13795
2.252,0.31151
2.256,0.53432
2.26,0.74839
2.264,0.93422
2.268,1.01053
2.272,1.01997
2.276,0.86174
2.28,0.71267
2.284,0.45737
2.288,0.22427
2.292,0.04179
2.296,-0.06626
2.3,-0.13607
2.304,-0.12259
2.308,-0.08265
2.312,-0.06323
2.316,-0.02416
2.32,-0.01512
2.324,0.03866
2.328,0.0262
2.332,0.02582
2.336,0.03927
2.34,0.03873
2.344,0.01468
2.348,0.01421
2.352,0.01034
2.356,0.0339
2.36,0.02442
2.364,0.05312
2.368,0.04637
2.372,0.06421
2.376,0.02326
2.38,0.03559
2.384,0.01827
2.388,0.01513
2.392,0.00824
2.396,0.01823
2.4,0.06492
2.404,0.04768
2.408,0.04359
2.412,0.01805
2.416,0.0467
2.42,0.05046
2.424,0.03794
2.428,0.02782
2.432,0.06445
2.436,0.03646
2.44,0.03182
2.444,0.05343
2.448,0.03838
2.452,0.05003
2.456,0.01915
2.46,0.05381
2.464,0.06549
2.468,0.09311
2.472,0.07303
2.476,0.07407
2.48,0.10401
2.484,0.09966
2.488,0.12435
2.492,0.12695
2.496,0.12247
2.5,0.14564
2.504,0.17584
2.508,0.16598
2.512,0.18117
2.516,0.18732
2.52,0.24145
2.524,0.22541
2.528,0.2224
2.532,0.25251
2.536,0.26105
2.54,0.22239
2.544,0.25689
2.548,0.229
2.552,0.22142
2.556,0.25526
2.56,0.23192
2.564,0.23294
2.568,0.23198
2.572,0.2153
2.576,0.20766
2.58,0.18729
2.584,0.21322
2.588,0.17465
2.592,0.14606
2.596,0.13852
2.6,0.15258
2.604,0.14592
2.608,0.13514
2.612,0.09122
2.616,0.08082
2.62,0.09039
2.624,0.06986
2.628,0.07997
2.632,0.07111
2.636,0.06924
2.64,0.06344
2.644,0.07295
2.648,0.07058
2.652,0.06527
2.656,0.05768
2.66,0.05499
2.664,0.04112
2.668,0.0455
2.672,0.02325
2.676,0.04455
2.68,0.02676
2.684,0.03389
2.688,0.0543
2.692,0.02468
2.696,0.01068
2.7,0.04775
2.704,0.01327
2.708,0.03955
2.712,0.03032
2.716,0.02785
2.72,0.03331
2.724,0.07078
2.728,0.02508
2.732,0.0364
2.736,0.0157
2.74,0.01423
2.744,0.04122
2.748,0.03866
2.752,0.05383
2.756,0.04972
2.76,0.04109
2.764,0.04493
2.768,0.07569
2.772,0.06582
2.776,0.08704
2.78,0.11268
2.784,0.10345
2.788,0.11138
2.792,0.11637
2.796,0.13082
2.8,0.14529
2.804,0.14179
2.808,0.10534
2.812,0.11353
2.816,0.08341
2.82,0.06586
2.824,0.06418
2.828,0.0376
2.832,0.04443
2.836,0.055
2.84,0.01283
2.844,0.03204
2.848,0.0136
2.852,0.01166
2.856,0.01581
2.86,0.02227
2.864,0.00114
2.868,0.02008
2.872,0.02379
2.876,0.02735
2.88,0.04478
2.884,0.0269
2.888,0.01536
2.892,0.01155
2.896,0.00878
2.9,0.01998
2.904,0.01879
2.908,-0.00396
2.912,0.01944
2.916,-0.01983
2.92,-0.07709
2.924,-0.05869
2.928,-0.07849
2.932,-0.01369
2.936,0.14582
2.94,0.2948
2.944,0.53536
2.948,0.75601
2.952,0.93641
2.956,1.02904
2.96,1.01205
2.964,0.86498
2.968,0.68527
2.972,0.45225
2.976,0.20467
2.98,0.05785
2.984,-0.07094
2.988,-0.15384
2.992,-0.13822
2.996,-0.13948
3.0,-0.07378
3.004,-0.00218
3.008,-0.01033
3.012,0.02192
3.016,0.02411
3.02,0.03233
3.024,0.02482
3.028,0.0249
3.032,0.01225
3.036,0.03123
3.04,0.0347
3.044,0.01542
3.048,0.02841
3.052,0.01043
3.056,0.01689
3.06,0.00048
3.064,0.02708
3.068,0.03842
3.072,0.03713
3.076,0.02188
3.08,0.03099
3.084,0.02142
3.088,0.03416
3.092,0.00238
3.096,0.02653
3.1,0.02104
3.104,0.04286
3.108,0.02863
3.112,0.04884
3.116,0.04764
3.12,0.01971
3.124,0.03381
3.128,0.03576
3.132,0.06083
3.136,0.03545
3.14,0.0344
3.144,0.06935
3.148,0.03839
3.152,0.04162
3.156,0.07365
3.16,0.07119
3.164,0.09198
3.168,0.09411
3.172,0.09868
3.176,0.12804
3.18,0.12522
3.184,0.13118
3.188,0.14587
3.192,0.15563
3.196,0.17754
3.2,0.1567
3.204,0.19314
3.208,0.20383
3.212,0.21287
3.216,0.20185
3.22,0.24494
3.224,0.26667
3.228,0.21677
3.232,0.25338
3.236,0.24841
3.24,0.2308
3.244,0.24689
3.248,0.23594
3.252,0.24497
3.256,0.24367
3.26,0.20449
3.264,0.21884
3.268,0.20704
3.272,0.18797
3.276,0.1695
3.28,0.17554
3.284,0.13825
3.288,0.13551
3.292,0.1364
3.296,0.13936
3.3,0.11283
3.304,0.11199
3.308,0.07287
3.312,0.05312
3.316,0.05973
3.32,0.03328
3.324,0.04478
3.328,0.02543
3.332,0.04923
3.336,0.02624
3.34,0.04124
3.344,0.03905
3.348,0.03452
3.352,0.02267
3.356,0.00934
3.36,-0.00768
3.364,0.01366
3.368,0.02581
3.372,0.02233
3.376,0.04664
3.38,0.00431
3.384,0.0172
3.388,0.03961
3.392,0.02791
3.396,0.04836
3.4,0.05701
3.404,0.06412
3.408,0.0687
3.412,0.09072
3.416,0.08757
3.42,0.10728
3.424,0.12194
3.428,0.10962
3.432,0.11387
3.436,0.12736
3.44,0.11693
3.444,0.08417
3.448,0.08081
3.452,0.08162
3.456,0.05741
3.46,0.03485
3.464,0.04022
3.468,0.0321
3.472,0.04102
3.476,0.03364
3.48,-0.00179
3.484,0.02806
3.488,0.00994
3.492,0.00836
3.496,-0.00585
3.5,0.03536
3.504,0.02684
3.508,0.00842
3.512,0.01194
3.516,0.03336
3.52,0.01303
3.524,-0.01535
3.528,0.01571
3.532,0.00877
3.536,0.02154
3.54,-0.00284
3.544,-0.01286
3.548,-0.01798
3.552,-0.04848
3.556,-0.08211
3.56,-0.11314
3.564,-0.06849
3.568,0.04646
3.572,0.22323
3.576,0.44762
3.58,0.66491
3.584,0.8312
3.588,0.94781
3.592,1.0199
3.596,0.93012
3.6,0.76594
3.604,0.55164
3.608,0.299
3.612,0.10699
3.616,-0.03881
3.62,-0.1223
3.624,-0.16171
3.628,-0.13829
3.632,-0.09899
3.636,-0.05794
3.64,-0.0394
3.644,0.00853
3.648,0.00978
3.652,0.0078
3.656,0.02314
3.66,-0.00526
3.664,0.03391
3.668,0.00178
3.672,0.01943
3.676,0.0277
3.68,0.01487
3.684,0.00242
3.688,0.0116
3.692,0.00577
3.696,0.01284
3.7,-0.00632
3.704,0.00865
3.708,-0.02619
3.712,0.0054
3.716,0.01518
3.72,0.03459
3.724,0.0172
3.728,0.01894
3.732,0.00033
3.736,0.00427
3.74,-0.01513
3.744,0.02368
3.748,0.00231
3.752,-0.00997
3.756,0.02271
3.76,0.0148
3.764,0.03596
3.768,0.01764
3.772,0.03606
3.776,0.03438
3.78,0.03696
3.784,0.03838
3.788,0.06831
3.792,0.04797
3.796,0.07627
3.8,0.05973
3.804,0.09361
3.808,0.08447
3.812,0.11231
3.816,0.09727
3.82,0.12363
3.824,0.11548
3.828,0.15637
3.832,0.15844
3.836,0.17338
3.84,0.1929
3.844,0.16189
3.848,0.19871
3.852,0.18577
3.856,0.22175
3.86,0.1977
3.864,0.24483
3.868,0.21991
3.872,0.22546
3.876,0.22524
3.88,0.20334
3.884,0.22955
3.888,0.19121
3.892,0.187
3.896,0.19064
3.9,0.17503
3.904,0.17762
3.908,0.15536
3.912,0.17317
3.916,0.10267
3.92,0.12032
3.924,0.09445
3.928,0.12304
3.932,0.1054
3.936,0.07414
3.94,0.07946
3.944,0.06535
3.948,0.08977
3.952,0.03221
3.956,0.01763
3.96,0.02851
3.964,0.01629
3.968,0.01952
3.972,0.0373
3.976,0.03107
3.98,0.02664
3.984,0.01788
3.988,0.03551
3.992,0.06363
3.996,0.03997
4.0,0.04233
4.004,0.09168
4.008,0.08318
4.012,0.08399
4.016,0.09806
4.02,0.11475
4.024,0.10444
4.028,0.0948
4.032,0.09882
4.036,0.10202
4.04,0.04215
4.044,0.06023
4.048,0.0319
4.052,0.0097
4.056,0.00849
4.06,0.0065
4.064,0.01627
4.068,0.0149
4.072,0.0048
4.076,0.00869
4.08,-0.01843
4.084,0.00879
4.088,-0.00835
4.092,-0.00285
4.096,-0.01074
4.1,-0.00727
4.104,-0.00161
4.108,0.01298
4.112,-0.01897
4.116,-0.02692
4.12,-0.00938
4.124,-0.0114
4.128,0.01289
4.132,-0.02145
4.136,-0.0145
4.14,-0.07689
4.144,-0.08632
4.148,-0.12856
4.152,-0.14544
4.156,-0.03044
4.16,0.13117
4.164,0.31402
4.168,0.55438
4.172,0.74388
4.176,0.88708
4.18,0.98644
4.184,0.97105
4.188,0.81408
4.192,0.60468
4.196,0.39501
4.2,0.18696
4.204,0.01832
4.208,-0.12219
4.212,-0.16337
4.216,-0.15495
4.22,-0.1373
4.224,-0.10312
4.228,-0.05847
4.232,-0.00252
4.236,-0.00356
4.24,-0.02964
4.244,0.00782
4.248,-0.00379
4.252,-0.00658
4.256,-0.00215
4.26,-0.00668
4.264,-0.00826
4.268,0.00959
4.272,0.00219
4.276,-0.01561
4.28,-0.01786
4.284,-0.01572
4.288,0.01781
4.292,-0.02682
4.296,0.0131
4.3,0.01686
4.304,-0.01966
4.308,-0.01585
4.312,-0.01808
4.316,-0.00323
4.32,-0.00593
4.324,-0.02442
4.328,-0.00891
4.332,0.00781
4.336,0.0106
4.34,-0.00418
4.344,0.02048
4.348,0.00333
4.352,0.0078
4.356,-0.00411
4.36,-0.00086
4.364,0.02504
4.368,0.01434
4.372,0.00494
4.376,0.01489
4.38,0.05335
4.384,0.0182
4.388,0.066
4.392,0.06634
4.396,0.05384
4.4,0.07958
4.404,0.0818
4.408,0.09263
4.412,0.10102
4.416,0.13073
4.42,0.13689
4.424,0.16404
4.428,0.12261
4.432,0.15488
4.436,0.15968
4.44,0.18481
4.444,0.18282
4.448,0.19003
4.452,0.17069
4.456,0.20426
4.46,0.2027
4.464,0.20643
4.468,0.22617
4.472,0.20049
4.476,0.1851
4.48,0.20176
4.484,0.18738
4.488,0.1606
4.492,0.17303
4.496,0.13334
4.5,0.11365
4.504,0.1438
4.508,0.1066
4.512,0.11619
4.516,0.11369
4.52,0.11043
4.524,0.08166
4.528,0.04419
4.532,0.03895
4.536,0.04356
4.54,0.0539
4.544,0.02837
4.548,-0.04314
4.552,0.01877
4.556,0.00189
4.56,-0.02807
4.564,0.00611
4.568,0.01154
4.572,0.00105
4.576,-0.0368
4.58,0.01129
4.584,-0.0217
4.588,-0.0077
4.592,-0.02086
4.596,-0.01422
4.6,0.00702
4.604,-0.02301
4.608,-0.02863
4.612,-0.01371
4.616,-0.00931
4.62,-0.01929
4.624,0.00172
4.628,0.01547
4.632,-0.0302
4.636,-0.01472
4.64,-0.0241
4.644,0.00578
4.648,-0.0296
4.652,-0.00696
4.656,-0.0063
4.66,0.00024
4.664,-0.00981
4.668,-0.03963
4.672,-0.00515
4.676,-0.00247
4.68,0.00669
4.684,-0.04231
4.688,0.03385
4.692,0.01745
4.696,0.03777
4.7,0.02103
4.704,0.04361
4.708,0.05585
4.712,0.05174
4.716,0.06658
4.72,0.07067
4.724,0.08482
4.728,0.06959
4.732,0.07062
4.736,0.07275
4.74,0.03232
4.744,0.04782
4.748,0.01023
4.752,0.01856
4.756,0.01319
4.76,-0.02219
4.764,-0.00262
4.768,-0.01071
4.772,-0.02317
4.776,-0.02236
4.78,-0.01379
4.784,-0.03609
4.788,0.00671
4.792,0.00919
4.796,-0.00182
4.8,-0.01745
4.804,-0.05146
4.808,-0.00606
4.812,-0.0134
4.816,-0.04548
4.82,-0.01042
4.824,-0.03173
4.828,0.00013
4.832,-0.01286
4.836,-0.04321
4.84,-0.0954
4.844,-0.13795
4.848,-0.15157
4.852,-0.10657
4.856,-0.02407
4.86,0.07071
4.864,0.30346
4.868,0.48487
4.872,0.71411
4.876,0.85982
4.88,0.96563
4.884,0.95217
4.888,0.81975
4.892,0.62651
4.896,0.41442
4.9,0.18289
4.904,0.02959
4.908,-0.12593
4.912,-0.20815
4.916,-0.18489
4.92,-0.13067
4.924,-0.12222
4.928,-0.09947
4.932,-0.06671
4.936,-0.01537
4.94,-0.02201
4.944,-0.06803
4.948,0.00196
4.952,-0.01621
4.956,-0.02242
4.96,-0.0425
4.964,-0.01849
4.968,0.00898
4.972,-0.00943
4.976,-0.01543
4.98,-0.03999
4.984,-0.03058
4.988,-0.03268
4.992,-0.02353
4.996,-0.01547
5.0,-0.00595
5.004,0.02978
5.008,-0.02474
5.012,-0.00755
5.016,-0.01703
5.02,-0.02124
5.024,-0.04182
5.028,-0.02576
5.032,-0.03908
5.036,-0.00757
5.04,-0.00782
5.044,0.00181
5.048,-0.02949
5.052,-0.01922
5.056,-0.00486
5.06,-0.0129
5.064,-0.00746
5.068,0.00074
5.072,0.00536
5.076,0.00085
5.08,-0.00609
5.084,0.05141
5.088,0.03354
5.092,0.03986
5.096,0.03202
5.1,0.06457
5.104,0.08148
5.108,0.10744
5.112,0.09499
5.116,0.12336
5.12,0.11728
5.124,0.10767
5.128,0.13661
5.132,0.13598
5.136,0.14415
5.14,0.16477
5.144,0.19359
5.148,0.19354
5.152,0.19215
5.156,0.17532
5.16,0.17457
5.164,0.20898
5.168,0.19085
5.172,0.20267
5.176,0.19897
5.18,0.19385
5.184,0.17506
5.188,0.14527
5.192,0.16206
5.196,0.151
5.2,0.0955
5.204,0.12691
5.208,0.08411
5.212,0.09944
5.216,0.05959
5.22,0.07387
5.224,0.07219
5.228,0.01605
5.232,0.05613
5.236,0.0363
5.24,0.00978
5.244,0.01775
5.248,-0.00318
5.252,0.02942
5.256,-0.00211
5.26,-0.02577
5.264,-0.00881
5.268,-0.02482
5.272,-0.00055
5.276,-0.03161
5.28,-0.01443
5.284,-0.04558
5.288,-0.02367
5.292,-0.00769
5.296,-0.01879
5.3,-0.00959
5.304,-0.03704
5.308,-0.02693
5.312,-0.0267
5.316,-0.03545
5.32,0.00786
5.324,0.00053
5.328,-0.02715
5.332,0.02103
5.336,0.02647
5.34,0.01435
5.344,0.021
5.348,0.05238
5.352,0.09623
5.356,0.06999
5.36,0.08237
5.364,0.05758
5.368,0.0871
5.372,0.07427
5.376,0.0194
5.38,0.03628
5.384,0.0086
5.388,0.02582
5.392,0.00722
5.396,-0.02668
5.4,-0.01555
5.404,-0.01931
5.408,-0.02152
5.412,-0.02554
5.416,-0.04647
5.42,-0.04366
5.424,-0.02819
5.428,-0.01922
5.432,-0.04212
5.436,-0.04519
5.44,-0.04912
5.444,-0.02329
5.448,-0.00157
5.452,-0.02332
5.456,-0.01384
5.46,-0.04489
5.464,-0.01727
5.468,-0.04931
5.472,-0.03273
5.476,-0.03712
5.48,-0.06138
5.484,-0.08692
5.488,-0.14168
5.492,-0.15777
5.496,-0.09172
5.5,0.04743
5.504,0.18938
5.508,0.40221
5.512,0.6181
5.516,0.8347
5.52,0.95517
5.524,0.96329
5.528,0.87909
5.532,0.70872
5.536,0.4772
5.54,0.26643
5.544,0.04365
5.548,-0.08719
5.552,-0.18288
5.556,-0.17176
5.56,-0.21082
5.564,-0.13275
5.568,-0.09238
5.572,-0.06852
5.576,-0.01606
5.58,-0.0442
5.584,-0.02771
5.588,-0.02936
5.592,-0.04381
5.596,-0.03091
5.6,-0.06333
5.604,-0.03617
5.608,-0.02073
5.612,-0.05272
5.616,-0.03849
5.62,-0.02631
5.624,-0.03168
5.628,-0.03412
5.632,-0.00919
5.636,-0.01367
5.64,-0.01495
5.644,-0.02423
5.648,-0.02249
5.652,-0.02925
5.656,-0.00983
5.66,-0.04441
5.664,-0.03106
5.668,-0.04224
5.672,-0.01403
5.676,-0.0338
5.68,-0.05042
5.684,-0.02764
5.688,-0.03616
5.692,-0.01166
5.696,-0.03313
5.7,-0.01773
5.704,-0.00821
5.708,-0.00494
5.712,-0.00705
5.716,-0.01303
5.72,-0.01524
5.724,0.0346
5.728,0.02084
5.732,0.05427
5.736,0.04689
5.74,0.06853
5.744,0.07959
5.748,0.04102
5.752,0.07991
5.756,0.11769
5.76,0.0934
5.764,0.13184
5.768,0.14449
5.772,0.15497
5.776,0.15597
5.78,0.16286
5.784,0.17182
5.788,0.1982
5.792,0.18688
5.796,0.18261
5.8,0.17592
5.804,0.18835
5.808,0.17709
5.812,0.20083
5.816,0.18515
5.82,0.16497
5.824,0.14958
5.828,0.177
5.832,0.12483
5.836,0.14053
5.84,0.12212
5.844,0.08544
5.848,0.10195
5.852,0.10818
5.856,0.10341
5.86,0.05205
5.864,0.046
5.868,0.05036
5.872,0.01981
5.876,0.03143
5.88,0.02826
5.884,0.03777
5.888,-0.00295
5.892,0.00493
5.896,-0.04877
5.9,-0.0398
5.904,-0.02293
5.908,-0.00403
5.912,-0.03013
5.916,-0.00382
5.92,-0.02135
5.924,-0.02252
5.928,-0.02516
5.932,-0.01832
5.936,-0.03109
5.94,-0.04485
5.944,-0.03751
5.948,-0.04272
5.952,-0.04341
5.956,-0.01237
5.96,-0.03978
5.964,-0.03169
5.968,-0.0124
5.972,-0.01666
5.976,-0.02766
5.98,-0.03062
5.984,-0.02428
5.988,-0.0209
5.992,-0.05022
5.996,-0.00019
6.0,-0.03324
6.004,-0.04078
6.008,-0.02233
6.012,-0.04049
6.016,-0.00458
6.02,-0.03192
6.024,-0.02679
6.028,-0.00581
6.032,-0.03261
6.036,-0.02897
6.04,-0.04122
6.044,-0.02891
6.048,-0.02909
6.052,-0.03368
6.056,-0.02212
6.06,-0.03189
6.064,-0.05689
6.068,-0.04097
6.072,-0.02626
6.076,-0.02236
6.08,-0.02052
6.084,-0.00102
6.088,-0.00832
6.092,-0.02524
6.096,-0.03474
6.1,-0.02457
6.104,-0.01226
6.108,-0.04024
6.112,-0.01648
6.116,-0.038
6.12,-0.03518
6.124,-0.02042
6.128,-0.0161
6.132,-0.04898
6.136,-0.01373
6.14,-0.02662
6.144,-0.03035
6.148,-0.01417
6.152,-0.00622
6.156,0.00847
6.16,0.00182
6.164,0.00722
6.168,0.02206
6.172,0.0272
6.176,0.04212
6.18,0.06428
6.184,0.05954
6.188,0.08396
6.192,0.07862
6.196,0.06773
6.2,0.05063
6.204,0.07054
6.208,0.07784
6.212,0.04402
6.216,0.00945
6.22,0.02753
6.224,-0.01437
6.228,-0.02091
6.232,0.00474
6.236,-0.02234
6.24,-0.01236
6.244,-0.0012
6.248,-0.03291
6.252,-0.0243
6.256,-0.02721
6.26,-0.02344
6.264,-0.03128
6.268,-0.02163
6.272,-0.0212
6.276,-0.03116
6.28,-0.03071
6.284,-0.04498
6.288,-0.0503
6.292,-0.03539
6.296,-0.03223
6.3,-0.02152
6.304,-0.01062
6.308,-0.04486
6.312,-0.08762
6.316,-0.125
6.32,-0.11115
6.324,-0.10032
6.328,0.03367
6.332,0.16753
6.336,0.36099
6.34,0.58024
6.344,0.76978
6.348,0.93938
6.352,0.96287
6.356,0.90127
6.36,0.74082
6.364,0.51915
6.368,0.27023
6.372,0.09771
6.376,-0.05826
6.38,-0.14747
6.384,-0.20102
6.388,-0.16568
6.392,-0.12746
6.396,-0.12143
6.4,-0.06508
6.404,-0.02208
6.408,-0.01682
6.412,-0.03774
6.416,-0.01748
6.42,-0.03447
6.424,-0.04006
6.428,-0.0122
6.432,-0.03783
6.436,-0.01529
6.44,-0.04631
6.444,-0.05695
6.448,-0.02378
6.452,-0.03343
6.456,-0.01857
6.46,-0.02483
6.464,-0.01425
6.468,-0.03932
6.472,-0.0345
6.476,-0.04184
6.48,-0.0262
6.484,-0.02673
6.488,-0.02093
6.492,-0.02649
6.496,-0.03429
6.5,-0.01755
6.504,-0.02376
6.508,-0.02963
6.512,0.01581
6.516,-0.01386
6.52,-0.01097
6.524,-0.00767
6.528,-0.00468
6.532,0.0045
6.536,0.00186
6.54,0.02732
6.544,0.00938
6.548,0.00515
6.552,0.03955
6.556,0.01629
6.56,0.05051
6.564,0.03867
6.568,0.07171
6.572,0.07637
6.576,0.08022
6.58,0.08811
6.584,0.10968
6.588,0.14227
6.592,0.13462
6.596,0.12318
6.6,0.14492
6.604,0.16922
6.608,0.1621
6.612,0.1717
6.616,0.194
6.62,0.18206
6.624,0.17393
6.628,0.20478
6.632,0.20332
6.636,0.21288
6.64,0.22149
6.644,0.16909
6.648,0.17609
6.652,0.15808
6.656,0.17852
6.66,0.16159
6.664,0.15063
6.668,0.15405
6.672,0.09323
6.676,0.11004
6.68,0.12379
6.684,0.1021
6.688,0.07665
6.692,0.12216
6.696,0.07425
6.7,0.01309
6.704,0.02888
6.708,0.01896
6.712,0.05137
6.716,0.0249
6.72,0.00206
6.724,0.02692
6.728,-0.00065
6.732,-0.00719
6.736,-0.01539
6.74,0.01235
6.744,-0.01642
6.748,0.01709
6.752,0.00573
6.756,-0.03648
6.76,-0.0097
6.764,-0.01398
6.768,-0.00563
6.772,-0.03054
6.776,-0.0075
6.78,-0.00225
6.784,0.00107
6.788,0.00346
6.792,0.00869
6.796,-0.00146
6.8,0.01433
6.804,0.02317
6.808,0.05435
6.812,0.05632
6.816,0.06875
6.82,0.04638
6.824,0.07166
6.828,0.08833
6.832,0.0966
6.836,0.0825
6.84,0.10167
6.844,0.06104
6.848,0.07242
6.852,0.06476
6.856,0.04457
6.86,0.02364
6.864,-0.0069
6.868,-0.00866
6.872,0.00616
6.876,-0.01939
6.88,-0.01458
6.884,-0.0156
6.888,0.00154
6.892,0.0029
6.896,0.0055
6.9,-0.00417
6.904,-0.01605
6.908,0.00848
6.912,0.00495
6.916,0.00509
6.92,0.00312
6.924,-0.01629
6.928,-0.01829
6.932,-0.00864
6.936,-0.00657
6.94,-0.02157
6.944,-0.07355
6.948,-0.04532
6.952,-0.10991
6.956,-0.13653
6.96,-0.08485
6.964,-0.01395
6.968,0.12264
6.972,0.31197
6.976,0.54736
6.98,0.75522
6.984,0.92569
6.988,0.99207
6.992,0.93426
6.996,0.82448
7.0,0.6182
7.004,0.37018
7.008,0.13866
7.012,0.00012
7.016,-0.13693
7.02,-0.16214
7.024,-0.16966
7.028,-0.13773
7.032,-0.11455
7.036,-0.05415
7.04,-0.06161
7.044,-0.01916
7.048,-0.01078
7.052,-0.02245
7.056,-0.01414
7.06,0.00775
7.064,0.00931
7.068,-0.02969
7.072,-0.01149
7.076,-0.01814
7.08,0.04582
7.084,-0.01809
7.088,0.00694
7.092,-0.00635
7.096,0.00798
7.1,0.01102
7.104,-0.00039
7.108,-0.00454
7.112,-0.0114
7.116,-0.01862
7.12,0.01542
7.124,-0.00216
7.128,-0.01521
7.132,-0.01483
7.136,-0.02592
7.14,-0.02351
7.144,-0.0062
7.148,-0.00417
7.152,0.02293
7.156,0.00897
7.16,-0.02149
7.164,0.00572
7.168,0.00072
7.172,0.02521
7.176,0.03396
7.18,0.02255
7.184,0.01288
7.188,0.03513
7.192,0.05113
7.196,0.04909
7.2,0.07174
7.204,0.06564
7.208,0.07306
7.212,0.09053
7.216,0.10208
7.22,0.14757
7.224,0.16279
7.228,0.13941
7.232,0.15134
7.236,0.17574
7.24,0.17174
7.244,0.18258
7.248,0.19911
7.252,0.20656
7.256,0.20481
7.26,0.21253
7.264,0.21958
7.268,0.20778
7.272,0.23668
7.276,0.22311
7.28,0.20418
7.284,0.22185
7.288,0.17012
7.292,0.18025
7.296,0.15341
7.3,0.20576
7.304,0.13441
7.308,0.15906
7.312,0.16614
7.316,0.13162
7.32,0.14431
7.324,0.15937
7.328,0.14593
7.332,0.12574
7.336,0.15056
7.34,0.14788
7.344,0.1525
7.348,0.15267
7.352,0.11704
7.356,0.14457
7.36,0.11944
7.364,0.09283
7.368,0.10368
7.372,0.04817
7.376,0.08013
7.38,0.04762
7.384,0.04698
7.388,0.004
7.392,-0.0089
7.396,0.00992
7.4,0.00119
7.404,0.01995
7.408,0.01731
7.412,0.0327
7.416,0.00731
7.42,-0.01137
7.424,-0.0207
7.428,0.02143
7.432,0.01976
7.436,0.00769
7.44,0.01254
7.444,0.01777
7.448,-0.01851
7.452,0.00743
7.456,0.01248
7.46,-0.00496
7.464,-0.03933
7.468,-0.05926
7.472,-0.09355
7.476,-0.0841
7.48,-0.05448
7.484,0.03825
7.488,0.2088
7.492,0.40908
7.496,0.62931
7.5,0.81636
7.504,0.93995
7.508,0.9994
7.512,0.91947
7.516,0.77198
7.52,0.53656
7.524,0.32202
7.528,0.10703
7.532,-0.04453
7.536,-0.13281
7.54,-0.159
7.544,-0.14028
7.548,-0.09959
7.552,-0.07968
7.556,-0.04396
7.56,-0.05059
7.564,-0.00597
7.568,0.01193
7.572,0.0159
7.576,0.01123
7.58,-0.01153
7.584,0.01142
7.588,-0.00284
7.592,0.00392
7.596,0.02912
7.6,0.00303
7.604,0.01745
7.608,0.0521
7.612,-0.0009
7.616,0.01284
7.62,-0.00381
7.624,0.0239
7.628,-0.00445
7.632,0.04359
7.636,0.01333
7.64,0.00823
7.644,0.01364
7.648,-0.00499
7.652,0.00512
7.656,0.00667
7.66,0.00737
7.664,-0.00526
7.668,0.01948
7.672,-0.00471
7.676,0.03574
7.68,0.00481
7.684,0.02001
7.688,0.04089
7.692,0.05959
7.696,0.04425
7.7,0.05
7.704,0.05879
7.708,0.06815
7.712,0.05084
7.716,0.07329
7.72,0.09061
7.724,0.10854
7.728,0.12648
7.732,0.10415
7.736,0.12156
7.74,0.11798
7.744,0.14955
7.748,0.17813
7.752,0.1761
7.756,0.20466
7.76,0.1934
7.764,0.2099
7.768,0.20309
7.772,0.19905
7.776,0.21654
7.78,0.23427
7.784,0.26793
7.788,0.2177
7.792,0.22587
7.796,0.25141
7.8,0.25401
7.804,0.22995
7.808,0.22142
7.812,0.1919
7.816,0.19118
7.82,0.17879
7.824,0.19487
7.828,0.14668
7.832,0.13993
7.836,0.12779
7.84,0.10127
7.844,0.10547
7.848,0.08077
7.852,0.07828
7.856,0.07949
7.86,0.06534
7.864,0.06187
7.868,0.07152
7.872,0.05314
7.876,0.06037
7.88,0.04579
7.884,0.066
7.888,0.0007
7.892,0.0105
7.896,0.0204
7.9,0.02568
7.904,0.02628
7.908,0.03613
7.912,0.05486
7.916,0.034
7.92,0.00451
7.924,0.01471
7.928,0.02971
7.932,-0.00512
7.936,0.01895
7.94,0.02086
7.944,0.02729
7.948,-0.00499
7.952,0.02179
7.956,0.00904
7.96,0.01108
7.964,0.00544
7.968,-0.00039
7.972,0.02995
7.976,0.01716
7.98,0.02415
7.984,0.02691
7.988,-0.00159
7.992,0.02964
7.996,0.02265
8.0,0.00727
8.004,0.00411
8.008,0.02208
8.012,-0.00259
8.016,0.0175
8.02,0.01516
8.024,-0.00056
8.028,0.04358
8.032,0.03119
8.036,0.01244
8.04,0.0213
8.044,0.05412
8.048,0.01308
8.052,-0.01529
8.056,-0.00013
8.06,0.04635
8.064,0.02832
8.068,0.01957
8.072,0.02164
8.076,0.02301
8.08,0.01971
8.084,0.00813
8.088,0.01664
8.092,0.0488
8.096,0.02699
8.1,0.03205
8.104,0.01431
8.108,0.01934
8.112,0.00278
8.116,0.02739
8.12,0.00953
8.124,0.01174
8.128,0.02081
8.132,-0.00278
8.136,-0.01006
8.14,0.02079
8.144,0.02057
8.148,0.01366
8.152,0.04711
8.156,0.01527
8.16,0.06305
8.164,0.01054
8.168,0.00951
8.172,0.03808
8.176,0.05717
8.18,0.05974
8.184,0.09344
8.188,0.10685
8.192,0.10196
8.196,0.13389
8.2,0.1607
8.204,0.10443
8.208,0.11725
8.212,0.13603
8.216,0.08713
8.22,0.07757
8.224,0.05668
8.228,0.10227
8.232,0.05262
8.236,0.04266
8.24,0.04872
8.244,0.03675
8.248,0.03177
8.252,0.03545
8.256,0.0198
8.26,0.03153
8.264,-0.00388
8.268,0.01423
8.272,0.03598
8.276,1e-05
8.28,0.02259
8.284,0.01629
8.288,0.04035
8.292,0.01249
8.296,0.03031
8.3,0.01671
8.304,0.0362
8.308,0.02823
8.312,0.04405
8.316,0.03747
8.32,-0.02106
8.324,-0.05505
8.328,-0.08625
8.332,-0.09068
8.336,-0.02181
8.34,0.09878
8.344,0.28457
8.348,0.4933
8.352,0.69233
8.356,0.87286
8.36,1.01557
8.364,1.01053
8.368,0.93594
8.372,0.73672
8.376,0.49367
8.38,0.31314
8.384,0.08963
8.388,-0.05628
8.392,-0.13295
8.396,-0.17228
8.4,-0.13251
8.404,-0.06811
8.408,-0.03102
8.412,-0.038
8.416,0.01589
8.42,0.01891
8.424,0.01339
8.428,0.01753
8.432,0.00091
8.436,0.04568
8.44,0.03666
8.444,0.00259
8.448,0.03903
8.452,0.04614
8.456,0.02468
8.46,0.01804
8.464,0.03439
8.468,0.04036
8.472,0.01406
8.476,0.0358
8.48,0.02753
8.484,0.05748
8.488,0.0309
8.492,0.04521
8.496,0.01259
8.5,0.04667
8.504,0.01983
8.508,0.01909
8.512,0.05005
8.516,0.02274
8.52,0.03327
8.524,0.02056
8.528,0.025
8.532,0.03739
8.536,0.0492
8.54,0.03446
8.544,0.06532
8.548,0.06322
8.552,0.06426
8.556,0.07858
8.56,0.09696
8.564,0.09891
8.568,0.06845
8.572,0.09743
8.576,0.09284
8.58,0.10478
8.584,0.13659
8.588,0.11705
8.592,0.15608
8.596,0.1814
8.6,0.17154
8.604,0.17203
8.608,0.20417
8.612,0.20721
8.616,0.1991
8.62,0.22397
8.624,0.24426
8.628,0.21322
8.632,0.22549
8.636,0.24148
8.64,0.27267
8.644,0.25279
8.648,0.24784
8.652,0.23468
8.656,0.25601
8.66,0.25034
8.664,0.24241
8.668,0.19767
8.672,0.19135
8.676,0.18933
8.68,0.17949
8.684,0.1715
8.688,0.18727
8.692,0.16482
8.696,0.13362
8.7,0.11608
8.704,0.13995
8.708,0.10809
8.712,0.10535
8.716,0.08687
8.72,0.07576
8.724,0.05781
8.728,0.07885
8.732,0.06677
8.736,0.05145
8.74,0.06974
8.744,0.0517
8.748,0.0576
8.752,0.02971
8.756,0.06151
8.76,0.04704
8.764,0.05389
8.768,0.06553
8.772,0.07579
8.776,0.06219
8.78,0.0777
8.784,0.07299
8.788,0.07903
8.792,0.09879
8.796,0.12439
8.8,0.13633
8.804,0.14567
8.808,0.11857
8.812,0.14296
8.816,0.1013
8.82,0.11645
8.824,0.08641
8.828,0.08258
8.832,0.05185
8.836,0.08935
8.84,0.06637
8.844,0.05842
8.848,0.03063
8.852,0.05175
8.856,0.02677
8.86,0.02598
8.864,0.02232
8.868,0.04577
8.872,0.0279
8.876,0.01878
8.88,0.01473
8.884,0.01791
8.888,0.01522
8.892,0.00599
8.896,0.0326
8.9,0.03038
8.904,0.03878
8.908,0.00743
8.912,0.00494
8.916,0.03985
8.92,0.01206
8.924,-0.02738
8.928,-0.07549
8.932,-0.10045
8.936,-0.0906
8.94,-0.00517
8.944,0.11541
8.948,0.29266
8.952,0.50103
8.956,0.73121
8.96,0.93468
8.964,1.00873
8.968,1.0291
8.972,0.88546
8.976,0.68951
8.98,0.47774
8.984,0.24785
8.988,0.03857
8.992,-0.05521
8.996,-0.12663
9.0,-0.14321
9.004,-0.09984
9.008,-0.05887
9.012,-0.01146
9.016,0.00815
9.02,0.01856
9.024,0.0264
9.028,0.01499
9.032,-0.00697
9.036,0.01848
9.04,0.03021
9.044,0.03837
9.048,0.02865
9.052,0.04576
9.056,0.03646
9.06,0.05839
9.064,0.04814
9.068,0.04164
9.072,0.04044
9.076,0.00555
9.08,0.02015
9.084,0.0251
9.088,0.04309
9.092,0.03197
9.096,0.00347
9.1,0.03834
9.104,0.04656
9.108,0.05215
9.112,0.04754
9.116,0.03904
9.12,0.01348
9.124,0.02226
9.128,0.04362
9.132,0.04825
9.136,0.03576
9.14,0.03911
9.144,0.05322
9.148,0.05415
9.152,0.0309
9.156,0.08152
9.16,0.08008
9.164,0.06394
9.168,0.1059
9.172,0.10663
9.176,0.12178
9.18,0.11901
9.184,0.132
9.188,0.11833
9.192,0.157
9.196,0.18101
9.2,0.15729
9.204,0.17637
9.208,0.18528
9.212,0.2019
9.216,0.20237
9.22,0.21464
9.224,0.2141
9.228,0.21082
9.232,0.27192
9.236,0.24438
9.24,0.24431
9.244,0.24476
9.248,0.2568
9.252,0.24049
9.256,0.2301
9.26,0.24382
9.264,0.24395
9.268,0.23747
9.272,0.22964
9.276,0.19497
9.28,0.19763
9.284,0.15947
9.288,0.16425
9.292,0.15583
9.296,0.15523
9.3,0.13929
9.304,0.11184
9.308,0.10974
9.312,0.09475
9.316,0.10387
9.32,0.08919
9.324,0.0861
9.328,0.09295
9.332,0.04361
9.336,0.06389
9.34,0.05816
9.344,0.06808
9.348,0.01982
9.352,0.04534
9.356,0.05376
9.36,0.04539
9.364,0.02395
9.368,0.04342
9.372,0.02487
9.376,0.06611
9.38,0.03902
9.384,0.04616
9.388,0.07292
9.392,0.06892
9.396,0.07917
9.4,0.09948
9.404,0.0935
9.408,0.10647
9.412,0.12555
9.416,0.15316
9.42,0.13525
9.424,0.1351
9.428,0.14825
9.432,0.10214
9.436,0.09147
9.44,0.09409
9.444,0.0889
9.448,0.07948
9.452,0.04454
9.456,0.03983
9.46,0.0707
9.464,0.06197
9.468,0.01231
9.472,0.03183
9.476,0.04065
9.48,0.02289
9.484,0.03837
9.488,0.05507
9.492,0.0135
9.496,0.04217
9.5,0.02237
9.504,0.03701
9.508,0.03066
9.512,0.02871
9.516,0.02968
9.52,0.03461
9.524,0.00239
9.528,0.01999
9.532,0.00853
9.536,0.01665
9.54,-0.04113
9.544,-0.06651
9.548,-0.07396
9.552,-0.0482
9.556,0.05272
9.56,0.19224
9.564,0.39813
9.568,0.59112
9.572,0.80894
9.576,0.97829
9.58,1.03587
9.584,0.97278
9.588,0.82957
9.592,0.62179
9.596,0.37801
9.6,0.18533
9.604,0.00698
9.608,-0.08073
9.612,-0.12435
9.616,-0.13686
9.62,-0.10138
9.624,-0.07327
9.628,-0.00231
9.632,-0.01022
9.636,0.03376
9.64,0.02713
9.644,0.02154
9.648,0.01623
9.652,0.00867
9.656,0.04049
9.66,0.00064
9.664,0.02501
9.668,0.01526
9.672,0.03269
9.676,0.04078
9.68,0.03023
9.684,0.02807
9.688,0.01785
9.692,0.02501
9.696,0.03457
9.7,0.02237
9.704,0.0484
9.708,0.01907
9.712,0.01793
9.716,0.04636
9.72,0.05052
9.724,0.00253
9.728,0.00896
9.732,0.04245
9.736,0.03236
9.74,0.02456
9.744,-0.01285
9.748,0.0393
9.752,0.0286
9.756,0.04842
9.76,0.03348
9.764,0.05168
9.768,0.05952
9.772,0.04454
9.776,0.06111
9.78,0.05636
9.784,0.06102
9.788,0.09259
9.792,0.11213
9.796,0.10905
9.8,0.12712
9.804,0.10586
9.808,0.13224
9.812,0.11883
9.816,0.16685
9.82,0.1614
9.824,0.17636
9.828,0.18072
9.832,0.22384
9.836,0.22509
9.84,0.2375
9.844,0.20085
9.848,0.20597
9.852,0.25573
9.856,0.23953
9.86,0.25306
9.864,0.24883
9.868,0.21517
9.872,0.21522
9.876,0.22147
9.88,0.20985
9.884,0.22426
9.888,0.16849
9.892,0.18669
9.896,0.16974
9.9,0.17817
9.904,0.17899
9.908,0.13423
9.912,0.13489
9.916,0.11535
9.92,0.11726
9.924,0.13206
9.928,0.09332
9.932,0.06115
9.936,0.07771
9.94,0.0585
9.944,0.07958
9.948,0.05206
9.952,0.05289
9.956,0.04835
9.96,0.0345
9.964,0.02615
9.968,0.05997
9.972,0.03848
9.976,0.0097
9.98,0.05325
9.984,0.0274
9.988,0.01439
9.992,0.01189
9.996,0.00892
