t_seg,ecg_mV
0.0,0.00195
0.004,-0.00046
0.008,-0.03157
0.012,-0.00832
0.016,0.02288
0.02,0.02488
0.024,0.03007
0.028,0.07118
0.032,0.06116
0.036,0.09056
0.04,0.085
0.044,0.07492
0.048,0.06777
0.052,0.0719
0.056,0.05491
0.06,0.04462
0.064,0.06777
0.068,0.03334
0.072,0.03509
0.076,0.0106
0.08,-0.03449
0.084,-0.00181
0.088,-0.02209
0.092,-0.0259
0.096,-0.02257
0.1,-0.00914
0.104,-0.01873
0.108,-0.01219
0.112,-0.03218
0.116,0.00786
0.12,-0.02813
0.124,-0.01804
0.128,-0.03711
0.132,-0.0232
0.136,-0.02028
0.14,-0.02779
0.144,-0.03349
0.148,-0.00637
0.152,-0.01818
0.156,-0.02238
0.16,-0.02987
0.164,-0.06501
0.168,-0.06883
0.172,-0.14718
0.176,-0.13804
0.18,-0.05092
0.184,0.05335
0.188,0.24242
0.192,0.43411
0.196,0.64524
0.2,0.83575
0.204,0.93174
0.208,0.96401
0.212,0.84522
0.216,0.69952
0.22,0.43916
0.224,0.2281
0.228,0.05149
0.232,-0.0948
0.236,-0.16822
0.24,-0.18802
0.244,-0.15913
0.248,-0.12488
0.252,-0.08284
0.256,-0.03403
0.26,-0.01686
0.264,-0.0278
0.268,-0.01166
0.272,-0.02456
0.276,-0.01772
0.28,-0.02388
0.284,-0.02784
0.288,-0.00377
0.292,-0.01207
0.296,-0.06263
0.3,-0.01874
0.304,-0.02323
0.308,-0.01198
0.312,-0.0271
0.316,-0.0309
0.32,-0.05178
0.324,-0.02997
0.328,-0.00298
0.332,-0.0571
0.336,-0.01992
0.34,-0.01957
0.344,-0.0024
0.348,-0.04088
0.352,-0.02868
0.356,-0.01047
0.36,-0.0081
0.364,-0.00257
0.368,-0.01893
0.372,-0.00267
0.376,-0.01038
0.38,-0.0235
0.384,-0.01669
0.388,0.00824
0.392,-0.01145
0.396,-0.00035
0.4,0.02099
0.404,0.03108
0.408,0.0314
0.412,0.03238
0.416,0.01293
0.42,0.02948
0.424,0.05418
0.428,0.05975
0.432,0.07411
0.436,0.08675
0.44,0.12352
0.444,0.10347
0.448,0.14403
0.452,0.14712
0.456,0.14975
0.46,0.14498
0.464,0.16854
0.468,0.18512
0.472,0.17689
0.476,0.17651
0.48,0.19113
0.484,0.18925
0.488,0.19117
0.492,0.18685
0.496,0.1922
0.5,0.166
0.504,0.1822
0.508,0.18579
0.512,0.16048
0.516,0.13431
0.52,0.13859
0.524,0.14635
0.528,0.09323
0.532,0.09797
0.536,0.05934
0.54,0.08125
0.544,0.05828
0.548,0.05217
0.552,0.03806
0.556,0.04873
0.56,0.0494
0.564,0.00696
0.568,0.03993
0.572,-0.00479
0.576,0.02035
0.58,-0.02621
0.584,-0.016
0.588,0.01235
0.592,-0.01785
0.596,-0.02677
0.6,-0.0132
0.604,-0.03763
0.608,-0.03258
0.612,-0.02441
0.616,-0.03256
0.62,-0.04642
0.624,-0.0239
0.628,-0.03149
0.632,-0.01447
0.636,-0.02798
0.64,-0.02111
0.644,-0.02703
0.648,-0.02345
0.652,-0.00532
0.656,-0.03231
0.66,-0.03496
0.664,-0.05765
0.668,-0.0129
0.672,-0.03274
0.676,-0.02556
0.68,-0.03437
0.684,-0.0133
0.688,-0.02381
0.692,-0.04028
0.696,-0.02244
0.7,-0.01481
0.704,-0.02554
0.708,-0.02178
0.712,-0.06157
0.716,-0.03984
0.72,-0.05638
0.724,-0.01791
0.728,-0.02801
0.732,-0.04854
0.736,-0.00666
0.74,-0.0312
0.744,-0.04461
0.748,-0.01941
0.752,-0.01135
0.756,-0.04052
0.76,-0.0032
0.764,-0.03018
0.768,-0.04354
0.772,-0.02799
0.776,-0.0592
0.78,-0.02239
0.784,-0.03768
0.788,-0.02202
0.792,-0.03895
0.796,-0.00588
0.8,-0.03128
0.804,-0.05603
0.808,-0.0486
0.812,-0.02622
0.816,-0.03013
0.82,-0.02287
0.824,-0.02476
0.828,-0.00794
0.832,-0.04467
0.836,-0.02594
0.84,-0.03223
0.844,-0.02027
0.848,-0.0089
0.852,-0.0312
0.856,-0.0307
0.86,-0.04768
0.864,-0.00927
0.868,-0.007
0.872,-0.03342
0.876,-0.01142
0.88,-0.0386
0.884,-0.02639
0.888,-0.02781
0.892,-0.02975
0.896,-0.02291
0.9,0.01147
0.904,0.01517
0.908,0.01538
0.912,0.0257
0.916,0.04314
0.92,0.03719
0.924,0.05035
0.928,0.04713
0.932,0.03299
0.936,0.07279
0.94,0.06669
0.944,0.0661
0.948,0.03578
0.952,0.04214
0.956,0.01823
0.96,0.02407
0.964,0.01776
0.968,-0.01151
0.972,-0.02319
0.976,-0.02517
0.98,-0.03635
0.984,-0.00046
0.988,-0.0512
0.992,-0.04397
0.996,-0.02406
1.0,-0.01044
1.004,-0.03907
1.008,-0.01642
1.012,-0.02338
1.016,-0.05402
1.02,-0.0307
1.024,-0.03855
1.028,-0.03167
1.032,-0.03055
1.036,-0.01981
1.04,-0.02309
1.044,-0.01397
1.048,-0.0377
1.052,-0.02508
1.056,-0.09446
1.06,-0.13217
1.064,-0.14979
1.068,-0.10252
1.072,-0.02524
1.076,0.1173
1.08,0.31897
1.084,0.52528
1.088,0.73122
1.092,0.91672
1.096,0.97174
1.1,0.92593
1.104,0.79477
1.108,0.55286
1.112,0.32844
1.116,0.13502
1.12,-0.02429
1.124,-0.16598
1.128,-0.18905
1.132,-0.17519
1.136,-0.16878
1.14,-0.11381
1.144,-0.06576
1.148,-0.0611
1.152,-0.06087
1.156,-0.02919
1.16,-0.04646
1.164,-0.02675
1.168,-0.03474
1.172,-0.03157
1.176,-0.01493
1.18,-0.00794
1.184,-0.04449
1.188,-0.01894
1.192,-0.03789
1.196,-0.02875
1.2,-0.03115
1.204,-0.02984
1.208,-0.02232
1.212,-0.03863
1.216,-0.00491
1.22,-0.0125
1.224,-0.00338
1.228,-0.02913
1.232,-0.03365
1.236,-0.0254
1.24,0.0124
1.244,-0.03648
1.248,-0.04719
1.252,-0.0283
1.256,-0.02244
1.26,-0.02284
1.264,-0.01351
1.268,-0.03738
1.272,-0.02733
1.276,0.00391
1.28,-0.02243
1.284,0.02398
1.288,0.02094
1.292,0.00695
1.296,0.01765
1.3,0.01222
1.304,0.03267
1.308,0.03832
1.312,0.04237
1.316,0.06337
1.32,0.05446
1.324,0.09558
1.328,0.10291
1.332,0.09262
1.336,0.10316
1.34,0.11685
1.344,0.13893
1.348,0.15534
1.352,0.14582
1.356,0.16701
1.36,0.1821
1.364,0.18887
1.368,0.18413
1.372,0.18708
1.376,0.20064
1.38,0.20365
1.384,0.18328
1.388,0.18958
1.392,0.17238
1.396,0.17686
1.4,0.1753
1.404,0.14213
1.408,0.15293
1.412,0.15574
1.416,0.15197
1.42,0.1163
1.424,0.10064
1.428,0.07732
1.432,0.08157
1.436,0.07841
1.44,0.05533
1.444,0.06106
1.448,0.06275
1.452,0.0042
1.456,0.03833
1.46,0.01469
1.464,0.02405
1.468,0.01587
1.472,-0.02158
1.476,-0.02589
1.48,-0.00181
1.484,-0.01183
1.488,-0.01478
1.492,-0.02152
1.496,-0.02256
1.5,-0.02937
1.504,-0.00943
1.508,-0.01977
1.512,0.00568
1.516,-0.03759
1.52,-0.00739
1.524,-0.04756
1.528,0.00383
1.532,-0.0514
1.536,-0.02862
1.54,-0.05323
1.544,-0.04149
1.548,-0.00827
1.552,-0.00835
1.556,-0.03752
1.56,-0.01433
1.564,-0.03348
1.568,-0.02795
1.572,-0.0407
1.576,-0.02012
1.58,-0.02214
1.584,-0.00949
1.588,-0.02898
1.592,0.00275
1.596,-0.01549
1.6,-0.01026
1.604,-0.01866
1.608,-0.0269
1.612,-0.03421
1.616,0.00355
1.62,-0.01706
1.624,-0.02621
1.628,-0.03152
1.632,0.00451
1.636,-0.04016
1.64,-0.0358
1.644,-0.04359
1.648,-0.02698
1.652,-0.02963
1.656,-0.01763
1.66,-0.02435
1.664,-0.01959
1.668,-0.00541
1.672,-0.0271
1.676,-0.03583
1.68,-0.00993
1.684,-0.03142
1.688,-0.0426
1.692,-0.01661
1.696,-0.00952
1.7,0.00511
1.704,0.00545
1.708,-0.02534
1.712,-0.02909
1.716,-0.01802
1.72,-0.01555
1.724,-0.03943
1.728,-0.01881
1.732,-0.02123
1.736,-0.00392
1.74,-0.01031
1.744,-0.03506
1.748,-0.01107
1.752,-0.01668
1.756,-0.00301
1.76,-0.01193
1.764,0.0064
1.768,0.02724
1.772,0.02232
1.776,0.05641
1.78,0.03787
1.784,0.04712
1.788,0.05642
1.792,0.06696
1.796,0.0662
1.8,0.08436
1.804,0.07282
1.808,0.06269
1.812,0.07091
1.816,0.04917
1.82,0.05909
1.824,0.04594
1.828,0.03783
1.832,0.00427
1.836,0.03663
1.84,-0.00463
1.844,-0.00869
1.848,-0.00929
1.852,-0.0164
1.856,-0.01377
1.86,-0.01462
1.864,-0.02797
1.868,0.00748
1.872,-0.01596
1.876,-0.03391
1.88,-0.05108
1.884,-0.02699
1.888,0.00868
1.892,-0.00295
1.896,-0.01713
1.9,-0.04303
1.904,-0.0079
1.908,-0.02645
1.912,-0.00982
1.916,-0.04973
1.92,-0.08257
1.924,-0.08696
1.928,-0.11612
1.932,-0.1398
1.936,-0.00525
1.94,0.12154
1.944,0.33046
1.948,0.53586
1.952,0.76045
1.956,0.92729
1.96,0.96043
1.964,0.93688
1.968,0.78887
1.972,0.5865
1.976,0.35164
1.98,0.12759
1.984,-0.01573
1.988,-0.16567
1.992,-0.15112
1.996,-0.14107
2.0,-0.13861
2.004,-0.09515
2.008,-0.06338
2.012,-0.03749
2.016,-0.02408
2.02,-0.0305
2.024,0.00682
2.028,-0.00717
2.032,-0.0229
2.036,-0.00249
2.04,-0.02027
2.044,-0.01257
2.048,-0.01633
2.052,0.00514
2.056,0.02709
2.06,0.01449
2.064,0.00132
2.068,-0.00053
2.072,-0.02651
2.076,-0.05165
2.08,-0.00253
2.084,-0.00967
2.088,-0.02381
2.092,-0.00105
2.096,-0.01633
2.1,0.00988
2.104,-0.02734
2.108,-0.03596
2.112,-0.00663
2.116,0.00104
2.12,-0.00394
2.124,-0.01913
2.128,-0.0165
2.132,0.03385
2.136,-0.00658
2.14,0.04796
2.144,0.02362
2.148,0.0201
2.152,0.01926
2.156,0.03837
2.16,0.03436
2.164,0.04202
2.168,0.05006
2.172,0.05172
2.176,0.0578
2.18,0.10202
2.184,0.10433
2.188,0.11645
2.192,0.09334
2.196,0.13337
2.2,0.13899
2.204,0.12158
2.208,0.17992
2.212,0.18123
2.216,0.18801
2.22,0.21066
2.224,0.1935
2.228,0.17201
2.232,0.2263
2.236,0.2031
2.24,0.21547
2.244,0.21734
2.248,0.18343
2.252,0.21987
2.256,0.18053
2.26,0.20484
2.264,0.21029
2.268,0.17343
2.272,0.18184
2.276,0.16057
2.28,0.15618
2.284,0.13228
2.288,0.12091
2.292,0.11897
2.296,0.09632
2.3,0.10463
2.304,0.0936
2.308,0.06549
2.312,0.04086
2.316,0.02888
2.32,0.04076
2.324,0.03007
2.328,0.02861
2.332,0.02909
2.336,-0.01066
2.34,0.01196
2.344,0.02989
2.348,0.01927
2.352,-0.00052
2.356,0.00585
2.36,-0.00324
2.364,0.03067
2.368,-0.00236
2.372,-0.0188
2.376,-0.01851
2.38,-0.00475
2.384,0.03124
2.388,0.00756
2.392,0.01236
2.396,-0.01083
2.4,0.00477
2.404,0.00827
2.408,0.00921
2.412,-0.01953
2.416,-0.00126
2.42,-0.018
2.424,-0.02286
2.428,0.01224
2.432,-0.00827
2.436,-0.00267
2.44,0.00197
2.444,0.00017
2.448,0.00104
2.452,-0.01534
2.456,0.00372
2.46,0.02177
2.464,0.00911
2.468,0.00427
2.472,0.00706
2.476,0.00651
2.48,0.0166
2.484,-0.00472
2.488,0.00721
2.492,-0.0075
2.496,-0.006
2.5,-0.02535
2.504,-0.01795
2.508,0.01812
2.512,0.01092
2.516,0.02591
2.52,-0.02451
2.524,-0.00484
2.528,0.02605
2.532,-0.0221
2.536,0.02782
2.54,0.03117
2.544,-0.00331
2.548,-0.03203
2.552,-0.00429
2.556,0.00924
2.56,0.0009
2.564,-0.01141
2.568,0.00623
2.572,-0.01556
2.576,-0.00982
2.58,-0.00089
2.584,0.00752
2.588,-0.0173
2.592,-0.01072
2.596,0.01088
2.6,-0.01
2.604,-0.00187
2.608,0.02358
2.612,-0.00497
2.616,0.03234
2.62,0.00896
2.624,0.03731
2.628,0.00787
2.632,-0.01165
2.636,-0.01703
2.64,0.01456
2.644,0.01633
2.648,0.01377
2.652,-0.00447
2.656,-0.01453
2.66,-0.01499
2.664,-0.00444
2.668,-0.00511
2.672,0.00901
2.676,0.03396
2.68,-0.00901
2.684,-0.00541
2.688,-0.00789
2.692,-0.01175
2.696,0.01158
2.7,0.01316
2.704,0.01043
2.708,0.00308
2.712,0.00623
2.716,0.01401
2.72,0.02114
2.724,0.03872
2.728,-0.0072
2.732,0.04526
2.736,0.03695
2.74,0.02056
2.744,0.05931
2.748,0.08774
2.752,0.07987
2.756,0.12132
2.76,0.10406
2.764,0.0845
2.768,0.11233
2.772,0.12942
2.776,0.06779
2.78,0.0913
2.784,0.05523
2.788,0.09322
2.792,0.07668
2.796,0.0254
2.8,0.0473
2.804,0.02777
2.808,0.00342
2.812,-0.01919
2.816,-0.01257
2.82,0.03665
2.824,0.02537
2.828,0.00434
2.832,0.02123
2.836,0.01407
2.84,0.01266
2.844,0.015
2.848,0.01079
2.852,0.01889
2.856,0.02233
2.86,0.00881
2.864,0.0349
2.868,0.01244
2.872,-0.00306
2.876,0.01005
2.88,0.00812
2.884,-0.04149
2.888,-0.07439
2.892,-0.12528
2.896,-0.09796
2.9,-0.00765
2.904,0.12464
2.908,0.29834
2.912,0.56017
2.916,0.75134
2.92,0.90804
2.924,0.9793
2.928,0.96483
2.932,0.85558
2.936,0.64464
2.94,0.42594
2.944,0.18691
2.948,0.01266
2.952,-0.08446
2.956,-0.14476
2.96,-0.132
2.964,-0.11805
2.968,-0.08535
2.972,-0.03479
2.976,-0.02018
2.98,-0.01031
2.984,0.0085
2.988,0.00324
2.992,0.00127
2.996,0.03417
3.0,0.00303
3.004,-0.02199
3.008,0.04035
3.012,0.01559
3.016,-0.01375
3.02,0.02271
3.024,0.00497
3.028,0.0157
3.032,0.00495
3.036,0.05699
3.04,0.02803
3.044,0.01741
3.048,-0.00556
3.052,0.00797
3.056,0.01723
3.06,0.01711
3.064,0.00829
3.068,0.01708
3.072,0.03813
3.076,0.01523
3.08,0.02141
3.084,0.02102
3.088,0.03464
3.092,0.01824
3.096,0.04787
3.1,0.02615
3.104,0.03809
3.108,0.02523
3.112,0.03279
3.116,0.05734
3.12,0.04866
3.124,0.04616
3.128,0.07786
3.132,0.05906
3.136,0.08841
3.14,0.1037
3.144,0.06676
3.148,0.11832
3.152,0.10609
3.156,0.14194
3.16,0.10663
3.164,0.17341
3.168,0.16463
3.172,0.16622
3.176,0.17747
3.18,0.19572
3.184,0.20267
3.188,0.25035
3.192,0.21416
3.196,0.23919
3.2,0.22696
3.204,0.2267
3.208,0.24751
3.212,0.23542
3.216,0.21529
3.22,0.21202
3.224,0.2373
3.228,0.2094
3.232,0.2026
3.236,0.18006
3.24,0.18811
3.244,0.15275
3.248,0.15531
3.252,0.15482
3.256,0.1339
3.26,0.11493
3.264,0.08253
3.268,0.10252
3.272,0.12661
3.276,0.06294
3.28,0.06136
3.284,0.0908
3.288,0.0633
3.292,0.04044
3.296,0.02191
3.3,0.04147
3.304,-0.01016
3.308,0.03796
3.312,0.01943
3.316,0.03626
3.32,0.04781
3.324,-0.01036
3.328,0.0129
3.332,0.00563
3.336,0.03687
3.34,-0.01309
3.344,0.00619
3.348,0.01739
3.352,0.03846
3.356,0.02861
3.36,0.02662
3.364,-0.00148
3.368,0.01895
3.372,0.03937
3.376,0.01225
3.38,0.01936
3.384,0.04338
3.388,0.03418
3.392,0.03396
3.396,0.05039
3.4,0.0565
3.404,0.05461
3.408,0.05454
3.412,0.07073
3.416,0.10672
3.42,0.11757
3.424,0.10646
3.428,0.09987
3.432,0.1518
3.436,0.11407
3.44,0.13081
3.444,0.1204
3.448,0.10187
3.452,0.11567
3.456,0.10949
3.46,0.0766
3.464,0.08081
3.468,0.04859
3.472,0.0346
3.476,0.05313
3.48,0.0424
3.484,0.02802
3.488,0.0322
3.492,0.01392
3.496,0.02696
3.5,0.02019
3.504,0.0182
3.508,0.04054
3.512,0.03983
3.516,0.0457
3.52,0.03025
3.524,0.03758
3.528,0.01203
3.532,0.03794
3.536,0.00792
3.54,0.00714
3.544,0.01656
3.548,0.01218
3.552,0.00194
3.556,-0.02107
3.56,-0.08464
3.564,-0.07666
3.568,-0.06519
3.572,0.03659
3.576,0.19475
3.58,0.38864
3.584,0.57557
3.588,0.80287
3.592,0.97809
3.596,1.00942
3.6,0.98813
3.604,0.83113
3.608,0.62844
3.612,0.36148
3.616,0.17871
3.62,0.03077
3.624,-0.0785
3.628,-0.15009
3.632,-0.13863
3.636,-0.08902
3.64,-0.07444
3.644,-0.04767
3.648,0.0038
3.652,0.01451
3.656,0.00408
3.66,0.02723
3.664,0.0345
3.668,0.03645
3.672,0.02526
3.676,0.01977
3.68,0.02184
3.684,0.02816
3.688,0.02634
3.692,0.03347
3.696,0.01748
3.7,0.01636
3.704,0.03202
3.708,0.01901
3.712,0.04697
3.716,0.05414
3.72,0.02766
3.724,0.03141
3.728,0.03812
3.732,0.00983
3.736,0.01555
3.74,0.01448
3.744,0.02057
3.748,0.02361
3.752,0.00814
3.756,0.03834
3.76,0.04914
3.764,0.02851
3.768,0.03007
3.772,0.03166
3.776,0.06198
3.78,0.04856
3.784,0.05517
3.788,0.05829
3.792,0.07304
3.796,0.07868
3.8,0.08945
3.804,0.10163
3.808,0.08886
3.812,0.12179
3.816,0.11075
3.82,0.10789
3.824,0.16124
3.828,0.18027
3.832,0.18193
3.836,0.18403
3.84,0.16164
3.844,0.2093
3.848,0.22464
3.852,0.22458
3.856,0.23671
3.86,0.26182
3.864,0.24448
3.868,0.24041
3.872,0.24443
3.876,0.25315
3.88,0.26401
3.884,0.24461
3.888,0.25188
3.892,0.2529
3.896,0.2389
3.9,0.20731
3.904,0.20199
3.908,0.20201
3.912,0.17604
3.916,0.16615
3.92,0.17624
3.924,0.1611
3.928,0.15577
3.932,0.14473
3.936,0.11155
3.94,0.1034
3.944,0.09708
3.948,0.11075
3.952,0.09948
3.956,0.08769
3.96,0.06642
3.964,0.06538
3.968,0.07136
3.972,0.07113
3.976,0.04445
3.98,0.02705
3.984,0.06357
3.988,0.03706
3.992,0.0262
3.996,0.04054
4.0,0.01985
4.004,0.03665
4.008,0.02597
4.012,0.03318
4.016,0.04031
4.02,0.02327
4.024,0.01622
4.028,0.01205
4.032,0.02835
4.036,0.03094
4.04,0.02779
4.044,0.00859
4.048,0.04594
4.052,0.05232
4.056,0.02697
4.06,0.02315
4.064,0.0291
4.068,0.0321
4.072,0.00977
4.076,0.05803
4.08,0.02861
4.084,0.02124
4.088,0.04633
4.092,0.01297
4.096,0.03723
4.1,0.03035
4.104,0.03786
4.108,0.02599
4.112,0.0196
4.116,0.01119
4.12,0.03372
4.124,0.03962
4.128,9e-05
4.132,0.03829
4.136,0.05142
4.14,0.0433
4.144,0.031
4.148,0.01316
4.152,0.01104
4.156,0.03966
4.16,0.01085
4.164,0.034
4.168,0.03835
4.172,0.02881
4.176,0.0439
4.18,0.03837
4.184,0.06242
4.188,0.08921
4.192,0.10608
4.196,0.10696
4.2,0.13213
4.204,0.11731
4.208,0.09976
4.212,0.12312
4.216,0.11688
4.22,0.09681
4.224,0.12171
4.228,0.09083
4.232,0.09601
4.236,0.06033
4.24,0.08195
4.244,0.07162
4.248,0.0538
4.252,0.01507
4.256,0.03558
4.26,0.02204
4.264,0.02386
4.268,0.02902
4.272,0.03651
4.276,0.01859
4.28,0.02662
4.284,0.03218
4.288,0.01998
4.292,0.04749
4.296,0.02004
4.3,0.04444
4.304,0.04897
4.308,0.01506
4.312,0.05733
4.316,0.0251
4.32,0.00372
4.324,0.01871
4.328,-0.02184
4.332,-0.04224
4.336,-0.08118
4.34,-0.06017
4.344,-0.01823
4.348,0.11444
4.352,0.28016
4.356,0.5344
4.36,0.73333
4.364,0.90871
4.368,1.00866
4.372,1.02113
4.376,0.90509
4.38,0.74045
4.384,0.48071
4.388,0.2534
4.392,0.07523
4.396,-0.07841
4.4,-0.13504
4.404,-0.14158
4.408,-0.10384
4.412,-0.05848
4.416,-0.01051
4.42,0.01401
4.424,0.02525
4.428,0.00973
4.432,0.01543
4.436,0.05556
4.44,0.02284
4.444,0.0306
4.448,0.03636
4.452,0.03622
4.456,0.01914
4.46,0.01231
4.464,0.01921
4.468,0.03394
4.472,0.00384
4.476,0.02154
4.48,0.02664
4.484,0.02455
4.488,0.03261
4.492,0.04694
4.496,0.05591
4.5,0.04464
4.504,0.04468
4.508,0.04946
4.512,0.0156
4.516,0.05965
4.52,0.03567
4.524,0.03991
4.528,0.05248
4.532,0.02311
4.536,0.03729
4.54,0.04338
4.544,0.06419
4.548,0.02853
4.552,0.04933
4.556,0.05685
4.56,0.07749
4.564,0.0634
4.568,0.07531
4.572,0.08178
4.576,0.08103
4.58,0.07387
4.584,0.10498
4.588,0.08868
4.592,0.14784
4.596,0.14911
4.6,0.14708
4.604,0.15992
4.608,0.18163
4.612,0.17719
4.616,0.19754
4.62,0.21419
4.624,0.20669
4.628,0.18852
4.632,0.22315
4.636,0.21211
4.64,0.22131
4.644,0.24681
4.648,0.24872
4.652,0.25331
4.656,0.25313
4.66,0.22853
4.664,0.2701
4.668,0.2357
4.672,0.22675
4.676,0.22471
4.68,0.19807
4.684,0.1858
4.688,0.18656
4.692,0.17161
4.696,0.14041
4.7,0.12343
4.704,0.13152
4.708,0.12704
4.712,0.11082
4.716,0.0956
4.72,0.10704
4.724,0.07729
4.728,0.08085
4.732,0.08356
4.736,0.0714
4.74,0.04445
4.744,0.02635
4.748,0.0354
4.752,0.04046
4.756,0.04032
4.76,0.02843
4.764,0.02435
4.768,0.0377
4.772,0.04144
4.776,0.02369
4.78,0.02895
4.784,0.04791
4.788,0.0285
4.792,0.02361
4.796,0.00836
4.8,0.04372
4.804,0.02511
4.808,0.02669
4.812,0.05089
4.816,0.04603
4.82,0.02213
4.824,0.03953
4.828,0.0195
4.832,0.04432
4.836,0.01338
4.84,0.00858
4.844,0.01291
4.848,0.03186
4.852,0.01768
4.856,0.03865
4.86,0.02913
4.864,0.02663
4.868,-0.00085
4.872,-0.00805
4.876,0.02513
4.88,0.02897
4.884,0.01989
4.888,0.00591
4.892,0.05607
4.896,0.02071
4.9,0.01432
4.904,0.04673
4.908,0.00996
4.912,0.03266
4.916,0.04006
4.92,0.01664
4.924,0.02924
4.928,0.00366
4.932,-0.00125
4.936,0.03027
4.94,0.02462
4.944,0.03673
4.948,0.00961
4.952,0.01101
4.956,0.01121
4.96,0.03865
4.964,0.02964
4.968,0.03165
4.972,0.02968
4.976,0.03612
4.98,0.03937
4.984,0.09022
4.988,0.06233
4.992,0.10211
4.996,0.11699
5.0,0.11833
5.004,0.13049
5.008,0.13015
5.012,0.12526
5.016,0.11276
5.02,0.09921
5.024,0.09675
5.028,0.08399
5.032,0.08643
5.036,0.08004
5.04,0.05599
5.044,0.02519
5.048,0.03448
5.052,0.0158
5.056,0.03481
5.06,0.02214
5.064,0.02319
5.068,0.02272
5.072,0.01099
5.076,0.01431
5.08,0.01478
5.084,0.00218
5.088,0.01442
5.092,0.01342
5.096,0.01499
5.1,0.03884
5.104,0.01268
5.108,0.02831
5.112,0.00418
5.116,0.01296
5.12,0.01465
5.124,0.00306
5.128,-0.03186
5.132,-0.09982
5.136,-0.08754
5.14,-0.02724
5.144,0.07129
5.148,0.21471
5.152,0.41328
5.156,0.62403
5.16,0.84054
5.164,0.98185
5.168,1.01544
5.172,0.93037
5.176,0.78369
5.18,0.5556
5.184,0.32194
5.188,0.12672
5.192,-0.04803
5.196,-0.11714
5.2,-0.15258
5.204,-0.13566
5.208,-0.09581
5.212,-0.05548
5.216,-0.01171
5.22,0.01124
5.224,0.0095
5.228,0.01283
5.232,0.03138
5.236,0.03074
5.24,-0.00094
5.244,0.00209
5.248,0.00955
5.252,0.03138
5.256,0.0315
5.26,0.02018
5.264,0.01154
5.268,0.01082
5.272,-0.00427
5.276,0.01933
5.28,-0.01653
5.284,0.04107
5.288,0.01441
5.292,-0.00587
5.296,0.02178
5.3,0.0063
5.304,0.0173
5.308,0.03193
5.312,0.03047
5.316,0.05802
5.32,0.00409
5.324,0.03508
5.328,0.0643
5.332,0.0162
5.336,0.05138
5.34,0.00235
5.344,0.0013
5.348,0.01508
5.352,0.01862
5.356,0.06054
5.36,0.07734
5.364,0.04777
5.368,0.0686
5.372,0.03843
5.376,0.08331
5.38,0.09509
5.384,0.08525
5.388,0.10692
5.392,0.12148
5.396,0.1348
5.4,0.13729
5.404,0.14347
5.408,0.17994
5.412,0.16521
5.416,0.16409
5.42,0.21228
5.424,0.22097
5.428,0.21905
5.432,0.2417
5.436,0.22679
5.44,0.2278
5.444,0.23437
5.448,0.23876
5.452,0.23863
5.456,0.23373
5.46,0.23222
5.464,0.20738
5.468,0.21556
5.472,0.2035
5.476,0.17994
5.48,0.18055
5.484,0.18928
5.488,0.15966
5.492,0.12362
5.496,0.16989
5.5,0.12769
5.504,0.08753
5.508,0.12581
5.512,0.10682
5.516,0.06141
5.52,0.06882
5.524,0.07611
5.528,0.0669
5.532,0.05237
5.536,0.07163
5.54,0.02867
5.544,0.03925
5.548,-0.00476
5.552,0.05629
5.556,0.03073
5.56,0.02774
5.564,-0.00726
5.568,0.01097
5.572,-0.00795
5.576,0.00553
5.58,0.00708
5.584,-0.01219
5.588,0.02375
5.592,-0.00647
5.596,0.02428
5.6,0.01228
5.604,0.01253
5.608,-0.00206
5.612,-7e-05
5.616,-0.03654
5.62,-0.00449
5.624,0.0233
5.628,0.03148
5.632,-0.01534
5.636,0.00708
5.64,0.02422
5.644,-0.00796
5.648,-0.0078
5.652,0.03118
5.656,0.03096
5.66,0.03153
5.664,0.01666
5.668,0.01256
5.672,-0.00845
5.676,-0.00973
5.68,-0.01046
5.684,-0.02281
5.688,-0.00573
5.692,0.0218
5.696,-0.01445
5.7,0.02001
5.704,0.00348
5.708,0.00782
5.712,-0.00668
5.716,0.0057
5.72,0.00706
5.724,-0.00722
5.728,0.01457
5.732,-0.00707
5.736,0.01601
5.74,0.00776
5.744,-0.00405
5.748,-0.00135
5.752,-0.01009
5.756,0.00528
5.76,0.00411
5.764,0.00375
5.768,0.00412
5.772,0.0148
5.776,0.01142
5.78,-0.00577
5.784,0.00487
5.788,-0.01762
5.792,0.01036
5.796,-0.02774
5.8,0.02031
5.804,-0.03323
5.808,-0.00961
5.812,-0.01096
5.816,-0.01979
5.82,-0.02046
5.824,0.01408
5.828,0.00761
5.832,0.00172
5.836,0.00384
5.84,-0.00692
5.844,0.03323
5.848,-0.02027
5.852,0.00171
5.856,-0.00796
5.86,0.00985
5.864,-0.01657
5.868,0.00729
5.872,-0.00268
5.876,0.01073
5.88,-0.03006
5.884,-0.01854
5.888,-0.03693
5.892,0.01149
5.896,0.00765
5.9,0.01897
5.904,0.03288
5.908,0.02006
5.912,0.03403
5.916,0.03307
5.92,0.03727
5.924,0.07508
5.928,0.08416
5.932,0.08182
5.936,0.07544
5.94,0.10207
5.944,0.09517
5.948,0.08379
5.952,0.08942
5.956,0.05702
5.96,0.07642
5.964,0.06869
5.968,0.02763
5.972,0.05291
5.976,0.00593
5.98,0.00151
5.984,0.00884
5.988,0.01072
5.992,0.00969
5.996,0.01719
6.0,-0.00314
6.004,0.01501
6.008,-0.04769
6.012,-0.02173
6.016,-0.003
6.02,-0.00216
6.024,-0.0035
6.028,-0.016
6.032,-0.02989
6.036,-0.00967
6.04,-0.01928
6.044,-0.00674
6.048,-0.02915
6.052,-0.01981
6.056,-0.04016
6.06,-0.05087
6.064,-0.08177
6.068,-0.09665
6.072,-0.11895
6.076,-0.04185
6.08,0.09144
6.084,0.28305
6.088,0.51681
6.092,0.69178
6.096,0.89412
6.1,0.98561
6.104,0.98484
6.108,0.85935
6.112,0.67802
6.116,0.43298
6.12,0.19784
6.124,0.01
6.128,-0.12846
6.132,-0.16336
6.136,-0.16383
6.14,-0.13621
6.144,-0.09772
6.148,-0.08501
6.152,-0.03943
6.156,-0.04343
6.16,-0.02267
6.164,-0.03647
6.168,-0.02466
6.172,0.00427
6.176,-0.01791
6.18,0.00595
6.184,-0.02332
6.188,-0.01177
6.192,-0.02094
6.196,-0.0478
6.2,-0.00761
6.204,0.01413
6.208,-0.04757
6.212,-0.00635
6.216,-0.00883
6.22,-0.01896
6.224,0.0032
6.228,-0.01939
6.232,-0.00419
6.236,-0.0088
6.24,-0.03329
6.244,-0.00081
6.248,-0.02205
6.252,-0.0357
6.256,-0.02185
6.26,0.0066
6.264,0.00626
6.268,0.0294
6.272,0.01391
6.276,0.02391
6.28,0.00458
6.284,0.03001
6.288,0.0137
6.292,0.03341
6.296,0.0175
6.3,0.0311
6.304,0.03576
6.308,0.06268
6.312,0.01968
6.316,0.06073
6.32,0.07311
6.324,0.0908
6.328,0.07891
6.332,0.11274
6.336,0.12072
6.34,0.12383
6.344,0.13889
6.348,0.13873
6.352,0.16649
6.356,0.17564
6.36,0.20321
6.364,0.20196
6.368,0.17607
6.372,0.19924
6.376,0.21022
6.38,0.23553
6.384,0.20189
6.388,0.18288
6.392,0.20371
6.396,0.19356
6.4,0.16911
6.404,0.18782
6.408,0.15956
6.412,0.15289
6.416,0.14229
6.42,0.15178
6.424,0.123
6.428,0.12507
6.432,0.11499
6.436,0.1128
6.44,0.06966
6.444,0.07602
6.448,0.07621
6.452,0.04946
6.456,0.03398
6.46,0.00765
6.464,0.00626
6.468,0.02893
6.472,0.02819
6.476,0.00868
6.48,0.0252
6.484,-0.01968
6.488,-0.02015
6.492,-0.00211
6.496,-0.00758
6.5,-0.01347
6.504,-0.01733
6.508,-0.02061
6.512,-0.02283
6.516,-0.03187
6.52,-0.02694
6.524,-0.02521
6.528,-0.02073
6.532,-0.02334
6.536,-0.01617
6.54,-0.02188
6.544,-0.03308
6.548,-0.00158
6.552,0.01103
6.556,-0.02709
6.56,-0.03134
6.564,-0.00866
6.568,-0.0058
6.572,-0.00936
6.576,-0.0071
6.58,-0.01798
6.584,-0.01913
6.588,-0.00738
6.592,-0.01969
6.596,-0.00386
6.6,-0.02722
6.604,-0.02301
6.608,-0.00749
6.612,-0.03994
6.616,-0.024
6.62,-0.02992
6.624,-0.0043
6.628,-0.01316
6.632,-0.02516
6.636,-0.00823
6.64,-0.00411
6.644,-0.03871
6.648,0.00223
6.652,-0.03184
6.656,-0.06248
6.66,-0.01482
6.664,-0.02064
6.668,-0.02736
6.672,-0.02662
6.676,-0.03227
6.68,-0.00576
6.684,-0.01259
6.688,-0.00737
6.692,-0.0136
6.696,-0.04528
6.7,-0.00372
6.704,-0.03901
6.708,-0.02333
6.712,-0.01597
6.716,0.00045
6.72,-0.03086
6.724,-0.03081
6.728,-0.00436
6.732,-0.00562
6.736,-0.02479
6.74,-0.02167
6.744,-0.01845
6.748,-0.02193
6.752,0.01766
6.756,0.0217
6.76,0.04521
6.764,0.02275
6.768,0.07294
6.772,0.05948
6.776,0.08179
6.78,0.08418
6.784,0.06315
6.788,0.07804
6.792,0.08087
6.796,0.05245
6.8,0.0526
6.804,0.0342
6.808,0.03192
6.812,0.00095
6.816,-0.02837
6.82,-0.04492
6.824,-0.01421
6.828,-0.03642
6.832,-0.01699
6.836,-0.02086
6.84,-0.03465
6.844,-0.03893
6.848,-0.03138
6.852,-0.01927
6.856,-0.01769
6.86,-0.03651
6.864,-0.02576
6.868,-0.01134
6.872,-0.02037
6.876,-0.01553
6.88,-0.0188
6.884,-0.04328
6.888,-0.04216
6.892,-0.01245
6.896,-0.05877
6.9,-0.10003
6.904,-0.13964
6.908,-0.16774
6.912,-0.12693
6.916,-0.0324
6.92,0.10627
6.924,0.29974
6.928,0.51678
6.932,0.72571
6.936,0.87678
6.94,0.98694
6.944,0.91451
6.948,0.78996
6.952,0.6125
6.956,0.3647
6.96,0.14399
6.964,-0.05086
6.968,-0.13177
6.972,-0.17977
6.976,-0.1823
6.98,-0.13693
6.984,-0.12426
6.988,-0.03993
6.992,-0.03625
6.996,-0.04765
7.0,-0.00877
7.004,-0.00032
7.008,-0.00993
7.012,-0.0124
7.016,-0.02224
7.02,-0.01956
7.024,0.00095
7.028,-0.02315
7.032,-0.01788
7.036,-0.02759
7.04,-0.02409
7.044,0.00323
7.048,-0.01453
7.052,-0.02498
7.056,-0.0376
7.06,-0.02932
7.064,-0.01909
7.068,-0.00637
7.072,-0.04022
7.076,-0.04975
7.08,-0.00615
7.084,-0.022
7.088,-0.03464
7.092,-0.03142
7.096,0.00386
7.1,-0.02089
7.104,-0.04123
7.108,-0.02567
7.112,0.00095
7.116,-0.01738
7.12,-0.00764
7.124,0.00857
7.128,0.01155
7.132,0.00635
7.136,0.00324
7.14,0.00764
7.144,0.01202
7.148,0.03079
7.152,0.04267
7.156,0.07097
7.16,0.04682
7.164,0.04841
7.168,0.08203
7.172,0.08783
7.176,0.09942
7.18,0.12752
7.184,0.12133
7.188,0.13682
7.192,0.13609
7.196,0.15106
7.2,0.17681
7.204,0.2057
7.208,0.17693
7.212,0.17589
7.216,0.17281
7.22,0.18732
7.224,0.19388
7.228,0.18111
7.232,0.19349
7.236,0.18288
7.24,0.18377
7.244,0.19118
7.248,0.13473
7.252,0.16884
7.256,0.15519
7.26,0.15563
7.264,0.10031
7.268,0.10116
7.272,0.11222
7.276,0.07726
7.28,0.07967
7.284,0.02877
7.288,0.02701
7.292,0.03385
7.296,0.02342
7.3,0.03323
7.304,0.0287
7.308,-0.0034
7.312,-0.01421
7.316,0.00066
7.32,0.00333
7.324,-0.01123
7.328,-0.00043
7.332,-0.00414
7.336,-0.01803
7.34,-0.01208
7.344,-0.01602
7.348,-0.04864
7.352,-0.02677
7.356,-0.04947
7.36,-0.0122
7.364,-0.01411
7.368,-0.00596
7.372,0.00901
7.376,-0.02551
7.38,-0.04855
7.384,-0.03564
7.388,-0.03611
7.392,-0.04463
7.396,-0.02897
7.4,-0.05617
7.404,-0.00971
7.408,-0.01724
7.412,-0.02718
7.416,-0.0224
7.42,-0.01961
7.424,0.00488
7.428,-0.03378
7.432,-0.02506
7.436,-0.02913
7.44,-0.03423
7.444,-0.01982
7.448,-0.00923
7.452,-0.02678
7.456,-0.05395
7.46,-0.01105
7.464,-0.00764
7.468,-0.01432
7.472,-0.03284
7.476,-0.04402
7.48,-0.05028
7.484,-0.04687
7.488,-0.04226
7.492,-0.02813
7.496,-0.04535
7.5,-0.01285
7.504,-0.02169
7.508,-0.0144
7.512,-0.05446
7.516,-0.03846
7.52,-0.03219
7.524,-0.03854
7.528,-0.02999
7.532,-0.01598
7.536,-0.03005
7.54,-0.02251
7.544,-0.01625
7.548,-0.02615
7.552,-0.02972
7.556,-0.03305
7.56,-0.00112
7.564,-0.02738
7.568,-0.02617
7.572,-0.01848
7.576,-0.00769
7.58,-0.01742
7.584,0.01526
7.588,0.02813
7.592,0.0111
7.596,0.03749
7.6,0.07412
7.604,0.06735
7.608,0.08433
7.612,0.06407
7.616,0.04378
7.62,0.03063
7.624,0.02432
7.628,0.01135
7.632,0.0074
7.636,0.0226
7.64,-0.01093
7.644,-0.00124
7.648,-0.01915
7.652,-0.02575
7.656,-0.04999
7.66,-0.00748
7.664,-0.07373
7.668,-0.00339
7.672,-0.03156
7.676,-0.03123
7.68,-0.01992
7.684,-0.03383
7.688,-0.02101
7.692,-0.00577
7.696,-0.05379
7.7,-0.04122
7.704,-0.03285
7.708,0.01554
7.712,-0.05867
7.716,-0.06781
7.72,-0.02655
7.724,-0.0982
7.728,-0.10349
7.732,-0.15719
7.736,-0.14384
7.74,-0.07195
7.744,0.07782
7.748,0.21352
7.752,0.43433
7.756,0.64961
7.76,0.83831
7.764,0.95902
7.768,0.96799
7.772,0.84953
7.776,0.67891
7.78,0.45432
7.784,0.20578
7.788,0.00761
7.792,-0.13353
7.796,-0.16125
7.8,-0.19333
7.804,-0.17442
7.808,-0.11619
7.812,-0.09021
7.816,-0.06496
7.82,-0.04423
7.824,-0.04238
7.828,-0.05416
7.832,-0.03449
7.836,-0.04454
7.84,0.00828
7.844,-0.03026
7.848,-0.01214
7.852,-0.04308
7.856,-0.03868
7.86,-0.05057
7.864,-0.01954
7.868,-0.01088
7.872,-0.04391
7.876,-0.02151
7.88,-0.01986
7.884,-0.01325
7.888,-0.01217
7.892,-0.04565
7.896,-0.02722
7.9,-0.02755
7.904,-0.02869
7.908,-0.00742
7.912,-0.01336
7.916,-0.01098
7.92,-0.02346
7.924,-0.02352
7.928,-0.01511
7.932,-0.02193
7.936,-0.03302
7.94,-0.02075
7.944,-0.0257
7.948,-0.02766
7.952,-0.0216
7.956,-0.00177
7.96,0.00069
7.964,0.03498
7.968,0.02143
7.972,0.02324
7.976,0.03008
7.98,0.0349
7.984,0.07348
7.988,0.04231
7.992,0.09552
7.996,0.08455
8.0,0.09011
8.004,0.13149
8.008,0.1341
8.012,0.12332
8.016,0.12152
8.02,0.16929
8.024,0.16684
8.028,0.17726
8.032,0.20708
8.036,0.1858
8.04,0.20383
8.044,0.19088
8.048,0.19615
8.052,0.19652
8.056,0.20491
8.06,0.18308
8.064,0.18886
8.068,0.15547
8.072,0.1569
8.076,0.16182
8.08,0.13742
8.084,0.13085
8.088,0.09159
8.092,0.1032
8.096,0.09771
8.1,0.07771
8.104,0.05733
8.108,0.07369
8.112,0.04219
8.116,0.05967
8.12,0.05616
8.124,0.02722
8.128,0.02134
8.132,-0.01404
8.136,-0.00599
8.14,-0.02077
8.144,0.00928
8.148,-0.01665
8.152,-0.01374
8.156,-0.01407
8.16,-0.0391
8.164,-0.03169
8.168,-0.01173
8.172,-0.02178
8.176,-0.02776
8.18,0.00481
8.184,-0.02345
8.188,-0.04032
8.192,-0.02914
8.196,-0.01147
8.2,-0.01199
8.204,-0.02372
8.208,-0.00881
8.212,-0.02208
8.216,-0.0016
8.22,-0.01078
8.224,-0.01836
8.228,-0.0229
8.232,0.012
8.236,-0.05103
8.24,-0.02556
8.244,-0.00397
8.248,-0.04245
8.252,-0.03661
8.256,-0.0602
8.26,-0.01313
8.264,-0.02566
8.268,0.00796
8.272,-0.03323
8.276,-0.01264
8.28,-0.04749
8.284,-0.00431
8.288,0.00346
8.292,-0.01492
8.296,0.01411
8.3,0.01762
8.304,0.0301
8.308,0.02424
8.312,0.04008
8.316,0.05728
8.32,0.08557
8.324,0.07836
8.328,0.06195
8.332,0.08421
8.336,0.03421
8.34,0.07513
8.344,0.07697
8.348,0.04153
8.352,0.05027
8.356,0.00595
8.36,0.01903
8.364,0.02017
8.368,-0.01883
8.372,-0.01563
8.376,-0.01328
8.38,-0.00025
8.384,0.0058
8.388,-0.01951
8.392,-0.03574
8.396,-0.00086
8.4,-0.04489
8.404,-0.0008
8.408,0.00706
8.412,-0.02044
8.416,-0.00406
8.42,-0.03109
8.424,-0.05504
8.428,-0.01045
8.432,-0.04412
8.436,-0.01309
8.44,-0.01474
8.444,-0.07165
8.448,-0.07939
8.452,-0.1047
8.456,-0.14555
8.46,-0.14622
8.464,-0.02275
8.468,0.12997
8.472,0.30613
8.476,0.50991
8.48,0.70111
8.484,0.89663
8.488,0.99967
8.492,0.95768
8.496,0.82105
8.5,0.62625
8.504,0.34846
8.508,0.14589
8.512,-0.02733
8.516,-0.13144
8.52,-0.19769
8.524,-0.18015
8.528,-0.17547
8.532,-0.09909
8.536,-0.05522
8.54,-0.05183
8.544,-0.01665
8.548,-0.01577
8.552,-0.014
8.556,-0.03309
8.56,-0.028
8.564,-0.00184
8.568,-0.00606
8.572,-0.00873
8.576,-0.01447
8.58,-0.03482
8.584,-0.02419
8.588,-0.01909
8.592,-0.04141
8.596,-0.03483
8.6,0.00331
8.604,-0.01703
8.608,-0.01902
8.612,-0.03065
8.616,0.00969
8.62,-0.00298
8.624,0.0047
8.628,-0.02845
8.632,-0.00933
8.636,-0.0186
8.64,0.00855
8.644,-0.02245
8.648,-0.00574
8.652,-0.02834
8.656,-0.00087
8.66,0.00132
8.664,-0.00683
8.668,0.01173
8.672,-0.01207
8.676,-0.00314
8.68,0.00066
8.684,0.04227
8.688,0.04689
8.692,0.03143
8.696,0.04461
8.7,0.03622
8.704,0.08658
8.708,0.0795
8.712,0.08206
8.716,0.07933
8.72,0.11574
8.724,0.1117
8.728,0.11795
8.732,0.1474
8.736,0.1632
8.74,0.17362
8.744,0.17065
8.748,0.19606
8.752,0.19714
8.756,0.18666
8.76,0.19293
8.764,0.18997
8.768,0.20401
8.772,0.20412
8.776,0.20123
8.78,0.20414
8.784,0.21426
8.788,0.18852
8.792,0.2021
8.796,0.17084
8.8,0.17644
8.804,0.16456
8.808,0.14076
8.812,0.12442
8.816,0.11551
8.82,0.11179
8.824,0.09624
8.828,0.05714
8.832,0.06357
8.836,0.05687
8.84,0.06567
8.844,0.04307
8.848,0.0368
8.852,-0.00132
8.856,0.01914
8.86,0.00233
8.864,0.03633
8.868,0.02481
8.872,0.00548
8.876,-0.0125
8.88,0.01118
8.884,-0.03704
8.888,0.00749
8.892,-0.01154
8.896,-0.02826
8.9,0.00482
8.904,0.01261
8.908,-0.00104
8.912,0.01031
8.916,-0.00188
8.92,-0.01032
8.924,0.00765
8.928,-0.01557
8.932,0.0095
8.936,-0.01031
8.94,-0.0255
8.944,0.00725
8.948,-0.01062
8.952,-0.0336
8.956,0.01447
8.96,-0.03218
8.964,0.00463
8.968,-0.02295
8.972,-0.00096
8.976,-0.04035
8.98,-0.01381
8.984,-0.0231
8.988,-0.00423
8.992,-0.00075
8.996,0.01299
9.0,0.00096
9.004,-0.02308
9.008,-0.02408
9.012,0.00811
9.016,-0.01027
9.02,0.01578
9.024,0.00401
9.028,-0.0202
9.032,0.02418
9.036,-0.01512
9.04,0.0115
9.044,0.02123
9.048,0.03735
9.052,0.05233
9.056,0.0514
9.06,0.10051
9.064,0.06154
9.068,0.0571
9.072,0.08868
9.076,0.11956
9.08,0.1137
9.084,0.08566
9.088,0.10251
9.092,0.06913
9.096,0.06552
9.1,0.1034
9.104,0.06344
9.108,0.05324
9.112,-0.00571
9.116,0.00217
9.12,-0.0083
9.124,0.01411
9.128,-0.01057
9.132,-0.00931
9.136,0.01122
9.14,0.0044
9.144,-0.00082
9.148,0.00503
9.152,-0.00074
9.156,-0.0101
9.16,-0.00696
9.164,-0.0114
9.168,0.01166
9.172,0.01522
9.176,-0.01468
9.18,-0.00919
9.184,-0.02195
9.188,-0.0027
9.192,-0.00456
9.196,-0.02967
9.2,-0.06971
9.204,-0.09358
9.208,-0.13004
9.212,-0.0734
9.216,0.02338
9.22,0.16321
9.224,0.38855
9.228,0.58021
9.232,0.7626
9.236,0.93007
9.24,1.02372
9.244,0.92375
9.248,0.78995
9.252,0.55201
9.256,0.37069
9.26,0.14948
9.264,-0.03469
9.268,-0.13236
9.272,-0.14947
9.276,-0.16004
9.28,-0.13375
9.284,-0.06149
9.288,-0.03724
9.292,0.00132
9.296,-0.01909
9.3,-0.02383
9.304,-0.00573
9.308,0.00729
9.312,-0.01521
9.316,-0.00064
9.32,-0.01077
9.324,0.02693
9.328,0.00041
9.332,0.02045
9.336,0.01341
9.34,0.0021
9.344,-0.01279
9.348,0.01801
9.352,0.0184
9.356,-0.00522
9.36,0.01742
9.364,0.00382
9.368,0.01762
9.372,0.00285
9.376,-0.00029
9.38,-0.01512
9.384,0.02023
9.388,-0.00075
9.392,0.00111
9.396,-0.04166
9.4,0.04777
9.404,0.01868
9.408,-9e-05
9.412,0.01653
9.416,0.04143
9.42,0.00816
9.424,0.04787
9.428,0.04016
9.432,0.05251
9.436,0.07371
9.44,0.06015
9.444,0.05455
9.448,0.06647
9.452,0.08178
9.456,0.0967
9.46,0.10495
9.464,0.12122
9.468,0.11459
9.472,0.13227
9.476,0.14243
9.48,0.17661
9.484,0.16677
9.488,0.17821
9.492,0.1702
9.496,0.20153
9.5,0.22425
9.504,0.2313
9.508,0.23943
9.512,0.22784
9.516,0.24247
9.52,0.2311
9.524,0.23937
9.528,0.24231
9.532,0.20648
9.536,0.20757
9.54,0.22179
9.544,0.21723
9.548,0.19989
9.552,0.18169
9.556,0.16709
9.56,0.17374
9.564,0.16881
9.568,0.10668
9.572,0.10315
9.576,0.11502
9.58,0.10596
9.584,0.09688
9.588,0.09309
9.592,0.04712
9.596,0.09242
9.6,0.044
9.604,0.08363
9.608,0.05812
9.612,0.02394
9.616,0.03459
9.62,0.05262
9.624,0.04982
9.628,0.01251
9.632,0.04347
9.636,0.01366
9.64,0.0362
9.644,0.01208
9.648,0.04279
9.652,0.00712
9.656,0.06154
9.66,-0.00239
9.664,-0.01423
9.668,-0.01655
9.672,0.0322
9.676,0.03454
9.68,0.02887
9.684,0.01564
9.688,0.02122
9.692,0.01129
9.696,-0.00618
9.7,0.03535
9.704,0.03857
9.708,0.02168
9.712,-0.01314
9.716,0.01385
9.72,0.02216
9.724,0.0074
9.728,-0.00714
9.732,0.0104
9.736,0.03768
9.74,0.04169
9.744,0.00733
9.748,-0.00678
9.752,0.0377
9.756,0.00142
9.76,0.00082
9.764,0.04736
9.768,0.01323
9.772,-0.00691
9.776,0.00811
9.78,0.03672
9.784,-0.00419
9.788,0.03193
9.792,0.01075
9.796,0.02179
9.8,-0.02211
9.804,-0.01317
9.808,0.00682
9.812,0.04383
9.816,0.02294
9.82,0.00594
9.824,0.00681
9.828,0.02375
9.832,0.008
9.836,0.03278
9.84,0.02872
9.844,0.03576
9.848,-0.0143
9.852,-0.00707
9.856,0.01248
9.86,0.02104
9.864,0.01585
9.868,0.01921
9.872,0.00769
9.876,0.00213
9.88,0.00374
9.884,0.00892
9.888,0.01904
9.892,0.02415
9.896,0.01455
9.9,0.03491
9.904,0.01455
9.908,0.0242
9.912,0.01714
9.916,0.00082
9.92,0.04133
9.924,0.03909
9.928,0.01899
9.932,0.0239
9.936,-0.00074
9.94,0.04838
9.944,0.00931
9.948,0.0316
9.952,0.01302
9.956,0.04638
9.96,0.03151
9.964,0.00668
9.968,-0.00017
9.972,-0.00434
9.976,0.0103
9.98,0.02265
9.984,0.02102
9.988,0.01305
9.992,0.01619
9.996,0.03129
