t_seg,ecg_mV
0.0,-0.01572
0.004,-0.02055
0.008,0.00607
0.012,-0.00839
0.016,-0.02735
0.02,0.02101
0.024,0.01123
0.028,-0.01983
0.032,-0.00086
0.036,0.0195
0.04,0.00247
0.044,0.03997
0.048,0.06205
0.052,0.04852
0.056,0.07124
0.06,0.07739
0.064,0.10003
0.068,0.04542
0.072,0.06414
0.076,0.06484
0.08,0.01755
0.084,0.03825
0.088,0.01027
0.092,-0.00449
0.096,-0.02706
0.1,0.00364
0.104,-0.04717
0.108,-0.0177
0.112,-0.02841
0.116,-0.02719
0.12,-0.0098
0.124,-0.03568
0.128,-0.01518
0.132,-0.04793
0.136,-0.02904
0.14,-0.03035
0.144,-0.06605
0.148,-0.04672
0.152,-0.00541
0.156,-0.01197
0.16,-0.02084
0.164,-0.0272
0.168,-0.00505
0.172,-0.05571
0.176,-0.04827
0.18,-0.08507
0.184,-0.12078
0.188,-0.1315
0.192,-0.13314
0.196,-0.01062
0.2,0.15231
0.204,0.3412
0.208,0.56583
0.212,0.78134
0.216,0.92103
0.22,0.98096
0.224,0.92469
0.228,0.75958
0.232,0.56679
0.236,0.29759
0.24,0.11398
0.244,-0.02142
0.248,-0.15787
0.252,-0.17137
0.256,-0.14742
0.26,-0.14315
0.264,-0.08865
0.268,-0.07398
0.272,-0.04821
0.276,-0.01738
0.28,-0.01078
0.284,-0.01432
0.288,-0.02576
0.292,-0.03152
0.296,-0.02876
0.3,-0.02139
0.304,-0.03575
0.308,-0.01856
0.312,-0.08209
0.316,-0.02605
0.32,-0.00347
0.324,-0.0263
0.328,-0.00945
0.332,-0.01804
0.336,-0.03475
0.34,-0.02025
0.344,-0.01268
0.348,-0.02177
0.352,-0.04697
0.356,-0.04022
0.36,-0.02417
0.364,-0.03866
0.368,0.00684
0.372,-0.02356
0.376,-0.00613
0.38,-0.02801
0.384,-0.02229
0.388,-0.03045
0.392,-0.00441
0.396,0.01571
0.4,-0.01332
0.404,0.01278
0.408,0.00823
0.412,0.01168
0.416,0.0146
0.42,-0.00042
0.424,0.03819
0.428,0.05487
0.432,0.03187
0.436,0.04646
0.44,0.03905
0.444,0.06497
0.448,0.10482
0.452,0.07926
0.456,0.12722
0.46,0.13565
0.464,0.12814
0.468,0.16012
0.472,0.16528
0.476,0.17004
0.48,0.16891
0.484,0.17376
0.488,0.19001
0.492,0.18708
0.496,0.19347
0.5,0.19566
0.504,0.20583
0.508,0.1948
0.512,0.18451
0.516,0.1765
0.52,0.15975
0.524,0.17592
0.528,0.15507
0.532,0.16048
0.536,0.14648
0.54,0.15926
0.544,0.13943
0.548,0.10493
0.552,0.08516
0.556,0.07367
0.56,0.08072
0.564,0.04014
0.568,0.05858
0.572,0.06137
0.576,0.05117
0.58,-0.00213
0.584,0.01023
0.588,-0.00818
0.592,0.03439
0.596,0.02003
0.6,-0.04069
0.604,0.02557
0.608,-0.03218
0.612,0.01264
0.616,0.01194
0.62,-0.01043
0.624,0.01645
0.628,-0.00869
0.632,-0.00998
0.636,-0.01846
0.64,-0.01684
0.644,-0.02071
0.648,-0.0085
0.652,-0.00948
0.656,-0.01585
0.66,-0.02849
0.664,-0.03156
0.668,0.00775
0.672,0.00527
0.676,-0.02238
0.68,-0.00418
0.684,-0.02286
0.688,-0.00997
0.692,-0.00075
0.696,-0.03965
0.7,-0.02169
0.704,-0.02118
0.708,-0.01151
0.712,-0.02894
0.716,-0.00616
0.72,-0.00376
0.724,-0.00299
0.728,-0.01935
0.732,-0.00293
0.736,-0.02218
0.74,-0.01934
0.744,0.00416
0.748,-0.00726
0.752,-0.00851
0.756,-0.04034
0.76,-0.03324
0.764,-0.01558
0.768,-0.04283
0.772,-0.00867
0.776,-0.02566
0.78,-0.0225
0.784,-0.03415
0.788,-0.0261
0.792,0.01429
0.796,-0.0141
0.8,-0.02576
0.804,-0.00053
0.808,0.00488
0.812,-0.01662
0.816,-0.03112
0.82,-0.00263
0.824,-0.01826
0.828,0.02893
0.832,0.01771
0.836,0.05103
0.84,0.01457
0.844,0.04434
0.848,0.03107
0.852,0.08499
0.856,0.07138
0.86,0.05865
0.864,0.10796
0.868,0.05022
0.872,0.0976
0.876,0.08978
0.88,0.04001
0.884,0.07794
0.888,0.02783
0.892,0.04812
0.896,0.05677
0.9,0.02681
0.904,0.01139
0.908,0.00935
0.912,0.01126
0.916,-0.00946
0.92,0.0098
0.924,-0.01639
0.928,-0.01624
0.932,-0.01119
0.936,-0.02314
0.94,-0.01002
0.944,-0.0104
0.948,0.01019
0.952,0.00129
0.956,-0.0211
0.96,0.02858
0.964,0.0008
0.968,-0.01435
0.972,-0.00312
0.976,-0.01677
0.98,-0.01051
0.984,-0.02612
0.988,-0.04756
0.992,-0.097
0.996,-0.12592
1.0,-0.11946
1.004,-0.05744
1.008,0.10577
1.012,0.28527
1.016,0.50062
1.02,0.70969
1.024,0.90447
1.028,0.99752
1.032,0.99163
1.036,0.81735
1.04,0.67432
1.044,0.42275
1.048,0.20214
1.052,0.0016
1.056,-0.08352
1.06,-0.1638
1.064,-0.18152
1.068,-0.17641
1.072,-0.11184
1.076,-0.06479
1.08,-0.01879
1.084,0.00742
1.088,0.01134
1.092,-0.00507
1.096,-0.02289
1.1,-0.0057
1.104,0.00216
1.108,-0.0097
1.112,0.00883
1.116,-0.00434
1.12,-0.00276
1.124,-0.02764
1.128,-0.00742
1.132,-0.01522
1.136,-0.00079
1.14,-0.00676
1.144,-0.0062
1.148,0.00753
1.152,-0.01763
1.156,-0.00923
1.16,-0.01268
1.164,0.00055
1.168,-0.00297
1.172,0.02822
1.176,0.02288
1.18,0.01362
1.184,0.01926
1.188,0.00364
1.192,0.03337
1.196,0.01129
1.2,-0.00481
1.204,0.01579
1.208,-0.0032
1.212,0.00264
1.216,0.00818
1.22,0.01137
1.224,0.03034
1.228,0.02322
1.232,0.06147
1.236,0.05448
1.24,0.06339
1.244,0.0511
1.248,0.08192
1.252,0.09808
1.256,0.11142
1.26,0.10839
1.264,0.12568
1.268,0.15827
1.272,0.15914
1.276,0.16899
1.28,0.1631
1.284,0.20324
1.288,0.19391
1.292,0.19869
1.296,0.21177
1.3,0.22377
1.304,0.21636
1.308,0.22178
1.312,0.21952
1.316,0.21669
1.32,0.23316
1.324,0.25419
1.328,0.19464
1.332,0.20125
1.336,0.17801
1.34,0.1848
1.344,0.15046
1.348,0.16738
1.352,0.1365
1.356,0.12156
1.36,0.14054
1.364,0.10144
1.368,0.09949
1.372,0.09524
1.376,0.07629
1.38,0.07556
1.384,0.06951
1.388,0.03231
1.392,0.05262
1.396,0.05615
1.4,0.05499
1.404,0.02218
1.408,0.02161
1.412,0.02041
1.416,0.01132
1.42,0.01581
1.424,0.01163
1.428,0.0266
1.432,0.0035
1.436,0.00246
1.44,0.01909
1.444,0.00838
1.448,0.00192
1.452,0.01995
1.456,-0.0065
1.46,0.02207
1.464,0.02175
1.468,0.01184
1.472,-0.00787
1.476,-0.01348
1.48,-0.00231
1.484,0.02549
1.488,0.03441
1.492,-0.01025
1.496,-0.00026
1.5,0.00626
1.504,0.00467
1.508,0.01287
1.512,0.04015
1.516,0.04801
1.52,0.026
1.524,0.04845
1.528,-0.009
1.532,0.00197
1.536,0.01291
1.54,0.01295
1.544,0.02616
1.548,-0.00027
1.552,0.00734
1.556,-0.02862
1.56,0.02876
1.564,-0.0043
1.568,0.02751
1.572,-0.00702
1.576,-0.00803
1.58,0.01508
1.584,0.0159
1.588,-0.00187
1.592,0.00924
1.596,0.01761
1.6,0.01796
1.604,-0.01321
1.608,0.00451
1.612,-0.00589
1.616,0.00965
1.62,0.00171
1.624,0.00655
1.628,-0.00085
1.632,0.02712
1.636,0.02065
1.64,-0.00214
1.644,0.00828
1.648,0.00247
1.652,0.00481
1.656,0.01556
1.66,0.03486
1.664,0.00972
1.668,0.00458
1.672,0.02733
1.676,0.03223
1.68,0.0206
1.684,0.06613
1.688,0.05273
1.692,0.0671
1.696,0.0942
1.7,0.09616
1.704,0.11086
1.708,0.11562
1.712,0.11628
1.716,0.10276
1.72,0.10145
1.724,0.11654
1.728,0.06382
1.732,0.06933
1.736,0.08955
1.74,0.04962
1.744,0.05036
1.748,0.04738
1.752,0.04073
1.756,0.0224
1.76,0.03847
1.764,-0.01072
1.768,0.0126
1.772,-0.00405
1.776,0.01461
1.78,0.02755
1.784,0.03123
1.788,0.00214
1.792,0.02447
1.796,-0.0167
1.8,-0.00836
1.804,0.00916
1.808,0.00562
1.812,0.00019
1.816,0.02498
1.82,0.0264
1.824,-0.00145
1.828,-0.01166
1.832,-0.04695
1.836,-0.07323
1.84,-0.09967
1.844,-0.09545
1.848,0.02577
1.852,0.17293
1.856,0.33831
1.86,0.55251
1.864,0.78436
1.868,0.95263
1.872,1.02193
1.876,0.94652
1.88,0.83092
1.884,0.62252
1.888,0.41816
1.892,0.17378
1.896,0.01501
1.9,-0.08121
1.904,-0.15265
1.908,-0.09929
1.912,-0.09829
1.916,-0.0466
1.92,-0.03602
1.924,-0.00345
1.928,0.02043
1.932,0.00054
1.936,0.02
1.94,0.0326
1.944,0.01078
1.948,0.00219
1.952,0.02
1.956,0.01474
1.96,0.02741
1.964,0.03094
1.968,-0.00067
1.972,0.05131
1.976,0.02904
1.98,0.01772
1.984,0.00808
1.988,0.0302
1.992,0.014
1.996,0.0222
2.0,0.03725
2.004,0.02427
2.008,0.04863
2.012,0.02851
2.016,0.03879
2.02,0.01261
2.024,0.00426
2.028,0.01943
2.032,0.0378
2.036,0.02976
2.04,0.01623
2.044,0.0332
2.048,0.05494
2.052,0.04223
2.056,0.03329
2.06,0.05245
2.064,0.06732
2.068,0.03064
2.072,0.07172
2.076,0.04509
2.08,0.08414
2.084,0.10003
2.088,0.10028
2.092,0.08381
2.096,0.12914
2.1,0.13531
2.104,0.12896
2.108,0.12323
2.112,0.17202
2.116,0.1673
2.12,0.19165
2.124,0.19281
2.128,0.20532
2.132,0.23157
2.136,0.28447
2.14,0.22228
2.144,0.2227
2.148,0.23213
2.152,0.23211
2.156,0.23764
2.16,0.24797
2.164,0.22446
2.168,0.23149
2.172,0.22454
2.176,0.22258
2.18,0.22844
2.184,0.20163
2.188,0.18804
2.192,0.17436
2.196,0.1678
2.2,0.14216
2.204,0.13918
2.208,0.10728
2.212,0.1003
2.216,0.10143
2.22,0.08328
2.224,0.08244
2.228,0.07295
2.232,0.06986
2.236,0.05961
2.24,0.0737
2.244,0.05703
2.248,0.03836
2.252,0.05098
2.256,0.06725
2.26,0.0504
2.264,0.0314
2.268,0.05064
2.272,0.02412
2.276,0.05175
2.28,0.00609
2.284,0.02431
2.288,0.03103
2.292,0.02106
2.296,0.03017
2.3,0.03833
2.304,0.00727
2.308,0.01498
2.312,0.02184
2.316,0.03185
2.32,0.01905
2.324,0.00891
2.328,0.03531
2.332,0.06106
2.336,0.02176
2.34,0.02166
2.344,0.02571
2.348,-0.0169
2.352,0.03997
2.356,0.00904
2.36,0.00711
2.364,0.03396
2.368,0.02838
2.372,0.01156
2.376,0.02986
2.38,0.02561
2.384,0.01793
2.388,0.02878
2.392,-0.00975
2.396,0.01893
2.4,0.03061
2.404,0.02279
2.408,0.02744
2.412,0.02382
2.416,0.02909
2.42,0.03736
2.424,0.03081
2.428,0.02699
2.432,0.02579
2.436,0.02646
2.44,0.01134
2.444,0.04983
2.448,0.0403
2.452,0.04873
2.456,0.02988
2.46,0.01336
2.464,0.04717
2.468,0.03521
2.472,0.00496
2.476,0.01946
2.48,0.01599
2.484,0.03917
2.488,0.02336
2.492,0.02733
2.496,0.0218
2.5,0.03801
2.504,0.0431
2.508,0.05565
2.512,0.03147
2.516,0.01675
2.52,0.03898
2.524,0.04226
2.528,0.03605
2.532,0.04023
2.536,0.0176
2.54,0.04966
2.544,0.01774
2.548,0.02367
2.552,2e-05
2.556,-0.00109
2.56,0.01922
2.564,0.03762
2.568,0.0227
2.572,0.01592
2.576,0.02502
2.58,0.02259
2.584,0.03605
2.588,0.02703
2.592,0.03594
2.596,0.01152
2.6,0.03481
2.604,0.02296
2.608,0.02137
2.612,0.04782
2.616,0.03158
2.62,0.02369
2.624,0.014
2.628,0.02271
2.632,0.01557
2.636,0.03582
2.64,0.04134
2.644,0.07243
2.648,0.06382
2.652,0.06551
2.656,0.06868
2.66,0.1041
2.664,0.12078
2.668,0.12928
2.672,0.11791
2.676,0.13336
2.68,0.12127
2.684,0.11114
2.688,0.08758
2.692,0.08322
2.696,0.08394
2.7,0.0601
2.704,0.08263
2.708,0.03491
2.712,0.04953
2.716,0.04294
2.72,0.0324
2.724,0.02882
2.728,-0.00045
2.732,0.01785
2.736,0.02041
2.74,0.01736
2.744,0.00746
2.748,0.00473
2.752,0.02627
2.756,0.03958
2.76,0.0481
2.764,0.03578
2.768,0.04025
2.772,0.02049
2.776,0.02722
2.78,0.02106
2.784,0.046
2.788,0.04223
2.792,-0.01466
2.796,-0.03197
2.8,-0.0604
2.804,-0.09441
2.808,-0.05162
2.812,0.08655
2.816,0.19224
2.82,0.41604
2.824,0.60284
2.828,0.82265
2.832,0.98151
2.836,1.01735
2.84,0.97009
2.844,0.79586
2.848,0.59391
2.852,0.35873
2.856,0.18216
2.86,-0.01606
2.864,-0.08018
2.868,-0.13987
2.872,-0.14204
2.876,-0.07303
2.88,-0.05944
2.884,0.01319
2.888,0.01567
2.892,0.01491
2.896,0.04282
2.9,0.02477
2.904,0.02054
2.908,0.01657
2.912,0.0047
2.916,0.03102
2.92,0.01751
2.924,0.04062
2.928,0.02373
2.932,0.01152
2.936,0.00898
2.94,0.0361
2.944,0.02333
2.948,0.03087
2.952,0.04558
2.956,0.02399
2.96,0.02133
2.964,0.00677
2.968,0.00495
2.972,0.06202
2.976,0.02624
2.98,0.03352
2.984,0.02041
2.988,0.0369
2.992,0.04076
2.996,0.03063
3.0,0.02563
3.004,0.06514
3.008,0.03113
3.012,0.0469
3.016,0.04821
3.02,0.05409
3.024,0.04873
3.028,0.05967
3.032,0.07438
3.036,0.07746
3.04,0.07402
3.044,0.08851
3.048,0.09229
3.052,0.11023
3.056,0.10081
3.06,0.14441
3.064,0.16583
3.068,0.16045
3.072,0.16557
3.076,0.19216
3.08,0.17711
3.084,0.20147
3.088,0.21125
3.092,0.21248
3.096,0.23498
3.1,0.24142
3.104,0.23066
3.108,0.23659
3.112,0.2277
3.116,0.25157
3.12,0.25791
3.124,0.23318
3.128,0.26702
3.132,0.23443
3.136,0.2298
3.14,0.23641
3.144,0.20383
3.148,0.21105
3.152,0.20358
3.156,0.1842
3.16,0.18958
3.164,0.16224
3.168,0.14411
3.172,0.09945
3.176,0.1484
3.18,0.11645
3.184,0.12691
3.188,0.10411
3.192,0.09379
3.196,0.03824
3.2,0.0378
3.204,0.0813
3.208,0.0506
3.212,0.05447
3.216,0.07648
3.22,0.03072
3.224,0.03502
3.228,0.05432
3.232,0.03392
3.236,0.02202
3.24,0.03435
3.244,0.01097
3.248,0.02571
3.252,0.03195
3.256,0.04131
3.26,0.05103
3.264,0.03822
3.268,0.03025
3.272,0.05153
3.276,0.01741
3.28,0.0249
3.284,0.03352
3.288,0.01795
3.292,0.04076
3.296,0.01891
3.3,0.06259
3.304,0.0254
3.308,0.05734
3.312,0.072
3.316,0.05933
3.32,0.07844
3.324,0.05856
3.328,0.09787
3.332,0.1262
3.336,0.09994
3.34,0.10188
3.344,0.12374
3.348,0.13425
3.352,0.10768
3.356,0.10601
3.36,0.09109
3.364,0.0867
3.368,0.05489
3.372,0.09856
3.376,0.08991
3.38,0.08297
3.384,0.04158
3.388,0.04377
3.392,0.03955
3.396,0.0522
3.4,0.02734
3.404,0.02297
3.408,0.04321
3.412,0.03158
3.416,0.05821
3.42,0.0017
3.424,0.03658
3.428,0.03549
3.432,0.03212
3.436,0.00397
3.44,0.00753
3.444,0.00469
3.448,0.00735
3.452,0.03187
3.456,0.04284
3.46,-0.00258
3.464,-0.01028
3.468,-0.06786
3.472,-0.08344
3.476,-0.07994
3.48,-0.03366
3.484,0.09316
3.488,0.24488
3.492,0.4655
3.496,0.69709
3.5,0.85806
3.504,1.00895
3.508,1.01278
3.512,0.90968
3.516,0.72517
3.52,0.54516
3.524,0.29532
3.528,0.10272
3.532,-0.02902
3.536,-0.12667
3.54,-0.13306
3.544,-0.09205
3.548,-0.08231
3.552,-0.05434
3.556,-0.02045
3.56,-0.0143
3.564,0.02827
3.568,0.01694
3.572,-0.01643
3.576,0.00236
3.58,-0.01249
3.584,0.01693
3.588,0.01443
3.592,0.01592
3.596,0.01577
3.6,0.03979
3.604,0.01649
3.608,0.0226
3.612,0.02666
3.616,0.04858
3.62,0.04374
3.624,0.02756
3.628,0.02116
3.632,0.03295
3.636,0.0163
3.64,0.00943
3.644,0.01234
3.648,0.0222
3.652,0.04833
3.656,0.04137
3.66,0.0125
3.664,0.0265
3.668,0.01256
3.672,0.04486
3.676,0.04208
3.68,0.03432
3.684,0.02504
3.688,0.00976
3.692,0.07907
3.696,0.05671
3.7,0.05938
3.704,0.04493
3.708,0.0545
3.712,0.05502
3.716,0.07918
3.72,0.08237
3.724,0.10162
3.728,0.11257
3.732,0.1342
3.736,0.12816
3.74,0.16036
3.744,0.16121
3.748,0.16826
3.752,0.20369
3.756,0.20858
3.76,0.21157
3.764,0.22827
3.768,0.24532
3.772,0.23734
3.776,0.23801
3.78,0.2352
3.784,0.22135
3.788,0.22267
3.792,0.24411
3.796,0.25092
3.8,0.22374
3.804,0.22051
3.808,0.20549
3.812,0.18979
3.816,0.2124
3.82,0.18332
3.824,0.1592
3.828,0.18738
3.832,0.12669
3.836,0.12988
3.84,0.12661
3.844,0.1493
3.848,0.11261
3.852,0.10915
3.856,0.07462
3.86,0.09417
3.864,0.05971
3.868,0.05084
3.872,0.05699
3.876,0.04639
3.88,0.04824
3.884,0.04006
3.888,0.06851
3.892,0.03738
3.896,-0.00561
3.9,0.03686
3.904,0.02659
3.908,0.02109
3.912,0.02316
3.916,0.00574
3.92,0.0179
3.924,0.0263
3.928,0.0141
3.932,0.01907
3.936,0.01435
3.94,0.0096
3.944,0.0207
3.948,-0.00803
3.952,0.01541
3.956,0.02195
3.96,0.02839
3.964,-0.00588
3.968,0.01014
3.972,0.03404
3.976,0.02028
3.98,0.02171
3.984,0.02303
3.988,0.04759
3.992,-0.00973
3.996,0.01596
4.0,0.02315
4.004,0.01329
4.008,-0.0017
4.012,0.01925
4.016,-0.00053
4.02,0.00116
4.024,0.00643
4.028,0.01877
4.032,0.01006
4.036,0.02886
4.04,0.02138
4.044,0.01112
4.048,0.01968
4.052,0.02632
4.056,0.01885
4.06,0.01739
4.064,0.01631
4.068,0.01713
4.072,0.00739
4.076,0.023
4.08,-0.0037
4.084,0.00697
4.088,0.00949
4.092,0.00339
4.096,-0.00746
4.1,0.01354
4.104,0.03359
4.108,-0.00094
4.112,0.03572
4.116,0.0003
4.12,0.02236
4.124,0.01992
4.128,0.02071
4.132,0.02217
4.136,0.00782
4.14,0.01314
4.144,0.03483
4.148,0.0205
4.152,0.01778
4.156,0.01049
4.16,0.01519
4.164,0.00718
4.168,0.00747
4.172,0.01314
4.176,0.0148
4.18,-0.00647
4.184,-0.00854
4.188,0.02052
4.192,-0.00671
4.196,0.01415
4.2,-0.01384
4.204,0.02003
4.208,0.00206
4.212,0.00077
4.216,0.01082
4.22,0.02699
4.224,0.02556
4.228,0.00568
4.232,-0.00927
4.236,0.0362
4.24,0.01288
4.244,-0.02347
4.248,0.01813
4.252,0.01557
4.256,0.01664
4.26,0.00559
4.264,-0.02124
4.268,0.00309
4.272,0.00111
4.276,0.01397
4.28,-0.00363
4.284,0.01113
4.288,-0.01928
4.292,0.007
4.296,-0.00972
4.3,0.02005
4.304,0.0138
4.308,0.00809
4.312,0.01647
4.316,0.01102
4.32,-0.01172
4.324,-0.00604
4.328,0.02186
4.332,0.00471
4.336,0.00981
4.34,0.01507
4.344,0.02876
4.348,0.00806
4.352,-0.00069
4.356,0.01747
4.36,0.04048
4.364,0.02822
4.368,-0.02431
4.372,0.0239
4.376,0.01772
4.38,0.01699
4.384,0.01961
4.388,0.01332
4.392,0.00332
4.396,0.0147
4.4,0.00758
4.404,0.05143
4.408,0.04947
4.412,0.05239
4.416,0.06067
4.42,0.08847
4.424,0.07148
4.428,0.09606
4.432,0.10796
4.436,0.11696
4.44,0.11668
4.444,0.09676
4.448,0.08448
4.452,0.06388
4.456,0.06883
4.46,0.02754
4.464,0.03042
4.468,0.0377
4.472,0.00594
4.476,0.00568
4.48,0.01652
4.484,0.00618
4.488,0.0321
4.492,0.00148
4.496,0.01377
4.5,0.01729
4.504,0.02405
4.508,0.01054
4.512,0.01007
4.516,-0.00494
4.52,-0.00555
4.524,-0.0234
4.528,-0.00489
4.532,-0.00189
4.536,-0.01362
4.54,0.01864
4.544,0.03218
4.548,-0.00851
4.552,-0.0573
4.556,-0.07772
4.56,-0.10712
4.564,-0.12898
4.568,-0.06892
4.572,0.0575
4.576,0.24812
4.58,0.46255
4.584,0.6494
4.588,0.86234
4.592,0.98485
4.596,0.96984
4.6,0.92025
4.604,0.70368
4.608,0.46157
4.612,0.28701
4.616,0.05937
4.62,-0.07425
4.624,-0.14183
4.628,-0.15314
4.632,-0.1385
4.636,-0.11263
4.64,-0.06063
4.644,-0.02605
4.648,0.00903
4.652,0.0073
4.656,-0.02191
4.66,-0.00673
4.664,0.00432
4.668,0.01452
4.672,0.00709
4.676,0.00832
4.68,0.02216
4.684,-0.00324
4.688,-0.00588
4.692,0.00318
4.696,0.00964
4.7,0.00528
4.704,-0.00226
4.708,-0.00834
4.712,-0.01322
4.716,0.01609
4.72,-0.01742
4.724,-0.01799
4.728,0.00049
4.732,0.00809
4.736,0.00787
4.74,0.0102
4.744,-0.00296
4.748,0.00799
4.752,-0.00554
4.756,0.00745
4.76,0.01404
4.764,0.00853
4.768,0.0002
4.772,0.00736
4.776,0.03802
4.78,0.01567
4.784,-0.01343
4.788,0.03252
4.792,0.04803
4.796,0.04921
4.8,0.05685
4.804,0.06869
4.808,0.06073
4.812,0.09179
4.816,0.12081
4.82,0.09117
4.824,0.10564
4.828,0.13944
4.832,0.14225
4.836,0.16346
4.84,0.15064
4.844,0.19264
4.848,0.20355
4.852,0.17991
4.856,0.19598
4.86,0.20314
4.864,0.2061
4.868,0.23706
4.872,0.21738
4.876,0.19749
4.88,0.19853
4.884,0.18711
4.888,0.21108
4.892,0.20564
4.896,0.2019
4.9,0.16332
4.904,0.15267
4.908,0.18997
4.912,0.14047
4.916,0.14754
4.92,0.13222
4.924,0.10366
4.928,0.08217
4.932,0.07886
4.936,0.06262
4.94,0.05292
4.944,0.06446
4.948,0.04191
4.952,0.04269
4.956,0.04759
4.96,0.01531
4.964,0.03909
4.968,-0.01473
4.972,0.03752
4.976,0.01648
4.98,0.01242
4.984,-0.01752
4.988,0.0034
4.992,0.00247
4.996,-0.01061
5.0,-0.00026
5.004,-0.00025
5.008,0.01277
5.012,-0.00604
5.016,0.00561
5.02,-0.02276
5.024,-0.02246
5.028,-0.01573
5.032,-0.03212
5.036,0.00854
5.04,-0.01219
5.044,-0.00726
5.048,-0.00563
5.052,-0.01793
5.056,-0.00437
5.06,0.00981
5.064,-0.01324
5.068,-0.00452
5.072,-0.02154
5.076,-0.00667
5.08,-0.01312
5.084,-0.00737
5.088,-0.01516
5.092,-0.03259
5.096,-0.02998
5.1,-0.00845
5.104,0.00697
5.108,-0.0139
5.112,-0.03893
5.116,-0.04577
5.12,0.00284
5.124,-0.04253
5.128,0.00396
5.132,-0.02192
5.136,-0.02309
5.14,0.01004
5.144,-0.00681
5.148,-0.0278
5.152,-0.02778
5.156,-0.00817
5.16,-0.00616
5.164,0.00176
5.168,-0.00121
5.172,0.01987
5.176,0.01361
5.18,0.03516
5.184,0.04812
5.188,0.07004
5.192,0.08918
5.196,0.0833
5.2,0.09991
5.204,0.05868
5.208,0.09199
5.212,0.08719
5.216,0.08008
5.22,0.03796
5.224,0.02485
5.228,0.04735
5.232,-0.00229
5.236,0.02569
5.24,-0.0013
5.244,0.01284
5.248,0.00952
5.252,-0.00985
5.256,-0.00952
5.26,-0.03825
5.264,-0.03802
5.268,-0.00348
5.272,-0.04059
5.276,-0.00717
5.28,-0.00294
5.284,-0.03974
5.288,-0.00882
5.292,-0.00399
5.296,-0.00565
5.3,-0.00553
5.304,-0.03034
5.308,-0.01864
5.312,-0.01994
5.316,-0.03633
5.32,-0.09451
5.324,-0.11016
5.328,-0.14409
5.332,-0.12051
5.336,-0.04303
5.34,0.09438
5.344,0.25889
5.348,0.47709
5.352,0.67987
5.356,0.85479
5.36,0.93442
5.364,0.95791
5.368,0.85873
5.372,0.6312
5.376,0.39995
5.38,0.20014
5.384,0.03233
5.388,-0.08715
5.392,-0.17243
5.396,-0.17906
5.4,-0.1591
5.404,-0.09753
5.408,-0.08377
5.412,-0.04027
5.416,-0.03193
5.42,-0.01894
5.424,-0.03073
5.428,-0.02906
5.432,-0.03102
5.436,-0.05421
5.44,-0.00818
5.444,0.00666
5.448,-0.01251
5.452,-0.028
5.456,-0.01555
5.46,-0.04363
5.464,-0.02879
5.468,-0.00328
5.472,-0.02544
5.476,-0.04478
5.48,-0.00918
5.484,-0.03192
5.488,-0.02301
5.492,-0.00249
5.496,-0.034
5.5,-0.01851
5.504,-0.02226
5.508,-0.04502
5.512,-0.03265
5.516,-0.02988
5.52,-0.04465
5.524,-0.0054
5.528,-0.03437
5.532,-0.00687
5.536,-0.02815
5.54,-0.02974
5.544,-0.01349
5.548,0.01773
5.552,-0.01841
5.556,0.01612
5.56,0.01772
5.564,0.02446
5.568,0.02273
5.572,0.02768
5.576,0.07391
5.58,0.07439
5.584,0.08706
5.588,0.09802
5.592,0.0864
5.596,0.10256
5.6,0.11624
5.604,0.12607
5.608,0.1195
5.612,0.13663
5.616,0.18328
5.62,0.17788
5.624,0.16623
5.628,0.18581
5.632,0.20877
5.636,0.17382
5.64,0.19144
5.644,0.18169
5.648,0.20901
5.652,0.19984
5.656,0.17572
5.66,0.16493
5.664,0.17609
5.668,0.16615
5.672,0.14914
5.676,0.12846
5.68,0.12885
5.684,0.1173
5.688,0.09999
5.692,0.068
5.696,0.11915
5.7,0.04614
5.704,0.06363
5.708,0.04533
5.712,0.02427
5.716,0.00297
5.72,0.02862
5.724,0.02629
5.728,-0.0029
5.732,-0.04374
5.736,-0.01905
5.74,0.01206
5.744,-0.00501
5.748,0.00119
5.752,0.0216
5.756,-0.01721
5.76,-0.01648
5.764,-0.01622
5.768,-0.01608
5.772,-0.01134
5.776,-0.01775
5.78,-0.01743
5.784,-0.07218
5.788,-0.02431
5.792,-0.02748
5.796,-0.00106
5.8,-0.01794
5.804,-0.00562
5.808,-0.04963
5.812,-0.0427
5.816,-0.02585
5.82,-0.03608
5.824,-0.03429
5.828,-0.04194
5.832,-0.02489
5.836,-0.0204
5.84,-0.00567
5.844,-0.04877
5.848,-0.03492
5.852,-0.0273
5.856,-0.04006
5.86,-0.03538
5.864,-0.01131
5.868,-0.02875
5.872,-0.0379
5.876,-0.03123
5.88,-0.02788
5.884,-0.03749
5.888,0.00334
5.892,-0.04273
5.896,-0.01978
5.9,-0.03079
5.904,-0.04286
5.908,-0.04437
5.912,-0.01707
5.916,-0.00785
5.92,-0.02256
5.924,-0.01737
5.928,-0.03976
5.932,-0.0496
5.936,-0.01945
5.94,-0.02942
5.944,-0.03474
5.948,-0.02296
5.952,-0.05576
5.956,-0.05934
5.96,-0.04027
5.964,-0.01244
5.968,-0.02146
5.972,-0.02319
5.976,-0.01998
5.98,-0.00957
5.984,-0.0157
5.988,-0.02075
5.992,-0.02316
5.996,-0.00193
6.0,-0.04188
6.004,0.00378
6.008,-0.01218
6.012,-0.0452
6.016,-0.02011
6.02,-0.04182
6.024,-0.0312
6.028,-0.05808
6.032,-0.02336
6.036,0.00573
6.04,-0.01995
6.044,0.00302
6.048,0.03907
6.052,0.04981
6.056,0.07328
6.06,0.02895
6.064,0.0597
6.068,0.08469
6.072,0.06475
6.076,0.08947
6.08,0.04288
6.084,0.04229
6.088,0.03547
6.092,0.05469
6.096,0.03211
6.1,0.0386
6.104,-0.01177
6.108,0.00886
6.112,-0.01099
6.116,0.00882
6.12,-0.00896
6.124,-0.01112
6.128,-0.03417
6.132,-0.02784
6.136,-0.00689
6.14,-0.06701
6.144,-0.0272
6.148,-0.01345
6.152,-0.04967
6.156,-0.01772
6.16,-0.03051
6.164,-0.0218
6.168,-0.02543
6.172,-0.03357
6.176,-0.06279
6.18,-0.04242
6.184,-0.07284
6.188,-0.10298
6.192,-0.10183
6.196,-0.11575
6.2,-0.09859
6.204,-0.07553
6.208,0.09291
6.212,0.26418
6.216,0.48208
6.22,0.67651
6.224,0.89406
6.228,0.95526
6.232,0.95367
6.236,0.82918
6.24,0.64297
6.244,0.38504
6.248,0.16196
6.252,-0.01189
6.256,-0.10532
6.26,-0.19536
6.264,-0.18676
6.268,-0.1832
6.272,-0.09883
6.276,-0.09513
6.28,-0.03243
6.284,-0.03691
6.288,-0.04649
6.292,-0.03283
6.296,-0.03479
6.3,-0.04178
6.304,-0.03367
6.308,-0.0318
6.312,-0.0253
6.316,-0.01934
6.32,-0.04953
6.324,-0.04436
6.328,-0.04269
6.332,-0.0079
6.336,-0.05081
6.34,-0.02493
6.344,-0.00541
6.348,-0.05185
6.352,-0.04086
6.356,-0.01935
6.36,-0.03297
6.364,-0.02446
6.368,-0.02777
6.372,-0.04286
6.376,-0.00309
6.38,-0.00248
6.384,-0.03889
6.388,-0.03506
6.392,-0.01402
6.396,-0.00206
6.4,-0.01274
6.404,-0.03956
6.408,-0.01007
6.412,-0.02667
6.416,0.0023
6.42,-0.01135
6.424,0.01642
6.428,0.01463
6.432,-0.00373
6.436,0.0212
6.44,0.0186
6.444,0.05861
6.448,0.03144
6.452,0.06035
6.456,0.06313
6.46,0.07919
6.464,0.09519
6.468,0.12314
6.472,0.12268
6.476,0.14891
6.48,0.1634
6.484,0.16804
6.488,0.15195
6.492,0.18674
6.496,0.18005
6.5,0.19847
6.504,0.16834
6.508,0.17574
6.512,0.19477
6.516,0.2033
6.52,0.19225
6.524,0.19255
6.528,0.15771
6.532,0.16684
6.536,0.17437
6.54,0.15289
6.544,0.13109
6.548,0.13636
6.552,0.10058
6.556,0.10609
6.56,0.05491
6.564,0.08738
6.568,0.05156
6.572,0.04316
6.576,0.03732
6.58,0.0664
6.584,0.03021
6.588,0.02022
6.592,0.00768
6.596,-0.02269
6.6,-0.02577
6.604,-0.00809
6.608,-0.02017
6.612,0.01141
6.616,-0.02204
6.62,-0.01073
6.624,-0.00853
6.628,-0.05089
6.632,-0.03644
6.636,-0.017
6.64,-0.02766
6.644,-0.04709
6.648,-0.00441
6.652,-0.04562
6.656,-0.05484
6.66,-0.01429
6.664,-0.03784
6.668,-0.04051
6.672,-0.0335
6.676,-0.03169
6.68,-0.02743
6.684,-0.01178
6.688,-0.02964
6.692,-0.02699
6.696,-0.03859
6.7,-0.04889
6.704,-0.02984
6.708,-0.03045
6.712,-0.03386
6.716,-0.03183
6.72,-0.00186
6.724,-0.00575
6.728,-0.01975
6.732,-0.01893
6.736,-0.02935
6.74,0.00341
6.744,-0.03426
6.748,-0.02327
6.752,-0.02269
6.756,-0.03155
6.76,-0.01809
6.764,-0.04818
6.768,-0.02339
6.772,-0.03849
6.776,-0.02156
6.78,-0.02439
6.784,-0.01146
6.788,-0.00991
6.792,-0.04031
6.796,-0.05068
6.8,-0.03708
6.804,-0.00837
6.808,-0.01777
6.812,-0.03647
6.816,-0.01749
6.82,-0.03776
6.824,-0.0197
6.828,-0.01771
6.832,-0.01576
6.836,-0.02323
6.84,-0.03276
6.844,-0.01352
6.848,-0.05503
6.852,-0.0137
6.856,-0.02855
6.86,-0.02096
6.864,-0.0327
6.868,-0.01547
6.872,-0.0384
6.876,-0.04357
6.88,-0.03837
6.884,-0.03386
6.888,-0.01602
6.892,-0.04765
6.896,-0.00334
6.9,-0.0146
6.904,-0.00333
6.908,-0.04494
6.912,-0.04851
6.916,-0.04017
6.92,-0.03932
6.924,-0.04055
6.928,-0.03969
6.932,-0.05242
6.936,-0.04908
6.94,-0.0107
6.944,-0.02007
6.948,-0.02768
6.952,-0.03185
6.956,-0.04509
6.96,-0.05233
6.964,-0.02874
6.968,-0.0306
6.972,-0.01425
6.976,-0.02837
6.98,-0.00709
6.984,-0.02158
6.988,-0.03624
6.992,-0.04494
6.996,-0.04513
7.0,-0.03714
7.004,-0.02278
7.008,-0.02749
7.012,-0.01371
7.016,-0.00846
7.02,-0.02405
7.024,-0.01663
7.028,-0.0342
7.032,-0.01245
7.036,-0.01352
7.04,0.01976
7.044,0.00504
7.048,0.01004
7.052,0.01
7.056,0.03555
7.06,0.06814
7.064,0.04085
7.068,0.06835
7.072,0.07643
7.076,0.07463
7.08,0.08983
7.084,0.08383
7.088,0.06592
7.092,0.05456
7.096,0.06114
7.1,0.00666
7.104,0.01368
7.108,-0.02118
7.112,0.00368
7.116,-0.00748
7.12,-0.01877
7.124,-0.01906
7.128,0.01385
7.132,-0.02286
7.136,-0.02756
7.14,-0.00397
7.144,-0.03828
7.148,-0.02585
7.152,-0.02177
7.156,-0.03159
7.16,-0.00242
7.164,-0.01292
7.168,-0.01332
7.172,0.00044
7.176,-0.04208
7.18,-0.01269
7.184,-0.0077
7.188,-0.0294
7.192,-0.04689
7.196,-0.10867
7.2,-0.14876
7.204,-0.15238
7.208,-0.1015
7.212,0.00612
7.216,0.18213
7.22,0.39724
7.224,0.58872
7.228,0.82974
7.232,0.93716
7.236,0.97317
7.24,0.89854
7.244,0.73301
7.248,0.53093
7.252,0.31604
7.256,0.07672
7.26,-0.07136
7.264,-0.1409
7.268,-0.20014
7.272,-0.19542
7.276,-0.12388
7.28,-0.0861
7.284,-0.04986
7.288,-0.06992
7.292,-0.05363
7.296,0.00233
7.3,-0.0216
7.304,-0.01737
7.308,-0.00808
7.312,-0.02854
7.316,-0.03273
7.32,-0.02523
7.324,-0.02258
7.328,-0.0185
7.332,-0.03686
7.336,-0.01167
7.34,-0.02803
7.344,-0.02047
7.348,-0.02916
7.352,-0.01925
7.356,-0.00217
7.36,0.02448
7.364,-0.00217
7.368,-0.00895
7.372,0.02284
7.376,-0.00914
7.38,-0.02959
7.384,-0.00894
7.388,-0.0345
7.392,0.00138
7.396,-0.0257
7.4,0.03009
7.404,0.00232
7.408,-0.01493
7.412,0.01442
7.416,0.00624
7.42,-0.00203
7.424,-0.02193
7.428,0.01865
7.432,0.03885
7.436,0.00914
7.44,0.05734
7.444,0.03578
7.448,0.07039
7.452,0.08505
7.456,0.06084
7.46,0.07635
7.464,0.10357
7.468,0.07512
7.472,0.13244
7.476,0.14259
7.48,0.12831
7.484,0.15491
7.488,0.1919
7.492,0.16127
7.496,0.18208
7.5,0.21347
7.504,0.21116
7.508,0.21329
7.512,0.23203
7.516,0.18681
7.52,0.20853
7.524,0.21742
7.528,0.21141
7.532,0.17667
7.536,0.21054
7.54,0.17033
7.544,0.17188
7.548,0.15186
7.552,0.13727
7.556,0.11042
7.56,0.09186
7.564,0.09116
7.568,0.09361
7.572,0.06412
7.576,0.06799
7.58,0.04968
7.584,0.07319
7.588,0.05398
7.592,0.06223
7.596,0.05592
7.6,0.0155
7.604,0.02327
7.608,0.00761
7.612,0.02593
7.616,0.00489
7.62,-0.01239
7.624,0.00681
7.628,0.02203
7.632,-0.01978
7.636,0.0137
7.64,-0.00202
7.644,0.00724
7.648,-0.00315
7.652,0.01222
7.656,0.01562
7.66,-0.01353
7.664,0.01665
7.668,-0.00617
7.672,-0.00898
7.676,-0.02212
7.68,-0.02712
7.684,0.03364
7.688,-0.02121
7.692,-0.02202
7.696,-0.01621
7.7,-0.00584
7.704,-0.01404
7.708,-0.00061
7.712,0.00799
7.716,0.00259
7.72,-0.00664
7.724,-0.0207
7.728,-0.02218
7.732,-0.01536
7.736,0.01876
7.74,0.00053
7.744,-0.01007
7.748,0.02511
7.752,-0.00792
7.756,0.00302
7.76,-0.00503
7.764,-0.00746
7.768,-0.01024
7.772,0.01822
7.776,0.01292
7.78,-0.02082
7.784,0.00411
7.788,-0.01237
7.792,-5e-05
7.796,0.01531
7.8,0.00332
7.804,0.00261
7.808,0.02468
7.812,-0.01066
7.816,0.00837
7.82,-0.00726
7.824,-0.00348
7.828,0.00797
7.832,0.00054
7.836,0.00482
7.84,-0.0087
7.844,-0.0023
7.848,0.0023
7.852,0.00461
7.856,-0.01617
7.86,0.02566
7.864,-0.00158
7.868,0.02907
7.872,-0.00712
7.876,0.03478
7.88,0.0099
7.884,0.01721
7.888,0.0683
7.892,0.06687
7.896,0.08194
7.9,0.07745
7.904,0.07409
7.908,0.09595
7.912,0.07101
7.916,0.09396
7.92,0.08357
7.924,0.07352
7.928,0.08341
7.932,0.05049
7.936,0.04997
7.94,0.02262
7.944,0.00305
7.948,0.02027
7.952,-0.02236
7.956,0.04066
7.96,0.00669
7.964,-0.01379
7.968,0.00382
7.972,-0.00818
7.976,-0.02253
7.98,-0.00929
7.984,-0.0045
7.988,0.00515
7.992,0.00686
7.996,0.01787
8.0,0.01816
8.004,0.00484
8.008,0.0155
8.012,-0.00582
8.016,0.00623
8.02,0.00045
8.024,-0.0096
8.028,-0.04705
8.032,-0.06324
8.036,-0.1155
8.04,-0.13045
8.044,-0.04061
8.048,0.07673
8.052,0.19912
8.056,0.44761
8.06,0.61683
8.064,0.83216
8.068,0.97385
8.072,0.97445
8.076,0.89989
8.08,0.75209
8.084,0.53234
8.088,0.29788
8.092,0.11226
8.096,-0.02032
8.1,-0.13149
8.104,-0.19033
8.108,-0.14165
8.112,-0.0902
8.116,-0.0412
8.12,-0.03754
8.124,-0.00193
8.128,-0.01288
8.132,-0.02066
8.136,0.01987
8.14,0.00524
8.144,0.00277
8.148,0.0097
8.152,0.00652
8.156,0.00577
8.16,-0.03032
8.164,0.03647
8.168,0.01944
8.172,-0.00517
8.176,0.02913
8.18,0.01844
8.184,0.00971
8.188,0.03921
8.192,0.00556
8.196,0.00971
8.2,-0.00902
8.204,0.02427
8.208,0.02609
8.212,0.00953
8.216,0.0268
8.22,0.01714
8.224,0.03232
8.228,-0.011
8.232,-0.01404
8.236,-0.00385
8.24,0.03715
8.244,0.02945
8.248,0.00806
8.252,0.04542
8.256,0.0483
8.26,0.0277
8.264,0.04616
8.268,0.06573
8.272,0.05339
8.276,0.07501
8.28,0.07001
8.284,0.07561
8.288,0.1096
8.292,0.12085
8.296,0.1218
8.3,0.13923
8.304,0.12599
8.308,0.14492
8.312,0.18805
8.316,0.14334
8.32,0.17902
8.324,0.19911
8.328,0.19576
8.332,0.2062
8.336,0.21253
8.34,0.23709
8.344,0.23109
8.348,0.2236
8.352,0.21787
8.356,0.22764
8.36,0.23222
8.364,0.23218
8.368,0.21178
8.372,0.24203
8.376,0.20799
8.38,0.18446
8.384,0.19199
8.388,0.15411
8.392,0.12833
8.396,0.13921
8.4,0.12755
8.404,0.11549
8.408,0.07039
8.412,0.11904
8.416,0.09018
8.42,0.0979
8.424,0.07587
8.428,0.08208
8.432,0.06197
8.436,0.07722
8.44,0.0474
8.444,0.04576
8.448,0.05181
8.452,0.01483
8.456,0.01061
8.46,0.03827
8.464,-0.01442
8.468,-0.00101
8.472,0.01806
8.476,-0.00704
8.48,0.03434
8.484,0.00367
8.488,0.01218
8.492,0.00817
8.496,0.01246
8.5,0.01168
8.504,0.01925
8.508,-0.00501
8.512,0.0487
8.516,0.02334
8.52,0.02269
8.524,0.02472
8.528,0.02638
8.532,0.0032
8.536,0.01057
8.54,0.04229
8.544,0.00956
8.548,0.01269
8.552,0.03575
8.556,0.01714
8.56,0.03397
8.564,0.00284
8.568,0.0369
8.572,0.0239
8.576,0.04467
8.58,0.00812
8.584,0.00794
8.588,0.00389
8.592,0.02181
8.596,0.03928
8.6,0.01428
8.604,0.02556
8.608,0.00706
8.612,0.0137
8.616,0.03729
8.62,0.01726
8.624,0.03739
8.628,0.01406
8.632,0.02174
8.636,0.0318
8.64,0.01537
8.644,0.00467
8.648,0.01243
8.652,0.034
8.656,0.00681
8.66,0.0295
8.664,0.04066
8.668,0.03587
8.672,0.08227
8.676,0.08367
8.68,0.07352
8.684,0.08437
8.688,0.12207
8.692,0.0947
8.696,0.1362
8.7,0.11926
8.704,0.11883
8.708,0.12637
8.712,0.09028
8.716,0.10255
8.72,0.05669
8.724,0.04782
8.728,0.07277
8.732,0.04155
8.736,0.05927
8.74,0.02681
8.744,0.00388
8.748,0.03046
8.752,0.02648
8.756,-0.00537
8.76,0.01482
8.764,0.00888
8.768,0.03319
8.772,0.00724
8.776,0.04096
8.78,0.02687
8.784,0.0179
8.788,0.0208
8.792,0.01649
8.796,0.01954
8.8,0.03597
8.804,0.01184
8.808,0.01143
8.812,0.0063
8.816,-0.01831
8.82,-0.04495
8.824,-0.09
8.828,-0.07637
8.832,-0.01416
8.836,0.08836
8.84,0.28319
8.844,0.47333
8.848,0.71336
8.852,0.89867
8.856,0.98426
8.86,1.01781
8.864,0.89558
8.868,0.73045
8.872,0.47442
8.876,0.25414
8.88,0.07955
8.884,-0.06977
8.888,-0.13731
8.892,-0.13295
8.896,-0.133
8.9,-0.0639
8.904,-0.03171
8.908,0.01865
8.912,-0.00658
8.916,0.03931
8.92,-0.00444
8.924,0.03309
8.928,0.04083
8.932,0.04091
8.936,0.02091
8.94,0.01486
8.944,0.05928
8.948,0.02499
8.952,0.02497
8.956,0.03511
8.96,0.00456
8.964,0.03584
8.968,0.02142
8.972,0.02715
8.976,0.00577
8.98,0.01123
8.984,0.02967
8.988,0.02759
8.992,0.02189
8.996,0.02246
9.0,-0.00226
9.004,0.06393
9.008,0.03824
9.012,0.01373
9.016,0.03445
9.02,0.03668
9.024,0.06211
9.028,0.02897
9.032,0.0344
9.036,0.02914
9.04,0.06863
9.044,0.04119
9.048,0.05145
9.052,0.06053
9.056,0.06301
9.06,0.06274
9.064,0.09025
9.068,0.09941
9.072,0.09675
9.076,0.09085
9.08,0.13161
9.084,0.13816
9.088,0.16824
9.092,0.15838
9.096,0.13255
9.1,0.18728
9.104,0.19784
9.108,0.1886
9.112,0.19397
9.116,0.23445
9.12,0.23189
9.124,0.22993
9.128,0.2342
9.132,0.22467
9.136,0.29519
9.14,0.24053
9.144,0.28245
9.148,0.24101
9.152,0.26415
9.156,0.25557
9.16,0.1893
9.164,0.22139
9.168,0.20178
9.172,0.19965
9.176,0.15849
9.18,0.18491
9.184,0.18044
9.188,0.14387
9.192,0.15928
9.196,0.13269
9.2,0.10542
9.204,0.12902
9.208,0.11869
9.212,0.09706
9.216,0.06136
9.22,0.07342
9.224,0.06185
9.228,0.07079
9.232,0.03555
9.236,0.04344
9.24,0.0511
9.244,0.03942
9.248,0.02177
9.252,0.02746
9.256,0.04644
9.26,0.02717
9.264,0.02874
9.268,0.03394
9.272,0.02447
9.276,0.03816
9.28,0.00207
9.284,0.01661
9.288,0.02836
9.292,0.00156
9.296,0.02311
9.3,0.0146
9.304,0.03278
9.308,0.05901
9.312,0.02373
9.316,0.02901
9.32,0.05159
9.324,0.01803
9.328,0.00511
9.332,0.03213
9.336,0.00966
9.34,0.03044
9.344,0.01458
9.348,0.02834
9.352,0.00448
9.356,0.03026
9.36,0.03222
9.364,0.02263
9.368,0.01797
9.372,0.01139
9.376,0.02487
9.38,0.03908
9.384,0.03981
9.388,0.04854
9.392,0.00355
9.396,0.02957
9.4,0.0258
9.404,0.01747
9.408,0.01206
9.412,0.00015
9.416,-0.00113
9.42,0.06609
9.424,0.024
9.428,0.034
9.432,0.00358
9.436,0.02309
9.44,0.03346
9.444,0.05184
9.448,0.01529
9.452,0.04156
9.456,0.05432
9.46,0.04635
9.464,0.03113
9.468,0.02215
9.472,0.03874
9.476,0.03335
9.48,0.01565
9.484,0.02188
9.488,0.02763
9.492,0.04061
9.496,0.04657
9.5,0.02333
9.504,0.0477
9.508,0.05342
9.512,0.02137
9.516,0.04521
9.52,0.02586
9.524,0.05815
9.528,0.02623
9.532,0.01901
9.536,0.04462
9.54,0.02144
9.544,0.05203
9.548,0.02241
9.552,0.01921
9.556,0.06661
9.56,0.0755
9.564,0.06391
9.568,0.06243
9.572,0.09057
9.576,0.09318
9.58,0.08017
9.584,0.08736
9.588,0.11674
9.592,0.14112
9.596,0.15885
9.6,0.118
9.604,0.13702
9.608,0.10112
9.612,0.09251
9.616,0.07839
9.62,0.06343
9.624,0.07092
9.628,0.06276
9.632,0.01946
9.636,0.04631
9.64,0.03277
9.644,0.05074
9.648,0.02658
9.652,0.02704
9.656,0.0403
9.66,0.03757
9.664,0.03956
9.668,0.03446
9.672,0.02141
9.676,0.03088
9.68,0.04473
9.684,0.01761
9.688,-0.00208
9.692,0.03388
9.696,0.00801
9.7,0.01063
9.704,0.00174
9.708,0.00643
9.712,-0.05322
9.716,-0.08535
9.72,-0.09101
9.724,-0.00791
9.728,0.10998
9.732,0.28137
9.736,0.49177
9.74,0.6915
9.744,0.88352
9.748,1.01079
9.752,0.98686
9.756,0.9225
9.76,0.7375
9.764,0.50494
9.768,0.27926
9.772,0.09796
9.776,-0.04523
9.78,-0.12599
9.784,-0.12883
9.788,-0.11157
9.792,-0.07649
9.796,-0.01652
9.8,0.00249
9.804,0.00479
9.808,0.01363
9.812,0.05747
9.816,0.05244
9.82,0.02704
9.824,0.02861
9.828,0.03821
9.832,0.05486
9.836,0.05876
9.84,0.02133
9.844,0.0362
9.848,0.01698
9.852,0.03394
9.856,0.02189
9.86,0.02835
9.864,0.02732
9.868,0.01087
9.872,0.02758
9.876,0.04743
9.88,0.01515
9.884,0.00949
9.888,0.00626
9.892,0.03939
9.896,0.016
9.9,0.04222
9.904,0.04516
9.908,0.02489
9.912,0.05225
9.916,0.0309
9.92,0.03461
9.924,0.06788
9.928,0.03728
9.932,0.03757
9.936,0.05017
9.94,0.05563
9.944,0.0158
9.948,0.07143
9.952,0.08951
9.956,0.10225
9.96,0.07899
9.964,0.10488
9.968,0.13259
9.972,0.16023
9.976,0.16041
9.98,0.15606
9.984,0.15663
9.988,0.16947
9.992,0.17596
9.996,0.17101
