t_seg,ecg_mV
0.0,-0.01827
0.004,-0.02718
0.008,-0.02153
0.012,-0.01254
0.016,-0.02114
0.02,-0.02182
0.024,-0.00113
0.028,-0.00939
0.032,-0.01036
0.036,-0.02927
0.04,-0.02729
0.044,-0.03508
0.048,-0.01223
0.052,-0.01035
0.056,-0.00883
0.06,-0.01399
0.064,-0.01722
0.068,-0.02792
0.072,-0.01665
0.076,-0.01491
0.08,-0.03169
0.084,-0.01182
0.088,-0.03429
0.092,-0.03184
0.096,-0.00267
0.1,-0.04456
0.104,-0.03571
0.108,-0.02987
0.112,-0.05492
0.116,-0.03738
0.12,-0.04965
0.124,-0.04177
0.128,-0.02379
0.132,-0.00592
0.136,-0.00886
0.14,-0.00908
0.144,-0.03474
0.148,-0.02495
0.152,-0.02178
0.156,-0.03565
0.16,0.00887
0.164,-0.04139
0.168,-0.03856
0.172,-0.02509
0.176,-0.06002
0.18,-0.02166
0.184,-0.0261
0.188,-0.0193
0.192,-0.0125
0.196,-0.00256
0.2,-0.03317
0.204,-0.04687
0.208,-0.0667
0.212,-0.02864
0.216,-0.01775
0.22,-0.02221
0.224,-0.03193
0.228,-0.04671
0.232,-0.02482
0.236,-0.04744
0.24,0.01316
0.244,-0.02742
0.248,-0.01242
0.252,-0.0178
0.256,-0.04674
0.26,-0.04439
0.264,0.00883
0.268,-0.02575
0.272,-0.0057
0.276,-0.00359
0.28,-0.00695
0.284,0.01739
0.288,0.01441
0.292,-0.01464
0.296,0.04361
0.3,0.02221
0.304,0.04675
0.308,0.04129
0.312,0.06865
0.316,0.05412
0.32,0.07472
0.324,0.05736
0.328,0.05839
0.332,0.04176
0.336,0.04483
0.34,0.00971
0.344,0.01557
0.348,0.00784
0.352,-0.01247
0.356,-0.02399
0.36,-0.03637
0.364,-0.01035
0.368,-0.03948
0.372,-0.01758
0.376,-0.03626
0.38,-0.05193
0.384,-0.02958
0.388,-0.02316
0.392,-0.03415
0.396,-0.03275
0.4,-0.02188
0.404,-0.01416
0.408,-0.00306
0.412,-0.03587
0.416,-0.02871
0.42,-0.03513
0.424,-0.01646
0.428,-0.02396
0.432,-0.07478
0.436,-0.10789
0.44,-0.11792
0.444,-0.1487
0.448,-0.09176
0.452,-0.00195
0.456,0.16463
0.46,0.33844
0.464,0.55465
0.468,0.7646
0.472,0.9117
0.476,0.98148
0.48,0.90619
0.484,0.72962
0.488,0.55964
0.492,0.31817
0.496,0.08894
0.5,-0.04198
0.504,-0.16315
0.508,-0.21923
0.512,-0.21339
0.516,-0.15849
0.52,-0.13022
0.524,-0.06212
0.528,-0.05766
0.532,-0.03273
0.536,-0.02513
0.54,-0.03631
0.544,-0.01518
0.548,-0.03326
0.552,-0.03562
0.556,-0.00148
0.56,-0.02881
0.564,-0.03306
0.568,-0.0375
0.572,-0.0372
0.576,-0.01866
0.58,-0.03871
0.584,-0.0499
0.588,-0.04735
0.592,-0.04234
0.596,-0.0538
0.6,-0.06438
0.604,-0.05449
0.608,-0.02478
0.612,-0.00311
0.616,0.00064
0.62,-0.00738
0.624,-0.0125
0.628,-6e-05
0.632,-0.01386
0.636,-0.00452
0.64,-0.00165
0.644,-0.0226
0.648,-0.02231
0.652,-0.02766
0.656,-0.03227
0.66,0.01693
0.664,-0.00458
0.668,-0.01203
0.672,-0.02823
0.676,0.02344
0.68,0.01802
0.684,0.01391
0.688,0.03148
0.692,0.09006
0.696,0.05594
0.7,0.07623
0.704,0.08027
0.708,0.10048
0.712,0.11936
0.716,0.12013
0.72,0.14887
0.724,0.15593
0.728,0.1499
0.732,0.16028
0.736,0.17725
0.74,0.17884
0.744,0.17995
0.748,0.19583
0.752,0.18787
0.756,0.19107
0.76,0.18533
0.764,0.19105
0.768,0.2059
0.772,0.18991
0.776,0.16954
0.78,0.16386
0.784,0.1234
0.788,0.1382
0.792,0.1103
0.796,0.11784
0.8,0.10931
0.804,0.10202
0.808,0.08899
0.812,0.06923
0.816,0.04771
0.82,0.05634
0.824,0.0452
0.828,0.07558
0.832,0.01934
0.836,0.02899
0.84,0.01105
0.844,0.00206
0.848,0.00076
0.852,0.01367
0.856,-0.02807
0.86,0.00724
0.864,-0.00099
0.868,-0.01144
0.872,-0.00963
0.876,-0.03491
0.88,-0.02887
0.884,-0.02932
0.888,-0.02453
0.892,-0.02351
0.896,-0.02791
0.9,-0.02192
0.904,-0.02592
0.908,-0.03339
0.912,-0.0173
0.916,-0.00607
0.92,-0.03179
0.924,-0.03074
0.928,-0.02869
0.932,-0.03787
0.936,-0.04389
0.94,-0.03062
0.944,-0.0427
0.948,-0.04524
0.952,-0.00909
0.956,-0.03089
0.96,-0.03376
0.964,-0.01254
0.968,-0.03225
0.972,-0.04663
0.976,0.01421
0.98,-0.01913
0.984,-0.05579
0.988,-0.02316
0.992,-0.01182
0.996,-0.01218
1.0,-0.05894
1.004,-0.01954
1.008,-0.02458
1.012,-0.01388
1.016,-0.0142
1.02,-0.03401
1.024,-0.02812
1.028,-0.02476
1.032,-0.02468
1.036,-0.01327
1.04,-0.04871
1.044,-0.03732
1.048,-0.03876
1.052,0.00896
1.056,0.01365
1.06,-0.02166
1.064,-0.00295
1.068,-0.01729
1.072,-0.03664
1.076,0.00479
1.08,-0.04097
1.084,-0.01111
1.088,-0.02462
1.092,-0.04789
1.096,-0.02825
1.1,-0.01355
1.104,-0.02262
1.108,-0.02205
1.112,-0.03835
1.116,-0.02769
1.12,-0.05299
1.124,-0.01554
1.128,-0.03232
1.132,-0.02537
1.136,-0.02991
1.14,-0.06046
1.144,-0.02805
1.148,-0.01037
1.152,-0.02912
1.156,-0.01359
1.16,-0.03602
1.164,-0.04316
1.168,-0.02453
1.172,-0.00765
1.176,-0.01171
1.18,-0.01619
1.184,-0.02548
1.188,-0.01499
1.192,-0.03831
1.196,-0.02011
1.2,-0.0275
1.204,-0.01689
1.208,-0.02723
1.212,-0.00683
1.216,-0.00513
1.22,0.0143
1.224,0.00899
1.228,0.03802
1.232,0.00549
1.236,0.06499
1.24,0.05208
1.244,0.05931
1.248,0.08704
1.252,0.07375
1.256,0.08178
1.26,0.05951
1.264,0.07228
1.268,0.07098
1.272,0.02012
1.276,0.03494
1.28,-0.01593
1.284,0.03064
1.288,-0.00223
1.292,-0.02009
1.296,-0.02121
1.3,0.00288
1.304,-0.009
1.308,-0.02611
1.312,-0.01925
1.316,-0.02657
1.32,-0.01014
1.324,-0.01491
1.328,-0.0046
1.332,-0.02616
1.336,-0.01833
1.34,-0.03204
1.344,-0.00625
1.348,-0.02245
1.352,-0.01962
1.356,-0.01774
1.36,-0.02752
1.364,-0.04858
1.368,-0.07052
1.372,-0.11406
1.376,-0.12728
1.38,-0.09606
1.384,-0.05677
1.388,0.02523
1.392,0.2678
1.396,0.47498
1.4,0.70257
1.404,0.83492
1.408,0.96319
1.412,0.93711
1.416,0.83329
1.42,0.66064
1.424,0.39785
1.428,0.21274
1.432,-0.00875
1.436,-0.14317
1.44,-0.17545
1.444,-0.19912
1.448,-0.15885
1.452,-0.11021
1.456,-0.04967
1.46,-0.04931
1.464,-0.0361
1.468,-0.04412
1.472,0.00228
1.476,-0.03108
1.48,-0.02895
1.484,-0.01182
1.488,-0.02972
1.492,-0.00869
1.496,-0.00693
1.5,-0.03512
1.504,-0.04285
1.508,-0.0107
1.512,-0.02235
1.516,-0.02712
1.52,-0.00056
1.524,-0.02098
1.528,0.00221
1.532,0.00012
1.536,-0.02921
1.54,-0.0254
1.544,-0.02964
1.548,-0.03848
1.552,-0.01489
1.556,-0.04138
1.56,-0.01483
1.564,-0.01155
1.568,-0.01926
1.572,0.00486
1.576,0.02426
1.58,-0.00859
1.584,-0.02195
1.588,0.01791
1.592,0.01597
1.596,0.01235
1.6,0.00486
1.604,0.01587
1.608,0.01584
1.612,0.02843
1.616,0.0706
1.62,0.05703
1.624,0.06824
1.628,0.06355
1.632,0.08044
1.636,0.09807
1.64,0.11556
1.644,0.12251
1.648,0.14167
1.652,0.15351
1.656,0.14213
1.66,0.16745
1.664,0.18377
1.668,0.17613
1.672,0.19047
1.676,0.21186
1.68,0.19717
1.684,0.21559
1.688,0.18231
1.692,0.19827
1.696,0.20234
1.7,0.20716
1.704,0.18342
1.708,0.1665
1.712,0.18327
1.716,0.15573
1.72,0.1742
1.724,0.12393
1.728,0.13909
1.732,0.10864
1.736,0.12675
1.74,0.11372
1.744,0.10006
1.748,0.08403
1.752,0.06652
1.756,0.06751
1.76,0.04442
1.764,0.08853
1.768,0.03535
1.772,0.004
1.776,0.02486
1.78,0.06266
1.784,0.00469
1.788,0.01037
1.792,-0.00671
1.796,-0.00595
1.8,0.00874
1.804,-0.02289
1.808,-0.00836
1.812,0.00205
1.816,0.00754
1.82,-0.012
1.824,-0.01197
1.828,0.00084
1.832,-0.03453
1.836,-0.01581
1.84,-0.00394
1.844,-0.00871
1.848,-0.00791
1.852,3e-05
1.856,0.01173
1.86,-0.0058
1.864,-0.00868
1.868,-0.01832
1.872,-0.00685
1.876,0.00808
1.88,0.00456
1.884,-0.0082
1.888,-0.023
1.892,-0.0235
1.896,-0.01318
1.9,-0.00326
1.904,-0.00041
1.908,0.02723
1.912,-0.02468
1.916,-0.00025
1.92,-0.01501
1.924,0.00289
1.928,0.0089
1.932,-0.00724
1.936,0.01474
1.94,-0.05017
1.944,0.0076
1.948,-0.03318
1.952,-0.01451
1.956,0.02105
1.96,-0.00167
1.964,-0.00569
1.968,-0.00429
1.972,-0.02288
1.976,-0.01243
1.98,0.01008
1.984,-0.02707
1.988,0.02982
1.992,-0.00169
1.996,-0.02129
2.0,-0.00252
2.004,0.02919
2.008,-0.01493
2.012,-0.01657
2.016,-0.01867
2.02,-0.0319
2.024,0.00807
2.028,-0.02565
2.032,-0.01531
2.036,-0.03883
2.04,0.01368
2.044,0.0134
2.048,-0.02341
2.052,0.00407
2.056,0.0038
2.06,0.01338
2.064,0.00747
2.068,-0.00134
2.072,0.00195
2.076,-0.01011
2.08,0.00856
2.084,-0.00061
2.088,0.00717
2.092,0.00743
2.096,0.00334
2.1,0.01146
2.104,0.00876
2.108,-0.01795
2.112,-0.00414
2.116,-0.00993
2.12,-0.01782
2.124,-0.00292
2.128,-0.01679
2.132,-0.00997
2.136,-0.0045
2.14,-0.0087
2.144,0.01129
2.148,0.01972
2.152,0.01014
2.156,0.0056
2.16,-0.00824
2.164,-0.02646
2.168,-0.01357
2.172,-0.00928
2.176,-0.01751
2.18,-0.00154
2.184,0.01301
2.188,-0.00438
2.192,-0.00971
2.196,-0.02897
2.2,-0.00293
2.204,-0.02186
2.208,0.00078
2.212,0.01926
2.216,0.01173
2.22,0.01497
2.224,0.02516
2.228,0.03045
2.232,0.04858
2.236,0.03651
2.24,0.07671
2.244,0.08103
2.248,0.05729
2.252,0.09972
2.256,0.09339
2.26,0.12743
2.264,0.09222
2.268,0.07869
2.272,0.05645
2.276,0.07891
2.28,0.05539
2.284,0.04696
2.288,0.00841
2.292,0.04289
2.296,0.02029
2.3,-0.02644
2.304,-0.00546
2.308,-0.02634
2.312,0.00282
2.316,0.01706
2.32,0.00527
2.324,-0.00264
2.328,0.00428
2.332,0.01909
2.336,0.00409
2.34,-0.02238
2.344,-0.01512
2.348,0.01074
2.352,-0.01855
2.356,0.00489
2.36,-0.02269
2.364,0.00822
2.368,-0.02032
2.372,-0.01475
2.376,-0.05193
2.38,-0.07046
2.384,-0.09719
2.388,-0.06893
2.392,-0.00715
2.396,0.14029
2.4,0.29678
2.404,0.5056
2.408,0.7415
2.412,0.9213
2.416,0.98098
2.42,0.94423
2.424,0.85279
2.428,0.67888
2.432,0.43874
2.436,0.19807
2.44,0.04583
2.444,-0.09512
2.448,-0.16212
2.452,-0.13889
2.456,-0.12991
2.46,-0.09064
2.464,-0.03451
2.468,-0.02625
2.472,0.00996
2.476,0.01645
2.48,0.01552
2.484,0.01642
2.488,0.02217
2.492,0.00261
2.496,0.00629
2.5,0.02157
2.504,-0.00651
2.508,0.00765
2.512,-0.01563
2.516,0.00753
2.52,0.02047
2.524,0.01844
2.528,0.03007
2.532,0.01191
2.536,0.02851
2.54,0.00101
2.544,0.01398
2.548,-0.00088
2.552,0.01891
2.556,0.02623
2.56,0.01083
2.564,-0.00424
2.568,0.01119
2.572,0.00883
2.576,-0.00643
2.58,0.02386
2.584,0.01831
2.588,0.05633
2.592,0.01072
2.596,0.02126
2.6,0.02632
2.604,0.0363
2.608,0.02232
2.612,0.02235
2.616,0.05075
2.62,0.0709
2.624,0.0584
2.628,0.0777
2.632,0.09612
2.636,0.11185
2.64,0.11175
2.644,0.10973
2.648,0.12313
2.652,0.14266
2.656,0.12945
2.66,0.12674
2.664,0.18495
2.668,0.17154
2.672,0.20933
2.676,0.19925
2.68,0.23954
2.684,0.22361
2.688,0.24069
2.692,0.23743
2.696,0.23892
2.7,0.22764
2.704,0.22267
2.708,0.21247
2.712,0.19258
2.716,0.22873
2.72,0.19035
2.724,0.18312
2.728,0.20118
2.732,0.17929
2.736,0.16928
2.74,0.18117
2.744,0.14595
2.748,0.13358
2.752,0.10851
2.756,0.08801
2.76,0.09896
2.764,0.0989
2.768,0.11928
2.772,0.07057
2.776,0.05227
2.78,0.05399
2.784,0.04804
2.788,0.04395
2.792,0.03395
2.796,0.00392
2.8,0.02826
2.804,0.01195
2.808,0.01787
2.812,0.01912
2.816,0.01026
2.82,0.00533
2.824,0.00142
2.828,0.00328
2.832,0.01818
2.836,0.01721
2.84,0.02833
2.844,0.03715
2.848,0.00904
2.852,0.03257
2.856,0.03722
2.86,0.01283
2.864,0.00314
2.868,0.03113
2.872,0.03994
2.876,0.02316
2.88,-0.00257
2.884,0.03385
2.888,0.02737
2.892,0.00713
2.896,0.00265
2.9,0.00201
2.904,0.02637
2.908,0.03481
2.912,0.01642
2.916,0.01326
2.92,0.00485
2.924,0.04112
2.928,0.00728
2.932,0.00195
2.936,0.024
2.94,0.02332
2.944,0.02992
2.948,0.01484
2.952,0.01676
2.956,0.02346
2.96,0.02146
2.964,0.04657
2.968,0.01138
2.972,0.03157
2.976,0.002
2.98,0.02168
2.984,-0.003
2.988,0.00471
2.992,0.023
2.996,0.01465
3.0,0.01648
3.004,0.01515
3.008,0.01819
3.012,0.04917
3.016,0.04395
3.02,0.01105
3.024,0.02458
3.028,0.00039
3.032,0.01507
3.036,0.03313
3.04,0.0169
3.044,0.01185
3.048,0.03054
3.052,0.00715
3.056,0.01666
3.06,0.00806
3.064,0.01051
3.068,0.0309
3.072,-0.00453
3.076,-0.01864
3.08,0.0216
3.084,-0.00311
3.088,0.00964
3.092,0.01256
3.096,0.01563
3.1,0.0074
3.104,0.02198
3.108,0.05848
3.112,0.00974
3.116,0.00701
3.12,0.01422
3.124,0.02517
3.128,0.02131
3.132,0.03189
3.136,0.01252
3.14,0.01497
3.144,0.01057
3.148,0.01068
3.152,0.00822
3.156,0.02523
3.16,0.02291
3.164,0.0272
3.168,0.01682
3.172,0.01638
3.176,0.03342
3.18,0.0205
3.184,0.00474
3.188,0.01782
3.192,0.02884
3.196,0.04531
3.2,0.01874
3.204,0.03076
3.208,0.01916
3.212,0.02661
3.216,0.02478
3.22,0.00887
3.224,0.0196
3.228,0.01861
3.232,0.01228
3.236,0.04608
3.24,0.04581
3.244,0.01036
3.248,0.01265
3.252,0.02374
3.256,0.01462
3.26,0.01044
3.264,0.03571
3.268,0.02486
3.272,0.05854
3.276,0.02723
3.28,0.07266
3.284,0.05568
3.288,0.05129
3.292,0.05841
3.296,0.07564
3.3,0.11418
3.304,0.10327
3.308,0.10307
3.312,0.13317
3.316,0.1296
3.32,0.14177
3.324,0.12145
3.328,0.10162
3.332,0.09932
3.336,0.07727
3.34,0.07004
3.344,0.06896
3.348,0.05893
3.352,0.04939
3.356,0.04605
3.36,0.03821
3.364,0.03272
3.368,0.028
3.372,0.04429
3.376,0.0184
3.38,0.02274
3.384,-3e-05
3.388,0.05506
3.392,0.02274
3.396,-0.00785
3.4,0.01304
3.404,0.02179
3.408,0.03353
3.412,0.03543
3.416,0.03284
3.42,0.01416
3.424,0.01351
3.428,0.02012
3.432,-0.01444
3.436,-0.04505
3.44,-0.06326
3.444,-0.11158
3.448,-0.0819
3.452,0.0379
3.456,0.15764
3.46,0.35759
3.464,0.5628
3.468,0.78252
3.472,0.94147
3.476,1.01055
3.48,0.98238
3.484,0.83127
3.488,0.64804
3.492,0.41822
3.496,0.20788
3.5,0.01967
3.504,-0.06053
3.508,-0.13755
3.512,-0.13391
3.516,-0.10117
3.52,-0.04919
3.524,-0.01134
3.528,0.00268
3.532,-0.00249
3.536,0.01158
3.54,0.05133
3.544,0.05394
3.548,0.03573
3.552,0.0263
3.556,0.02961
3.56,0.05085
3.564,0.02234
3.568,0.01623
3.572,0.03008
3.576,0.02492
3.58,0.02766
3.584,-0.0061
3.588,0.03277
3.592,0.0227
3.596,0.02224
3.6,0.04978
3.604,0.01582
3.608,0.02021
3.612,0.03953
3.616,0.05768
3.62,0.04987
3.624,-0.00679
3.628,0.02734
3.632,0.04068
3.636,0.00675
3.64,0.02509
3.644,0.03341
3.648,0.07071
3.652,0.05097
3.656,0.0401
3.66,0.05727
3.664,0.08092
3.668,0.04959
3.672,0.01986
3.676,0.07563
3.68,0.08547
3.684,0.07438
3.688,0.12311
3.692,0.10689
3.696,0.09799
3.7,0.12189
3.704,0.14275
3.708,0.17296
3.712,0.15855
3.716,0.14382
3.72,0.1857
3.724,0.18811
3.728,0.18209
3.732,0.21226
3.736,0.23136
3.74,0.25053
3.744,0.24645
3.748,0.24111
3.752,0.22713
3.756,0.24048
3.76,0.24096
3.764,0.22418
3.768,0.25749
3.772,0.24187
3.776,0.22962
3.78,0.22072
3.784,0.20355
3.788,0.20694
3.792,0.20739
3.796,0.20562
3.8,0.16477
3.804,0.17469
3.808,0.14807
3.812,0.14036
3.816,0.11013
3.82,0.124
3.824,0.10941
3.828,0.08987
3.832,0.09035
3.836,0.05861
3.84,0.05942
3.844,0.06538
3.848,0.05866
3.852,0.04713
3.856,0.01585
3.86,0.03813
3.864,0.02471
3.868,0.01858
3.872,0.02196
3.876,0.02498
3.88,0.03195
3.884,0.02613
3.888,0.03193
3.892,0.04037
3.896,0.05246
3.9,0.03594
3.904,0.01329
3.908,0.03435
3.912,0.01063
3.916,0.00867
3.92,0.0359
3.924,0.06525
3.928,0.02728
3.932,0.04922
3.936,0.03828
3.94,0.03876
3.944,0.04506
3.948,0.01001
3.952,0.02471
3.956,0.02557
3.96,0.01064
3.964,0.02394
3.968,0.00172
3.972,0.0171
3.976,0.03767
3.98,0.01451
3.984,0.00737
3.988,0.03184
3.992,0.01468
3.996,0.02821
4.0,0.05707
4.004,0.01995
4.008,0.06187
4.012,0.04875
4.016,0.0293
4.02,0.00771
4.024,0.03201
4.028,0.03032
4.032,0.0365
4.036,0.02483
4.04,0.0252
4.044,0.03129
4.048,0.05672
4.052,0.01324
4.056,0.01326
4.06,0.0381
4.064,0.00697
4.068,0.04417
4.072,0.05297
4.076,0.03931
4.08,0.04865
4.084,0.03071
4.088,0.04673
4.092,0.03484
4.096,0.02385
4.1,0.0452
4.104,0.01987
4.108,0.00512
4.112,0.05845
4.116,0.0204
4.12,0.05751
4.124,0.00942
4.128,0.02603
4.132,0.04218
4.136,0.03234
4.14,0.03983
4.144,0.00893
4.148,0.03699
4.152,0.00585
4.156,0.0236
4.16,0.02914
4.164,0.02598
4.168,0.02657
4.172,0.03399
4.176,0.04219
4.18,0.01249
4.184,0.0352
4.188,0.03356
4.192,0.04324
4.196,0.0306
4.2,0.02513
4.204,0.02378
4.208,0.05184
4.212,0.05408
4.216,0.03947
4.22,0.03378
4.224,0.02236
4.228,0.02535
4.232,0.00544
4.236,0.01629
4.24,0.0429
4.244,0.01823
4.248,0.01624
4.252,0.02158
4.256,0.04965
4.26,0.03791
4.264,0.02998
4.268,0.02644
4.272,0.03396
4.276,0.02082
4.28,0.04966
4.284,0.01351
4.288,0.0206
4.292,0.03867
4.296,0.04233
4.3,0.04939
4.304,0.02184
4.308,0.0419
4.312,0.06795
4.316,0.07125
4.32,0.05645
4.324,0.11832
4.328,0.11705
4.332,0.11411
4.336,0.11181
4.34,0.11745
4.344,0.1153
4.348,0.12107
4.352,0.11921
4.356,0.12677
4.36,0.0841
4.364,0.09335
4.368,0.0615
4.372,0.06041
4.376,0.04543
4.38,0.02999
4.384,0.03685
4.388,0.03467
4.392,0.01908
4.396,0.04159
4.4,0.00829
4.404,0.01654
4.408,0.04698
4.412,0.03133
4.416,0.06053
4.42,0.04621
4.424,0.03187
4.428,0.0225
4.432,0.03303
4.436,0.01331
4.44,0.03491
4.444,0.01672
4.448,0.02771
4.452,-0.00079
4.456,-7e-05
4.46,-0.03454
4.464,-0.08742
4.468,-0.10329
4.472,-0.04272
4.476,0.06155
4.48,0.19357
4.484,0.37161
4.488,0.6323
4.492,0.82254
4.496,0.97194
4.5,1.03705
4.504,0.99369
4.508,0.84635
4.512,0.61734
4.516,0.39757
4.52,0.16989
4.524,0.00698
4.528,-0.0873
4.532,-0.13046
4.536,-0.11444
4.54,-0.10815
4.544,-0.04989
4.548,0.02083
4.552,0.0032
4.556,0.02635
4.56,0.02324
4.564,0.01701
4.568,0.02956
4.572,-0.019
4.576,0.05116
4.58,0.04034
4.584,0.02733
4.588,0.04134
4.592,0.02515
4.596,0.04221
4.6,0.00824
4.604,0.02393
4.608,0.01992
4.612,0.0127
4.616,0.02694
4.62,0.0347
4.624,0.04197
4.628,0.03003
4.632,0.01394
4.636,0.02651
4.64,0.01419
4.644,0.02078
4.648,0.02747
4.652,0.0324
4.656,0.02806
4.66,0.03105
4.664,0.01365
4.668,0.04504
4.672,0.02146
4.676,0.05617
4.68,0.05227
4.684,0.04627
4.688,0.03737
4.692,0.05263
4.696,0.07402
4.7,0.0631
4.704,0.08477
4.708,0.07294
4.712,0.07089
4.716,0.10029
4.72,0.12473
4.724,0.13475
4.728,0.15279
4.732,0.14164
4.736,0.16124
4.74,0.17942
4.744,0.19671
4.748,0.19247
4.752,0.19887
4.756,0.18222
4.76,0.23173
4.764,0.23886
4.768,0.2141
4.772,0.23712
4.776,0.23477
4.78,0.26298
4.784,0.21164
4.788,0.22144
4.792,0.24602
4.796,0.24286
4.8,0.22957
4.804,0.19568
4.808,0.18004
4.812,0.16891
4.816,0.17276
4.82,0.15379
4.824,0.14808
4.828,0.13563
4.832,0.13963
4.836,0.11242
4.84,0.11348
4.844,0.0909
4.848,0.0829
4.852,0.07437
4.856,0.06731
4.86,0.06911
4.864,0.0696
4.868,0.05499
4.872,0.04045
4.876,0.02491
4.88,0.04034
4.884,0.02847
4.888,0.02293
4.892,0.00757
4.896,0.04039
4.9,0.03467
4.904,0.03778
4.908,0.00041
4.912,0.02263
4.916,0.02502
4.92,0.00067
4.924,-0.01585
4.928,0.02059
4.932,0.01948
4.936,0.029
4.94,0.01718
4.944,0.02659
4.948,0.0133
4.952,0.00733
4.956,0.00091
4.96,0.02173
4.964,0.04383
4.968,0.02587
4.972,0.02861
4.976,0.01903
4.98,0.04612
4.984,0.02556
4.988,0.02367
4.992,0.00767
4.996,0.00333
5.0,-0.0302
5.004,0.00602
5.008,0.00496
5.012,0.01921
5.016,0.00357
5.02,0.01842
5.024,0.00211
5.028,0.02947
5.032,0.03761
5.036,0.009
5.04,0.03358
5.044,0.01473
5.048,0.0483
5.052,0.02353
5.056,-0.01044
5.06,0.0173
5.064,0.0018
5.068,0.02703
5.072,0.02152
5.076,0.02193
5.08,0.01678
5.084,0.04235
5.088,0.05746
5.092,0.04733
5.096,0.05122
5.1,0.03211
5.104,0.06529
5.108,0.09817
5.112,0.10544
5.116,0.11301
5.12,0.08095
5.124,0.1118
5.128,0.11648
5.132,0.13336
5.136,0.07497
5.14,0.06052
5.144,0.09954
5.148,0.0534
5.152,0.0562
5.156,0.0186
5.16,0.0542
5.164,0.01689
5.168,0.04595
5.172,0.02764
5.176,0.02734
5.18,-0.00257
5.184,0.03492
5.188,0.00908
5.192,0.03733
5.196,0.02288
5.2,0.0024
5.204,0.00198
5.208,-0.00866
5.212,0.01715
5.216,0.00324
5.22,0.00914
5.224,-0.01277
5.228,-0.00409
5.232,0.02653
5.236,-0.01323
5.24,-0.007
5.244,-0.05683
5.248,-0.05823
5.252,-0.08387
5.256,-0.0904
5.26,-0.03256
5.264,0.11124
5.268,0.30795
5.272,0.51969
5.276,0.72598
5.28,0.91266
5.284,1.00885
5.288,0.96653
5.292,0.85394
5.296,0.67407
5.3,0.42361
5.304,0.22466
5.308,0.02234
5.312,-0.0698
5.316,-0.14505
5.32,-0.12892
5.324,-0.11937
5.328,-0.04169
5.332,-0.06152
5.336,-0.04025
5.34,-0.02205
5.344,0.00703
5.348,0.01268
5.352,0.0069
5.356,-0.01511
5.36,-0.00796
5.364,0.03602
5.368,0.03245
5.372,0.01176
5.376,0.00872
5.38,0.00949
5.384,0.00601
5.388,0.02446
5.392,0.0159
5.396,0.00187
5.4,0.00748
5.404,-0.00367
5.408,-0.00368
5.412,0.00559
5.416,0.02107
5.42,0.02742
5.424,-0.01197
5.428,0.02825
5.432,0.01912
5.436,0.0153
5.44,0.02186
5.444,0.01394
5.448,0.03868
5.452,0.01388
5.456,0.03153
5.46,-0.00871
5.464,0.02374
5.468,0.03358
5.472,-0.00489
5.476,0.03868
5.48,0.03755
5.484,0.0387
5.488,0.02855
5.492,0.08874
5.496,0.07014
5.5,0.08667
5.504,0.09045
5.508,0.08498
5.512,0.11282
5.516,0.12122
5.52,0.13764
5.524,0.15639
5.528,0.12855
5.532,0.1516
5.536,0.18717
5.54,0.19845
5.544,0.21083
5.548,0.19032
5.552,0.23688
5.556,0.22236
5.56,0.23668
5.564,0.20285
5.568,0.20705
5.572,0.19671
5.576,0.21581
5.58,0.19363
5.584,0.23212
5.588,0.18821
5.592,0.17061
5.596,0.16936
5.6,0.17728
5.604,0.13168
5.608,0.14599
5.612,0.13124
5.616,0.11479
5.62,0.1217
5.624,0.08225
5.628,0.07104
5.632,0.08241
5.636,0.07023
5.64,0.085
5.644,0.06727
5.648,0.02349
5.652,0.02266
5.656,0.0243
5.66,0.0248
5.664,0.0233
5.668,0.04238
5.672,-0.00198
5.676,-0.01374
5.68,-0.01267
5.684,-0.0083
5.688,8e-05
5.692,0.01086
5.696,0.01058
5.7,0.01063
5.704,0.01604
5.708,0.01518
5.712,0.00578
5.716,-0.00618
5.72,0.03511
5.724,-0.01058
5.728,-0.01501
5.732,-0.0074
5.736,-0.01049
5.74,0.00025
5.744,0.00759
5.748,-0.00919
5.752,0.01285
5.756,-0.00985
5.76,-0.00823
5.764,-0.01853
5.768,-0.00012
5.772,0.00817
5.776,-0.02119
5.78,0.01127
5.784,-0.00357
5.788,0.01478
5.792,-0.01864
5.796,0.01242
5.8,-0.01448
5.804,-0.0323
5.808,0.00379
5.812,-0.00982
5.816,-0.01337
5.82,-0.0013
5.824,-0.01997
5.828,-0.01428
5.832,0.00342
5.836,0.0187
5.84,-0.0209
5.844,-0.01001
5.848,0.01396
5.852,-0.0202
5.856,-0.00342
5.86,0.00713
5.864,-0.0076
5.868,-0.01714
5.872,-0.00318
5.876,-0.03656
5.88,-0.01743
5.884,-0.02645
5.888,0.00336
5.892,0.00658
5.896,-0.01765
5.9,0.0066
5.904,-0.00054
5.908,-0.01039
5.912,-0.01081
5.916,-0.0026
5.92,-0.02344
5.924,0.0152
5.928,0.00239
5.932,-0.02657
5.936,-0.01666
5.94,0.004
5.944,-0.01783
5.948,0.02138
5.952,-0.0079
5.956,-0.00711
5.96,0.00235
5.964,-0.01435
5.968,-0.00155
5.972,-0.02154
5.976,-0.02103
5.98,0.00521
5.984,0.00575
5.988,-0.00822
5.992,0.0359
5.996,0.04487
6.0,0.02401
6.004,0.05808
6.008,0.06612
6.012,0.08036
6.016,0.07117
6.02,0.10643
6.024,0.09136
6.028,0.10306
6.032,0.10198
6.036,0.07113
6.04,0.06588
6.044,0.04561
6.048,0.01941
6.052,0.01837
6.056,0.03005
6.06,0.02136
6.064,-0.00887
6.068,-0.01912
6.072,-0.00549
6.076,-0.0052
6.08,0.00027
6.084,-0.00723
6.088,0.0037
6.092,-0.02834
6.096,-0.01225
6.1,-0.01399
6.104,-0.02825
6.108,-0.02591
6.112,-0.01651
6.116,-0.01526
6.12,-0.00508
6.124,0.00977
6.128,0.01706
6.132,-0.03499
6.136,-0.00812
6.14,-0.02741
6.144,-0.07939
6.148,-0.0943
6.152,-0.13621
6.156,-0.0951
6.16,-0.01244
6.164,0.13061
6.168,0.32765
6.172,0.53205
6.176,0.77737
6.18,0.89462
6.184,0.99699
6.188,0.91763
6.192,0.78878
6.196,0.58443
6.2,0.35571
6.204,0.14426
6.208,-0.01915
6.212,-0.15629
6.216,-0.17722
6.22,-0.17922
6.224,-0.14237
6.228,-0.10068
6.232,-0.05995
6.236,-0.05865
6.24,-0.04626
6.244,-0.01783
6.248,-0.02884
6.252,-0.03732
6.256,-0.02355
6.26,-0.01653
6.264,0.0033
6.268,-0.01719
6.272,-0.0166
6.276,-0.01961
6.28,-0.01283
6.284,-0.01677
6.288,-0.00318
6.292,-0.01444
6.296,-0.00976
6.3,-0.01805
6.304,-0.01565
6.308,-0.03129
6.312,0.01599
6.316,7e-05
6.32,-0.03455
6.324,-0.04729
6.328,-0.01164
6.332,-0.03503
6.336,-0.00898
6.34,-0.02707
6.344,-0.00541
6.348,0.00681
6.352,-0.02527
6.356,0.02161
6.36,-0.00175
6.364,0.02909
6.368,-0.01927
6.372,0.01367
6.376,0.0227
6.38,0.03792
6.384,0.05509
6.388,0.02385
6.392,0.05564
6.396,0.05077
6.4,0.06705
6.404,0.05915
6.408,0.08545
6.412,0.08368
6.416,0.0774
6.42,0.12921
6.424,0.11384
6.428,0.13107
6.432,0.13008
6.436,0.13775
6.44,0.15019
6.444,0.16684
6.448,0.17714
6.452,0.19379
6.456,0.20045
6.46,0.19681
6.464,0.20098
6.468,0.20052
6.472,0.21826
6.476,0.19585
6.48,0.19034
6.484,0.20251
6.488,0.18827
6.492,0.14955
6.496,0.15203
6.5,0.15558
6.504,0.14464
6.508,0.1328
6.512,0.09204
6.516,0.09073
6.52,0.08369
6.524,0.09637
6.528,0.05932
6.532,0.0401
6.536,0.02066
6.54,0.02957
6.544,0.02669
6.548,0.01567
6.552,0.00939
6.556,0.00212
6.56,-0.00623
6.564,-0.00399
6.568,-0.00764
6.572,-0.02391
6.576,-0.03749
6.58,0.00394
6.584,-0.01514
6.588,0.01095
6.592,-0.044
6.596,-0.04327
6.6,-0.01074
6.604,-0.03208
6.608,-0.02049
6.612,-0.02692
6.616,-0.03724
6.62,-0.04456
6.624,0.02197
6.628,-0.04737
6.632,-0.03326
6.636,-0.04004
6.64,0.0029
6.644,-0.00779
6.648,-0.0421
6.652,-0.04786
6.656,-0.01515
6.66,-0.03172
6.664,-0.01084
6.668,-0.02302
6.672,-0.00784
6.676,-0.04186
6.68,-0.00841
6.684,-0.01771
6.688,-0.02628
6.692,0.00153
6.696,-0.0334
6.7,-0.04865
6.704,-0.01893
6.708,-0.03
6.712,-0.02105
6.716,-0.0366
6.72,-0.0264
6.724,-0.03042
6.728,-0.01571
6.732,-0.02161
6.736,-0.02192
6.74,-0.01521
6.744,-0.03586
6.748,-0.02334
6.752,-0.0163
6.756,-0.02175
6.76,-0.04279
6.764,-0.03573
6.768,-0.05551
6.772,-0.0502
6.776,-0.0223
6.78,-0.00667
6.784,-0.02596
6.788,-0.02367
6.792,-0.04146
6.796,-0.03694
6.8,-0.00511
6.804,-0.01773
6.808,-0.02382
6.812,-0.03524
6.816,-0.02934
6.82,-0.03376
6.824,-0.02313
6.828,-0.00428
6.832,-0.02857
6.836,-0.02928
6.84,-0.03001
6.844,-0.01827
6.848,-0.02135
6.852,-0.00031
6.856,-0.01885
6.86,-0.0175
6.864,-0.02202
6.868,-0.02186
6.872,-0.0146
6.876,-0.01784
6.88,0.01307
6.884,-0.0006
6.888,-0.01093
6.892,0.01437
6.896,0.03863
6.9,0.04353
6.904,0.06284
6.908,0.06218
6.912,0.06769
6.916,0.07963
6.92,0.09036
6.924,0.06576
6.928,0.0396
6.932,0.02618
6.936,0.02402
6.94,-0.00333
6.944,0.00813
6.948,0.00129
6.952,-0.00361
6.956,-0.00969
6.96,-0.01586
6.964,-0.00671
6.968,-0.02159
6.972,-0.0263
6.976,-0.02634
6.98,-0.05218
6.984,-0.01091
6.988,-0.05966
6.992,-0.03053
6.996,-0.01027
7.0,-0.03525
7.004,-0.03296
7.008,-0.00449
7.012,-0.02282
7.016,-0.02966
7.02,-0.00893
7.024,-0.03548
7.028,-0.02984
7.032,-0.06603
7.036,-0.10547
7.04,-0.1198
7.044,-0.14549
7.048,-0.04777
7.052,0.09504
7.056,0.27628
7.06,0.50205
7.064,0.71037
7.068,0.87649
7.072,0.96714
7.076,0.93164
7.08,0.80304
7.084,0.58206
7.088,0.36116
7.092,0.15786
7.096,-0.00258
7.1,-0.15053
7.104,-0.21158
7.108,-0.1803
7.112,-0.15637
7.116,-0.13373
7.12,-0.07327
7.124,-0.05867
7.128,-0.01385
7.132,-0.0374
7.136,-0.0347
7.14,-0.01878
7.144,-0.04062
7.148,-0.02503
7.152,-0.04745
7.156,-0.00299
7.16,-0.04516
7.164,-0.05612
7.168,-0.03463
7.172,-0.02333
7.176,-0.04791
7.18,-0.01766
7.184,-0.02128
7.188,-0.03768
7.192,-0.03118
7.196,-0.00741
7.2,-0.03967
7.204,-0.02234
7.208,-0.03982
7.212,-0.00012
7.216,-0.04019
7.22,-0.04141
7.224,-0.03094
7.228,-0.00602
7.232,-0.01464
7.236,-0.0001
7.24,0.00953
7.244,-0.01113
7.248,-0.03508
7.252,-0.01467
7.256,-0.05138
7.26,-0.02937
7.264,0.0083
7.268,0.01586
7.272,-0.0056
7.276,0.03039
7.28,0.02484
7.284,0.02582
7.288,0.06355
7.292,0.06256
7.296,0.06576
7.3,0.09043
7.304,0.09554
7.308,0.10732
7.312,0.10871
7.316,0.11849
7.32,0.13371
7.324,0.15124
7.328,0.14963
7.332,0.18287
7.336,0.1758
7.34,0.17874
7.344,0.18896
7.348,0.19073
7.352,0.18085
7.356,0.16277
7.36,0.1922
7.364,0.19627
7.368,0.1911
7.372,0.17228
7.376,0.16378
7.38,0.16141
7.384,0.14892
7.388,0.12028
7.392,0.12049
7.396,0.11083
7.4,0.12787
7.404,0.06984
7.408,0.08748
7.412,0.06656
7.416,0.04523
7.42,0.02024
7.424,0.04463
7.428,0.05671
7.432,0.0469
7.436,-0.00534
7.44,-0.01394
7.444,-0.00214
7.448,-0.01401
7.452,-0.04291
7.456,-0.00098
7.46,-0.04304
7.464,-0.03102
7.468,-0.00327
7.472,0.0021
7.476,-0.01015
7.48,0.00551
7.484,-0.03995
7.488,-0.04021
7.492,-0.01108
7.496,-0.01752
7.5,-0.03426
7.504,-0.025
7.508,-0.04686
7.512,-0.02194
7.516,-0.02704
7.52,-0.00779
7.524,-0.01093
7.528,-0.0388
7.532,-0.04215
7.536,-0.02746
7.54,-0.01406
7.544,-0.01827
7.548,-0.01622
7.552,-0.04242
7.556,-0.02397
7.56,-0.01313
7.564,-0.02954
7.568,-0.01693
7.572,-0.0201
7.576,-0.0387
7.58,-0.03469
7.584,-0.04006
7.588,-0.01438
7.592,-0.02183
7.596,-0.03027
7.6,-0.04113
7.604,-0.04317
7.608,-0.04755
7.612,-0.03808
7.616,-0.00975
7.62,-0.02635
7.624,-0.03012
7.628,-0.03737
7.632,-0.02635
7.636,-0.00616
7.64,-0.04664
7.644,-0.01834
7.648,-0.03399
7.652,-0.04293
7.656,-0.01146
7.66,-0.01946
7.664,-0.01964
7.668,-0.03791
7.672,-0.02925
7.676,-0.02072
7.68,-0.0303
7.684,-0.03688
7.688,-0.03266
7.692,-0.02163
7.696,-0.05942
7.7,-0.00731
7.704,-0.00837
7.708,-0.04343
7.712,-0.04524
7.716,-0.01144
7.72,0.01706
7.724,-0.0343
7.728,-0.03868
7.732,-0.03375
7.736,-0.01549
7.74,-0.03289
7.744,-0.01424
7.748,-0.02597
7.752,-0.01133
7.756,-0.05109
7.76,-0.03099
7.764,-0.02596
7.768,-0.03686
7.772,-0.02516
7.776,-0.00806
7.78,-0.02051
7.784,-0.04446
7.788,0.00706
7.792,-0.01775
7.796,-0.00314
7.8,-0.01302
7.804,-0.00851
7.808,0.02964
7.812,0.0283
7.816,0.01982
7.82,0.04912
7.824,0.09422
7.828,0.05865
7.832,0.10238
7.836,0.06537
7.84,0.07681
7.844,0.07381
7.848,0.0535
7.852,0.03401
7.856,0.02457
7.86,0.02663
7.864,0.00626
7.868,-0.00389
7.872,-0.03238
7.876,-0.03627
7.88,-0.02252
7.884,-0.01445
7.888,-0.02648
7.892,-0.01479
7.896,-0.04168
7.9,-0.02293
7.904,-0.01464
7.908,-0.02385
7.912,-0.02094
7.916,-0.01645
7.92,-0.0208
7.924,-0.01682
7.928,-0.04074
7.932,-0.02198
7.936,-0.03777
7.94,-0.04012
7.944,0.002
7.948,-0.03213
7.952,-0.03812
7.956,-0.07933
7.96,-0.1027
7.964,-0.14381
7.968,-0.1257
7.972,-0.02014
7.976,0.18566
7.98,0.33796
7.984,0.57842
7.988,0.75942
7.992,0.92695
7.996,0.9747
8.0,0.93594
8.004,0.74628
8.008,0.57058
8.012,0.30676
8.016,0.11401
8.02,-0.07723
8.024,-0.15284
8.028,-0.18336
8.032,-0.18192
8.036,-0.13914
8.04,-0.08942
8.044,-0.05293
8.048,-0.0375
8.052,-0.03577
8.056,-0.02148
8.06,-0.01904
8.064,-0.02085
8.068,-0.01547
8.072,-0.03694
8.076,-0.01417
8.08,-0.00998
8.084,0.0018
8.088,-0.00389
8.092,-0.01873
8.096,-0.02998
8.1,-0.03172
8.104,-0.02655
8.108,-0.01228
8.112,-0.04919
8.116,-0.00797
8.12,-0.02326
8.124,-4e-05
8.128,-0.03226
8.132,-0.02084
8.136,-0.00268
8.14,-0.01107
8.144,-0.02539
8.148,-0.02108
8.152,-0.03906
8.156,-0.03948
8.16,-0.00874
8.164,-0.03036
8.168,0.01213
8.172,0.00753
8.176,-0.01579
8.18,0.01751
8.184,-0.00539
8.188,0.00764
8.192,-0.00079
8.196,0.03336
8.2,0.01633
8.204,0.03981
8.208,0.05537
8.212,0.06974
8.216,0.09436
8.22,0.07233
8.224,0.10961
8.228,0.12088
8.232,0.13145
8.236,0.12933
8.24,0.10955
8.244,0.14788
8.248,0.18246
8.252,0.17169
8.256,0.15461
8.26,0.19667
8.264,0.16579
8.268,0.22426
8.272,0.20332
8.276,0.19312
8.28,0.1816
8.284,0.20936
8.288,0.19643
8.292,0.16772
8.296,0.19966
8.3,0.19236
8.304,0.15017
8.308,0.16331
8.312,0.13939
8.316,0.11481
8.32,0.15896
8.324,0.12498
8.328,0.08187
8.332,0.09212
8.336,0.06686
8.34,0.08333
8.344,0.06523
8.348,0.03268
8.352,-0.00355
8.356,0.04585
8.36,0.0358
8.364,0.0305
8.368,-0.01949
8.372,0.00547
8.376,0.01808
8.38,0.01473
8.384,-0.00331
8.388,-0.011
8.392,0.00178
8.396,-0.02781
8.4,0.00312
8.404,-0.01538
8.408,-0.0211
8.412,-0.02176
8.416,-0.02706
8.42,0.01567
8.424,-0.0077
8.428,-0.02024
8.432,-0.00865
8.436,-0.02295
8.44,0.01984
8.444,-0.00216
8.448,-0.00615
8.452,-0.02389
8.456,-0.00497
8.46,-0.03541
8.464,0.01781
8.468,-0.00641
8.472,-0.02345
8.476,-0.01903
8.48,-0.01446
8.484,-0.02078
8.488,0.00222
8.492,-0.00101
8.496,-0.03022
8.5,-0.01484
8.504,-0.00211
8.508,-0.00082
8.512,-0.01443
8.516,-0.0017
8.52,-0.02005
8.524,-0.00653
8.528,-0.01189
8.532,-0.00278
8.536,-0.00677
8.54,-0.03159
8.544,-0.00747
8.548,-0.0033
8.552,-0.0196
8.556,-0.01304
8.56,-0.01701
8.564,-0.00415
8.568,-0.01522
8.572,-0.00731
8.576,-0.02063
8.58,0.01168
8.584,-0.01704
8.588,-0.0149
8.592,-0.00439
8.596,-0.03063
8.6,0.00301
8.604,-0.00738
8.608,-0.00061
8.612,-0.01063
8.616,0.02229
8.62,0.01513
8.624,0.0353
8.628,0.03931
8.632,0.03657
8.636,0.07281
8.64,0.05316
8.644,0.05384
8.648,0.07537
8.652,0.09134
8.656,0.07696
8.66,0.09562
8.664,0.06194
8.668,0.04205
8.672,0.04877
8.676,0.03393
8.68,-0.00712
8.684,0.01205
8.688,0.02922
8.692,-0.00827
8.696,-0.0022
8.7,-0.02992
8.704,0.01003
8.708,0.00375
8.712,0.02147
8.716,-0.01068
8.72,0.01034
8.724,-0.03634
8.728,-0.00482
8.732,-0.00836
8.736,-0.02054
8.74,0.02955
8.744,-0.0004
8.748,-0.00856
8.752,-0.00605
8.756,-0.01341
8.76,-0.04331
8.764,-0.04158
8.768,-0.077
8.772,-0.09251
8.776,-0.12609
8.78,-0.09266
8.784,-0.04038
8.788,0.11448
8.792,0.28326
8.796,0.48856
8.8,0.72083
8.804,0.88857
8.808,0.97379
8.812,0.97613
8.816,0.86679
8.82,0.68763
8.824,0.44028
8.828,0.24627
8.832,0.0087
8.836,-0.10068
8.84,-0.17036
8.844,-0.13683
8.848,-0.14932
8.852,-0.09711
8.856,-0.03067
8.86,-0.03415
8.864,-0.00063
8.868,-0.00071
8.872,-0.02131
8.876,-0.00863
8.88,-0.01423
8.884,0.00458
8.888,-0.01881
8.892,0.01172
8.896,0.01077
8.9,0.00358
8.904,-0.00292
8.908,-0.01088
8.912,-0.0002
8.916,-0.03
8.92,0.0198
8.924,-0.01164
8.928,0.00122
8.932,0.00548
8.936,0.02172
8.94,0.00769
8.944,0.03478
8.948,0.03644
8.952,-0.01477
8.956,-0.01579
8.96,0.01941
8.964,0.00396
8.968,0.00806
8.972,-0.00022
8.976,0.01103
8.98,0.03618
8.984,-0.00397
8.988,0.01913
8.992,0.025
8.996,0.00769
9.0,0.04889
9.004,0.03721
9.008,0.03118
9.012,0.07297
9.016,0.05208
9.02,0.09697
9.024,0.07822
9.028,0.10996
9.032,0.1091
9.036,0.12958
9.04,0.12639
9.044,0.14246
9.048,0.1749
9.052,0.16211
9.056,0.16179
9.06,0.19769
9.064,0.19836
9.068,0.1928
9.072,0.19161
9.076,0.21248
9.08,0.21939
9.084,0.21641
9.088,0.24323
9.092,0.23587
9.096,0.24263
9.1,0.23578
9.104,0.23544
9.108,0.21166
9.112,0.20877
9.116,0.19954
9.12,0.19408
9.124,0.18747
9.128,0.13761
9.132,0.12896
9.136,0.12795
9.14,0.12825
9.144,0.13007
9.148,0.10295
9.152,0.09355
9.156,0.07391
9.16,0.075
9.164,0.06754
9.168,0.05539
9.172,0.03827
9.176,0.01768
9.18,0.02282
9.184,0.01967
9.188,0.01837
9.192,0.02708
9.196,0.01697
9.2,0.02047
9.204,0.02267
9.208,0.00896
9.212,0.00659
9.216,0.02908
9.22,-0.00766
9.224,0.02356
9.228,0.02955
9.232,0.02105
9.236,0.0179
9.24,-0.0078
9.244,-0.00106
9.248,0.01719
9.252,0.00274
9.256,-0.0099
9.26,0.01337
9.264,0.01089
9.268,0.00345
9.272,0.03264
9.276,0.01374
9.28,0.00823
9.284,0.03359
9.288,-0.01372
9.292,-0.01119
9.296,0.00145
9.3,-0.01235
9.304,-0.00738
9.308,0.0111
9.312,-0.00098
9.316,-0.00167
9.32,0.0133
9.324,0.00552
9.328,0.00663
9.332,0.01759
9.336,0.01866
9.34,0.0148
9.344,-0.01705
9.348,0.01579
9.352,0.00593
9.356,-0.0036
9.36,0.00781
9.364,0.00491
9.368,0.01221
9.372,0.00418
9.376,0.04387
9.38,0.00841
9.384,0.00126
9.388,0.0326
9.392,0.02089
9.396,-0.01876
9.4,0.02266
9.404,-0.02421
9.408,0.02817
9.412,0.01161
9.416,0.01093
9.42,0.03093
9.424,0.00781
9.428,0.01523
9.432,0.01189
9.436,0.00265
9.44,0.01644
9.444,0.04951
9.448,0.03511
9.452,0.00389
9.456,0.02247
9.46,-0.00244
9.464,0.04387
9.468,0.006
9.472,0.04393
9.476,0.04295
9.48,0.03077
9.484,0.01017
9.488,0.03184
9.492,0.01613
9.496,0.04018
9.5,0.02963
9.504,0.01657
9.508,0.03059
9.512,0.01398
9.516,0.01401
9.52,0.01978
9.524,0.01704
9.528,0.02469
9.532,0.0156
9.536,0.01391
9.54,0.04675
9.544,0.02854
9.548,0.02265
9.552,0.00421
9.556,0.02809
9.56,0.00848
9.564,0.02388
9.568,0.01734
9.572,0.01358
9.576,-0.00139
9.58,0.02173
9.584,0.00574
9.588,0.00866
9.592,0.00445
9.596,0.01854
9.6,0.00471
9.604,0.02138
9.608,-0.00764
9.612,0.02121
9.616,0.00541
9.62,0.02654
9.624,0.01428
9.628,-0.00299
9.632,-0.00273
9.636,0.04906
9.64,0.01195
9.644,0.03818
9.648,0.03819
9.652,0.05588
9.656,0.07097
9.66,0.0867
9.664,0.09945
9.668,0.10392
9.672,0.12948
9.676,0.11852
9.68,0.11696
9.684,0.06775
9.688,0.09219
9.692,0.07062
9.696,0.09328
9.7,0.08936
9.704,0.04803
9.708,0.04747
9.712,0.05131
9.716,0.05318
9.72,0.01517
9.724,0.03851
9.728,0.01981
9.732,0.01949
9.736,0.01192
9.74,0.01258
9.744,0.01223
9.748,0.01769
9.752,0.0366
9.756,0.00318
9.76,0.01271
9.764,0.01372
9.768,0.03051
9.772,0.01918
9.776,-0.00102
9.78,0.02645
9.784,0.00527
9.788,0.03442
9.792,0.01745
9.796,0.01179
9.8,-0.06058
9.804,-0.09802
9.808,-0.08506
9.812,-0.01208
9.816,0.10375
9.82,0.2673
9.824,0.47639
9.828,0.70232
9.832,0.8887
9.836,1.02087
9.84,0.99894
9.844,0.91662
9.848,0.74674
9.852,0.4916
9.856,0.27269
9.86,0.05769
9.864,-0.0533
9.868,-0.11793
9.872,-0.1434
9.876,-0.14645
9.88,-0.08656
9.884,-0.04798
9.888,-0.00297
9.892,0.00095
9.896,0.02136
9.9,0.00462
9.904,0.01664
9.908,0.03048
9.912,0.01593
9.916,0.03348
9.92,0.05013
9.924,0.02305
9.928,0.0441
9.932,0.03294
9.936,0.0404
9.94,0.01946
9.944,0.01381
9.948,0.04404
9.952,0.03659
9.956,0.04966
9.96,0.0314
9.964,0.04342
9.968,0.03738
9.972,0.02942
9.976,0.01025
9.98,0.03419
9.984,0.03357
9.988,0.03052
9.992,0.03624
9.996,0.02952
