t_seg,ecg_mV
0.0,-0.03559
0.004,-0.04379
0.008,-0.01701
0.012,-0.02566
0.016,-0.05849
0.02,-0.03927
0.024,-0.03152
0.028,-0.03692
0.032,-0.01672
0.036,-0.04621
0.04,-0.02458
0.044,-0.03039
0.048,-0.03808
0.052,-0.03597
0.056,-0.00526
0.06,-0.00988
0.064,-0.02591
0.068,-0.04719
0.072,-0.03404
0.076,-0.0418
0.08,-0.02055
0.084,-0.0236
0.088,-0.01918
0.092,-0.02177
0.096,-0.02306
0.1,-0.03103
0.104,-0.05066
0.108,-0.0588
0.112,-0.04842
0.116,-0.03143
0.12,-0.03999
0.124,-0.02049
0.128,-0.03921
0.132,-0.03095
0.136,-0.02005
0.14,-0.02213
0.144,-0.04796
0.148,-0.02878
0.152,-0.0311
0.156,-0.01116
0.16,-0.02086
0.164,-0.04123
0.168,-0.01225
0.172,-0.04148
0.176,-0.03201
0.18,-0.04961
0.184,-0.04157
0.188,-0.05803
0.192,-0.00361
0.196,-0.04164
0.2,-0.00815
0.204,-0.05244
0.208,-0.05098
0.212,-0.02688
0.216,-0.01643
0.22,-0.01827
0.224,-0.01388
0.228,-0.02581
0.232,-0.02568
0.236,-0.02546
0.24,-0.01683
0.244,-0.04007
0.248,-0.01275
0.252,-0.04376
0.256,-0.02443
0.26,-0.04064
0.264,-0.042
0.268,-0.00809
0.272,-0.02507
0.276,-0.01715
0.28,-0.0385
0.284,-0.07354
0.288,-0.01362
0.292,-0.02638
0.296,-0.0506
0.3,-0.01064
0.304,-0.00347
0.308,0.00779
0.312,-0.0013
0.316,-0.00877
0.32,0.02342
0.324,0.04688
0.328,0.06742
0.332,0.05792
0.336,0.07187
0.34,0.06753
0.344,0.08776
0.348,0.08664
0.352,0.04949
0.356,0.07009
0.36,0.04399
0.364,0.01523
0.368,0.03724
0.372,0.00067
0.376,-0.03335
0.38,-0.01843
0.384,-0.06009
0.388,-0.00731
0.392,-0.01961
0.396,-0.02745
0.4,-0.01777
0.404,-0.03121
0.408,-0.04563
0.412,-0.02467
0.416,-0.03331
0.42,-0.00539
0.424,-0.00375
0.428,-0.01414
0.432,-0.01923
0.436,-0.03764
0.44,-0.06499
0.444,-0.04757
0.448,-0.02414
0.452,-0.01969
0.456,-0.03789
0.46,-0.07794
0.464,-0.13692
0.468,-0.17083
0.472,-0.16695
0.476,-0.07182
0.48,0.08676
0.484,0.22858
0.488,0.43824
0.492,0.65409
0.496,0.85157
0.5,0.94974
0.504,0.97668
0.508,0.84787
0.512,0.65581
0.516,0.41547
0.52,0.22046
0.524,0.04279
0.528,-0.12485
0.532,-0.19595
0.536,-0.18273
0.54,-0.18725
0.544,-0.13484
0.548,-0.05889
0.552,-0.0624
0.556,-0.07524
0.56,-0.03201
0.564,-0.01196
0.568,-0.02312
0.572,-0.05371
0.576,-0.05118
0.58,-0.00232
0.584,-0.02727
0.588,-0.01954
0.592,-0.04002
0.596,-0.01628
0.6,-0.0563
0.604,0.00425
0.608,-0.03557
0.612,-0.04302
0.616,-0.016
0.62,-0.03423
0.624,-0.0235
0.628,-0.01847
0.632,-0.02759
0.636,-0.00758
0.64,-0.04016
0.644,-0.0317
0.648,-0.02831
0.652,-0.01859
0.656,-0.01335
0.66,-0.04501
0.664,-0.01265
0.668,-0.03293
0.672,-0.02223
0.676,-0.01972
0.68,-0.01135
0.684,0.0001
0.688,-0.01573
0.692,-0.01317
0.696,0.01753
0.7,0.00126
0.704,0.02238
0.708,0.0439
0.712,0.03789
0.716,0.04288
0.72,0.07597
0.724,0.07306
0.728,0.06526
0.732,0.11685
0.736,0.09434
0.74,0.10993
0.744,0.10122
0.748,0.15991
0.752,0.145
0.756,0.17446
0.76,0.18521
0.764,0.16038
0.768,0.17686
0.772,0.1984
0.776,0.19829
0.78,0.18662
0.784,0.17844
0.788,0.19987
0.792,0.17828
0.796,0.20364
0.8,0.14026
0.804,0.17123
0.808,0.15025
0.812,0.13533
0.816,0.14494
0.82,0.12151
0.824,0.11737
0.828,0.12584
0.832,0.09175
0.836,0.0641
0.84,0.0879
0.844,0.06747
0.848,0.04965
0.852,0.03527
0.856,0.03979
0.86,0.03959
0.864,0.00516
0.868,-0.00242
0.872,-0.01795
0.876,0.00192
0.88,-0.00762
0.884,0.01029
0.888,0.00226
0.892,-0.00043
0.896,-0.01489
0.9,-0.03357
0.904,0.00838
0.908,-0.01026
0.912,0.0001
0.916,0.01402
0.92,0.03053
0.924,0.03817
0.928,0.06508
0.932,0.08852
0.936,0.0848
0.94,0.05949
0.944,0.06822
0.948,0.05391
0.952,0.04114
0.956,0.05264
0.96,0.04372
0.964,0.03464
0.968,0.05038
0.972,0.04573
0.976,-0.00977
0.98,-0.03732
0.984,0.00284
0.988,-0.03692
0.992,-0.02266
0.996,-0.01767
1.0,-0.02518
1.004,-0.01974
1.008,-0.03109
1.012,-0.03542
1.016,-0.05109
1.02,0.00103
1.024,-0.01644
1.028,-0.01792
1.032,-0.00083
1.036,-0.02739
1.04,-0.03321
1.044,-0.02103
1.048,-0.03476
1.052,-0.03417
1.056,-0.06442
1.06,-0.08471
1.064,-0.10782
1.068,-0.13567
1.072,-0.15515
1.076,-0.05955
1.08,0.01379
1.084,0.24041
1.088,0.40032
1.092,0.62564
1.096,0.80765
1.1,0.97172
1.104,0.985
1.108,0.87442
1.112,0.71414
1.116,0.45955
1.12,0.24631
1.124,0.05375
1.128,-0.07411
1.132,-0.18636
1.136,-0.18441
1.14,-0.14774
1.144,-0.11473
1.148,-0.07529
1.152,-0.04503
1.156,-0.04291
1.16,-0.04837
1.164,-0.00718
1.168,-0.00701
1.172,-0.03297
1.176,-0.04296
1.18,-0.03537
1.184,-0.04374
1.188,-0.03158
1.192,-0.04229
1.196,-0.02108
1.2,-0.00986
1.204,-0.00581
1.208,-0.01388
1.212,-0.01163
1.216,-0.02906
1.22,-0.04037
1.224,-0.02537
1.228,-0.02868
1.232,-0.00402
1.236,-0.03526
1.24,0.01134
1.244,-0.0273
1.248,-0.04877
1.252,-0.01786
1.256,-0.01434
1.26,-0.01777
1.264,-0.03037
1.268,-0.00861
1.272,0.02438
1.276,-0.00783
1.28,0.01203
1.284,0.01027
1.288,0.02251
1.292,0.01276
1.296,0.00633
1.3,0.02073
1.304,0.0263
1.308,0.0455
1.312,0.04328
1.316,0.0314
1.32,0.0784
1.324,0.08437
1.328,0.07067
1.332,0.10109
1.336,0.13515
1.34,0.11108
1.344,0.13728
1.348,0.16261
1.352,0.15619
1.356,0.17505
1.36,0.18698
1.364,0.18736
1.368,0.21286
1.372,0.20095
1.376,0.20374
1.38,0.2023
1.384,0.19056
1.388,0.22261
1.392,0.18012
1.396,0.19151
1.4,0.16629
1.404,0.1667
1.408,0.15651
1.412,0.18263
1.416,0.15149
1.42,0.11517
1.424,0.1323
1.428,0.12501
1.432,0.09998
1.436,0.08359
1.44,0.10488
1.444,0.05043
1.448,0.06208
1.452,0.06218
1.456,0.03694
1.46,0.04105
1.464,0.01109
1.468,0.01249
1.472,-0.00892
1.476,0.00378
1.48,-0.01733
1.484,0.00534
1.488,0.0054
1.492,0.0232
1.496,-0.01224
1.5,-0.01371
1.504,-0.00877
1.508,-0.01254
1.512,-0.01119
1.516,-0.01784
1.52,-0.01295
1.524,-0.03192
1.528,-0.0267
1.532,-0.02689
1.536,-0.0171
1.54,0.01404
1.544,-0.00126
1.548,-0.0089
1.552,0.01728
1.556,0.00272
1.56,-0.033
1.564,-0.02057
1.568,-0.01795
1.572,-0.0303
1.576,-0.02726
1.58,-0.0105
1.584,-0.01078
1.588,-0.03836
1.592,-0.00204
1.596,-0.04267
1.6,-0.00447
1.604,-0.03601
1.608,-0.03119
1.612,0.00085
1.616,-0.01564
1.62,-0.01756
1.624,0.00454
1.628,-0.01497
1.632,-0.00772
1.636,-0.01578
1.64,0.05043
1.644,0.00996
1.648,-0.04667
1.652,0.00625
1.656,-0.00578
1.66,-0.00886
1.664,-0.05312
1.668,-0.00085
1.672,-0.02426
1.676,0.01463
1.68,-0.01678
1.684,-0.02951
1.688,0.00594
1.692,0.02179
1.696,0.00619
1.7,0.04579
1.704,0.04252
1.708,0.03796
1.712,0.04191
1.716,0.0481
1.72,0.05857
1.724,0.09946
1.728,0.08567
1.732,0.09829
1.736,0.08832
1.74,0.07973
1.744,0.06201
1.748,0.03382
1.752,0.05635
1.756,0.02311
1.76,0.00591
1.764,0.02629
1.768,-0.02079
1.772,0.00221
1.776,-0.01247
1.78,0.00759
1.784,0.01756
1.788,-0.01772
1.792,0.00625
1.796,-0.01469
1.8,0.0276
1.804,-0.01888
1.808,0.0154
1.812,-0.02218
1.816,0.00065
1.82,-0.01683
1.824,0.01352
1.828,-0.00132
1.832,-0.01232
1.836,-3e-05
1.84,-0.01275
1.844,-0.03993
1.848,-0.05179
1.852,-0.09656
1.856,-0.0993
1.86,-0.11546
1.864,-0.04426
1.868,0.0958
1.872,0.25107
1.876,0.51332
1.88,0.72324
1.884,0.892
1.888,0.96166
1.892,0.98615
1.896,0.83714
1.9,0.65997
1.904,0.40811
1.908,0.20963
1.912,-0.01071
1.916,-0.10286
1.92,-0.14763
1.924,-0.194
1.928,-0.15332
1.932,-0.08469
1.936,-0.08358
1.94,-0.02805
1.944,-0.02647
1.948,-0.02323
1.952,0.00707
1.956,-0.00453
1.96,-0.00598
1.964,0.0139
1.968,0.02247
1.972,-0.00241
1.976,-0.00601
1.98,-0.00851
1.984,-0.02211
1.988,-0.0199
1.992,0.01019
1.996,0.01276
2.0,0.01406
2.004,0.0082
2.008,-0.01619
2.012,0.00759
2.016,0.02349
2.02,0.00263
2.024,0.00569
2.028,-0.00632
2.032,-0.03827
2.036,0.02476
2.04,-0.00477
2.044,0.0094
2.048,0.01079
2.052,0.01121
2.056,0.0206
2.06,0.00589
2.064,-0.00413
2.068,0.0373
2.072,0.01308
2.076,0.03131
2.08,0.04701
2.084,0.02739
2.088,0.03693
2.092,0.04419
2.096,0.0563
2.1,0.06678
2.104,0.09023
2.108,0.07842
2.112,0.10621
2.116,0.09945
2.12,0.11306
2.124,0.15623
2.128,0.15165
2.132,0.13214
2.136,0.17079
2.14,0.19097
2.144,0.17436
2.148,0.19342
2.152,0.19907
2.156,0.21419
2.16,0.21683
2.164,0.23504
2.168,0.22507
2.172,0.22082
2.176,0.25914
2.18,0.21407
2.184,0.20177
2.188,0.21741
2.192,0.18886
2.196,0.19336
2.2,0.169
2.204,0.1846
2.208,0.16146
2.212,0.15555
2.216,0.14599
2.22,0.09093
2.224,0.10945
2.228,0.12508
2.232,0.11337
2.236,0.06705
2.24,0.08754
2.244,0.04979
2.248,0.07354
2.252,0.05284
2.256,0.03122
2.26,0.01343
2.264,0.01375
2.268,0.03614
2.272,0.03209
2.276,0.0222
2.28,0.01149
2.284,0.03306
2.288,0.0226
2.292,0.01883
2.296,0.01701
2.3,0.01579
2.304,0.04692
2.308,0.0255
2.312,0.03751
2.316,0.04528
2.32,0.09472
2.324,0.07325
2.328,0.07845
2.332,0.09706
2.336,0.09233
2.34,0.09935
2.344,0.12348
2.348,0.12456
2.352,0.09971
2.356,0.08135
2.36,0.07052
2.364,0.08309
2.368,0.04231
2.372,0.04552
2.376,0.04026
2.38,0.03928
2.384,0.01038
2.388,0.02874
2.392,0.01218
2.396,-0.01734
2.4,0.01264
2.404,0.03001
2.408,0.01423
2.412,0.02942
2.416,0.00406
2.42,0.0382
2.424,0.03402
2.428,0.01283
2.432,0.02718
2.436,-0.00021
2.44,0.00323
2.444,0.01398
2.448,-0.0019
2.452,0.03202
2.456,0.01341
2.46,-0.03352
2.464,-0.09363
2.468,-0.08915
2.472,-0.06873
2.476,-0.00582
2.48,0.14975
2.484,0.3199
2.488,0.56151
2.492,0.74918
2.496,0.93957
2.5,1.02376
2.504,0.99606
2.508,0.82807
2.512,0.66351
2.516,0.42203
2.52,0.18625
2.524,0.02641
2.528,-0.09972
2.532,-0.12378
2.536,-0.12687
2.54,-0.12473
2.544,-0.09235
2.548,-0.04701
2.552,-0.00076
2.556,0.00453
2.56,-0.00187
2.564,0.04584
2.568,0.02298
2.572,0.00869
2.576,0.00972
2.58,0.01791
2.584,0.0132
2.588,0.00238
2.592,0.01878
2.596,-0.00433
2.6,0.01559
2.604,0.00782
2.608,-0.01089
2.612,0.0147
2.616,0.02528
2.62,0.02449
2.624,0.02132
2.628,0.00654
2.632,0.01792
2.636,0.0305
2.64,0.03072
2.644,0.01267
2.648,0.01998
2.652,0.03355
2.656,0.02339
2.66,-0.01416
2.664,0.01837
2.668,-0.00025
2.672,0.00653
2.676,0.01317
2.68,0.05934
2.684,0.04464
2.688,0.03349
2.692,0.00919
2.696,0.03006
2.7,0.07144
2.704,0.06273
2.708,0.08801
2.712,0.10019
2.716,0.10161
2.72,0.09151
2.724,0.10253
2.728,0.1178
2.732,0.14095
2.736,0.15646
2.74,0.15192
2.744,0.18013
2.748,0.20208
2.752,0.16654
2.756,0.19875
2.76,0.19347
2.764,0.22965
2.768,0.25706
2.772,0.21538
2.776,0.22731
2.78,0.24833
2.784,0.22585
2.788,0.24652
2.792,0.24007
2.796,0.20726
2.8,0.21968
2.804,0.18919
2.808,0.21838
2.812,0.20837
2.816,0.18236
2.82,0.16404
2.824,0.1416
2.828,0.12983
2.832,0.11477
2.836,0.12255
2.84,0.10076
2.844,0.12699
2.848,0.09315
2.852,0.07996
2.856,0.04782
2.86,0.07308
2.864,0.07107
2.868,0.04135
2.872,0.03499
2.876,0.04439
2.88,0.03526
2.884,0.01025
2.888,0.03273
2.892,0.05919
2.896,0.01283
2.9,0.02343
2.904,0.03809
2.908,0.01253
2.912,0.01916
2.916,0.00847
2.92,0.02191
2.924,0.042
2.928,0.04589
2.932,0.02068
2.936,0.00928
2.94,0.01394
2.944,0.0314
2.948,0.01862
2.952,0.02917
2.956,0.01748
2.96,0.03837
2.964,0.0354
2.968,0.0317
2.972,0.00817
2.976,0.02671
2.98,-0.0041
2.984,0.03252
2.988,0.02112
2.992,0.04657
2.996,0.01423
3.0,0.01658
3.004,0.06032
3.008,0.01593
3.012,0.03349
3.016,0.0266
3.02,0.01828
3.024,0.0187
3.028,0.00307
3.032,-0.02447
3.036,0.00737
3.04,0.0243
3.044,0.03365
3.048,0.00946
3.052,0.02119
3.056,0.01795
3.06,0.05289
3.064,0.01895
3.068,0.03819
3.072,0.01742
3.076,0.02891
3.08,0.04358
3.084,0.0228
3.088,0.01694
3.092,-0.00595
3.096,0.03802
3.1,0.00791
3.104,0.0245
3.108,0.01858
3.112,0.04446
3.116,0.01989
3.12,0.02858
3.124,0.03187
3.128,0.04653
3.132,0.04339
3.136,0.0553
3.14,0.03828
3.144,0.08366
3.148,0.0766
3.152,0.06922
3.156,0.12783
3.16,0.1043
3.164,0.1213
3.168,0.12126
3.172,0.12197
3.176,0.14007
3.18,0.09838
3.184,0.08974
3.188,0.09423
3.192,0.06681
3.196,0.05472
3.2,0.06432
3.204,0.04846
3.208,0.04121
3.212,0.01352
3.216,0.05446
3.22,0.03928
3.224,0.02566
3.228,0.05261
3.232,0.01207
3.236,0.04539
3.24,0.036
3.244,0.03491
3.248,0.03094
3.252,0.01947
3.256,0.01012
3.26,0.04392
3.264,0.04888
3.268,0.01341
3.272,0.00674
3.276,0.02945
3.28,0.02007
3.284,0.01094
3.288,-0.02398
3.292,-0.06681
3.296,-0.08541
3.3,-0.05779
3.304,0.07895
3.308,0.2146
3.312,0.42605
3.316,0.63779
3.32,0.82643
3.324,0.98693
3.328,0.98919
3.332,0.94598
3.336,0.78342
3.34,0.55515
3.344,0.36388
3.348,0.14947
3.352,-0.00587
3.356,-0.14163
3.36,-0.10753
3.364,-0.11842
3.368,-0.08917
3.372,-0.03148
3.376,-0.00075
3.38,0.00856
3.384,0.02689
3.388,0.02186
3.392,0.02243
3.396,0.04777
3.4,0.03929
3.404,0.0153
3.408,0.03177
3.412,0.02754
3.416,0.02107
3.42,0.02938
3.424,0.03259
3.428,0.01195
3.432,0.02708
3.436,0.00868
3.44,0.05926
3.444,0.0469
3.448,0.01063
3.452,0.01804
3.456,0.02413
3.46,0.02626
3.464,0.03218
3.468,0.00772
3.472,0.00218
3.476,0.0124
3.48,0.02331
3.484,0.01282
3.488,0.05522
3.492,0.04324
3.496,0.0545
3.5,0.04625
3.504,0.02727
3.508,0.06251
3.512,0.02951
3.516,0.07721
3.52,0.05034
3.524,0.06004
3.528,0.06103
3.532,0.09441
3.536,0.07231
3.54,0.11057
3.544,0.08755
3.548,0.11415
3.552,0.15775
3.556,0.12288
3.56,0.15578
3.564,0.14597
3.568,0.18928
3.572,0.16063
3.576,0.20108
3.58,0.20298
3.584,0.22055
3.588,0.23835
3.592,0.22191
3.596,0.22671
3.6,0.23749
3.604,0.22694
3.608,0.23536
3.612,0.24728
3.616,0.2442
3.62,0.26308
3.624,0.2174
3.628,0.23895
3.632,0.24206
3.636,0.21033
3.64,0.20558
3.644,0.1938
3.648,0.18452
3.652,0.15846
3.656,0.16397
3.66,0.14385
3.664,0.15055
3.668,0.12096
3.672,0.14416
3.676,0.12698
3.68,0.08549
3.684,0.0651
3.688,0.08488
3.692,0.0721
3.696,0.077
3.7,0.02803
3.704,0.02859
3.708,0.0387
3.712,0.0728
3.716,0.05065
3.72,0.04435
3.724,0.04684
3.728,0.07967
3.732,0.07455
3.736,0.09628
3.74,0.11095
3.744,0.10354
3.748,0.10076
3.752,0.12728
3.756,0.13438
3.76,0.10698
3.764,0.12077
3.768,0.13171
3.772,0.13224
3.776,0.08217
3.78,0.08503
3.784,0.05551
3.788,0.06426
3.792,0.04266
3.796,0.04156
3.8,0.05625
3.804,0.0483
3.808,0.03579
3.812,0.03856
3.816,0.0289
3.82,0.01978
3.824,0.04709
3.828,0.02797
3.832,0.02059
3.836,0.01435
3.84,0.00577
3.844,-0.00748
3.848,0.04225
3.852,0.00067
3.856,0.02496
3.86,0.04064
3.864,0.03449
3.868,0.00943
3.872,0.04151
3.876,0.00733
3.88,-0.01731
3.884,-0.07233
3.888,-0.10464
3.892,-0.04087
3.896,0.08612
3.9,0.2649
3.904,0.462
3.908,0.65856
3.912,0.86937
3.916,1.00817
3.92,1.01828
3.924,0.93696
3.928,0.78113
3.932,0.55541
3.936,0.28771
3.94,0.13967
3.944,0.00369
3.948,-0.09961
3.952,-0.15001
3.956,-0.11598
3.96,-0.06717
3.964,-0.06771
3.968,0.01232
3.972,0.02561
3.976,0.00755
3.98,0.03846
3.984,0.04141
3.988,0.03671
3.992,0.03366
3.996,0.03293
4.0,0.02145
4.004,0.03019
4.008,0.04326
4.012,0.03789
4.016,0.03266
4.02,0.019
4.024,0.0212
4.028,0.03432
4.032,0.03793
4.036,0.04713
4.04,0.02977
4.044,0.04379
4.048,0.04365
4.052,0.04651
4.056,0.04225
4.06,0.04849
4.064,0.04369
4.068,0.04903
4.072,0.03509
4.076,0.02487
4.08,0.02714
4.084,0.02358
4.088,0.04072
4.092,0.04192
4.096,0.04403
4.1,0.02667
4.104,0.06248
4.108,0.06121
4.112,0.05164
4.116,0.0891
4.12,0.07911
4.124,0.08203
4.128,0.05856
4.132,0.09516
4.136,0.12787
4.14,0.13481
4.144,0.12701
4.148,0.12056
4.152,0.12965
4.156,0.18077
4.16,0.19577
4.164,0.16187
4.168,0.18631
4.172,0.22235
4.176,0.21472
4.18,0.21995
4.184,0.2304
4.188,0.26589
4.192,0.26473
4.196,0.25217
4.2,0.25011
4.204,0.21395
4.208,0.23386
4.212,0.23193
4.216,0.23103
4.22,0.24309
4.224,0.20323
4.228,0.22709
4.232,0.20377
4.236,0.16046
4.24,0.15874
4.244,0.17839
4.248,0.1351
4.252,0.14197
4.256,0.13142
4.26,0.10975
4.264,0.12453
4.268,0.10353
4.272,0.09562
4.276,0.10045
4.28,0.10867
4.284,0.11835
4.288,0.09335
4.292,0.14939
4.296,0.17027
4.3,0.15933
4.304,0.13706
4.308,0.12461
4.312,0.13816
4.316,0.13889
4.32,0.1014
4.324,0.08585
4.328,0.10813
4.332,0.07485
4.336,0.06055
4.34,0.05472
4.344,0.04442
4.348,0.03215
4.352,0.02315
4.356,0.0408
4.36,0.0283
4.364,0.03378
4.368,0.01814
4.372,0.01558
4.376,0.04476
4.38,0.03443
4.384,0.01492
4.388,0.05191
4.392,0.03447
4.396,0.00103
4.4,0.01213
4.404,0.01341
4.408,0.0126
4.412,0.01635
4.416,0.0054
4.42,-0.02196
4.424,-0.01941
4.428,-0.05036
4.432,-0.09809
4.436,-0.07719
4.44,-0.05475
4.444,-0.00246
4.448,0.14579
4.452,0.36389
4.456,0.58353
4.46,0.78484
4.464,0.9207
4.468,1.00511
4.472,0.97686
4.476,0.85978
4.48,0.64421
4.484,0.42417
4.488,0.17769
4.492,0.02339
4.496,-0.0774
4.5,-0.12477
4.504,-0.14142
4.508,-0.12396
4.512,-0.04696
4.516,-0.05061
4.52,0.02074
4.524,0.0214
4.528,0.00648
4.532,0.00337
4.536,0.02818
4.54,0.01459
4.544,0.02048
4.548,0.02083
4.552,0.02932
4.556,0.03235
4.56,0.04381
4.564,0.03077
4.568,-0.00543
4.572,0.03695
4.576,0.01867
4.58,0.01106
4.584,0.01219
4.588,0.0287
4.592,0.03541
4.596,0.04425
4.6,0.01522
4.604,0.02056
4.608,0.02212
4.612,0.02832
4.616,-0.00021
4.62,0.01794
4.624,0.04409
4.628,0.01946
4.632,0.02798
4.636,0.03376
4.64,0.01749
4.644,0.05103
4.648,0.03096
4.652,0.04257
4.656,0.05085
4.66,0.05812
4.664,0.05344
4.668,0.09281
4.672,0.06767
4.676,0.06944
4.68,0.06904
4.684,0.07006
4.688,0.11728
4.692,0.11487
4.696,0.1332
4.7,0.12588
4.704,0.17971
4.708,0.15862
4.712,0.1726
4.716,0.15594
4.72,0.19978
4.724,0.24823
4.728,0.20353
4.732,0.19923
4.736,0.21571
4.74,0.22874
4.744,0.23981
4.748,0.24944
4.752,0.26287
4.756,0.24376
4.76,0.24094
4.764,0.20787
4.768,0.21635
4.772,0.22705
4.776,0.24044
4.78,0.21016
4.784,0.18941
4.788,0.14152
4.792,0.14677
4.796,0.12505
4.8,0.13751
4.804,0.14384
4.808,0.11773
4.812,0.09274
4.816,0.08942
4.82,0.09355
4.824,0.04956
4.828,0.06838
4.832,0.06972
4.836,0.01907
4.84,0.02466
4.844,0.04516
4.848,0.04392
4.852,0.02142
4.856,0.04374
4.86,0.03725
4.864,0.02591
4.868,0.03142
4.872,0.02228
4.876,0.01184
4.88,0.00928
4.884,0.01666
4.888,0.01501
4.892,0.04265
4.896,-0.01085
4.9,0.03318
4.904,0.00322
4.908,0.01657
4.912,0.0122
4.916,-0.00124
4.92,0.01112
4.924,-0.01066
4.928,0.02964
4.932,0.01161
4.936,0.00149
4.94,-0.00657
4.944,-0.00974
4.948,-0.00689
4.952,0.01137
4.956,0.02469
4.96,0.01047
4.964,0.01334
4.968,0.01117
4.972,-0.00915
4.976,0.01856
4.98,0.0236
4.984,0.01337
4.988,0.01558
4.992,0.01134
4.996,0.03615
5.0,0.00358
5.004,0.06435
5.008,0.04758
5.012,0.03178
5.016,0.06571
5.02,0.04583
5.024,0.05693
5.028,0.09944
5.032,0.10555
5.036,0.11988
5.04,0.13674
5.044,0.1266
5.048,0.11554
5.052,0.09796
5.056,0.08757
5.06,0.06246
5.064,0.03657
5.068,0.03738
5.072,0.01063
5.076,0.05954
5.08,0.02917
5.084,0.00838
5.088,0.04319
5.092,-0.00328
5.096,-0.00049
5.1,0.00803
5.104,0.0067
5.108,-0.00256
5.112,-0.03189
5.116,0.02147
5.12,0.00472
5.124,-0.00593
5.128,0.0017
5.132,-0.00964
5.136,-0.0027
5.14,-0.00206
5.144,0.01372
5.148,0.04958
5.152,0.0002
5.156,0.00205
5.16,-0.02875
5.164,-0.0901
5.168,-0.11797
5.172,-0.10016
5.176,-0.00592
5.18,0.13093
5.184,0.3077
5.188,0.51876
5.192,0.74467
5.196,0.91348
5.2,0.98609
5.204,0.96703
5.208,0.87473
5.212,0.63422
5.216,0.42731
5.22,0.19663
5.224,0.03874
5.228,-0.11233
5.232,-0.12708
5.236,-0.13904
5.24,-0.11415
5.244,-0.07787
5.248,-0.03815
5.252,-0.02639
5.256,-0.00498
5.26,0.01285
5.264,-0.00539
5.268,0.01305
5.272,-0.00013
5.276,-0.01084
5.28,0.03121
5.284,0.006
5.288,0.01045
5.292,0.02269
5.296,0.02239
5.3,-0.00947
5.304,-0.02004
5.308,0.00038
5.312,-0.00562
5.316,0.00801
5.32,-0.00367
5.324,0.00448
5.328,-0.0151
5.332,-0.00049
5.336,-0.00893
5.34,0.01892
5.344,0.01614
5.348,0.02035
5.352,0.02248
5.356,0.01029
5.36,0.00621
5.364,0.04444
5.368,0.03834
5.372,0.01577
5.376,0.03926
5.38,0.02309
5.384,0.00483
5.388,0.02321
5.392,0.04579
5.396,0.02372
5.4,0.06951
5.404,0.05385
5.408,0.05578
5.412,0.01984
5.416,0.08264
5.42,0.09403
5.424,0.08838
5.428,0.09907
5.432,0.11574
5.436,0.13564
5.44,0.16705
5.444,0.14569
5.448,0.16731
5.452,0.17312
5.456,0.17221
5.46,0.19606
5.464,0.21266
5.468,0.23138
5.472,0.21754
5.476,0.2318
5.48,0.20834
5.484,0.21312
5.488,0.20481
5.492,0.20081
5.496,0.20087
5.5,0.22072
5.504,0.21132
5.508,0.18515
5.512,0.15237
5.516,0.17167
5.52,0.15217
5.524,0.14432
5.528,0.14566
5.532,0.11117
5.536,0.09813
5.54,0.084
5.544,0.07822
5.548,0.05991
5.552,0.05688
5.556,0.05513
5.56,0.04147
5.564,0.04304
5.568,0.04436
5.572,-0.00274
5.576,0.01639
5.58,0.01318
5.584,0.01231
5.588,0.0115
5.592,0.02009
5.596,0.01625
5.6,-0.01271
5.604,-0.0118
5.608,-0.02007
5.612,0.01397
5.616,0.01017
5.62,0.01143
5.624,0.00797
5.628,-0.00813
5.632,-0.01186
5.636,-0.0088
5.64,0.00586
5.644,-0.01285
5.648,0.00024
5.652,-0.00139
5.656,0.00497
5.66,-0.00851
5.664,-0.01369
5.668,0.00445
5.672,0.02229
5.676,0.01296
5.68,0.05289
5.684,0.05277
5.688,0.05432
5.692,0.05131
5.696,0.05494
5.7,0.09844
5.704,0.0837
5.708,0.08558
5.712,0.08649
5.716,0.09157
5.72,0.06443
5.724,0.09011
5.728,0.0598
5.732,0.0358
5.736,0.00844
5.74,0.00475
5.744,0.04532
5.748,0.01196
5.752,-0.0012
5.756,-0.00158
5.76,0.02664
5.764,0.00143
5.768,-0.02183
5.772,0.02866
5.776,0.01206
5.78,-0.01343
5.784,-0.0493
5.788,-0.00884
5.792,-0.02472
5.796,0.00305
5.8,0.01814
5.804,-0.00088
5.808,-0.0266
5.812,-0.04601
5.816,-0.01643
5.82,-0.0261
5.824,-0.0551
5.828,-0.09893
5.832,-0.12391
5.836,-0.13961
5.84,-0.0656
5.844,0.0208
5.848,0.19847
5.852,0.40544
5.856,0.61951
5.86,0.81486
5.864,0.94103
5.868,0.9787
5.872,0.9025
5.876,0.72331
5.88,0.52104
5.884,0.28986
5.888,0.06949
5.892,-0.07394
5.896,-0.13931
5.9,-0.19886
5.904,-0.15315
5.908,-0.11083
5.912,-0.06451
5.916,-0.0456
5.92,-0.03471
5.924,-0.01511
5.928,0.00715
5.932,-0.01588
5.936,0.00254
5.94,-0.00216
5.944,-0.02393
5.948,-0.02075
5.952,-0.02272
5.956,0.01055
5.96,-0.01628
5.964,-0.00556
5.968,-0.02377
5.972,-0.00348
5.976,-0.00322
5.98,-0.00997
5.984,-0.02835
5.988,-0.00599
5.992,-0.01069
5.996,-0.00287
6.0,-0.00823
6.004,-0.01461
6.008,-0.00142
6.012,-0.00162
6.016,-0.00806
6.02,0.00113
6.024,-0.02455
6.028,-0.0321
6.032,0.01844
6.036,-0.02874
6.04,-0.01039
6.044,-0.03383
6.048,-0.00809
6.052,0.01286
6.056,0.02945
6.06,0.03388
6.064,0.02325
6.068,0.04858
6.072,0.01731
6.076,0.04318
6.08,0.04377
6.084,0.07209
6.088,0.08185
6.092,0.04864
6.096,0.10364
6.1,0.1063
6.104,0.12659
6.108,0.10246
6.112,0.14372
6.116,0.18235
6.12,0.16989
6.124,0.17616
6.128,0.18596
6.132,0.19241
6.136,0.20776
6.14,0.18478
6.144,0.188
6.148,0.20198
6.152,0.19609
6.156,0.21766
6.16,0.16337
6.164,0.19303
6.168,0.17043
6.172,0.16004
6.176,0.1581
6.18,0.18242
6.184,0.15323
6.188,0.15078
6.192,0.1444
6.196,0.10382
6.2,0.09021
6.204,0.07166
6.208,0.05593
6.212,0.02469
6.216,0.03636
6.22,0.05
6.224,0.06315
6.228,0.05224
6.232,0.02172
6.236,0.00144
6.24,-0.00085
6.244,-0.016
6.248,0.00023
6.252,0.00291
6.256,0.00779
6.26,0.01395
6.264,0.02195
6.268,0.04215
6.272,0.02417
6.276,0.07458
6.28,0.06539
6.284,0.06303
6.288,0.06906
6.292,0.08761
6.296,0.05357
6.3,0.07088
6.304,0.09
6.308,0.05945
6.312,0.05599
6.316,0.06007
6.32,0.00366
6.324,-0.01068
6.328,0.01993
6.332,-0.00779
6.336,-0.02818
6.34,-0.01258
6.344,-0.0275
6.348,-0.00497
6.352,-0.02449
6.356,-0.01738
6.36,-0.03709
6.364,-0.0134
6.368,-0.01932
6.372,0.01001
6.376,-0.02025
6.38,0.00114
6.384,-0.02598
6.388,-0.00692
6.392,-0.01982
6.396,0.00472
6.4,-0.00682
6.404,-0.03323
6.408,-0.06106
6.412,-0.08005
6.416,-0.11039
6.42,-0.13304
6.424,-0.10244
6.428,-0.03078
6.432,0.09278
6.436,0.30178
6.44,0.50988
6.444,0.72067
6.448,0.85941
6.452,0.96562
6.456,0.93366
6.46,0.81113
6.464,0.61432
6.468,0.36679
6.472,0.15286
6.476,-0.00713
6.48,-0.13878
6.484,-0.17392
6.488,-0.17805
6.492,-0.12306
6.496,-0.11545
6.5,-0.08427
6.504,-0.07749
6.508,-0.0289
6.512,-0.01407
6.516,-0.03227
6.52,-0.01477
6.524,-0.0026
6.528,-0.03312
6.532,-0.0162
6.536,-0.02691
6.54,-0.00861
6.544,-0.03187
6.548,-0.02189
6.552,-0.03925
6.556,-0.02201
6.56,-0.03213
6.564,-0.00018
6.568,-0.04948
6.572,-0.05164
6.576,-0.01706
6.58,-0.02852
6.584,-0.02735
6.588,-0.03509
6.592,-0.02596
6.596,-0.02157
6.6,-0.00541
6.604,-0.02052
6.608,-0.0302
6.612,-0.03237
6.616,-0.00468
6.62,-0.05458
6.624,-0.02772
6.628,-0.01149
6.632,-0.02206
6.636,0.00396
6.64,-0.0276
6.644,0.03147
6.648,0.0199
6.652,0.04494
6.656,0.01934
6.66,0.00309
6.664,0.08148
6.668,0.07025
6.672,0.04295
6.676,0.07818
6.68,0.08789
6.684,0.09954
6.688,0.11882
6.692,0.11683
6.696,0.13547
6.7,0.15238
6.704,0.15044
6.708,0.16882
6.712,0.16355
6.716,0.15837
6.72,0.18406
6.724,0.1739
6.728,0.17279
6.732,0.19744
6.736,0.1869
6.74,0.1873
6.744,0.19056
6.748,0.18399
6.752,0.17979
6.756,0.16998
6.76,0.14551
6.764,0.13388
6.768,0.14359
6.772,0.10072
6.776,0.09017
6.78,0.08443
6.784,0.0953
6.788,0.08195
6.792,0.06028
6.796,0.05029
6.8,0.03825
6.804,0.03447
6.808,0.03211
6.812,0.00478
6.816,0.0023
6.82,0.02368
6.824,-0.00249
6.828,-0.01357
6.832,7e-05
6.836,0.00941
6.84,0.00617
6.844,0.00396
6.848,-0.04185
6.852,-0.01822
6.856,-0.01309
6.86,-0.01811
6.864,-0.01001
6.868,-0.05058
6.872,-0.00829
6.876,-0.02528
6.88,-0.03343
6.884,-0.0192
6.888,-0.06072
6.892,-0.03126
6.896,-0.03917
6.9,-0.03024
6.904,-0.05036
6.908,-0.01457
6.912,-0.03477
6.916,-0.01499
6.92,-0.03638
6.924,-0.01321
6.928,-0.02309
6.932,-0.00494
6.936,0.00527
6.94,0.02349
6.944,0.04009
6.948,0.04845
6.952,0.04374
6.956,0.05619
6.96,0.05457
6.964,0.08913
6.968,0.07511
6.972,0.06728
6.976,0.05623
6.98,0.0397
6.984,0.02059
6.988,0.0191
6.992,0.0101
6.996,0.03812
7.0,-0.01379
7.004,-0.02374
7.008,-0.03769
7.012,-0.01531
7.016,-0.01736
7.02,-0.01398
7.024,-0.05332
7.028,-0.02816
7.032,-0.02509
7.036,-0.05197
7.04,-0.02341
7.044,-0.02908
7.048,-0.02277
7.052,-0.04639
7.056,-0.03948
7.06,-0.04814
7.064,-0.04349
7.068,-0.01815
7.072,-0.02518
7.076,-0.03142
7.08,-0.07473
7.084,-0.04061
7.088,-0.1037
7.092,-0.1361
7.096,-0.17569
7.1,-0.09755
7.104,0.01885
7.108,0.19116
7.112,0.39222
7.116,0.6073
7.12,0.79526
7.124,0.94177
7.128,0.94485
7.132,0.91999
7.136,0.73023
7.14,0.50036
7.144,0.23967
7.148,0.05725
7.152,-0.10637
7.156,-0.19056
7.16,-0.19883
7.164,-0.15996
7.168,-0.1532
7.172,-0.09373
7.176,-0.08324
7.18,-0.08411
7.184,-0.04383
7.188,-0.02697
7.192,-0.01507
7.196,0.01755
7.2,-0.06271
7.204,-0.02392
7.208,-0.02558
7.212,-0.01672
7.216,-0.01872
7.22,-0.04343
7.224,0.01079
7.228,-0.0363
7.232,-0.02804
7.236,-0.03388
7.24,-0.01217
7.244,-0.0119
7.248,-0.00654
7.252,-0.00502
7.256,-0.03358
7.26,-0.00756
7.264,-0.02599
7.268,-0.02274
7.272,-0.02542
7.276,-0.02145
7.28,-0.03788
7.284,-0.01593
7.288,-0.01334
7.292,-0.04013
7.296,-0.01221
7.3,-0.03125
7.304,-0.02136
7.308,-0.00745
7.312,-0.001
7.316,-0.01323
7.32,-0.01128
7.324,0.02079
7.328,0.02744
7.332,0.02087
7.336,0.06726
7.34,0.06602
7.344,0.06272
7.348,0.07667
7.352,0.05081
7.356,0.08467
7.36,0.09928
7.364,0.10271
7.368,0.10236
7.372,0.1327
7.376,0.14982
7.38,0.14499
7.384,0.17777
7.388,0.16111
7.392,0.18778
7.396,0.19107
7.4,0.17133
7.404,0.19661
7.408,0.18556
7.412,0.18645
7.416,0.21073
7.42,0.18202
7.424,0.18011
7.428,0.16389
7.432,0.15843
7.436,0.15711
7.44,0.11548
7.444,0.10764
7.448,0.12907
7.452,0.10938
7.456,0.09601
7.46,0.10371
7.464,0.07519
7.468,0.0314
7.472,0.04999
7.476,0.04496
7.48,0.04461
7.484,0.01524
7.488,0.02364
7.492,0.02711
7.496,-0.00935
7.5,0.01615
7.504,0.01507
7.508,-0.0105
7.512,-0.00215
7.516,-0.0389
7.52,0.01467
7.524,-0.02282
7.528,-0.01168
7.532,-0.02298
7.536,-0.01013
7.54,0.00345
7.544,0.00404
7.548,-0.04783
7.552,-0.01083
7.556,-0.00537
7.56,-0.04994
7.564,-0.00095
7.568,-0.01852
7.572,-0.00313
7.576,-0.01106
7.58,-0.01336
7.584,0.01084
7.588,-0.02127
7.592,-0.03196
7.596,-0.03517
7.6,-0.04016
7.604,-0.02585
7.608,-0.01806
7.612,-0.00592
7.616,-0.05285
7.62,-0.05992
7.624,-0.01149
7.628,-0.00111
7.632,-0.03589
7.636,-0.02892
7.64,-0.03629
7.644,-0.01241
7.648,-0.01572
7.652,0.00065
7.656,-0.03132
7.66,0.01551
7.664,-0.01557
7.668,-0.01873
7.672,0.00748
7.676,-0.00993
7.68,0.00218
7.684,0.00688
7.688,0.02699
7.692,0.06803
7.696,0.06778
7.7,0.0773
7.704,0.07955
7.708,0.10032
7.712,0.06867
7.716,0.07032
7.72,0.07918
7.724,0.04817
7.728,0.04021
7.732,0.01717
7.736,0.03513
7.74,0.01355
7.744,0.00524
7.748,-0.02253
7.752,-0.04916
7.756,0.01063
7.76,-0.03453
7.764,-0.01488
7.768,-0.03481
7.772,-0.03966
7.776,-0.01894
7.78,-0.02238
7.784,-0.02083
7.788,-0.00819
7.792,-0.02825
7.796,-0.04159
7.8,-0.00815
7.804,-0.02291
7.808,-0.02841
7.812,-0.03098
7.816,-0.04368
7.82,-0.0478
7.824,-0.06489
7.828,-0.10011
7.832,-0.12959
7.836,-0.12972
7.84,-0.09837
7.844,-0.00956
7.848,0.18681
7.852,0.40662
7.856,0.5941
7.86,0.79118
7.864,0.94736
7.868,0.97189
7.872,0.89067
7.876,0.74359
7.88,0.53117
7.884,0.29153
7.888,0.07731
7.892,-0.07213
7.896,-0.15299
7.9,-0.1886
7.904,-0.16939
7.908,-0.12568
7.912,-0.10404
7.916,-0.08148
7.92,-0.04501
7.924,-0.03162
7.928,-0.01835
7.932,-0.03285
7.936,-0.04208
7.94,-0.02813
7.944,-0.01016
7.948,-0.00621
7.952,-0.02098
7.956,-0.01746
7.96,-0.00729
7.964,-0.01716
7.968,-0.03066
7.972,-0.04349
7.976,-0.02618
7.98,0.00858
7.984,-0.01914
7.988,-0.03893
7.992,-0.01582
7.996,-0.05206
8.0,-0.02916
8.004,0.0068
8.008,-0.00842
8.012,-0.02915
8.016,-0.03047
8.02,0.00372
8.024,-0.00981
8.028,0.00404
8.032,0.01399
8.036,0.00933
8.04,0.01154
8.044,-0.01594
8.048,0.01118
8.052,0.01639
8.056,-0.00746
8.06,0.02751
8.064,0.01411
8.068,0.03754
8.072,0.02232
8.076,0.02546
8.08,0.04199
8.084,0.05929
8.088,0.05264
8.092,0.08208
8.096,0.08526
8.1,0.10762
8.104,0.09373
8.108,0.13886
8.112,0.14258
8.116,0.13885
8.12,0.14361
8.124,0.13674
8.128,0.17741
8.132,0.19914
8.136,0.17398
8.14,0.22443
8.144,0.22493
8.148,0.21379
8.152,0.21276
8.156,0.20567
8.16,0.17917
8.164,0.20063
8.168,0.1972
8.172,0.18168
8.176,0.15159
8.18,0.12823
8.184,0.12871
8.188,0.11839
8.192,0.09739
8.196,0.10955
8.2,0.09812
8.204,0.10999
8.208,0.08671
8.212,0.0491
8.216,0.05734
8.22,0.03437
8.224,0.04084
8.228,0.03821
8.232,0.02564
8.236,0.01393
8.24,-0.0064
8.244,0.02007
8.248,0.02217
8.252,0.01638
8.256,0.01996
8.26,0.02329
8.264,0.04907
8.268,0.06579
8.272,0.05395
8.276,0.09809
8.28,0.0641
8.284,0.07721
8.288,0.08309
8.292,0.07096
8.296,0.1013
8.3,0.04705
8.304,0.08317
8.308,0.04092
8.312,0.04077
8.316,0.03709
8.32,0.02133
8.324,0.01617
8.328,0.00998
8.332,-0.01307
8.336,0.00239
8.34,-0.01991
8.344,-0.00017
8.348,-0.003
8.352,-0.00725
8.356,-0.01872
8.36,-0.01349
8.364,-0.0008
8.368,0.00218
8.372,0.01482
8.376,-0.0117
8.38,-0.00658
8.384,-0.01111
8.388,0.00209
8.392,-0.00419
8.396,-0.02326
8.4,-0.01204
8.404,-0.04222
8.408,-0.07482
8.412,-0.11466
8.416,-0.12522
8.42,-0.08882
8.424,-0.00181
8.428,0.14035
8.432,0.33317
8.436,0.57765
8.44,0.76514
8.444,0.92755
8.448,0.98715
8.452,0.94238
8.456,0.7739
8.46,0.56638
8.464,0.32344
8.468,0.11354
8.472,-0.03681
8.476,-0.11851
8.48,-0.16341
8.484,-0.15352
8.488,-0.13148
8.492,-0.06092
8.496,-0.0451
8.5,-0.04134
8.504,-0.01749
8.508,-0.0012
8.512,0.02694
8.516,-0.00445
8.52,-0.01511
8.524,-0.0089
8.528,-0.02366
8.532,-0.00392
8.536,-0.03115
8.54,-0.03016
8.544,0.01223
8.548,0.0052
8.552,-0.01147
8.556,-0.01221
8.56,0.02292
8.564,-0.00877
8.568,-0.00091
8.572,0.01395
8.576,-0.02253
8.58,0.00549
8.584,0.00425
8.588,-0.00307
8.592,-0.02359
8.596,0.00889
8.6,0.01415
8.604,0.00272
8.608,0.00393
8.612,0.00341
8.616,0.00192
8.62,0.00071
8.624,-0.00321
8.628,-0.01672
8.632,0.03551
8.636,0.02014
8.64,0.04808
8.644,0.02971
8.648,0.06911
8.652,0.03414
8.656,0.03667
8.66,0.07468
8.664,0.07856
8.668,0.06988
8.672,0.09843
8.676,0.10338
8.68,0.09644
8.684,0.14897
8.688,0.12819
8.692,0.14871
8.696,0.17749
8.7,0.17284
8.704,0.16042
8.708,0.21334
8.712,0.20973
8.716,0.19786
8.72,0.20612
8.724,0.23114
8.728,0.21974
8.732,0.20509
8.736,0.23225
8.74,0.23899
8.744,0.21357
8.748,0.18783
8.752,0.19333
8.756,0.18014
8.76,0.19312
8.764,0.15069
8.768,0.15272
8.772,0.15533
8.776,0.12806
8.78,0.11546
8.784,0.10018
8.788,0.08319
8.792,0.07757
8.796,0.11473
8.8,0.06317
8.804,0.0321
8.808,0.01827
8.812,0.04158
8.816,0.02588
8.82,0.04124
8.824,0.03718
8.828,0.01882
8.832,0.00348
8.836,0.03717
8.84,0.05156
8.844,0.02057
8.848,0.04597
8.852,0.02168
8.856,0.03173
8.86,0.05363
8.864,0.06768
8.868,0.09261
8.872,0.08713
8.876,0.0871
8.88,0.06416
8.884,0.1354
8.888,0.09656
8.892,0.09834
8.896,0.0926
8.9,0.08572
8.904,0.06721
8.908,0.0486
8.912,0.03838
8.916,0.01695
8.92,0.02337
8.924,-0.01872
8.928,0.00084
8.932,0.01602
8.936,0.01602
8.94,0.01717
8.944,-0.00427
8.948,0.00395
8.952,0.00535
8.956,0.01543
8.96,0.00182
8.964,0.00338
8.968,-0.00386
8.972,-0.00251
8.976,0.01178
8.98,0.0048
8.984,-0.0067
8.988,-0.00478
8.992,-0.00203
8.996,-0.03511
9.0,-0.02091
9.004,-0.05797
9.008,-0.10969
9.012,-0.12616
9.016,-0.06306
9.02,0.02495
9.024,0.16272
9.028,0.35129
9.032,0.5862
9.036,0.78807
9.04,0.92757
9.044,1.02851
9.048,0.97017
9.052,0.79488
9.056,0.62072
9.06,0.39731
9.064,0.15289
9.068,0.0086
9.072,-0.1237
9.076,-0.13772
9.08,-0.18109
9.084,-0.1258
9.088,-0.04648
9.092,-0.03738
9.096,0.00703
9.1,-0.0094
9.104,-0.00622
9.108,0.00064
9.112,0.01688
9.116,0.01917
9.12,0.01925
9.124,-0.00868
9.128,0.00418
9.132,0.01445
9.136,0.02821
9.14,0.00824
9.144,0.02391
9.148,0.01101
9.152,0.0156
9.156,0.01435
9.16,0.0143
9.164,0.00431
9.168,0.03096
9.172,0.02608
9.176,0.01392
9.18,0.02528
9.184,0.0135
9.188,0.03397
9.192,0.00183
9.196,0.00937
9.2,0.00879
9.204,-0.00237
9.208,0.01442
9.212,-0.0019
9.216,0.01578
9.22,0.0125
9.224,0.03465
9.228,0.04915
9.232,0.05575
9.236,0.02241
9.24,0.06294
9.244,0.05344
9.248,0.03802
9.252,0.06163
9.256,0.09273
9.26,0.10652
9.264,0.09504
9.268,0.1087
9.272,0.1288
9.276,0.12423
9.28,0.14849
9.284,0.16104
9.288,0.15625
9.292,0.21086
9.296,0.20365
9.3,0.20976
9.304,0.21765
9.308,0.21797
9.312,0.22484
9.316,0.22936
9.32,0.21956
9.324,0.22458
9.328,0.22501
9.332,0.23427
9.336,0.20881
9.34,0.22313
9.344,0.21467
9.348,0.23335
9.352,0.17765
9.356,0.19623
9.36,0.19488
9.364,0.1878
9.368,0.14788
9.372,0.11784
9.376,0.14131
9.38,0.13915
9.384,0.12393
9.388,0.07557
9.392,0.11084
9.396,0.0988
9.4,0.06894
9.404,0.05977
9.408,0.07234
9.412,0.06462
9.416,0.05002
9.42,0.04304
9.424,0.05053
9.428,-0.00354
9.432,0.02058
9.436,0.04146
9.44,0.03623
9.444,0.05618
9.448,0.0299
9.452,0.03735
9.456,0.03873
9.46,0.05642
9.464,0.07292
9.468,0.05667
9.472,0.06747
9.476,0.09308
9.48,0.08511
9.484,0.10834
9.488,0.11595
9.492,0.12761
9.496,0.13155
9.5,0.12148
9.504,0.11092
9.508,0.11314
9.512,0.09994
9.516,0.03275
9.52,0.07546
9.524,0.0717
9.528,0.05833
9.532,0.06833
9.536,0.03428
9.54,0.0344
9.544,0.04537
9.548,0.0371
9.552,0.02274
9.556,0.03587
9.56,-0.00559
9.564,0.02967
9.568,0.02433
9.572,0.02263
9.576,0.03745
9.58,0.00985
9.584,0.06258
9.588,0.01849
9.592,0.02521
9.596,0.01324
9.6,-0.01035
9.604,0.03439
9.608,0.01431
9.612,-0.00255
9.616,-0.05555
9.62,-0.10673
9.624,-0.10664
9.628,-0.07935
9.632,0.03867
9.636,0.19729
9.64,0.37517
9.644,0.61479
9.648,0.80086
9.652,0.95787
9.656,0.99745
9.66,0.99658
9.664,0.80627
9.668,0.60499
9.672,0.36049
9.676,0.15077
9.68,-0.00317
9.684,-0.11912
9.688,-0.14355
9.692,-0.14707
9.696,-0.09844
9.7,-0.03949
9.704,-0.02192
9.708,0.02454
9.712,0.00622
9.716,0.04699
9.72,0.03639
9.724,0.03724
9.728,0.03258
9.732,0.02075
9.736,0.03427
9.74,0.04516
9.744,0.03166
9.748,0.03085
9.752,0.00968
9.756,0.03135
9.76,0.00724
9.764,0.04375
9.768,0.03136
9.772,0.01916
9.776,0.05985
9.78,0.00867
9.784,0.04668
9.788,0.00333
9.792,-0.00727
9.796,0.01289
9.8,0.02674
9.804,0.01877
9.808,0.01981
9.812,0.03039
9.816,0.02901
9.82,0.04251
9.824,0.03216
9.828,0.01181
9.832,0.03844
9.836,0.04734
9.84,0.02862
9.844,0.05128
9.848,0.06106
9.852,0.04156
9.856,0.05011
9.86,0.0509
9.864,0.06884
9.868,0.08456
9.872,0.10507
9.876,0.09588
9.88,0.11664
9.884,0.14255
9.888,0.17671
9.892,0.19055
9.896,0.17025
9.9,0.21781
9.904,0.18949
9.908,0.21491
9.912,0.21134
9.916,0.22448
9.92,0.21827
9.924,0.23706
9.928,0.2343
9.932,0.24703
9.936,0.26419
9.94,0.25811
9.944,0.22653
9.948,0.20571
9.952,0.22921
9.956,0.22938
9.96,0.21199
9.964,0.20426
9.968,0.20205
9.972,0.1862
9.976,0.18474
9.98,0.17827
9.984,0.17168
9.988,0.1275
9.992,0.12193
9.996,0.11671
