t_seg,ecg_mV
0.0,-0.0314
0.004,-0.00909
0.008,-0.04725
0.012,-0.02079
0.016,-0.01364
0.02,-0.00958
0.024,-0.03428
0.028,-0.03061
0.032,-0.00915
0.036,-0.02204
0.04,0.04382
0.044,-0.00546
0.048,-0.01445
0.052,-0.05172
0.056,-0.10277
0.06,0.00135
0.064,-0.01882
0.068,0.01819
0.072,-0.03539
0.076,-0.00856
0.08,-0.04926
0.084,-0.00993
0.088,-0.0074
0.092,0.01412
0.096,0.02328
0.1,-0.03134
0.104,0.0211
0.108,-0.01911
0.112,-0.07001
0.116,0.00954
0.12,-0.01483
0.124,-0.01884
0.128,-0.04927
0.132,-0.02289
0.136,0.01861
0.14,0.03507
0.144,0.01642
0.148,-0.02051
0.152,0.04261
0.156,0.00843
0.16,-0.0179
0.164,-0.02486
0.168,-0.00756
0.172,0.0004
0.176,0.03302
0.18,-0.0297
0.184,0.01624
0.188,-0.04744
0.192,-0.00019
0.196,-0.0225
0.2,-0.01229
0.204,0.0154
0.208,-0.07295
0.212,0.01804
0.216,-0.00133
0.22,-0.00059
0.224,-0.00125
0.228,0.02836
0.232,-0.06404
0.236,0.00771
0.24,-0.07428
0.244,-0.06859
0.248,-0.08829
0.252,0.05256
0.256,0.04174
0.26,-0.05047
0.264,-0.009
0.268,-0.03308
0.272,-0.04303
0.276,-3e-05
0.28,0.0099
0.284,0.00484
0.288,0.03626
0.292,0.01784
0.296,0.02642
0.3,0.05336
0.304,-0.00856
0.308,-0.06707
0.312,-0.00123
0.316,-0.01442
0.32,-0.0412
0.324,-0.07103
0.328,-0.05547
0.332,0.01077
0.336,0.02143
0.34,0.01102
0.344,-0.01789
0.348,-0.00363
0.352,-0.01853
0.356,0.008
0.36,-0.06507
0.364,-0.05961
0.368,-0.05505
0.372,-0.0706
0.376,0.01498
0.38,-0.01708
0.384,-0.03908
0.388,0.00699
0.392,-0.00414
0.396,-0.0299
0.4,0.0539
0.404,-0.04018
0.408,-0.01977
0.412,0.04444
0.416,-0.01812
0.42,0.00785
0.424,-0.03724
0.428,-0.09906
0.432,-0.01151
0.436,-0.06973
0.44,-0.00163
0.444,-0.0624
0.448,-0.00377
0.452,-0.02578
0.456,0.00753
0.46,-0.05502
0.464,-0.07341
0.468,-0.04064
0.472,-0.0529
0.476,-0.03293
0.48,-0.03666
0.484,0.02144
0.488,-0.01802
0.492,-0.01234
0.496,-0.03621
0.5,-0.03907
0.504,0.01076
0.508,-0.01237
0.512,0.00748
0.516,-0.01227
0.52,-0.05914
0.524,0.01437
0.528,0.04125
0.532,0.01276
0.536,-0.01357
0.54,0.08064
0.544,0.08726
0.548,0.10372
0.552,0.09675
0.556,0.12719
0.56,0.09952
0.564,0.10484
0.568,0.03326
0.572,0.11663
0.576,0.1478
0.58,0.04572
0.584,-0.0346
0.588,0.06183
0.592,-0.05395
0.596,0.00984
0.6,-0.03093
0.604,-0.01543
0.608,0.00448
0.612,-0.00217
0.616,0.0126
0.62,-0.02765
0.624,-0.0379
0.628,-0.00014
0.632,0.02924
0.636,-0.02568
0.64,0.01687
0.644,-0.0264
0.648,-0.03131
0.652,-0.01573
0.656,0.01736
0.66,-0.02377
0.664,-0.04092
0.668,-0.03283
0.672,0.01219
0.676,-0.03363
0.68,-0.05789
0.684,-0.1314
0.688,-0.08293
0.692,-0.12628
0.696,-0.01857
0.7,0.147
0.704,0.21251
0.708,0.5022
0.712,0.63499
0.716,0.85171
0.72,0.9712
0.724,0.95339
0.728,0.87751
0.732,0.68465
0.736,0.42404
0.74,0.22451
0.744,0.03009
0.748,-0.05973
0.752,-0.14193
0.756,-0.13199
0.76,-0.09489
0.764,-0.12108
0.768,-0.0653
0.772,-0.01709
0.776,0.01567
0.78,0.01166
0.784,-0.03373
0.788,0.03609
0.792,-0.01584
0.796,-0.0467
0.8,0.02096
0.804,-0.04181
0.808,-0.06432
0.812,0.0125
0.816,-0.02174
0.82,-0.02653
0.824,-0.02788
0.828,-0.00551
0.832,-0.01772
0.836,-0.00189
0.84,-0.04325
0.844,0.05234
0.848,-0.05631
0.852,-0.01842
0.856,-0.00545
0.86,0.01214
0.864,0.00488
0.868,-0.0239
0.872,0.04926
0.876,0.02424
0.88,0.0163
0.884,0.03278
0.888,-0.00167
0.892,0.04344
0.896,-0.00148
0.9,0.04888
0.904,0.03834
0.908,0.01864
0.912,0.03601
0.916,-0.02274
0.92,0.02056
0.924,0.05246
0.928,0.13129
0.932,0.05418
0.936,0.07939
0.94,0.09977
0.944,0.06428
0.948,0.16363
0.952,0.05472
0.956,0.17147
0.96,0.13247
0.964,0.19112
0.968,0.17652
0.972,0.16776
0.976,0.20386
0.98,0.1794
0.984,0.17474
0.988,0.18651
0.992,0.21253
0.996,0.22379
1.0,0.21934
1.004,0.16265
1.008,0.17843
1.012,0.18691
1.016,0.18828
1.02,0.24149
1.024,0.18521
1.028,0.16257
1.032,0.2316
1.036,0.17523
1.04,0.07058
1.044,0.1383
1.048,0.1575
1.052,0.09774
1.056,0.09576
1.06,0.1127
1.064,0.03656
1.068,0.11237
1.072,0.07263
1.076,0.0074
1.08,0.10464
1.084,0.03068
1.088,-0.01454
1.092,0.08685
1.096,0.00225
1.1,0.01919
1.104,-0.00249
1.108,-0.0563
1.112,-0.03832
1.116,-0.00855
1.12,0.03502
1.124,0.06505
1.128,-0.02408
1.132,0.0532
1.136,0.03866
1.14,0.02656
1.144,-0.03473
1.148,0.02719
1.152,0.04707
1.156,0.03173
1.16,0.02806
1.164,-0.0144
1.168,0.0314
1.172,0.06219
1.176,-0.0232
1.18,-0.02921
1.184,0.01596
1.188,-0.03124
1.192,-0.03117
1.196,-0.02697
1.2,-0.02777
1.204,0.07169
1.208,0.00011
1.212,-0.04881
1.216,0.01961
1.22,0.0687
1.224,-0.01151
1.228,0.02216
1.232,-0.0105
1.236,-0.00238
1.24,0.07816
1.244,0.03133
1.248,-0.04159
1.252,0.00274
1.256,0.01784
1.26,-0.01439
1.264,0.08422
1.268,0.07171
1.272,-0.01341
1.276,-0.04095
1.28,0.01737
1.284,0.05391
1.288,-0.03694
1.292,0.07412
1.296,0.09122
1.3,-0.02744
1.304,0.05545
1.308,0.03784
1.312,0.11596
1.316,0.07721
1.32,0.08255
1.324,0.10559
1.328,0.0558
1.332,0.06684
1.336,0.05986
1.34,0.07172
1.344,0.05134
1.348,0.10075
1.352,0.05243
1.356,0.04477
1.36,-0.01953
1.364,0.03146
1.368,-0.00199
1.372,0.04834
1.376,-0.00237
1.38,0.0166
1.384,-0.01104
1.388,0.06266
1.392,0.04114
1.396,-0.04792
1.4,-0.01205
1.404,-0.00832
1.408,-0.00251
1.412,0.07572
1.416,0.04582
1.42,-0.00046
1.424,-0.01043
1.428,0.05166
1.432,-0.00328
1.436,-0.02946
1.44,-0.03435
1.444,-0.06674
1.448,-0.04027
1.452,-0.13006
1.456,-0.03569
1.46,0.02476
1.464,0.16812
1.468,0.38757
1.472,0.56376
1.476,0.80373
1.48,0.92084
1.484,1.01864
1.488,0.97946
1.492,0.84813
1.496,0.60679
1.5,0.38366
1.504,0.17759
1.508,-0.00844
1.512,-0.06532
1.516,-0.19543
1.52,-0.09642
1.524,-0.17202
1.528,-0.12609
1.532,-0.05972
1.536,0.00281
1.54,0.00599
1.544,0.0126
1.548,-1e-05
1.552,0.03799
1.556,-0.06914
1.56,0.06294
1.564,0.02128
1.568,0.00346
1.572,0.03195
1.576,0.02382
1.58,0.03866
1.584,0.03317
1.588,0.02512
1.592,0.02291
1.596,-0.01906
1.6,0.0298
1.604,0.0799
1.608,-0.02814
1.612,0.04184
1.616,-0.04481
1.62,0.04274
1.624,0.04457
1.628,0.00732
1.632,0.01793
1.636,0.01212
1.64,0.04305
1.644,0.00074
1.648,0.00442
1.652,0.04461
1.656,0.03473
1.66,0.02971
1.664,0.05634
1.668,0.06734
1.672,0.03827
1.676,0.0518
1.68,0.09323
1.684,0.04725
1.688,0.03653
1.692,0.0505
1.696,0.07731
1.7,0.08241
1.704,0.07601
1.708,0.16913
1.712,0.09286
1.716,0.14846
1.72,0.24856
1.724,0.10766
1.728,0.18791
1.732,0.22356
1.736,0.1838
1.74,0.25368
1.744,0.21244
1.748,0.2136
1.752,0.25753
1.756,0.26434
1.76,0.1956
1.764,0.20365
1.768,0.1898
1.772,0.1802
1.776,0.25604
1.78,0.22672
1.784,0.23473
1.788,0.13784
1.792,0.18978
1.796,0.22968
1.8,0.20707
1.804,0.16675
1.808,0.25742
1.812,0.1898
1.816,0.15143
1.82,0.08588
1.824,0.12043
1.828,0.077
1.832,0.08169
1.836,0.09675
1.84,0.13156
1.844,0.12042
1.848,0.05289
1.852,0.06244
1.856,0.04761
1.86,0.0312
1.864,0.11077
1.868,-0.00899
1.872,0.03978
1.876,0.03368
1.88,0.07803
1.884,0.05428
1.888,0.07336
1.892,0.04164
1.896,0.03099
1.9,0.06319
1.904,0.05174
1.908,0.06751
1.912,0.02076
1.916,0.00345
1.92,0.0492
1.924,0.05087
1.928,-0.0102
1.932,0.07716
1.936,0.03052
1.94,-0.02925
1.944,0.00128
1.948,0.03406
1.952,0.04584
1.956,0.00098
1.96,0.02988
1.964,0.00827
1.968,0.07617
1.972,-0.00035
1.976,0.0374
1.98,0.05347
1.984,0.00425
1.988,-0.0019
1.992,0.03571
1.996,0.05284
2.0,0.06245
2.004,0.01057
2.008,-0.03065
2.012,-0.01649
2.016,0.05716
2.02,0.06843
2.024,0.00071
2.028,0.03916
2.032,0.06119
2.036,-0.00642
2.04,0.08646
2.044,0.0319
2.048,0.03976
2.052,0.07953
2.056,0.03183
2.06,-0.03812
2.064,-0.0159
2.068,-0.0229
2.072,-0.00957
2.076,0.0074
2.08,-0.00518
2.084,-0.04224
2.088,0.01673
2.092,0.06372
2.096,0.03363
2.1,0.02233
2.104,0.04817
2.108,0.02436
2.112,0.02998
2.116,0.0463
2.12,0.0806
2.124,0.0051
2.128,0.03412
2.132,-0.00575
2.136,0.04338
2.14,0.04951
2.144,0.05541
2.148,0.00481
2.152,0.03739
2.156,0.02586
2.16,0.05273
2.164,0.08243
2.168,0.02245
2.172,0.06209
2.176,0.01945
2.18,0.0158
2.184,0.07088
2.188,0.09243
2.192,-0.01742
2.196,-0.00619
2.2,0.05079
2.204,-0.00997
2.208,0.03845
2.212,0.0358
2.216,0.0782
2.22,0.01369
2.224,0.04312
2.228,0.02386
2.232,0.0272
2.236,0.02399
2.24,0.05211
2.244,-0.00347
2.248,0.05654
2.252,0.04614
2.256,0.0089
2.26,0.00847
2.264,0.077
2.268,-0.01802
2.272,0.06413
2.276,0.03704
2.28,0.03586
2.284,0.09174
2.288,0.04355
2.292,0.00055
2.296,0.00491
2.3,0.00041
2.304,0.06759
2.308,0.06825
2.312,0.10764
2.316,0.0666
2.32,0.04104
2.324,0.12947
2.328,0.05822
2.332,0.10906
2.336,0.11855
2.34,0.09881
2.344,0.0833
2.348,0.1081
2.352,0.14617
2.356,0.15313
2.36,0.10448
2.364,0.13793
2.368,0.12884
2.372,0.15792
2.376,0.11757
2.38,0.01727
2.384,0.15239
2.388,0.01695
2.392,0.01109
2.396,0.03423
2.4,0.00846
2.404,0.0448
2.408,-0.00152
2.412,0.05158
2.416,0.03679
2.42,0.07618
2.424,0.03024
2.428,0.05707
2.432,0.1079
2.436,0.076
2.44,0.08273
2.444,0.02645
2.448,0.04322
2.452,-0.05428
2.456,0.00018
2.46,0.00365
2.464,0.01645
2.468,-0.02874
2.472,-0.02645
2.476,-0.09698
2.48,-0.10555
2.484,-0.05852
2.488,0.05216
2.492,0.26573
2.496,0.45639
2.5,0.63285
2.504,0.77993
2.508,0.96366
2.512,0.98585
2.516,0.9561
2.52,0.79896
2.524,0.64616
2.528,0.31411
2.532,0.12284
2.536,0.04922
2.54,-0.10756
2.544,-0.05429
2.548,-0.11581
2.552,-0.05619
2.556,-0.06857
2.56,0.09968
2.564,0.0315
2.568,0.03142
2.572,0.02149
2.576,-0.00545
2.58,0.04674
2.584,0.01598
2.588,0.00269
2.592,0.0306
2.596,0.00036
2.6,0.03306
2.604,0.00906
2.608,0.09193
2.612,0.03824
2.616,0.11574
2.62,0.03724
2.624,0.02627
2.628,-0.00604
2.632,0.00798
2.636,0.00704
2.64,0.01426
2.644,0.01217
2.648,0.06334
2.652,0.01855
2.656,-0.01606
2.66,0.11423
2.664,-0.02332
2.668,0.07315
2.672,0.00821
2.676,0.07534
2.68,0.01178
2.684,0.01255
2.688,0.02256
2.692,0.0324
2.696,0.04495
2.7,0.07404
2.704,0.0542
2.708,0.05699
2.712,0.12734
2.716,0.0449
2.72,0.11892
2.724,0.11329
2.728,0.13999
2.732,0.13283
2.736,0.0754
2.74,0.21044
2.744,0.14677
2.748,0.22416
2.752,0.20381
2.756,0.19705
2.76,0.15052
2.764,0.22788
2.768,0.18136
2.772,0.2074
2.776,0.26659
2.78,0.22156
2.784,0.22249
2.788,0.25708
2.792,0.21723
2.796,0.25848
2.8,0.28033
2.804,0.21535
2.808,0.26286
2.812,0.13579
2.816,0.23765
2.82,0.25878
2.824,0.2165
2.828,0.09114
2.832,0.1675
2.836,0.17006
2.84,0.13911
2.844,0.09422
2.848,0.15349
2.852,0.12443
2.856,0.10008
2.86,0.09241
2.864,0.12314
2.868,0.13873
2.872,0.09701
2.876,0.09704
2.88,0.00711
2.884,0.03527
2.888,0.04409
2.892,0.08136
2.896,0.06578
2.9,0.04821
2.904,0.0399
2.908,0.07275
2.912,0.04899
2.916,0.05605
2.92,0.05647
2.924,0.01075
2.928,0.00991
2.932,0.02167
2.936,0.07191
2.94,0.00271
2.944,0.0578
2.948,0.01318
2.952,-0.00481
2.956,0.0162
2.96,0.01791
2.964,0.00584
2.968,0.00896
2.972,0.04836
2.976,0.09219
2.98,0.00726
2.984,0.04754
2.988,-0.02581
2.992,0.03624
2.996,0.02692
3.0,0.02866
3.004,-0.0025
3.008,0.01975
3.012,0.01798
3.016,0.06438
3.02,0.03497
3.024,0.05151
3.028,0.02972
3.032,0.06004
3.036,0.07003
3.04,-0.03995
3.044,0.01235
3.048,0.0966
3.052,0.04489
3.056,0.0619
3.06,0.05543
3.064,0.04573
3.068,0.08045
3.072,0.06859
3.076,0.07622
3.08,0.03208
3.084,0.02767
3.088,-0.00283
3.092,0.02466
3.096,0.01391
3.1,-0.00219
3.104,0.0133
3.108,-0.00032
3.112,0.07355
3.116,0.09596
3.12,0.03665
3.124,0.11362
3.128,-0.00429
3.132,0.00597
3.136,0.00531
3.14,-0.00078
3.144,0.01722
3.148,0.05437
3.152,0.09082
3.156,-0.01588
3.16,0.03306
3.164,0.13344
3.168,-0.01748
3.172,-0.00636
3.176,-0.00274
3.18,0.00767
3.184,0.01774
3.188,0.0858
3.192,-0.02918
3.196,0.10573
3.2,0.07915
3.204,0.1383
3.208,0.12459
3.212,0.14793
3.216,0.09788
3.22,0.10135
3.224,0.13362
3.228,0.06853
3.232,0.11464
3.236,0.09995
3.24,0.06273
3.244,0.12789
3.248,0.08032
3.252,0.02666
3.256,0.05722
3.26,0.07956
3.264,-0.00976
3.268,0.04491
3.272,0.07035
3.276,0.0444
3.28,0.00761
3.284,0.0297
3.288,0.00334
3.292,0.03916
3.296,-0.01077
3.3,0.03205
3.304,0.04462
3.308,0.0485
3.312,0.02979
3.316,0.09269
3.32,0.02625
3.324,-0.06052
3.328,-0.02714
3.332,-0.02947
3.336,-0.02894
3.34,-0.05127
3.344,0.00099
3.348,-0.0571
3.352,-0.04702
3.356,-0.04247
3.36,0.08472
3.364,0.2726
3.368,0.52066
3.372,0.72775
3.376,0.88003
3.38,0.99518
3.384,1.01352
3.388,0.91662
3.392,0.76329
3.396,0.58804
3.4,0.24139
3.404,0.10257
3.408,0.00026
3.412,-0.18071
3.416,-0.14507
3.42,-0.11495
3.424,-0.09976
3.428,0.00799
3.432,-0.0192
3.436,0.01293
3.44,-0.00707
3.444,0.02411
3.448,0.0632
3.452,0.0578
3.456,0.04738
3.46,0.05639
3.464,0.05947
3.468,-0.03423
3.472,0.05823
3.476,0.02668
3.48,0.01427
3.484,-0.02749
3.488,0.03145
3.492,-0.03811
3.496,0.02237
3.5,0.0335
3.504,-0.01597
3.508,0.06864
3.512,-0.01219
3.516,0.01276
3.52,0.06389
3.524,0.05246
3.528,0.01042
3.532,0.05664
3.536,-0.03671
3.54,0.0322
3.544,0.06734
3.548,0.07152
3.552,0.01216
3.556,0.04609
3.56,0.04462
3.564,0.0526
3.568,0.04047
3.572,-0.02186
3.576,0.11363
3.58,0.04987
3.584,0.05744
3.588,0.02831
3.592,0.12865
3.596,0.13449
3.6,0.06168
3.604,0.08118
3.608,0.16553
3.612,0.1501
3.616,0.16464
3.62,0.16305
3.624,0.10938
3.628,0.18295
3.632,0.12514
3.636,0.25535
3.64,0.25648
3.644,0.21249
3.648,0.24506
3.652,0.20987
3.656,0.24677
3.66,0.28676
3.664,0.19287
3.668,0.29048
3.672,0.14984
3.676,0.22242
3.68,0.28872
3.684,0.20881
3.688,0.19435
3.692,0.20075
3.696,0.20905
3.7,0.15508
3.704,0.12522
3.708,0.12811
3.712,0.10921
3.716,0.12504
3.72,0.13452
3.724,0.11217
3.728,0.07953
3.732,0.12865
3.736,0.03939
3.74,0.06344
3.744,0.10522
3.748,0.07388
3.752,0.00136
3.756,0.00809
3.76,0.08504
3.764,0.0527
3.768,0.0261
3.772,0.00266
3.776,0.05755
3.78,-0.0132
3.784,-0.00471
3.788,-0.03949
3.792,0.01702
3.796,0.04033
3.8,0.01281
3.804,0.04639
3.808,-0.0278
3.812,0.08653
3.816,0.04355
3.82,-0.02339
3.824,-0.03308
3.828,0.00745
3.832,-0.02654
3.836,0.06363
3.84,-0.00434
3.844,-0.01231
3.848,-0.01262
3.852,-0.0076
3.856,-0.01652
3.86,0.03194
3.864,0.03624
3.868,0.03353
3.872,0.02613
3.876,0.06907
3.88,0.02786
3.884,0.03161
3.888,-0.00844
3.892,0.00256
3.896,0.01609
3.9,-0.03685
3.904,0.00395
3.908,-0.00417
3.912,-0.04522
3.916,0.04869
3.92,0.01387
3.924,-0.03185
3.928,0.011
3.932,0.00797
3.936,0.04531
3.94,0.03768
3.944,0.02586
3.948,0.03318
3.952,-0.04641
3.956,0.01843
3.96,0.01504
3.964,0.04141
3.968,-0.01208
3.972,0.01866
3.976,-0.02517
3.98,0.01471
3.984,0.01282
3.988,0.0033
3.992,0.01229
3.996,0.05457
4.0,0.02856
4.004,0.04557
4.008,0.08929
4.012,0.0969
4.016,0.08913
4.02,0.06964
4.024,0.07809
4.028,0.12903
4.032,0.1312
4.036,0.08669
4.04,0.09924
4.044,0.09942
4.048,0.09881
4.052,0.04879
4.056,0.09997
4.06,0.03376
4.064,0.05122
4.068,0.00508
4.072,-0.09518
4.076,-0.05085
4.08,0.01183
4.084,-0.00394
4.088,-0.02555
4.092,0.0732
4.096,0.02026
4.1,-0.026
4.104,-0.0115
4.108,0.03729
4.112,-0.05667
4.116,0.02348
4.12,-0.06631
4.124,-0.00931
4.128,0.0216
4.132,0.01852
4.136,-0.02257
4.14,-0.01244
4.144,-0.00146
4.148,-0.01579
4.152,-0.08147
4.156,-0.05517
4.16,-0.16006
4.164,-0.15
4.168,-0.03329
4.172,0.09077
4.176,0.29181
4.18,0.47132
4.184,0.70004
4.188,0.90498
4.192,0.94652
4.196,0.9945
4.2,0.88828
4.204,0.68419
4.208,0.5425
4.212,0.30044
4.216,0.10167
4.22,-0.05983
4.224,-0.10589
4.228,-0.18604
4.232,-0.14433
4.236,-0.11274
4.24,-0.02918
4.244,0.01884
4.248,-0.03186
4.252,0.04379
4.256,-0.00264
4.26,-0.0387
4.264,0.02836
4.268,-0.0974
4.272,0.07687
4.276,0.0391
4.28,0.06543
4.284,0.00026
4.288,-0.02332
4.292,0.00648
4.296,0.02425
4.3,-0.05044
4.304,-0.03624
4.308,-0.06628
4.312,-0.00909
4.316,0.04339
4.32,0.05501
4.324,-0.07056
4.328,0.02975
4.332,0.01803
4.336,-0.04203
4.34,-0.04838
4.344,-0.00334
4.348,-0.03347
4.352,-0.02119
4.356,0.01852
4.36,-0.04518
4.364,0.04471
4.368,-0.00724
4.372,-0.05442
4.376,0.00474
4.38,0.07551
4.384,0.05281
4.388,0.03448
4.392,-0.01521
4.396,0.00538
4.4,-0.00413
4.404,0.09111
4.408,0.06978
4.412,0.02291
4.416,0.04615
4.42,0.09341
4.424,0.09622
4.428,0.14234
4.432,0.15195
4.436,0.16316
4.44,0.07973
4.444,0.20913
4.448,0.21886
4.452,0.19189
4.456,0.16415
4.46,0.1929
4.464,0.21221
4.468,0.22226
4.472,0.20001
4.476,0.20247
4.48,0.19175
4.484,0.18918
4.488,0.16525
4.492,0.1914
4.496,0.15847
4.5,0.20362
4.504,0.15666
4.508,0.14235
4.512,0.21967
4.516,0.16905
4.52,0.09436
4.524,0.11494
4.528,0.12261
4.532,0.16891
4.536,0.10962
4.54,0.10656
4.544,0.08741
4.548,0.01883
4.552,0.11682
4.556,0.04489
4.56,-0.00833
4.564,-0.04489
4.568,0.01707
4.572,0.02771
4.576,0.01272
4.58,-0.01636
4.584,-0.01518
4.588,0.02006
4.592,0.03104
4.596,0.0653
4.6,-0.04499
4.604,-0.05602
4.608,0.0299
4.612,-0.04673
4.616,0.02197
4.62,-0.01342
4.624,0.05063
4.628,-0.04204
4.632,-0.02007
4.636,-0.0252
4.64,0.02426
4.644,-0.01205
4.648,-0.03028
4.652,0.01807
4.656,-0.04838
4.66,0.01002
4.664,-0.01608
4.668,0.00115
4.672,-0.00454
4.676,-0.0086
4.68,-0.02004
4.684,0.04524
4.688,-0.09199
4.692,-0.03806
4.696,-0.05078
4.7,-0.00688
4.704,-0.0313
4.708,0.01364
4.712,-0.0082
4.716,0.05413
4.72,0.01992
4.724,-0.01199
4.728,-0.00733
4.732,0.04238
4.736,-0.00362
4.74,-0.01516
4.744,-0.01558
4.748,0.02092
4.752,-0.00207
4.756,-0.02766
4.76,0.00267
4.764,0.01771
4.768,0.0276
4.772,0.0824
4.776,-0.01691
4.78,-0.02267
4.784,-0.01174
4.788,-0.01455
4.792,0.02822
4.796,0.00834
4.8,-0.00072
4.804,-0.01913
4.808,0.04618
4.812,-0.0098
4.816,0.04111
4.82,0.16162
4.824,0.05549
4.828,0.08378
4.832,0.09318
4.836,0.11835
4.84,0.05783
4.844,0.11995
4.848,0.07113
4.852,0.0749
4.856,0.10447
4.86,0.05636
4.864,0.07373
4.868,0.0515
4.872,0.05455
4.876,-0.01998
4.88,0.0316
4.884,0.05911
4.888,0.02277
4.892,-0.0327
4.896,0.01172
4.9,-0.05949
4.904,0.01161
4.908,-0.02854
4.912,-0.00873
4.916,-0.05964
4.92,0.05921
4.924,-0.02224
4.928,0.00688
4.932,-0.04244
4.936,-0.04378
4.94,-0.04102
4.944,-0.01387
4.948,0.07217
4.952,-0.01036
4.956,0.02094
4.96,0.0123
4.964,-0.17472
4.968,-0.12263
4.972,-0.11498
4.976,-0.08681
4.98,0.01152
4.984,0.15479
4.988,0.35244
4.992,0.51931
4.996,0.73135
5.0,0.91107
5.004,1.01643
5.008,0.95697
5.012,0.78658
5.016,0.66469
5.02,0.32477
5.024,0.08223
5.028,-0.03443
5.032,-0.22833
5.036,-0.21735
5.04,-0.15138
5.044,-0.12353
5.048,-0.07133
5.052,-0.06566
5.056,-0.06875
5.06,-0.07279
5.064,-0.04107
5.068,0.02905
5.072,-0.05069
5.076,0.01033
5.08,-0.05264
5.084,-0.04991
5.088,0.02133
5.092,-0.03674
5.096,-0.00628
5.1,0.03245
5.104,-0.05204
5.108,-0.04699
5.112,-0.05852
5.116,-0.00507
5.12,0.01251
5.124,-0.00581
5.128,-0.05161
5.132,0.01068
5.136,0.03005
5.14,-0.00786
5.144,-0.04025
5.148,-0.11611
5.152,-0.01188
5.156,-0.02337
5.16,-0.06688
5.164,-0.01718
5.168,0.0081
5.172,0.00108
5.176,0.00377
5.18,-0.01136
5.184,-0.01745
5.188,-0.02718
5.192,0.02548
5.196,0.02107
5.2,0.0571
5.204,-0.03658
5.208,0.0222
5.212,0.03429
5.216,0.10898
5.22,0.08106
5.224,0.05507
5.228,0.07876
5.232,0.10397
5.236,0.11192
5.24,0.06548
5.244,0.08976
5.248,0.09012
5.252,0.19742
5.256,0.18233
5.26,0.13399
5.264,0.14045
5.268,0.15663
5.272,0.16229
5.276,0.21896
5.28,0.18459
5.284,0.17511
5.288,0.19672
5.292,0.19731
5.296,0.23496
5.3,0.21478
5.304,0.19855
5.308,0.10587
5.312,0.12129
5.316,0.11099
5.32,0.18052
5.324,0.13287
5.328,0.11989
5.332,0.09568
5.336,0.05589
5.34,0.0719
5.344,0.05149
5.348,0.07773
5.352,0.08661
5.356,0.08299
5.36,0.01082
5.364,0.07192
5.368,-0.06564
5.372,0.03735
5.376,0.00798
5.38,-0.01121
5.384,0.03241
5.388,0.01307
5.392,0.0064
5.396,-0.03259
5.4,0.02125
5.404,-0.02384
5.408,0.01923
5.412,-0.02711
5.416,0.02627
5.42,-0.02932
5.424,-0.05106
5.428,-0.06793
5.432,-0.03951
5.436,0.0389
5.44,-0.10543
5.444,0.03152
5.448,0.00085
5.452,-0.00273
5.456,0.04594
5.46,0.0854
5.464,0.00445
5.468,0.03808
5.472,0.08215
5.476,0.05791
5.48,0.0367
5.484,0.13099
5.488,0.06081
5.492,0.14556
5.496,0.02548
5.5,0.04992
5.504,0.06815
5.508,0.02537
5.512,0.01739
5.516,-0.04099
5.52,-0.00203
5.524,0.0391
5.528,0.044
5.532,0.01576
5.536,-0.00598
5.54,-0.01128
5.544,-0.05491
5.548,0.03195
5.552,0.02127
5.556,-0.03917
5.56,0.0081
5.564,-0.0255
5.568,-0.08614
5.572,-0.06702
5.576,-0.02842
5.58,0.04123
5.584,-0.01287
5.588,-0.01502
5.592,0.01641
5.596,-0.01194
5.6,-0.12395
5.604,-0.15196
5.608,-0.14198
5.612,-0.09486
5.616,-0.13337
5.62,-0.02144
5.624,0.20126
5.628,0.36396
5.632,0.57962
5.636,0.78044
5.64,0.93377
5.644,0.9694
5.648,0.92681
5.652,0.78634
5.656,0.50151
5.66,0.31848
5.664,0.13783
5.668,-0.05927
5.672,-0.12165
5.676,-0.16306
5.68,-0.21183
5.684,-0.20935
5.688,-0.12169
5.692,-0.02833
5.696,-0.05028
5.7,-0.01788
5.704,-0.08365
5.708,-0.03662
5.712,-0.01664
5.716,-0.05479
5.72,-0.05048
5.724,0.01356
5.728,-0.02502
5.732,-0.04135
5.736,0.01271
5.74,-0.02104
5.744,0.00581
5.748,0.03737
5.752,-0.04368
5.756,-0.11889
5.76,-0.00618
5.764,-0.05365
5.768,-0.08264
5.772,-0.0413
5.776,-0.04404
5.78,-0.00409
5.784,-0.02588
5.788,-0.01609
5.792,-0.11875
5.796,-0.07539
5.8,-0.04004
5.804,0.01177
5.808,-0.02816
5.812,-0.0273
5.816,-0.06652
5.82,-0.00222
5.824,-0.0794
5.828,-0.05757
5.832,0.01327
5.836,-0.03895
5.84,0.06289
5.844,0.07925
5.848,0.05699
5.852,0.02724
5.856,0.05021
5.86,0.05147
5.864,0.10942
5.868,0.0596
5.872,0.0899
5.876,0.1028
5.88,0.1111
5.884,0.08754
5.888,0.19761
5.892,0.16136
5.896,0.14814
5.9,0.2003
5.904,0.14178
5.908,0.20273
5.912,0.17871
5.916,0.17796
5.92,0.16744
5.924,0.18728
5.928,0.20117
5.932,0.21072
5.936,0.16902
5.94,0.15758
5.944,0.18118
5.948,0.13933
5.952,0.16637
5.956,0.13646
5.96,0.14663
5.964,0.13155
5.968,0.13728
5.972,0.09612
5.976,0.02827
5.98,0.06389
5.984,0.04269
5.988,0.10358
5.992,0.01889
5.996,0.01124
6.0,0.05153
6.004,0.02794
6.008,0.01618
6.012,-0.03138
6.016,-0.0303
6.02,-0.03771
6.024,-0.05145
6.028,-0.08456
6.032,-0.01693
6.036,-0.0131
6.04,0.00261
6.044,-0.00914
6.048,-0.01325
6.052,-0.03114
6.056,-0.05153
6.06,0.02368
6.064,0.01472
6.068,-0.05169
6.072,-0.03
6.076,-0.065
6.08,-0.03144
6.084,-0.08392
6.088,0.02304
6.092,-0.12738
6.096,-0.05029
6.1,-0.03929
6.104,-0.03604
6.108,-0.01467
6.112,-0.04724
6.116,-0.01337
6.12,-0.02589
6.124,-0.11376
6.128,0.00864
6.132,-0.08986
6.136,-0.0131
6.14,-0.10208
6.144,-0.00096
6.148,-0.00961
6.152,-0.02108
6.156,-0.03363
6.16,-0.02614
6.164,-0.06937
6.168,0.04755
6.172,-0.03263
6.176,-0.01516
6.18,-0.05258
6.184,-0.06382
6.188,0.01691
6.192,-0.05074
6.196,-0.02215
6.2,0.02551
6.204,-0.02571
6.208,-0.04697
6.212,-0.00334
6.216,-0.01022
6.22,-0.07032
6.224,-0.05913
6.228,-0.06136
6.232,0.00961
6.236,-0.04553
6.24,-0.00229
6.244,-0.04136
6.248,-0.10961
6.252,-0.04583
6.256,-0.03611
6.26,-0.1213
6.264,-0.01163
6.268,-0.01771
6.272,0.04286
6.276,-0.02545
6.28,-0.05916
6.284,-0.03094
6.288,-0.04159
6.292,-0.0034
6.296,-0.04464
6.3,-0.01443
6.304,-0.05511
6.308,0.03678
6.312,0.00127
6.316,-0.00036
6.32,-0.00881
6.324,-0.00178
6.328,-0.06783
6.332,-0.04752
6.336,0.00393
6.34,-0.01202
6.344,-0.04313
6.348,-0.02777
6.352,-0.00677
6.356,-0.06398
6.36,-0.06587
6.364,-0.04855
6.368,-0.01047
6.372,-0.00925
6.376,-0.03308
6.38,-0.01244
6.384,-0.13264
6.388,0.01869
6.392,-0.04503
6.396,-0.04263
6.4,-0.05552
6.404,0.05573
6.408,-0.0066
6.412,-0.02176
6.416,-0.1258
6.42,-0.10173
6.424,-0.03285
6.428,-0.04
6.432,-0.08633
6.436,-0.04716
6.44,-0.09292
6.444,0.02323
6.448,-0.02847
6.452,0.03168
6.456,-0.06097
6.46,-0.01902
6.464,0.03207
6.468,0.03391
6.472,0.07949
6.476,0.06152
6.48,0.12
6.484,0.07409
6.488,0.00184
6.492,0.11359
6.496,0.09761
6.5,0.02465
6.504,0.02066
6.508,0.0022
6.512,0.02599
6.516,0.02916
6.52,0.0485
6.524,0.01002
6.528,-0.02386
6.532,-0.04703
6.536,-0.06366
6.54,-0.08354
6.544,-0.09628
6.548,-0.02973
6.552,-0.01896
6.556,-0.00878
6.56,0.01719
6.564,-0.05465
6.568,0.02458
6.572,-0.0214
6.576,-0.01535
6.58,-0.03352
6.584,0.01041
6.588,0.00768
6.592,-0.03751
6.596,-0.02375
6.6,-0.02434
6.604,-0.05156
6.608,-0.10183
6.612,-0.05784
6.616,-0.20087
6.62,-0.17075
6.624,-0.01955
6.628,0.14799
6.632,0.37793
6.636,0.59526
6.64,0.78935
6.644,0.94334
6.648,1.02974
6.652,0.97583
6.656,0.74632
6.66,0.54193
6.664,0.31445
6.668,0.16378
6.672,-0.05122
6.676,-0.13203
6.68,-0.15795
6.684,-0.18161
6.688,-0.11211
6.692,-0.0843
6.696,-0.06521
6.7,-0.03054
6.704,-0.07922
6.708,-0.03442
6.712,0.04768
6.716,-0.08057
6.72,-0.04499
6.724,-0.01547
6.728,-0.02163
6.732,-0.08285
6.736,-0.06083
6.74,-0.03783
6.744,0.02796
6.748,-0.0047
6.752,-0.03381
6.756,-0.01627
6.76,-0.07109
6.764,-0.04254
6.768,-0.03841
6.772,-0.01072
6.776,0.00271
6.78,-0.03079
6.784,-0.05656
6.788,0.03736
6.792,-0.06239
6.796,0.01144
6.8,-0.0317
6.804,0.00544
6.808,0.00267
6.812,0.04019
6.816,-0.02827
6.82,-0.03006
6.824,-0.0381
6.828,-0.00141
6.832,0.03903
6.836,-0.00127
6.84,0.03786
6.844,-0.03533
6.848,0.03911
6.852,0.0579
6.856,0.05095
6.86,0.02542
6.864,0.02778
6.868,0.06453
6.872,0.08645
6.876,0.14505
6.88,0.16401
6.884,0.11658
6.888,0.08778
6.892,0.19138
6.896,0.1109
6.9,0.1693
6.904,0.13367
6.908,0.18098
6.912,0.17503
6.916,0.24487
6.92,0.19127
6.924,0.18224
6.928,0.21803
6.932,0.19236
6.936,0.19794
6.94,0.21694
6.944,0.25076
6.948,0.19391
6.952,0.12406
6.956,0.19813
6.96,0.12204
6.964,0.17094
6.968,0.08012
6.972,0.13555
6.976,0.09233
6.98,0.03956
6.984,0.1536
6.988,0.09953
6.992,0.08603
6.996,0.03448
7.0,-0.00661
7.004,0.051
7.008,-0.00253
7.012,0.0199
7.016,-0.01895
7.02,0.03106
7.024,-0.02847
7.028,-0.02142
7.032,0.03151
7.036,-0.01844
7.04,-0.0083
7.044,0.00965
7.048,0.03857
7.052,-0.00326
7.056,-0.00841
7.06,0.04936
7.064,0.00935
7.068,-1e-05
7.072,-0.02297
7.076,-0.07573
7.08,0.0142
7.084,0.00786
7.088,-0.05419
7.092,-0.04994
7.096,-0.00536
7.1,0.02303
7.104,0.02194
7.108,0.029
7.112,-0.02135
7.116,0.00141
7.12,0.01888
7.124,0.00297
7.128,-0.02497
7.132,0.0342
7.136,-0.04963
7.14,0.00405
7.144,-0.04038
7.148,-0.02005
7.152,-0.02188
7.156,0.03587
7.16,0.00645
7.164,0.01437
7.168,0.01719
7.172,-0.05791
7.176,-0.05451
7.18,-0.02429
7.184,-0.02126
7.188,-0.01175
7.192,-0.00183
7.196,0.00968
7.2,-0.06769
7.204,-0.03206
7.208,-0.07246
7.212,-0.03308
7.216,-0.0345
7.22,-0.0264
7.224,-0.00337
7.228,0.04709
7.232,-0.03756
7.236,-0.02713
7.24,-0.07841
7.244,0.01968
7.248,-0.00974
7.252,-0.08371
7.256,-0.0401
7.26,-0.02489
7.264,0.04355
7.268,-0.04175
7.272,-0.00133
7.276,0.08462
7.28,0.02046
7.284,0.00156
7.288,0.02498
7.292,0.03517
7.296,0.03558
7.3,0.02866
7.304,-0.04869
7.308,-0.00128
7.312,-0.03865
7.316,-0.0508
7.32,0.0235
7.324,0.00104
7.328,-0.01474
7.332,0.01896
7.336,-0.06128
7.34,-0.00433
7.344,-0.00437
7.348,-0.0112
7.352,-0.01695
7.356,-0.01398
7.36,0.03754
7.364,-0.04621
7.368,-0.00653
7.372,0.03072
7.376,-0.00154
7.38,-0.0403
7.384,-0.01809
7.388,-0.02079
7.392,-0.04428
7.396,-0.05594
7.4,-0.02548
7.404,0.02999
7.408,-0.02874
7.412,0.03164
7.416,0.00947
7.42,-0.04585
7.424,0.00759
7.428,0.00634
7.432,0.03908
7.436,0.03576
7.44,-0.01453
7.444,0.06773
7.448,0.04173
7.452,0.04853
7.456,0.03356
7.46,0.00355
7.464,0.03009
7.468,0.06955
7.472,0.04455
7.476,0.06503
7.48,0.15095
7.484,0.08137
7.488,0.06837
7.492,0.07279
7.496,0.043
7.5,-0.0065
7.504,0.04313
7.508,0.08506
7.512,-0.00102
7.516,-0.00217
7.52,0.03474
7.524,0.05223
7.528,-0.01533
7.532,0.00715
7.536,0.05573
7.54,0.03563
7.544,-0.0364
7.548,-0.06103
7.552,0.01194
7.556,-0.00107
7.56,0.03672
7.564,0.0192
7.568,0.02633
7.572,-0.02026
7.576,0.06323
7.58,0.0078
7.584,-0.05907
7.588,-0.00157
7.592,0.00532
7.596,-0.01883
7.6,-0.08574
7.604,-0.0893
7.608,-0.10965
7.612,-0.10673
7.616,-0.0658
7.62,0.13384
7.624,0.32375
7.628,0.50978
7.632,0.72111
7.636,0.81954
7.64,0.97407
7.644,0.98906
7.648,0.80855
7.652,0.64131
7.656,0.4381
7.66,0.19936
7.664,0.02243
7.668,-0.10305
7.672,-0.12196
7.676,-0.20667
7.68,-0.17864
7.684,-0.13563
7.688,-0.04538
7.692,0.00496
7.696,0.00949
7.7,0.00101
7.704,0.03132
7.708,0.06669
7.712,0.13969
7.716,0.04951
7.72,0.12707
7.724,0.13882
7.728,0.10184
7.732,0.03112
7.736,0.06619
7.74,0.09232
7.744,0.05064
7.748,-0.01171
7.752,0.07286
7.756,0.03023
7.76,-0.02004
7.764,0.0038
7.768,-0.01757
7.772,0.03519
7.776,-0.0444
7.78,0.01566
7.784,-0.02673
7.788,0.037
7.792,-0.03362
7.796,0.01559
7.8,0.04365
7.804,0.01976
7.808,-0.0428
7.812,0.00644
7.816,0.00652
7.82,0.0047
7.824,0.05181
7.828,0.05266
7.832,0.01086
7.836,0.02249
7.84,0.13267
7.844,-0.03212
7.848,0.01987
7.852,-0.0196
7.856,-0.00503
7.86,-0.02989
7.864,-0.0476
7.868,0.19118
7.872,0.31818
7.876,0.49232
7.88,0.74531
7.884,1.02381
7.888,1.13464
7.892,1.19423
7.896,1.09731
7.9,0.97215
7.904,0.77924
7.908,0.48432
7.912,0.34791
7.916,0.21615
7.92,0.06367
7.924,0.083
7.928,0.06047
7.932,0.08799
7.936,0.14853
7.94,0.17301
7.944,0.20782
7.948,0.13758
7.952,0.22565
7.956,0.13864
7.96,0.11586
7.964,0.12954
7.968,0.16165
7.972,0.09986
7.976,0.12674
7.98,0.05988
7.984,0.11036
7.988,0.06235
7.992,0.1359
7.996,0.10416
8.0,0.09601
8.004,0.13881
8.008,0.14857
8.012,0.08576
8.016,0.00878
8.02,0.0848
8.024,0.05955
8.028,0.02851
8.032,-0.01162
8.036,-0.00657
8.04,0.02714
8.044,0.01213
8.048,0.0728
8.052,0.04393
8.056,0.0341
8.06,0.0222
8.064,0.04099
8.068,0.03848
8.072,0.01064
8.076,-0.02035
8.08,0.04907
8.084,0.02597
8.088,0.08604
8.092,0.00358
8.096,0.07097
8.1,0.10451
8.104,0.07189
8.108,0.11716
8.112,0.14358
8.116,0.10428
8.12,0.12696
8.124,0.14254
8.128,0.15988
8.132,0.12749
8.136,0.10017
8.14,0.25076
8.144,0.26178
8.148,0.16564
8.152,0.15481
8.156,0.22272
8.16,0.30589
8.164,0.22697
8.168,0.29433
8.172,0.19343
8.176,0.2437
8.18,0.26647
8.184,0.2247
8.188,0.2983
8.192,0.33205
8.196,0.19558
8.2,0.23832
8.204,0.24085
8.208,0.2176
8.212,0.24961
8.216,0.24461
8.22,0.19361
8.224,0.23714
8.228,0.22457
8.232,0.24483
8.236,0.19216
8.24,0.17747
8.244,0.08734
8.248,0.09398
8.252,0.09851
8.256,0.14671
8.26,0.04517
8.264,0.09206
8.268,0.08975
8.272,0.00659
8.276,0.03186
8.28,0.03495
8.284,0.03642
8.288,0.03473
8.292,-0.01346
8.296,0.02231
8.3,0.01855
8.304,0.10209
8.308,0.0222
8.312,0.01026
8.316,-0.00789
8.32,-0.05835
8.324,-0.04706
8.328,0.07919
8.332,0.04965
8.336,-0.00094
8.34,0.01094
8.344,-0.03272
8.348,-0.10993
8.352,-0.07946
8.356,0.00685
8.36,0.11742
8.364,0.2581
8.368,0.44649
8.372,0.72096
8.376,0.84422
8.38,1.03706
8.384,0.98091
8.388,0.88054
8.392,0.66255
8.396,0.45275
8.4,0.26106
8.404,0.05906
8.408,-0.02388
8.412,-0.13359
8.416,-0.16872
8.42,-0.15064
8.424,-0.04127
8.428,-0.0565
8.432,0.04723
8.436,-0.00528
8.44,-0.03057
8.444,0.03144
8.448,0.01937
8.452,-0.03162
8.456,0.05531
8.46,-0.04265
8.464,0.03088
8.468,0.01519
8.472,0.03528
8.476,0.04361
8.48,0.0537
8.484,0.02252
8.488,-0.00706
8.492,0.03499
8.496,0.07042
8.5,0.00372
8.504,-0.00661
8.508,0.00703
8.512,0.05212
8.516,-0.03727
8.52,0.02511
8.524,0.01049
8.528,0.01547
8.532,0.08319
8.536,0.03515
8.54,0.04141
8.544,0.01457
8.548,0.02656
8.552,0.07554
8.556,0.0307
8.56,0.06349
8.564,0.06559
8.568,0.02014
8.572,0.06447
8.576,0.03593
8.58,0.0537
8.584,0.02954
8.588,0.01824
8.592,0.07449
8.596,0.07707
8.6,0.06447
8.604,0.08367
8.608,0.18359
8.612,0.10208
8.616,0.18579
8.62,0.17172
8.624,0.16167
8.628,0.17259
8.632,0.22715
8.636,0.25328
8.64,0.20488
8.644,0.20169
8.648,0.21165
8.652,0.31411
8.656,0.28805
8.66,0.33594
8.664,0.25131
8.668,0.2596
8.672,0.24711
8.676,0.2128
8.68,0.18541
8.684,0.21607
8.688,0.20569
8.692,0.22773
8.696,0.1805
8.7,0.12406
8.704,0.15765
8.708,0.17985
8.712,0.1557
8.716,0.09138
8.72,0.1
8.724,0.09623
8.728,0.09521
8.732,0.11938
8.736,0.09998
8.74,0.11058
8.744,0.07489
8.748,0.03889
8.752,0.04662
8.756,0.02914
8.76,0.06284
8.764,0.04471
8.768,0.04564
8.772,0.01299
8.776,0.07669
8.78,0.01463
8.784,0.0337
8.788,0.06901
8.792,0.02297
8.796,0.08539
8.8,0.08976
8.804,0.08733
8.808,0.00578
8.812,0.01497
8.816,0.02745
8.82,0.00842
8.824,0.08793
8.828,-0.00575
8.832,0.05497
8.836,0.02735
8.84,0.05808
8.844,0.02955
8.848,0.07141
8.852,0.05338
8.856,0.04234
8.86,0.02086
8.864,0.03322
8.868,0.00429
8.872,-0.00699
8.876,-0.00432
8.88,0.02916
8.884,0.03754
8.888,0.04789
8.892,-0.00619
8.896,0.00114
8.9,0.06742
8.904,0.05539
8.908,0.00253
8.912,0.01974
8.916,0.07539
8.92,0.00348
8.924,0.0104
8.928,0.00392
8.932,-0.00044
8.936,0.14533
8.94,-0.028
8.944,0.05586
8.948,0.0649
8.952,0.08954
8.956,0.10906
8.96,0.1006
8.964,0.18971
8.968,0.05698
8.972,0.1431
8.976,0.20934
8.98,0.1186
8.984,0.11745
8.988,0.16229
8.992,0.15298
8.996,0.11082
9.0,0.09242
9.004,0.06634
9.008,0.04203
9.012,0.05083
9.016,0.05018
9.02,0.02669
9.024,0.01338
9.028,0.05447
9.032,0.02461
9.036,0.07917
9.04,0.029
9.044,0.05002
9.048,-0.06767
9.052,0.04671
9.056,0.01365
9.06,0.06321
9.064,0.07734
9.068,-0.00566
9.072,0.05325
9.076,0.04747
9.08,0.04186
9.084,-0.01659
9.088,-0.01203
9.092,0.09434
9.096,-0.01571
9.1,0.00185
9.104,-0.04178
9.108,-0.09165
9.112,-0.04825
9.116,-0.01372
9.12,0.09934
9.124,0.33748
9.128,0.54048
9.132,0.76058
9.136,0.9204
9.14,1.01849
9.144,0.96073
9.148,0.81688
9.152,0.74469
9.156,0.44453
9.16,0.2506
9.164,0.02682
9.168,-0.06762
9.172,-0.13463
9.176,-0.20049
9.18,-0.01446
9.184,-0.01791
9.188,-0.04432
9.192,0.01158
9.196,0.02649
9.2,0.07345
9.204,0.02648
9.208,0.01481
9.212,0.02926
9.216,-0.00594
9.22,-0.02114
9.224,0.05389
9.228,0.01426
9.232,0.04528
9.236,-0.00924
9.24,0.03338
9.244,0.13645
9.248,-0.00809
9.252,0.0331
9.256,-0.00265
9.26,-1e-05
9.264,0.08082
9.268,0.03078
9.272,-0.04133
9.276,0.01547
9.28,0.03107
9.284,0.04606
9.288,0.01061
9.292,0.08048
9.296,0.02378
9.3,0.05048
9.304,0.00764
9.308,0.07438
9.312,0.05749
9.316,0.0582
9.32,0.06658
9.324,0.07305
9.328,0.02477
9.332,0.11046
9.336,0.04624
9.34,0.05717
9.344,0.05938
9.348,0.07511
9.352,0.02438
9.356,0.12781
9.36,0.10162
9.364,0.18375
9.368,0.18195
9.372,0.10459
9.376,0.14595
9.38,0.26279
9.384,0.28951
9.388,0.25423
9.392,0.22771
9.396,0.19552
9.4,0.24987
9.404,0.29277
9.408,0.24796
9.412,0.27875
9.416,0.20431
9.42,0.26164
9.424,0.26133
9.428,0.23821
9.432,0.25164
9.436,0.158
9.44,0.17166
9.444,0.20076
9.448,0.19751
9.452,0.26008
9.456,0.2263
9.46,0.17023
9.464,0.19948
9.468,0.20304
9.472,0.18737
9.476,0.16127
9.48,0.16465
9.484,0.1536
9.488,0.09992
9.492,0.17378
9.496,0.06325
9.5,0.02486
9.504,0.08602
9.508,0.08427
9.512,0.03942
9.516,0.00559
9.52,0.0138
9.524,-0.05378
9.528,0.03356
9.532,0.03977
9.536,0.05884
9.54,-0.00288
9.544,0.03135
9.548,0.04586
9.552,0.0659
9.556,0.04776
9.56,0.05058
9.564,0.01348
9.568,0.04182
9.572,0.07853
9.576,0.0681
9.58,0.15141
9.584,0.11482
9.588,0.13355
9.592,0.12681
9.596,0.13043
9.6,0.10398
9.604,0.13525
9.608,0.03378
9.612,0.04178
9.616,0.10743
9.62,0.09669
9.624,0.05423
9.628,-0.00029
9.632,0.06713
9.636,0.05252
9.64,-0.00044
9.644,0.03743
9.648,0.02835
9.652,0.01986
9.656,0.07914
9.66,0.0145
9.664,0.01446
9.668,0.05353
9.672,0.0609
9.676,0.0848
9.68,-0.00461
9.684,-0.02363
9.688,0.04435
9.692,-0.01319
9.696,-0.01091
9.7,-0.0109
9.704,-0.01264
9.708,0.02526
9.712,-0.00046
9.716,-0.02084
9.72,-0.0509
9.724,-0.07373
9.728,-0.00989
9.732,0.22221
9.736,0.38901
9.74,0.62408
9.744,0.85473
9.748,0.98592
9.752,1.0826
9.756,0.98
9.76,0.81546
9.764,0.60653
9.768,0.34678
9.772,0.14311
9.776,-0.02031
9.78,-0.08472
9.784,-0.13048
9.788,-0.10592
9.792,-0.08085
9.796,-0.1549
9.8,-0.00792
9.804,-0.00433
9.808,-0.00021
9.812,0.01887
9.816,0.00561
9.82,0.01531
9.824,0.04744
9.828,0.01503
9.832,0.06115
9.836,-0.01563
9.84,0.01295
9.844,0.04341
9.848,0.00858
9.852,0.04462
9.856,0.0732
9.86,0.026
9.864,0.0192
9.868,0.03964
9.872,0.07439
9.876,0.0435
9.88,0.08133
9.884,-0.00479
9.888,0.07807
9.892,0.08643
9.896,0.05427
9.9,0.03199
9.904,0.02602
9.908,0.09596
9.912,0.02518
9.916,-0.00779
9.92,0.06187
9.924,0.05582
9.928,-0.04235
9.932,0.08382
9.936,0.02662
9.94,0.09971
9.944,0.05996
9.948,0.05812
9.952,0.03747
9.956,0.12164
9.96,0.07216
9.964,0.1211
9.968,0.10253
9.972,0.1266
9.976,0.11097
9.98,0.11289
9.984,0.18191
9.988,0.16382
9.992,0.16401
9.996,0.15478
