t_seg,ecg_mV
0.0,0.00114
0.004,0.02711
0.008,-0.01199
0.012,0.02774
0.016,0.04018
0.02,0.01847
0.024,0.01053
0.028,0.02503
0.032,0.02556
0.036,0.02165
0.04,0.01375
0.044,0.02815
0.048,0.01809
0.052,0.01162
0.056,0.03037
0.06,0.02827
0.064,0.02345
0.068,0.04544
0.072,0.02065
0.076,0.0222
0.08,0.04238
0.084,0.00839
0.088,0.03646
0.092,0.05112
0.096,0.01597
0.1,0.02673
0.104,0.03615
0.108,0.03439
0.112,0.03899
0.116,0.04804
0.12,0.02604
0.124,0.02012
0.128,0.03254
0.132,0.0585
0.136,0.04374
0.14,0.04816
0.144,0.045
0.148,0.0178
0.152,0.02378
0.156,0.01581
0.16,0.01985
0.164,0.01447
0.168,0.02978
0.172,0.01152
0.176,0.02674
0.18,0.03782
0.184,0.02225
0.188,0.0222
0.192,0.01529
0.196,0.03465
0.2,0.0119
0.204,0.04126
0.208,0.04802
0.212,0.02087
0.216,0.05534
0.22,0.05516
0.224,0.05756
0.228,0.05784
0.232,0.09941
0.236,0.12214
0.24,0.08522
0.244,0.15069
0.248,0.12685
0.252,0.12758
0.256,0.12352
0.26,0.11942
0.264,0.10634
0.268,0.11697
0.272,0.05822
0.276,0.07757
0.28,0.05858
0.284,0.04616
0.288,0.04563
0.292,0.05069
0.296,0.02618
0.3,0.02294
0.304,0.01494
0.308,0.02688
0.312,0.02663
0.316,0.05144
0.32,0.02936
0.324,0.01137
0.328,0.00872
0.332,0.04278
0.336,0.04375
0.34,0.02278
0.344,0.03708
0.348,0.0319
0.352,0.03343
0.356,0.0335
0.36,0.0505
0.364,0.01582
0.368,-0.016
0.372,-0.04887
0.376,-0.05087
0.38,-0.10551
0.384,-0.04309
0.388,0.08718
0.392,0.23514
0.396,0.42928
0.4,0.64531
0.404,0.83788
0.408,1.00087
0.412,1.04817
0.416,0.94131
0.42,0.79055
0.424,0.56368
0.428,0.33779
0.432,0.12031
0.436,-0.02087
0.44,-0.12268
0.444,-0.13601
0.448,-0.08957
0.452,-0.08505
0.456,-0.02993
0.46,0.00176
0.464,0.01311
0.468,0.01405
0.472,0.01997
0.476,0.03784
0.48,0.03478
0.484,0.04082
0.488,0.06188
0.492,0.00905
0.496,0.04561
0.5,0.04266
0.504,0.01752
0.508,0.05396
0.512,0.03296
0.516,0.02557
0.52,0.03343
0.524,0.06122
0.528,0.00429
0.532,0.03659
0.536,0.0554
0.54,0.04323
0.544,0.01795
0.548,0.0284
0.552,0.04654
0.556,0.02871
0.56,0.02693
0.564,0.02032
0.568,0.0311
0.572,0.04537
0.576,0.02377
0.58,0.05277
0.584,0.02632
0.588,0.05286
0.592,0.04118
0.596,0.03213
0.6,0.04603
0.604,0.01292
0.608,0.07431
0.612,0.10147
0.616,0.05739
0.62,0.09022
0.624,0.07707
0.628,0.1229
0.632,0.11899
0.636,0.12936
0.64,0.1771
0.644,0.13007
0.648,0.16604
0.652,0.19918
0.656,0.14458
0.66,0.2057
0.664,0.19351
0.668,0.24813
0.672,0.21838
0.676,0.21793
0.68,0.23266
0.684,0.25172
0.688,0.24338
0.692,0.24033
0.696,0.24071
0.7,0.25732
0.704,0.22564
0.708,0.22361
0.712,0.2365
0.716,0.21206
0.72,0.19361
0.724,0.17916
0.728,0.18358
0.732,0.17788
0.736,0.17406
0.74,0.16271
0.744,0.14059
0.748,0.13506
0.752,0.11287
0.756,0.10252
0.76,0.09789
0.764,0.09703
0.768,0.10122
0.772,0.08513
0.776,0.07667
0.78,0.0561
0.784,0.05764
0.788,0.03432
0.792,0.04672
0.796,0.04887
0.8,0.03502
0.804,0.0349
0.808,0.04831
0.812,0.03768
0.816,0.039
0.82,0.01125
0.824,0.0452
0.828,0.04053
0.832,0.01783
0.836,0.02096
0.84,0.00734
0.844,0.04155
0.848,0.04936
0.852,0.03848
0.856,0.02326
0.86,0.03438
0.864,0.0343
0.868,0.02201
0.872,0.0469
0.876,0.0276
0.88,0.03845
0.884,0.04038
0.888,0.04856
0.892,0.02174
0.896,0.02242
0.9,0.02194
0.904,0.02869
0.908,0.0179
0.912,0.03871
0.916,0.01631
0.92,0.04273
0.924,0.04339
0.928,0.04717
0.932,0.00152
0.936,0.01821
0.94,0.02668
0.944,0.03447
0.948,0.04414
0.952,0.00398
0.956,0.0009
0.96,0.03344
0.964,0.01623
0.968,0.04381
0.972,0.0031
0.976,0.02403
0.98,0.03006
0.984,0.03982
0.988,0.03466
0.992,0.00718
0.996,0.04172
1.0,0.03381
1.004,0.01304
1.008,0.03507
1.012,0.05282
1.016,0.02012
1.02,0.04836
1.024,0.02607
1.028,0.03239
1.032,0.02518
1.036,0.02667
1.04,0.01646
1.044,0.03948
1.048,0.03138
1.052,0.02993
1.056,0.03198
1.06,0.03985
1.064,-0.00054
1.068,0.03245
1.072,0.03837
1.076,0.04614
1.08,0.08605
1.084,0.06752
1.088,0.08746
1.092,0.11617
1.096,0.1496
1.1,0.10158
1.104,0.14218
1.108,0.12661
1.112,0.12092
1.116,0.08921
1.12,0.12326
1.124,0.06371
1.128,0.09243
1.132,0.04986
1.136,0.04397
1.14,0.03998
1.144,0.0333
1.148,0.02982
1.152,0.04625
1.156,0.02733
1.16,0.03023
1.164,0.04851
1.168,0.02204
1.172,0.00791
1.176,0.01541
1.18,0.01331
1.184,0.02222
1.188,0.04363
1.192,0.01742
1.196,0.02328
1.2,0.0525
1.204,0.00845
1.208,0.01872
1.212,0.03233
1.216,0.02543
1.22,0.00412
1.224,-0.04823
1.228,-0.0753
1.232,-0.08606
1.236,-0.05616
1.24,0.02627
1.244,0.1545
1.248,0.38048
1.252,0.61195
1.256,0.82199
1.26,0.96055
1.264,1.02684
1.268,0.9764
1.272,0.80768
1.276,0.6187
1.28,0.36576
1.284,0.15728
1.288,-0.00233
1.292,-0.10732
1.296,-0.17203
1.3,-0.13734
1.304,-0.10139
1.308,-0.07061
1.312,-0.05418
1.316,-0.01657
1.32,0.01225
1.324,-0.00796
1.328,0.02164
1.332,0.04746
1.336,0.04809
1.34,0.04901
1.344,0.00265
1.348,0.00605
1.352,0.01173
1.356,0.00045
1.36,0.03808
1.364,0.02478
1.368,0.03125
1.372,0.01923
1.376,0.02885
1.38,0.03084
1.384,0.02825
1.388,-0.0066
1.392,0.04102
1.396,0.03898
1.4,0.0131
1.404,0.01471
1.408,0.03382
1.412,0.01519
1.416,0.00627
1.42,0.04481
1.424,0.02763
1.428,0.02805
1.432,0.02398
1.436,0.04657
1.44,0.05729
1.444,0.0283
1.448,0.03834
1.452,0.07517
1.456,0.05686
1.46,0.06084
1.464,0.05849
1.468,0.07694
1.472,0.08667
1.476,0.10292
1.48,0.09489
1.484,0.12664
1.488,0.11471
1.492,0.13017
1.496,0.13035
1.5,0.13683
1.504,0.1614
1.508,0.19273
1.512,0.1833
1.516,0.19492
1.52,0.22957
1.524,0.20516
1.528,0.21729
1.532,0.2195
1.536,0.24285
1.54,0.22812
1.544,0.24161
1.548,0.22999
1.552,0.2434
1.556,0.23123
1.56,0.22799
1.564,0.21161
1.568,0.20469
1.572,0.1824
1.576,0.17063
1.58,0.17883
1.584,0.13713
1.588,0.12931
1.592,0.13764
1.596,0.13975
1.6,0.12895
1.604,0.12395
1.608,0.09041
1.612,0.09342
1.616,0.09143
1.62,0.08078
1.624,0.08154
1.628,0.06087
1.632,0.0853
1.636,0.04642
1.64,0.03267
1.644,0.03851
1.648,0.04079
1.652,0.05289
1.656,0.03767
1.66,0.02756
1.664,0.05568
1.668,0.01199
1.672,0.02652
1.676,0.00302
1.68,0.01268
1.684,-0.01507
1.688,0.0305
1.692,0.02553
1.696,0.03243
1.7,0.02918
1.704,0.00478
1.708,0.01014
1.712,0.0026
1.716,0.0075
1.72,0.00335
1.724,0.0302
1.728,0.01348
1.732,0.01836
1.736,0.01738
1.74,0.05007
1.744,0.03218
1.748,-0.00523
1.752,0.0128
1.756,0.01787
1.76,0.01751
1.764,-0.0049
1.768,0.00515
1.772,0.02781
1.776,0.03142
1.78,0.03141
1.784,-0.0044
1.788,0.02265
1.792,0.01309
1.796,0.00217
1.8,0.01322
1.804,0.03349
1.808,-0.00015
1.812,-0.00774
1.816,0.00096
1.82,0.03054
1.824,0.01179
1.828,0.01832
1.832,-0.01176
1.836,0.01742
1.84,0.01885
1.844,0.0095
1.848,0.00604
1.852,0.01408
1.856,0.01906
1.86,-0.00631
1.864,0.00078
1.868,-0.00815
1.872,0.03057
1.876,0.00925
1.88,0.00278
1.884,0.05028
1.888,-0.01029
1.892,0.00366
1.896,-0.00167
1.9,0.0224
1.904,0.02701
1.908,0.00655
1.912,0.00025
1.916,0.01436
1.92,0.03237
1.924,0.01962
1.928,-0.02322
1.932,0.02477
1.936,0.01994
1.94,-0.01223
1.944,0.01369
1.948,0.00142
1.952,0.02993
1.956,0.01297
1.96,-0.01089
1.964,-0.01279
1.968,0.0077
1.972,0.00754
1.976,0.04599
1.98,0.01618
1.984,0.02857
1.988,0.04339
1.992,0.05886
1.996,0.08192
2.0,0.08939
2.004,0.10095
2.008,0.12317
2.012,0.09391
2.016,0.10044
2.02,0.09273
2.024,0.10396
2.028,0.09118
2.032,0.07217
2.036,0.05074
2.04,0.05976
2.044,0.04105
2.048,0.04432
2.052,0.00906
2.056,0.02409
2.06,0.03363
2.064,-0.01073
2.068,0.02819
2.072,0.01688
2.076,-0.00279
2.08,0.00623
2.084,0.0162
2.088,0.01691
2.092,-0.01449
2.096,0.00149
2.1,0.00652
2.104,0.01446
2.108,-0.01107
2.112,0.01004
2.116,0.00519
2.12,0.00298
2.124,0.02596
2.128,0.01492
2.132,-0.01562
2.136,-0.06969
2.14,-0.10601
2.144,-0.10337
2.148,-0.08931
2.152,-0.00393
2.156,0.18626
2.16,0.35331
2.164,0.56945
2.168,0.82477
2.172,0.92639
2.176,1.01751
2.18,0.95966
2.184,0.79738
2.188,0.56777
2.192,0.37039
2.196,0.15407
2.2,-0.02226
2.204,-0.10455
2.208,-0.17012
2.212,-0.1643
2.216,-0.12108
2.22,-0.08076
2.224,-0.0446
2.228,-0.00308
2.232,-0.0368
2.236,-0.00276
2.24,0.02127
2.244,-0.01214
2.248,-0.02937
2.252,-0.00936
2.256,-0.00948
2.26,-0.02401
2.264,-0.00682
2.268,0.00557
2.272,0.01942
2.276,0.01512
2.28,-0.01032
2.284,-0.00782
2.288,-0.00515
2.292,0.01839
2.296,0.00272
2.3,-0.00636
2.304,0.00615
2.308,0.03795
2.312,0.01873
2.316,-0.02174
2.32,-0.02115
2.324,0.03157
2.328,-0.01307
2.332,-0.00354
2.336,0.00187
2.34,-0.00151
2.344,0.00208
2.348,0.01877
2.352,0.00104
2.356,0.0228
2.36,0.01886
2.364,0.0229
2.368,0.0172
2.372,0.0338
2.376,0.00682
2.38,0.03253
2.384,0.04245
2.388,0.07214
2.392,0.10935
2.396,0.07321
2.4,0.07842
2.404,0.09515
2.408,0.11233
2.412,0.12695
2.416,0.13788
2.42,0.13057
2.424,0.18666
2.428,0.19151
2.432,0.16046
2.436,0.22052
2.44,0.18829
2.444,0.21472
2.448,0.2182
2.452,0.21162
2.456,0.19517
2.46,0.20131
2.464,0.21284
2.468,0.19984
2.472,0.2125
2.476,0.18089
2.48,0.18582
2.484,0.19251
2.488,0.14999
2.492,0.158
2.496,0.16186
2.5,0.11979
2.504,0.1196
2.508,0.13349
2.512,0.10679
2.516,0.07938
2.52,0.05144
2.524,0.06769
2.528,0.0667
2.532,0.05138
2.536,0.05494
2.54,0.04063
2.544,0.0471
2.548,0.03232
2.552,0.03393
2.556,0.01194
2.56,0.01585
2.564,0.0066
2.568,0.02776
2.572,0.00211
2.576,-0.00162
2.58,-0.00796
2.584,-0.0036
2.588,0.00751
2.592,0.00892
2.596,-0.01915
2.6,-0.04117
2.604,0.01489
2.608,0.00155
2.612,-0.01552
2.616,-0.00524
2.62,-0.01126
2.624,-0.0008
2.628,0.00909
2.632,-0.02286
2.636,-0.02106
2.64,-0.02103
2.644,-0.02084
2.648,-0.01152
2.652,-0.03946
2.656,-0.00523
2.66,-0.02631
2.664,-0.02835
2.668,-0.01089
2.672,-0.03179
2.676,-0.03045
2.68,-0.0123
2.684,-0.00873
2.688,-0.00845
2.692,-0.01993
2.696,-0.01295
2.7,-0.01072
2.704,-0.01025
2.708,-0.02236
2.712,-0.00169
2.716,-0.04489
2.72,-0.01738
2.724,-0.00356
2.728,-0.04069
2.732,-0.0141
2.736,-0.00754
2.74,-0.01705
2.744,-0.01902
2.748,-0.00973
2.752,-0.00279
2.756,0.00284
2.76,-0.01378
2.764,-0.03938
2.768,-0.01714
2.772,-0.0071
2.776,-0.01755
2.78,0.00082
2.784,-0.0048
2.788,-0.00346
2.792,-0.02594
2.796,-0.01578
2.8,0.0077
2.804,-0.01282
2.808,-0.0194
2.812,0.02479
2.816,-0.02216
2.82,0.00145
2.824,-0.00225
2.828,-0.00916
2.832,0.03148
2.836,0.02573
2.84,0.01344
2.844,0.05877
2.848,0.09192
2.852,0.07398
2.856,0.05959
2.86,0.09118
2.864,0.11066
2.868,0.08184
2.872,0.0545
2.876,0.05957
2.88,0.04379
2.884,0.04679
2.888,0.04664
2.892,0.00072
2.896,0.00347
2.9,0.01548
2.904,-0.0146
2.908,-0.00454
2.912,-0.03036
2.916,-0.00474
2.92,-0.00133
2.924,-0.02689
2.928,-0.02437
2.932,-0.01109
2.936,-0.0432
2.94,-0.02794
2.944,-0.03365
2.948,-0.03432
2.952,-0.02354
2.956,-0.02864
2.96,-0.03789
2.964,-0.03474
2.968,0.00041
2.972,-0.03569
2.976,-0.04591
2.98,-0.08866
2.984,-0.09277
2.988,-0.11488
2.992,-0.12866
2.996,-0.0782
3.0,0.03036
3.004,0.21346
3.008,0.43436
3.012,0.64643
3.016,0.82336
3.02,0.95205
3.024,1.00304
3.028,0.86835
3.032,0.70867
3.036,0.47324
3.04,0.2648
3.044,0.04586
3.048,-0.08842
3.052,-0.15378
3.056,-0.20522
3.06,-0.15894
3.064,-0.11817
3.068,-0.10415
3.072,-0.03476
3.076,-0.06652
3.08,-0.01589
3.084,-0.01058
3.088,0.00803
3.092,-0.04108
3.096,-0.00442
3.1,-0.02299
3.104,-0.05343
3.108,-0.02863
3.112,-0.05008
3.116,-0.01338
3.12,-0.03524
3.124,-0.0512
3.128,-0.03639
3.132,-0.01827
3.136,-0.04373
3.14,-0.02536
3.144,-0.01181
3.148,-0.0359
3.152,-0.0422
3.156,-0.03534
3.16,-0.04448
3.164,-0.02391
3.168,-0.02388
3.172,0.00758
3.176,-0.00815
3.18,-0.03676
3.184,-0.02736
3.188,-0.00903
3.192,-0.03392
3.196,-0.02639
3.2,-0.01047
3.204,-0.00223
3.208,0.01935
3.212,0.00142
3.216,0.00512
3.22,0.00998
3.224,0.0241
3.228,0.04165
3.232,0.03493
3.236,0.06113
3.24,0.06197
3.244,0.0826
3.248,0.05426
3.252,0.09721
3.256,0.06885
3.26,0.12971
3.264,0.11604
3.268,0.15409
3.272,0.16042
3.276,0.15548
3.28,0.15654
3.284,0.16697
3.288,0.17187
3.292,0.17893
3.296,0.15848
3.3,0.19887
3.304,0.19648
3.308,0.22097
3.312,0.17504
3.316,0.167
3.32,0.19073
3.324,0.16975
3.328,0.15755
3.332,0.15641
3.336,0.14656
3.34,0.10951
3.344,0.11614
3.348,0.10236
3.352,0.10311
3.356,0.06702
3.36,0.07487
3.364,0.06164
3.368,0.06053
3.372,0.05259
3.376,0.07727
3.38,0.0237
3.384,0.00267
3.388,0.00443
3.392,-0.01104
3.396,0.00097
3.4,0.00453
3.404,0.00311
3.408,-0.03941
3.412,-0.02947
3.416,-0.03011
3.42,-0.01985
3.424,-0.00209
3.428,-0.01799
3.432,-0.0152
3.436,-0.02231
3.44,-0.0347
3.444,-0.02187
3.448,-0.02033
3.452,-0.02952
3.456,-0.01844
3.46,-0.01723
3.464,-0.01301
3.468,-0.02403
3.472,-0.03057
3.476,-0.01486
3.48,-0.0323
3.484,-0.00455
3.488,-0.0455
3.492,-0.04211
3.496,-0.03866
3.5,-0.03892
3.504,-0.04878
3.508,-0.01663
3.512,-0.03053
3.516,-0.02247
3.52,-0.03318
3.524,-0.03328
3.528,-0.04104
3.532,-0.03068
3.536,-0.03165
3.54,-0.01191
3.544,-0.02192
3.548,-0.0285
3.552,-0.03171
3.556,0.0031
3.56,-0.02924
3.564,-0.05067
3.568,-0.0297
3.572,-0.03751
3.576,-0.02999
3.58,-0.03178
3.584,-0.00834
3.588,-0.03737
3.592,-0.0314
3.596,-0.02955
3.6,-0.04348
3.604,-0.00332
3.608,-0.0091
3.612,-0.02848
3.616,-0.01078
3.62,-0.05082
3.624,-0.04788
3.628,-0.02975
3.632,-0.05067
3.636,-0.05325
3.64,-0.035
3.644,-0.0223
3.648,-0.01978
3.652,-0.03801
3.656,-0.02581
3.66,-0.02958
3.664,-0.03661
3.668,-0.04298
3.672,-0.01667
3.676,-0.00379
3.68,-0.02146
3.684,-0.01812
3.688,-0.02354
3.692,-0.02482
3.696,-0.02594
3.7,-0.00018
3.704,-0.00518
3.708,-0.01913
3.712,-0.02038
3.716,-0.03959
3.72,-0.02709
3.724,-0.02087
3.728,-0.02738
3.732,-0.0415
3.736,-0.03414
3.74,-0.03847
3.744,-0.03306
3.748,-0.0411
3.752,0.0025
3.756,-0.04543
3.76,-0.05979
3.764,-0.04665
3.768,-0.02805
3.772,-0.03677
3.776,-0.0332
3.78,-0.01585
3.784,-0.04533
3.788,-0.01769
3.792,-0.04389
3.796,-0.04063
3.8,-0.00937
3.804,-0.02447
3.808,-0.02765
3.812,-0.03953
3.816,-0.00814
3.82,-0.03631
3.824,-0.03937
3.828,-0.0084
3.832,-0.03929
3.836,-0.00535
3.84,0.02332
3.844,0.02659
3.848,0.0464
3.852,0.01953
3.856,0.03942
3.86,0.05639
3.864,0.07603
3.868,0.06412
3.872,0.04548
3.876,0.06071
3.88,0.03568
3.884,0.03705
3.888,0.02541
3.892,0.02828
3.896,-0.03159
3.9,0.01451
3.904,-0.012
3.908,-0.00692
3.912,-0.0126
3.916,-0.04368
3.92,-0.02997
3.924,-0.03711
3.928,-0.0596
3.932,-0.04771
3.936,-0.05324
3.94,-0.04164
3.944,-0.02219
3.948,-0.01408
3.952,-0.02416
3.956,-0.02351
3.96,-0.04758
3.964,-0.04707
3.968,-0.03084
3.972,-0.02502
3.976,-0.01457
3.98,-0.03865
3.984,-0.09451
3.988,-0.10411
3.992,-0.1497
3.996,-0.10507
4.0,-0.09326
4.004,0.07522
4.008,0.19566
4.012,0.42893
4.016,0.66152
4.02,0.82659
4.024,0.95608
4.028,0.96191
4.032,0.84839
4.036,0.67327
4.04,0.43848
4.044,0.23187
4.048,0.0261
4.052,-0.10266
4.056,-0.15923
4.06,-0.2331
4.064,-0.15496
4.068,-0.13293
4.072,-0.10001
4.076,-0.05641
4.08,-0.03304
4.084,-0.01744
4.088,-0.02762
4.092,-0.02965
4.096,-0.00836
4.1,-0.02526
4.104,-0.0377
4.108,-0.04107
4.112,-0.07507
4.116,-0.02586
4.12,-0.04282
4.124,-0.0376
4.128,-0.02319
4.132,-0.02364
4.136,-0.04121
4.14,-0.03998
4.144,0.01256
4.148,-0.02328
4.152,-0.02014
4.156,-0.03549
4.16,-0.03382
4.164,-0.05695
4.168,-0.02741
4.172,-0.01992
4.176,-0.01912
4.18,-0.01663
4.184,-0.0421
4.188,-0.00985
4.192,-0.00194
4.196,-0.03542
4.2,-0.00795
4.204,-0.02235
4.208,0.00289
4.212,0.00031
4.216,0.00318
4.22,0.02016
4.224,0.01214
4.228,0.0173
4.232,0.03621
4.236,0.06372
4.24,0.0161
4.244,0.05254
4.248,0.06328
4.252,0.07693
4.256,0.08326
4.26,0.11401
4.264,0.1306
4.268,0.13645
4.272,0.13357
4.276,0.14654
4.28,0.16379
4.284,0.1641
4.288,0.17271
4.292,0.1779
4.296,0.18861
4.3,0.20795
4.304,0.17546
4.308,0.1927
4.312,0.21272
4.316,0.20811
4.32,0.16477
4.324,0.19553
4.328,0.19636
4.332,0.15283
4.336,0.15847
4.34,0.10921
4.344,0.13178
4.348,0.10512
4.352,0.09768
4.356,0.08716
4.36,0.0779
4.364,0.05849
4.368,0.05567
4.372,0.06349
4.376,0.01717
4.38,0.00796
4.384,0.03831
4.388,0.02165
4.392,0.00957
4.396,0.00703
4.4,0.00578
4.404,-0.00076
4.408,-0.00638
4.412,-0.01634
4.416,-0.01627
4.42,-0.02379
4.424,-0.00688
4.428,0.01185
4.432,-0.03169
4.436,-0.02911
4.44,-0.00644
4.444,-0.0493
4.448,-0.0114
4.452,-0.01528
4.456,-0.00274
4.46,-0.02825
4.464,-0.04794
4.468,-0.04842
4.472,-0.03811
4.476,-0.01082
4.48,0.00164
4.484,-0.02682
4.488,-0.02457
4.492,-0.02514
4.496,-0.01225
4.5,-0.04046
4.504,-0.03242
4.508,-0.01366
4.512,-0.0045
4.516,-0.0303
4.52,-0.03981
4.524,-0.03081
4.528,-0.01527
4.532,-0.01009
4.536,-0.01436
4.54,-0.02109
4.544,-0.01973
4.548,-0.03163
4.552,-0.04298
4.556,-0.01646
4.56,-0.02813
4.564,-0.02395
4.568,-0.02395
4.572,-0.04298
4.576,0.01142
4.58,-0.0368
4.584,-0.02673
4.588,-0.03987
4.592,-0.03208
4.596,-0.05567
4.6,-0.02156
4.604,0.00503
4.608,-0.02025
4.612,-0.02487
4.616,-0.02822
4.62,-0.04446
4.624,-0.0333
4.628,-0.03567
4.632,-0.0334
4.636,-0.02465
4.64,-0.04271
4.644,-0.0352
4.648,-0.01772
4.652,-0.02381
4.656,-0.01103
4.66,-0.03771
4.664,-0.02427
4.668,-0.04466
4.672,0.00045
4.676,-0.04415
4.68,-0.01976
4.684,-0.03145
4.688,-0.00012
4.692,-0.01763
4.696,-0.00252
4.7,-0.03114
4.704,-0.01835
4.708,-0.02957
4.712,-0.03812
4.716,0.00241
4.72,-0.01218
4.724,-0.01634
4.728,-0.00695
4.732,-0.02316
4.736,0.00999
4.74,-0.02216
4.744,-0.01897
4.748,-0.00397
4.752,-0.01273
4.756,-0.03817
4.76,-0.02912
4.764,-0.03767
4.768,-0.03391
4.772,-0.03124
4.776,0.00815
4.78,-0.02102
4.784,-0.02051
4.788,-0.00851
4.792,-0.01679
4.796,-0.02536
4.8,-0.03104
4.804,-0.00986
4.808,-0.00851
4.812,-0.0381
4.816,-0.03173
4.82,-0.05921
4.824,-0.0206
4.828,-0.00503
4.832,-0.00805
4.836,-0.00836
4.84,-0.00957
4.844,-0.0142
4.848,-0.01489
4.852,0.04026
4.856,0.01306
4.86,0.02544
4.864,0.02999
4.868,0.06776
4.872,0.06064
4.876,0.0458
4.88,0.07711
4.884,0.11213
4.888,0.07129
4.892,0.05811
4.896,0.07613
4.9,0.05252
4.904,0.03306
4.908,0.03807
4.912,0.01251
4.916,0.01878
4.92,-0.02743
4.924,-0.01027
4.928,-0.02106
4.932,-0.01718
4.936,-0.00428
4.94,0.01965
4.944,-0.03799
4.948,-0.00139
4.952,-0.01351
4.956,-0.03896
4.96,-0.04616
4.964,0.00566
4.968,-0.00096
4.972,-0.04484
4.976,-0.01269
4.98,-0.00573
4.984,-0.02515
4.988,-0.01126
4.992,0.0061
4.996,-0.01638
5.0,-0.05431
5.004,-0.09068
5.008,-0.14572
5.012,-0.13315
5.016,-0.07813
5.02,0.06692
5.024,0.25084
5.028,0.45835
5.032,0.63964
5.036,0.82837
5.04,0.98483
5.044,0.9683
5.048,0.91404
5.052,0.70021
5.056,0.45711
5.06,0.24242
5.064,0.06671
5.068,-0.07727
5.072,-0.15322
5.076,-0.18673
5.08,-0.16732
5.084,-0.12585
5.088,-0.11593
5.092,-0.02034
5.096,-0.01368
5.1,-0.00245
5.104,0.00519
5.108,-0.006
5.112,-0.01975
5.116,-0.00832
5.12,0.01146
5.124,-0.01421
5.128,0.0133
5.132,-0.03139
5.136,-0.01258
5.14,-0.00798
5.144,-0.02318
5.148,-0.00153
5.152,-0.02217
5.156,-0.02358
5.16,-0.01148
5.164,-0.04734
5.168,-0.03171
5.172,0.01386
5.176,-0.02173
5.18,-0.01093
5.184,-0.00383
5.188,0.0073
5.192,-0.01173
5.196,0.00396
5.2,0.03
5.204,0.01308
5.208,0.0084
5.212,0.00543
5.216,0.00648
5.22,0.00932
5.224,0.01124
5.228,-0.00442
5.232,0.02185
5.236,0.0188
5.24,0.04786
5.244,0.04233
5.248,0.06737
5.252,0.05988
5.256,0.04536
5.26,0.07204
5.264,0.08683
5.268,0.09939
5.272,0.07863
5.276,0.10305
5.28,0.13269
5.284,0.12666
5.288,0.12596
5.292,0.15225
5.296,0.17422
5.3,0.17309
5.304,0.20655
5.308,0.18809
5.312,0.2005
5.316,0.22559
5.32,0.21184
5.324,0.19837
5.328,0.2138
5.332,0.22657
5.336,0.1866
5.34,0.19412
5.344,0.20637
5.348,0.18529
5.352,0.17803
5.356,0.15204
5.36,0.16897
5.364,0.12281
5.368,0.14002
5.372,0.14471
5.376,0.10912
5.38,0.094
5.384,0.06602
5.388,0.10371
5.392,0.06231
5.396,0.04
5.4,0.05037
5.404,0.05249
5.408,0.05148
5.412,0.02958
5.416,0.007
5.42,-0.00121
5.424,0.01893
5.428,0.01213
5.432,-0.00696
5.436,0.01192
5.44,0.02096
5.444,0.00615
5.448,0.01039
5.452,0.02044
5.456,0.00483
5.46,0.00186
5.464,-0.00205
5.468,-0.00307
5.472,0.02919
5.476,-0.00483
5.48,-0.01777
5.484,0.00964
5.488,-0.01744
5.492,-0.03831
5.496,-0.00287
5.5,-0.00626
5.504,-0.00204
5.508,0.01086
5.512,-0.01295
5.516,-0.0288
5.52,-0.02385
5.524,0.00636
5.528,0.00498
5.532,0.00569
5.536,0.01191
5.54,-0.02053
5.544,-0.00416
5.548,0.00326
5.552,-0.00275
5.556,-0.00282
5.56,0.01804
5.564,-0.00488
5.568,-0.00131
5.572,0.00402
5.576,0.01006
5.58,0.01805
5.584,0.00032
5.588,-0.00121
5.592,0.01374
5.596,-0.0002
5.6,0.02197
5.604,-0.0038
5.608,0.016
5.612,-0.01015
5.616,-0.00204
5.62,0.0381
5.624,0.00088
5.628,0.0132
5.632,0.02122
5.636,-6e-05
5.64,0.00289
5.644,0.00293
5.648,0.0138
5.652,-0.01602
5.656,-0.01918
5.66,-0.01518
5.664,0.00562
5.668,-0.0016
5.672,0.0093
5.676,0.01281
5.68,0.01578
5.684,0.00732
5.688,0.02224
5.692,0.00981
5.696,-0.00064
5.7,0.00097
5.704,0.00925
5.708,0.01077
5.712,0.00853
5.716,-0.03565
5.72,-0.03007
5.724,0.00368
5.728,0.01267
5.732,0.01923
5.736,0.00465
5.74,-0.01567
5.744,0.00571
5.748,0.01201
5.752,0.00494
5.756,-0.00894
5.76,0.0212
5.764,-0.01602
5.768,0.01592
5.772,0.01665
5.776,0.00482
5.78,-0.00392
5.784,-0.00205
5.788,0.01025
5.792,0.0123
5.796,0.00669
5.8,-0.01515
5.804,-0.03526
5.808,0.00384
5.812,0.01174
5.816,-0.02539
5.82,0.00526
5.824,-0.00596
5.828,-0.03272
5.832,-0.0092
5.836,0.03601
5.84,0.01973
5.844,-0.00492
5.848,0.00114
5.852,0.00226
5.856,0.02858
5.86,0.01356
5.864,0.02742
5.868,0.02268
5.872,0.03629
5.876,0.05424
5.88,0.06168
5.884,0.05364
5.888,0.10179
5.892,0.07698
5.896,0.09114
5.9,0.09685
5.904,0.12145
5.908,0.10594
5.912,0.10077
5.916,0.09548
5.92,0.08885
5.924,0.04467
5.928,0.05424
5.932,0.06767
5.936,0.02952
5.94,0.04245
5.944,0.02798
5.948,0.03065
5.952,0.00756
5.956,0.02849
5.96,0.04647
5.964,0.0144
5.968,0.02529
5.972,0.02443
5.976,0.01895
5.98,-0.00012
5.984,0.01211
5.988,0.0135
5.992,0.01997
5.996,0.01006
6.0,-0.02315
6.004,0.00825
6.008,0.01145
6.012,0.02183
6.016,0.01006
6.02,0.00375
6.024,-0.05629
6.028,-0.08612
6.032,-0.08949
6.036,-0.07342
6.04,0.00162
6.044,0.15874
6.048,0.35531
6.052,0.55427
6.056,0.75593
6.06,0.93057
6.064,0.99973
6.068,0.95961
6.072,0.83256
6.076,0.62743
6.08,0.39531
6.084,0.19345
6.088,-0.01662
6.092,-0.09226
6.096,-0.17718
6.1,-0.17245
6.104,-0.09595
6.108,-0.0664
6.112,-0.04443
6.116,-0.01875
6.12,0.00283
6.124,-0.00015
6.128,0.02673
6.132,0.02634
6.136,0.02785
6.14,0.02763
6.144,0.02212
6.148,0.01661
6.152,-0.0259
6.156,0.00528
6.16,-0.01087
6.164,0.01966
6.168,0.03047
6.172,0.00916
6.176,0.03683
6.18,0.03681
6.184,0.03356
6.188,0.01881
6.192,0.03476
6.196,0.03087
6.2,0.03335
6.204,0.02989
6.208,0.02072
6.212,0.04622
6.216,0.00388
6.22,0.03378
6.224,0.01726
6.228,0.03267
6.232,0.04755
6.236,0.04008
6.24,0.0347
6.244,0.03622
6.248,0.05755
6.252,0.04941
6.256,0.04885
6.26,0.07107
6.264,0.07277
6.268,0.0418
6.272,0.06822
6.276,0.09288
6.28,0.1119
6.284,0.10698
6.288,0.09197
6.292,0.135
6.296,0.13216
6.3,0.13544
6.304,0.1542
6.308,0.19363
6.312,0.18922
6.316,0.21091
6.32,0.20262
6.324,0.24427
6.328,0.23771
6.332,0.22995
6.336,0.22046
6.34,0.22715
6.344,0.24826
6.348,0.24951
6.352,0.2169
6.356,0.22916
6.36,0.2224
6.364,0.23167
6.368,0.21635
6.372,0.16113
6.376,0.17097
6.38,0.17043
6.384,0.16486
6.388,0.15585
6.392,0.15485
6.396,0.13656
6.4,0.13648
6.404,0.08676
6.408,0.10312
6.412,0.10262
6.416,0.06408
6.42,0.06567
6.424,0.07293
6.428,0.04539
6.432,0.05113
6.436,0.05899
6.44,0.0636
6.444,0.0222
6.448,0.04708
6.452,0.04294
6.456,0.0448
6.46,0.02276
6.464,0.03416
6.468,0.04609
6.472,0.01166
6.476,0.03005
6.48,0.02453
6.484,0.01336
6.488,0.05626
6.492,0.04642
6.496,0.02775
6.5,0.0153
6.504,0.03492
6.508,0.00434
6.512,7e-05
6.516,0.01741
6.52,0.01191
6.524,0.03984
6.528,0.03032
6.532,0.02883
6.536,0.01663
6.54,0.01377
6.544,0.02857
6.548,0.00888
6.552,0.03619
6.556,0.02518
6.56,0.01503
6.564,0.02297
6.568,0.02418
6.572,0.02808
6.576,0.01162
6.58,0.02571
6.584,0.02187
6.588,0.01152
6.592,0.0353
6.596,0.02145
6.6,0.0078
6.604,0.02169
6.608,0.01772
6.612,0.01192
6.616,-0.00491
6.62,0.03684
6.624,0.02327
6.628,0.01056
6.632,0.04177
6.636,0.04574
6.64,0.03664
6.644,0.0161
6.648,-0.00588
6.652,0.00195
6.656,0.0085
6.66,0.02356
6.664,0.00355
6.668,0.01855
6.672,0.01234
6.676,0.01006
6.68,0.01587
6.684,0.0183
6.688,0.03325
6.692,0.02958
6.696,0.04057
6.7,0.03448
6.704,0.0136
6.708,0.00983
6.712,0.03557
6.716,-0.00193
6.72,0.04979
6.724,0.02525
6.728,0.01864
6.732,0.06343
6.736,0.03873
6.74,0.01623
6.744,0.03144
6.748,0.02433
6.752,0.01508
6.756,0.03632
6.76,0.04098
6.764,0.03189
6.768,0.01843
6.772,0.01748
6.776,0.01908
6.78,0.02734
6.784,0.02279
6.788,0.02855
6.792,0.01107
6.796,0.01753
6.8,0.04068
6.804,0.03488
6.808,0.01396
6.812,0.00395
6.816,0.02273
6.82,0.00626
6.824,0.05593
6.828,0.0262
6.832,0.0302
6.836,0.05697
6.84,0.0469
6.844,0.02264
6.848,0.02968
6.852,0.01957
6.856,0.01891
6.86,0.02971
6.864,0.04335
6.868,0.0342
6.872,0.04432
6.876,0.0451
6.88,0.04151
6.884,0.05663
6.888,0.0963
6.892,0.10286
6.896,0.09323
6.9,0.12939
6.904,0.09943
6.908,0.14211
6.912,0.12208
6.916,0.10342
6.92,0.1095
6.924,0.12017
6.928,0.09353
6.932,0.09254
6.936,0.04625
6.94,0.05207
6.944,0.06413
6.948,0.04412
6.952,0.04605
6.956,0.02184
6.96,0.05388
6.964,0.02724
6.968,0.02387
6.972,0.03921
6.976,0.02563
6.98,0.05178
6.984,0.00895
6.988,0.01133
6.992,0.01264
6.996,0.03155
7.0,0.01849
7.004,0.02111
7.008,0.06008
7.012,0.02748
7.016,0.02789
7.02,0.01712
7.024,0.00659
7.028,-0.00739
7.032,-0.06142
7.036,-0.05328
7.04,-0.07405
7.044,0.00407
7.048,0.15866
7.052,0.34039
7.056,0.5236
7.06,0.77729
7.064,0.9136
7.068,1.01715
7.072,0.98869
7.076,0.84968
7.08,0.68913
7.084,0.40952
7.088,0.21923
7.092,0.05799
7.096,-0.05342
7.1,-0.0969
7.104,-0.13753
7.108,-0.0912
7.112,-0.06232
7.116,-0.04447
7.12,-0.01103
7.124,0.01046
7.128,0.01584
7.132,0.03991
7.136,0.05256
7.14,0.05247
7.144,0.04685
7.148,0.02596
7.152,0.03583
7.156,0.02614
7.16,0.04738
7.164,0.00712
7.168,0.01044
7.172,0.00449
7.176,0.05474
7.18,0.03292
7.184,0.02296
7.188,0.04945
7.192,0.04314
7.196,0.04049
7.2,0.0342
7.204,0.00849
7.208,0.02205
7.212,0.02909
7.216,0.02964
7.22,0.02396
7.224,0.03636
7.228,0.0094
7.232,0.0351
7.236,0.04793
7.24,0.03854
7.244,0.02051
7.248,0.0613
7.252,0.0672
7.256,0.04279
7.26,0.03018
7.264,0.09399
7.268,0.07011
7.272,0.09115
7.276,0.09987
7.28,0.08834
7.284,0.11401
7.288,0.10716
7.292,0.14218
7.296,0.15342
7.3,0.15649
7.304,0.16344
7.308,0.17788
7.312,0.20281
7.316,0.19393
7.32,0.20532
7.324,0.21354
7.328,0.24883
7.332,0.22219
7.336,0.24521
7.34,0.26389
7.344,0.25617
7.348,0.24202
7.352,0.24407
7.356,0.24378
7.36,0.27211
7.364,0.24847
7.368,0.24561
7.372,0.22845
7.376,0.21145
7.38,0.19719
7.384,0.19595
7.388,0.18953
7.392,0.17278
7.396,0.16439
7.4,0.14243
7.404,0.12368
7.408,0.11483
7.412,0.13438
7.416,0.11586
7.42,0.10549
7.424,0.08076
7.428,0.0618
7.432,0.08359
7.436,0.07334
7.44,0.04402
7.444,0.06168
7.448,0.02477
7.452,0.03581
7.456,0.04247
7.46,0.05257
7.464,0.06453
7.468,0.03819
7.472,0.01595
7.476,0.03691
7.48,0.01791
7.484,0.02568
7.488,0.03489
7.492,0.04036
7.496,0.0224
7.5,0.03177
7.504,0.02399
7.508,0.03091
7.512,0.02704
7.516,0.02703
7.52,0.04331
7.524,0.04286
7.528,0.03007
7.532,0.0221
7.536,0.02224
7.54,0.03429
7.544,0.01961
7.548,0.02766
7.552,0.01226
7.556,0.02808
7.56,0.03332
7.564,0.00946
7.568,-0.0086
7.572,0.03636
7.576,-0.00842
7.58,0.01876
7.584,0.03542
7.588,0.04314
7.592,0.01828
7.596,0.02695
7.6,0.05158
7.604,0.0128
7.608,0.04648
7.612,0.02874
7.616,0.02109
7.62,0.00308
7.624,0.04653
7.628,0.04094
7.632,0.0392
7.636,0.00461
7.64,0.03454
7.644,0.01588
7.648,0.04097
7.652,0.04867
7.656,0.02365
7.66,0.01233
7.664,0.03276
7.668,0.03892
7.672,0.02551
7.676,-0.00101
7.68,0.03167
7.684,0.04238
7.688,0.03347
7.692,0.02509
7.696,0.02015
7.7,0.04433
7.704,0.02249
7.708,0.01295
7.712,0.02882
7.716,0.03131
7.72,0.01793
7.724,0.03587
7.728,0.03042
7.732,0.00824
7.736,0.02575
7.74,0.01031
7.744,0.04262
7.748,0.04907
7.752,0.04411
7.756,0.02293
7.76,0.03683
7.764,0.03476
7.768,0.04155
7.772,0.05416
7.776,0.01282
7.78,0.05381
7.784,0.07044
7.788,0.07954
7.792,0.08529
7.796,0.08794
7.8,0.10264
7.804,0.09541
7.808,0.11953
7.812,0.14442
7.816,0.12236
7.82,0.12672
7.824,0.11408
7.828,0.11648
7.832,0.10957
7.836,0.09587
7.84,0.08559
7.844,0.09349
7.848,0.059
7.852,0.06946
7.856,0.02993
7.86,0.0306
7.864,0.02172
7.868,0.03571
7.872,0.02667
7.876,0.03537
7.88,0.00918
7.884,0.01299
7.888,0.0011
7.892,0.02578
7.896,0.01657
7.9,0.00145
7.904,0.03333
7.908,0.0273
7.912,0.00945
7.916,-4e-05
7.92,0.03289
7.924,0.01622
7.928,0.0201
7.932,-0.00856
7.936,-0.04335
7.94,-0.06375
7.944,-0.09385
7.948,-0.04285
7.952,0.0293
7.956,0.19245
7.96,0.38751
7.964,0.60863
7.968,0.81664
7.972,0.97318
7.976,1.01523
7.98,0.9922
7.984,0.83766
7.988,0.61167
7.992,0.3707
7.996,0.17616
8.0,-0.0014
8.004,-0.12486
8.008,-0.14498
8.012,-0.12416
8.016,-0.07984
8.02,-0.04648
8.024,-0.01187
8.028,0.0162
8.032,0.0119
8.036,0.00976
8.04,0.02112
8.044,0.04602
8.048,0.01246
8.052,0.02914
8.056,0.04263
8.06,0.03338
8.064,0.01132
8.068,0.031
8.072,0.00766
8.076,0.05026
8.08,0.0189
8.084,0.0055
8.088,0.01187
8.092,0.00839
8.096,0.02734
8.1,0.03747
8.104,0.02513
8.108,0.02984
8.112,0.02116
8.116,0.01706
8.12,0.03404
8.124,0.00095
8.128,0.01452
8.132,0.03294
8.136,-0.0076
8.14,-0.00033
8.144,0.04454
8.148,0.02988
8.152,0.04606
8.156,0.04635
8.16,0.04039
8.164,0.04513
8.168,0.02405
8.172,0.0476
8.176,0.03834
8.18,0.06201
8.184,0.08068
8.188,0.0856
8.192,0.10884
8.196,0.1078
8.2,0.10466
8.204,0.16394
8.208,0.15265
8.212,0.16074
8.216,0.14203
8.22,0.17518
8.224,0.20197
8.228,0.18768
8.232,0.22471
8.236,0.20766
8.24,0.23452
8.244,0.23607
8.248,0.22431
8.252,0.22732
8.256,0.23271
8.26,0.24582
8.264,0.25539
8.268,0.2308
8.272,0.21289
8.276,0.20737
8.28,0.19028
8.284,0.20189
8.288,0.18871
8.292,0.18243
8.296,0.17705
8.3,0.17367
8.304,0.15652
8.308,0.12345
8.312,0.11588
8.316,0.09959
8.32,0.08892
8.324,0.10348
8.328,0.07575
8.332,0.05922
8.336,0.07931
8.34,0.05379
8.344,0.0515
8.348,0.03109
8.352,0.04501
8.356,0.04215
8.36,0.01487
8.364,0.02814
8.368,0.01551
8.372,0.02617
8.376,0.01414
8.38,0.01161
8.384,0.01739
8.388,0.02959
8.392,0.01696
8.396,-0.01014
8.4,0.02734
8.404,0.02049
8.408,0.01067
8.412,0.04394
8.416,0.01951
8.42,0.01401
8.424,0.03152
8.428,0.02348
8.432,0.00708
8.436,-0.01564
8.44,0.02916
8.444,0.01004
8.448,0.01385
8.452,0.02226
8.456,0.02034
8.46,0.02234
8.464,0.01915
8.468,0.04314
8.472,-0.00029
8.476,0.02887
8.48,-0.00851
8.484,0.02409
8.488,0.02476
8.492,0.01594
8.496,0.00179
8.5,-0.00672
8.504,0.01989
8.508,-0.00504
8.512,0.02759
8.516,0.00534
8.52,-0.00094
8.524,0.00138
8.528,0.02904
8.532,0.01444
8.536,0.01654
8.54,-0.00766
8.544,0.00912
8.548,0.00136
8.552,-0.01617
8.556,0.00841
8.56,-0.00018
8.564,0.02847
8.568,0.01726
8.572,0.01925
8.576,0.01081
8.58,0.01299
8.584,0.01444
8.588,0.01522
8.592,0.0085
8.596,0.01055
8.6,0.00891
8.604,-0.00914
8.608,-0.00105
8.612,0.00915
8.616,0.00712
8.62,0.01284
8.624,-0.00366
8.628,0.01089
8.632,0.00716
8.636,0.01412
8.64,0.01779
8.644,0.01095
8.648,0.04461
8.652,0.0077
8.656,0.01401
8.66,0.00516
8.664,0.02503
8.668,-0.00666
8.672,0.00297
8.676,0.02188
8.68,0.03295
8.684,0.00447
8.688,0.06258
8.692,0.02525
8.696,0.0708
8.7,0.06667
8.704,0.11306
8.708,0.12548
8.712,0.12181
8.716,0.1035
8.72,0.11552
8.724,0.08705
8.728,0.10312
8.732,0.0972
8.736,0.09005
8.74,0.06278
8.744,0.03957
8.748,0.03271
8.752,0.03061
8.756,-0.00456
8.76,0.01897
8.764,0.02185
8.768,0.01603
8.772,-0.02509
8.776,0.01711
8.78,0.00049
8.784,0.04155
8.788,-0.00401
8.792,0.01145
8.796,-0.01371
8.8,0.00985
8.804,-0.00148
8.808,0.01653
8.812,0.00778
8.816,-0.02907
8.82,0.00123
8.824,-0.01374
8.828,0.008
8.832,-0.0223
8.836,-0.04691
8.84,-0.10797
8.844,-0.11277
8.848,-0.10896
8.852,-0.00283
8.856,0.10715
8.86,0.29796
8.864,0.53064
8.868,0.74245
8.872,0.89654
8.876,0.97231
8.88,0.95842
8.884,0.85147
8.888,0.66804
8.892,0.44016
8.896,0.18302
8.9,0.02624
8.904,-0.09626
8.908,-0.15119
8.912,-0.15534
8.916,-0.12035
8.92,-0.1006
8.924,-0.04188
8.928,-0.02625
8.932,0.00568
8.936,-0.00123
8.94,-0.01028
8.944,-0.01465
8.948,-0.001
8.952,-0.0075
8.956,-0.01477
8.96,-0.02005
8.964,-0.02146
8.968,0.008
8.972,0.00714
8.976,-0.0111
8.98,-0.02274
8.984,0.02275
8.988,-0.00517
8.992,-0.02238
8.996,0.01498
9.0,-0.00274
9.004,-0.02803
9.008,-0.00166
9.012,0.00849
9.016,-0.00457
9.02,0.00346
9.024,0.00658
9.028,-0.01057
9.032,-0.01502
9.036,0.03391
9.04,-0.01801
9.044,-0.0021
9.048,0.00662
9.052,0.01722
9.056,0.02259
9.06,0.00824
9.064,0.02424
9.068,0.02443
9.072,0.04417
9.076,0.03295
9.08,0.04202
9.084,0.0554
9.088,0.06814
9.092,0.05931
9.096,0.09115
9.1,0.09608
9.104,0.08418
9.108,0.12138
9.112,0.12689
9.116,0.1454
9.12,0.15687
9.124,0.13168
9.128,0.15032
9.132,0.1898
9.136,0.18159
9.14,0.18888
9.144,0.2109
9.148,0.22384
9.152,0.2138
9.156,0.2346
9.16,0.23421
9.164,0.22981
9.168,0.19863
9.172,0.18471
9.176,0.19265
9.18,0.19301
9.184,0.18091
9.188,0.17674
9.192,0.14156
9.196,0.13567
9.2,0.14579
9.204,0.11525
9.208,0.11305
9.212,0.10808
9.216,0.11928
9.22,0.08789
9.224,0.04684
9.228,0.07688
9.232,0.04498
9.236,0.07516
9.24,0.02491
9.244,-0.01127
9.248,0.00412
9.252,-0.01376
9.256,-0.00391
9.26,0.03362
9.264,0.00203
9.268,-0.01744
9.272,-0.00615
9.276,-0.009
9.28,-0.00869
9.284,-0.02338
9.288,0.00867
9.292,-0.00313
9.296,-0.0142
9.3,-0.03854
9.304,-0.00111
9.308,-0.03441
9.312,-0.01569
9.316,0.01074
9.32,-0.00439
9.324,-0.01322
9.328,-0.01153
9.332,-0.01492
9.336,-0.04704
9.34,0.00049
9.344,-0.0077
9.348,0.00281
9.352,-0.00042
9.356,-0.03263
9.36,0.00642
9.364,-0.01057
9.368,-0.00157
9.372,0.01227
9.376,-0.02753
9.38,-0.01644
9.384,-0.02485
9.388,-0.03592
9.392,-0.00648
9.396,-0.00312
9.4,-0.03308
9.404,-0.01747
9.408,-0.01133
9.412,-0.03805
9.416,-0.02207
9.42,-0.01024
9.424,-0.02044
9.428,0.0079
9.432,-0.00203
9.436,-0.02025
9.44,-0.0117
9.444,-0.02385
9.448,-0.03419
9.452,-0.02776
9.456,-0.0041
9.46,-0.03186
9.464,0.00317
9.468,0.00356
9.472,-0.02093
9.476,-0.01308
9.48,-0.01917
9.484,-0.0027
9.488,-0.00975
9.492,-0.00172
9.496,-0.00351
9.5,-0.01136
9.504,-0.02383
9.508,-0.01733
9.512,-0.0196
9.516,-0.00986
9.52,-0.03968
9.524,-0.03267
9.528,-0.02558
9.532,-0.00984
9.536,-0.00791
9.54,-0.01528
9.544,-0.03002
9.548,0.00586
9.552,-0.0034
9.556,-0.00759
9.56,-0.01825
9.564,-0.02497
9.568,-0.01253
9.572,-0.01363
9.576,-0.00985
9.58,-0.05568
9.584,-0.0128
9.588,-0.02528
9.592,-0.04317
9.596,-0.03029
9.6,-0.00422
9.604,-0.01884
9.608,-0.02919
9.612,-0.0314
9.616,-0.0286
9.62,-0.02719
9.624,-0.00452
9.628,0.00748
9.632,-0.01616
9.636,-0.03663
9.64,-0.03204
9.644,-0.03399
9.648,-0.02362
9.652,-0.0348
9.656,-0.01796
9.66,-0.01128
9.664,-0.00153
9.668,-0.01788
9.672,-0.03464
9.676,-0.02184
9.68,-0.0229
9.684,0.01785
9.688,-0.01018
9.692,-0.0103
9.696,0.0101
9.7,0.0094
9.704,0.02626
9.708,0.04107
9.712,0.02886
9.716,0.06422
9.72,0.08653
9.724,0.06277
9.728,0.06557
9.732,0.09389
9.736,0.08066
9.74,0.04878
9.744,0.05816
9.748,0.0555
9.752,0.02479
9.756,0.00439
9.76,-0.02739
9.764,-0.01009
9.768,0.0067
9.772,0.02159
9.776,-0.03436
9.78,-0.00825
9.784,-0.04126
9.788,-0.02664
9.792,-0.0254
9.796,-0.01384
9.8,-0.02659
9.804,-0.008
9.808,-0.01461
9.812,-0.0373
9.816,-0.02526
9.82,-0.04399
9.824,-0.03439
9.828,-0.01036
9.832,-0.02574
9.836,-0.03149
9.84,-0.04928
9.844,-0.08432
9.848,-0.10197
9.852,-0.1473
9.856,-0.13349
9.86,-0.07058
9.864,0.08134
9.868,0.27099
9.872,0.48283
9.876,0.69694
9.88,0.86313
9.884,0.94541
9.888,0.96876
9.892,0.85113
9.896,0.6299
9.9,0.40157
9.904,0.21639
9.908,0.0292
9.912,-0.11807
9.916,-0.16872
9.92,-0.2008
9.924,-0.14031
9.928,-0.10427
9.932,-0.08186
9.936,-0.05171
9.94,-0.02398
9.944,-0.03068
9.948,-0.03623
9.952,-0.01407
9.956,-0.00348
9.96,-0.03858
9.964,-0.03761
9.968,-0.03915
9.972,-0.01627
9.976,0.00483
9.98,-0.03795
9.984,-0.00882
9.988,-0.01476
9.992,0.00084
9.996,-0.03445
