t_seg,ecg_mV
0.0,-0.0091
0.004,-0.0112
0.008,-0.05218
0.012,0.00243
0.016,0.00767
0.02,-0.01463
0.024,-0.05125
0.028,0.01412
0.032,0.01023
0.036,0.01368
0.04,0.01438
0.044,0.00258
0.048,0.0125
0.052,0.03126
0.056,0.02388
0.06,0.01669
0.064,-0.00564
0.068,0.09267
0.072,0.06945
0.076,0.11686
0.08,0.10066
0.084,0.06481
0.088,0.12284
0.092,0.09268
0.096,0.05886
0.1,0.10858
0.104,0.11637
0.108,0.04752
0.112,0.07316
0.116,0.09293
0.12,0.02127
0.124,0.01283
0.128,0.0201
0.132,0.07234
0.136,-0.02674
0.14,-0.00064
0.144,-0.02219
0.148,0.01358
0.152,0.0367
0.156,0.01484
0.16,-0.03997
0.164,0.01027
0.168,-0.00515
0.172,-0.00966
0.176,-0.01651
0.18,-0.00976
0.184,-0.07689
0.188,0.03513
0.192,0.01874
0.196,-0.01788
0.2,-0.01683
0.204,-0.03602
0.208,-0.02699
0.212,-0.075
0.216,-0.09414
0.22,-0.08933
0.224,-0.01764
0.228,0.14064
0.232,0.38226
0.236,0.55105
0.24,0.76101
0.244,0.90619
0.248,0.9716
0.252,0.93131
0.256,0.85105
0.26,0.60343
0.264,0.40346
0.268,0.24011
0.272,-0.05258
0.276,-0.12287
0.28,-0.1638
0.284,-0.05732
0.288,-0.11326
0.292,-0.07709
0.296,-0.05352
0.3,0.05616
0.304,-0.01024
0.308,-0.03044
0.312,0.07413
0.316,0.04069
0.32,0.08583
0.324,0.16207
0.328,0.0983
0.332,0.1104
0.336,0.16963
0.34,0.0455
0.344,0.1109
0.348,0.12749
0.352,0.15119
0.356,-0.00854
0.36,0.09008
0.364,0.05515
0.368,0.02496
0.372,0.06586
0.376,0.00954
0.38,0.03071
0.384,-0.00752
0.388,0.02859
0.392,0.01665
0.396,0.02124
0.4,-0.03161
0.404,0.03088
0.408,0.0289
0.412,0.0598
0.416,0.00015
0.42,-0.05538
0.424,0.06823
0.428,0.01727
0.432,0.07438
0.436,0.01032
0.44,-0.00902
0.444,-0.01383
0.448,0.06685
0.452,-0.00241
0.456,0.0064
0.46,0.023
0.464,-0.02892
0.468,-0.06805
0.472,0.01505
0.476,0.18437
0.48,0.34477
0.484,0.63628
0.488,0.80865
0.492,1.0164
0.496,1.14088
0.5,1.21912
0.504,1.08777
0.508,0.90107
0.512,0.70792
0.516,0.5156
0.52,0.28889
0.524,0.16591
0.528,0.10895
0.532,0.12762
0.536,0.06178
0.54,0.1625
0.544,0.10636
0.548,0.21109
0.552,0.20114
0.556,0.15985
0.56,0.23822
0.564,0.1458
0.568,0.19994
0.572,0.20713
0.576,0.21145
0.58,0.16571
0.584,0.09904
0.588,0.11659
0.592,0.15391
0.596,0.08088
0.6,0.11326
0.604,0.10386
0.608,0.0866
0.612,0.0038
0.616,0.07061
0.62,0.06935
0.624,0.04896
0.628,-0.01497
0.632,0.05508
0.636,0.01565
0.64,-0.00771
0.644,0.04545
0.648,0.02115
0.652,0.00705
0.656,0.00323
0.66,-0.01167
0.664,0.02874
0.668,0.02667
0.672,0.01844
0.676,0.01862
0.68,-0.00958
0.684,0.00117
0.688,0.05323
0.692,0.02323
0.696,0.05445
0.7,0.10184
0.704,0.11662
0.708,0.04248
0.712,0.096
0.716,0.06992
0.72,0.14289
0.724,0.11719
0.728,0.14826
0.732,0.15236
0.736,0.12359
0.74,0.18644
0.744,0.1594
0.748,0.10499
0.752,0.24208
0.756,0.26437
0.76,0.1854
0.764,0.27873
0.768,0.19943
0.772,0.23057
0.776,0.19751
0.78,0.19565
0.784,0.24464
0.788,0.20008
0.792,0.23218
0.796,0.19734
0.8,0.16472
0.804,0.15239
0.808,0.19333
0.812,0.15835
0.816,0.16809
0.82,0.15658
0.824,0.12664
0.828,0.14289
0.832,0.14101
0.836,0.1367
0.84,0.16341
0.844,0.10849
0.848,0.04596
0.852,0.04538
0.856,0.04475
0.86,0.05372
0.864,0.06734
0.868,0.03521
0.872,0.03552
0.876,0.06319
0.88,0.0023
0.884,0.10343
0.888,0.07003
0.892,0.07593
0.896,0.01297
0.9,0.05235
0.904,0.03542
0.908,0.10075
0.912,-0.03605
0.916,0.04599
0.92,0.07854
0.924,0.02916
0.928,0.05968
0.932,-0.0047
0.936,0.00422
0.94,0.02263
0.944,0.05342
0.948,0.03975
0.952,0.02613
0.956,-0.00068
0.96,-0.0049
0.964,0.0344
0.968,0.05222
0.972,-0.03367
0.976,0.06753
0.98,-0.00648
0.984,0.07218
0.988,0.02669
0.992,0.04163
0.996,0.10281
1.0,0.02588
1.004,0.04964
1.008,0.06596
1.012,-0.03222
1.016,0.09584
1.02,-0.00064
1.024,-0.0261
1.028,-0.01907
1.032,-0.01689
1.036,0.04466
1.04,-0.01691
1.044,0.07441
1.048,0.01598
1.052,-0.05282
1.056,0.03755
1.06,0.05703
1.064,0.02706
1.068,0.00814
1.072,0.06352
1.076,0.0467
1.08,0.06452
1.084,0.01572
1.088,0.06036
1.092,0.06568
1.096,0.06797
1.1,0.0582
1.104,0.0472
1.108,0.07113
1.112,0.1378
1.116,0.07853
1.12,0.24943
1.124,0.11888
1.128,0.1291
1.132,0.04036
1.136,0.15111
1.14,0.08746
1.144,0.10434
1.148,0.13208
1.152,0.03134
1.156,0.08172
1.16,0.09723
1.164,0.05225
1.168,0.04076
1.172,-0.0096
1.176,0.09248
1.18,-0.00891
1.184,0.02845
1.188,0.00499
1.192,0.01765
1.196,-0.01329
1.2,0.06904
1.204,-0.0982
1.208,0.02183
1.212,0.06659
1.216,0.01659
1.22,0.02699
1.224,0.03274
1.228,0.06427
1.232,0.05527
1.236,0.03946
1.24,0.01191
1.244,-0.00581
1.248,-0.00912
1.252,-0.05364
1.256,-0.04477
1.26,-0.10092
1.264,0.04314
1.268,0.11026
1.272,0.36621
1.276,0.46767
1.28,0.76559
1.284,0.9266
1.288,1.02456
1.292,0.97083
1.296,0.91359
1.3,0.71791
1.304,0.48705
1.308,0.26013
1.312,0.05282
1.316,-0.08231
1.32,-0.17616
1.324,-0.12155
1.328,-0.13262
1.332,-0.1417
1.336,-0.02813
1.34,-0.00222
1.344,-0.04927
1.348,-0.01917
1.352,0.06155
1.356,0.04536
1.36,0.03277
1.364,0.0302
1.368,0.00795
1.372,0.00613
1.376,0.04319
1.38,-0.01962
1.384,0.0543
1.388,0.05339
1.392,0.0249
1.396,-0.00146
1.4,0.02006
1.404,0.04651
1.408,0.03234
1.412,0.04822
1.416,0.02476
1.42,0.00896
1.424,0.09367
1.428,0.05887
1.432,-0.00413
1.436,0.05714
1.44,0.0121
1.444,-0.03863
1.448,0.06411
1.452,0.05816
1.456,0.08824
1.46,-0.00557
1.464,-0.01083
1.468,-0.03931
1.472,0.04127
1.476,0.11054
1.48,0.06589
1.484,0.04038
1.488,0.05369
1.492,-0.00609
1.496,0.11311
1.5,0.09768
1.504,0.08937
1.508,0.10928
1.512,0.10987
1.516,0.10526
1.52,0.09589
1.524,0.14047
1.528,0.21573
1.532,0.18798
1.536,0.20111
1.54,0.19487
1.544,0.2193
1.548,0.2264
1.552,0.2597
1.556,0.26068
1.56,0.28721
1.564,0.31159
1.568,0.26579
1.572,0.25893
1.576,0.24913
1.58,0.21256
1.584,0.28555
1.588,0.19553
1.592,0.27301
1.596,0.28021
1.6,0.29087
1.604,0.24158
1.608,0.24418
1.612,0.24694
1.616,0.25581
1.62,0.2051
1.624,0.17613
1.628,0.18117
1.632,0.16246
1.636,0.18698
1.64,0.22825
1.644,0.16353
1.648,0.17868
1.652,0.13795
1.656,0.17896
1.66,0.12436
1.664,0.15854
1.668,0.13027
1.672,0.10445
1.676,0.10622
1.68,0.07334
1.684,0.05364
1.688,0.01992
1.692,0.03739
1.696,0.04351
1.7,0.04778
1.704,0.01498
1.708,0.02906
1.712,0.10573
1.716,-0.02727
1.72,0.01774
1.724,0.10761
1.728,0.02078
1.732,0.00704
1.736,0.03263
1.74,0.02634
1.744,0.10899
1.748,0.05364
1.752,0.0121
1.756,0.06894
1.76,0.03941
1.764,-0.03046
1.768,0.04016
1.772,-0.01276
1.776,-0.0522
1.78,-0.08145
1.784,-0.08329
1.788,0.08629
1.792,0.08345
1.796,0.35151
1.8,0.55253
1.804,0.73885
1.808,0.9903
1.812,0.98993
1.816,0.95597
1.82,0.87728
1.824,0.71888
1.828,0.47123
1.832,0.30818
1.836,0.03514
1.84,-0.08591
1.844,-0.15766
1.848,-0.22019
1.852,-0.0742
1.856,-0.00707
1.86,-0.05029
1.864,-0.00677
1.868,0.08461
1.872,0.07251
1.876,0.09303
1.88,0.05949
1.884,0.07226
1.888,0.12014
1.892,0.11857
1.896,0.08159
1.9,0.13315
1.904,0.14398
1.908,0.113
1.912,0.10488
1.916,0.16801
1.92,0.09075
1.924,0.04151
1.928,0.05943
1.932,0.06312
1.936,0.0352
1.94,0.0831
1.944,0.04249
1.948,0.06662
1.952,0.1001
1.956,-0.01113
1.96,-0.02058
1.964,0.08024
1.968,0.01737
1.972,0.07717
1.976,0.02121
1.98,0.07023
1.984,0.03797
1.988,0.09137
1.992,0.07848
1.996,0.07093
2.0,0.01384
2.004,0.04965
2.008,0.04934
2.012,0.079
2.016,0.10526
2.02,0.05624
2.024,0.06973
2.028,0.04106
2.032,-0.01313
2.036,-0.01922
2.04,0.13238
2.044,0.18213
2.048,0.33883
2.052,0.51058
2.056,0.70958
2.06,0.8412
2.064,0.85521
2.068,0.80367
2.072,0.70692
2.076,0.56679
2.08,0.43878
2.084,0.28141
2.088,0.21342
2.092,0.06502
2.096,0.00911
2.1,0.0987
2.104,0.13636
2.108,0.18535
2.112,0.1701
2.116,0.21401
2.12,0.19527
2.124,0.15791
2.128,0.16382
2.132,0.14923
2.136,0.16847
2.14,0.20935
2.144,0.07587
2.148,0.1594
2.152,0.20222
2.156,0.10503
2.16,0.09754
2.164,0.08893
2.168,0.14775
2.172,0.07883
2.176,0.09063
2.18,0.12383
2.184,0.04007
2.188,0.08032
2.192,0.03984
2.196,0.01233
2.2,0.04732
2.204,0.03923
2.208,0.02034
2.212,0.032
2.216,0.07845
2.22,0.06541
2.224,0.03465
2.228,0.07827
2.232,0.09539
2.236,0.07496
2.24,0.0524
2.244,0.05583
2.248,0.00655
2.252,0.0153
2.256,0.05926
2.26,0.08005
2.264,0.05295
2.268,0.08826
2.272,0.07354
2.276,0.066
2.28,0.04917
2.284,0.10629
2.288,0.06292
2.292,0.20623
2.296,0.15825
2.3,0.12131
2.304,0.19455
2.308,0.29178
2.312,0.20929
2.316,0.22132
2.32,0.2247
2.324,0.22541
2.328,0.25683
2.332,0.20036
2.336,0.22762
2.34,0.26327
2.344,0.26241
2.348,0.23375
2.352,0.22893
2.356,0.25405
2.36,0.22733
2.364,0.21053
2.368,0.22575
2.372,0.22601
2.376,0.2113
2.38,0.2355
2.384,0.16728
2.388,0.29357
2.392,0.19697
2.396,0.21065
2.4,0.24106
2.404,0.25571
2.408,0.21439
2.412,0.20493
2.416,0.10829
2.42,0.14282
2.424,0.10842
2.428,0.08788
2.432,0.06753
2.436,0.03285
2.44,0.06632
2.444,0.13677
2.448,0.01726
2.452,0.04621
2.456,-0.02941
2.46,0.02519
2.464,0.01973
2.468,0.02702
2.472,0.0298
2.476,0.00539
2.48,0.09764
2.484,0.07228
2.488,0.08626
2.492,0.05052
2.496,0.04674
2.5,0.01671
2.504,0.0641
2.508,0.03557
2.512,0.00306
2.516,0.04406
2.52,0.00933
2.524,-0.0399
2.528,-0.07788
2.532,-0.04376
2.536,-0.07467
2.54,0.02385
2.544,0.18824
2.548,0.36201
2.552,0.60352
2.556,0.78147
2.56,0.93429
2.564,1.09579
2.568,0.96261
2.572,0.83165
2.576,0.62219
2.58,0.38549
2.584,0.21261
2.588,-0.03563
2.592,-0.07481
2.596,-0.0976
2.6,-0.11205
2.604,-0.15941
2.608,-0.01116
2.612,0.00015
2.616,0.06757
2.62,0.0444
2.624,-0.01808
2.628,0.06768
2.632,-0.00559
2.636,0.03345
2.64,0.03426
2.644,0.01255
2.648,-0.01105
2.652,-0.02844
2.656,0.09914
2.66,0.02124
2.664,0.02702
2.668,-0.0159
2.672,0.01116
2.676,-0.01231
2.68,0.00483
2.684,0.02164
2.688,0.05898
2.692,0.02968
2.696,0.01498
2.7,0.02839
2.704,0.00764
2.708,0.03238
2.712,-0.02445
2.716,0.04954
2.72,0.02319
2.724,-0.05903
2.728,0.0344
2.732,0.00863
2.736,0.02476
2.74,0.06687
2.744,0.02523
2.748,0.02018
2.752,0.03461
2.756,0.07218
2.76,0.06973
2.764,0.04987
2.768,0.06365
2.772,0.06968
2.776,0.07667
2.78,0.12181
2.784,0.07512
2.788,0.19548
2.792,0.19052
2.796,0.12373
2.8,0.17592
2.804,0.16254
2.808,0.25451
2.812,0.2818
2.816,0.2936
2.82,0.34919
2.824,0.33491
2.828,0.29999
2.832,0.29824
2.836,0.33636
2.84,0.3376
2.844,0.32655
2.848,0.26237
2.852,0.30747
2.856,0.26982
2.86,0.27477
2.864,0.24007
2.868,0.23083
2.872,0.2138
2.876,0.17163
2.88,0.19891
2.884,0.15056
2.888,0.08162
2.892,0.16242
2.896,0.11245
2.9,0.12966
2.904,0.14641
2.908,0.05598
2.912,0.10613
2.916,0.03983
2.92,0.04055
2.924,0.0633
2.928,0.0804
2.932,0.02917
2.936,-0.01311
2.94,0.00672
2.944,-0.03437
2.948,0.0142
2.952,-0.10681
2.956,-0.12018
2.96,-0.04909
2.964,0.04922
2.968,0.18915
2.972,0.33079
2.976,0.54556
2.98,0.80219
2.984,0.90788
2.988,0.94834
2.992,0.98492
2.996,0.78613
3.0,0.59032
3.004,0.30364
3.008,0.18204
3.012,-0.02348
3.016,-0.15675
3.02,-0.14156
3.024,-0.16276
3.028,-0.16319
3.032,-0.01063
3.036,-0.01431
3.04,-0.05694
3.044,-0.04647
3.048,-0.01276
3.052,0.0124
3.056,-0.02519
3.06,-0.02265
3.064,0.02747
3.068,0.05187
3.072,0.01801
3.076,0.03828
3.08,0.06136
3.084,-0.04803
3.088,-0.00097
3.092,-0.08731
3.096,0.02972
3.1,0.01139
3.104,0.04713
3.108,0.10289
3.112,-0.04868
3.116,0.00101
3.12,0.02184
3.124,0.022
3.128,-0.02839
3.132,0.0333
3.136,0.03492
3.14,0.05241
3.144,-0.03376
3.148,-0.02048
3.152,-0.01077
3.156,0.05928
3.16,0.01019
3.164,0.01938
3.168,0.07442
3.172,-0.01644
3.176,0.02331
3.18,0.10117
3.184,0.0343
3.188,0.07799
3.192,0.10302
3.196,0.10065
3.2,0.08196
3.204,0.0819
3.208,0.1054
3.212,0.17192
3.216,0.11914
3.22,0.08976
3.224,0.06418
3.228,0.11597
3.232,0.14826
3.236,0.17719
3.24,0.19621
3.244,0.18592
3.248,0.28368
3.252,0.24462
3.256,0.20932
3.26,0.30684
3.264,0.24097
3.268,0.23966
3.272,0.31276
3.276,0.33748
3.28,0.32979
3.284,0.34476
3.288,0.32738
3.292,0.30815
3.296,0.23596
3.3,0.3082
3.304,0.27025
3.308,0.23409
3.312,0.20417
3.316,0.1662
3.32,0.1072
3.324,0.17771
3.328,0.08691
3.332,0.1814
3.336,0.05194
3.34,0.04411
3.344,0.05533
3.348,0.06275
3.352,0.00327
3.356,0.02119
3.36,0.02903
3.364,0.04992
3.368,0.05009
3.372,-0.00333
3.376,-0.01875
3.38,-0.01613
3.384,0.02726
3.388,0.03286
3.392,-0.02813
3.396,0.01827
3.4,-0.005
3.404,0.0064
3.408,-0.0301
3.412,-0.11611
3.416,-0.09809
3.42,-0.15182
3.424,-0.11539
3.428,-0.05239
3.432,0.17079
3.436,0.31344
3.44,0.50066
3.444,0.78752
3.448,0.84484
3.452,0.96293
3.456,0.97552
3.46,0.83999
3.464,0.58706
3.468,0.36686
3.472,0.15151
3.476,0.0059
3.48,-0.19229
3.484,-0.18282
3.488,-0.21307
3.492,-0.11335
3.496,-0.10047
3.5,-0.0292
3.504,-0.02402
3.508,-0.05631
3.512,-0.045
3.516,0.01136
3.52,-0.01009
3.524,0.0003
3.528,0.02648
3.532,0.03755
3.536,0.06513
3.54,-0.03518
3.544,-0.00932
3.548,-0.01939
3.552,0.04689
3.556,-0.01452
3.56,-0.00412
3.564,-0.02141
3.568,-0.02926
3.572,0.03929
3.576,-0.01104
3.58,-0.01464
3.584,-0.00445
3.588,-0.02051
3.592,0.00014
3.596,0.01043
3.6,-0.02361
3.604,0.01195
3.608,-0.02841
3.612,0.02933
3.616,0.05869
3.62,0.00319
3.624,0.00535
3.628,-0.03988
3.632,0.04487
3.636,0.01367
3.64,0.01182
3.644,0.10468
3.648,0.03016
3.652,0.0044
3.656,0.06886
3.66,-0.00399
3.664,0.05703
3.668,0.08962
3.672,0.16323
3.676,0.11024
3.68,0.10195
3.684,0.12624
3.688,0.11723
3.692,0.12048
3.696,0.13018
3.7,0.19848
3.704,0.1179
3.708,0.14676
3.712,0.12058
3.716,0.25989
3.72,0.24006
3.724,0.2404
3.728,0.19847
3.732,0.22449
3.736,0.22252
3.74,0.19814
3.744,0.22916
3.748,0.23448
3.752,0.25253
3.756,0.25171
3.76,0.28711
3.764,0.31667
3.768,0.19499
3.772,0.18245
3.776,0.18782
3.78,0.23583
3.784,0.26343
3.788,0.14337
3.792,0.17556
3.796,0.16797
3.8,0.0884
3.804,0.08521
3.808,0.05454
3.812,0.06272
3.816,0.04622
3.82,0.02855
3.824,0.02639
3.828,0.02545
3.832,-0.06754
3.836,-0.01777
3.84,0.01582
3.844,-0.06139
3.848,0.0066
3.852,0.03192
3.856,-0.02893
3.86,-0.02096
3.864,-0.01607
3.868,0.00772
3.872,-0.05331
3.876,-0.07318
3.88,0.02375
3.884,-0.02429
3.888,-0.0574
3.892,-0.05207
3.896,-0.07598
3.9,-0.10802
3.904,-0.09672
3.908,-0.08166
3.912,-0.00083
3.916,0.16676
3.92,0.30085
3.924,0.55762
3.928,0.76762
3.932,0.93851
3.936,0.98034
3.94,0.8913
3.944,0.8244
3.948,0.5438
3.952,0.26647
3.956,0.12756
3.96,-0.0491
3.964,-0.19395
3.968,-0.18103
3.972,-0.15934
3.976,-0.19678
3.98,-0.11027
3.984,-0.02938
3.988,-0.0227
3.992,-0.02562
3.996,-0.03177
4.0,0.01043
4.004,-0.04783
4.008,-0.03964
4.012,-0.01935
4.016,-0.0421
4.02,0.02933
4.024,0.02663
4.028,-0.0111
4.032,-0.01246
4.036,-0.01674
4.04,-0.02898
4.044,-0.03667
4.048,-0.10484
4.052,-0.03598
4.056,-0.04123
4.06,-0.03995
4.064,0.01496
4.068,-0.03219
4.072,0.00144
4.076,-0.0436
4.08,0.02072
4.084,-0.01686
4.088,-0.03211
4.092,-0.06334
4.096,0.01493
4.1,-0.02358
4.104,-0.03401
4.108,0.02271
4.112,0.02885
4.116,0.00657
4.12,-0.04544
4.124,0.05183
4.128,0.01406
4.132,-0.03816
4.136,0.00918
4.14,0.02332
4.144,0.03229
4.148,0.0108
4.152,0.0235
4.156,0.07756
4.16,0.10535
4.164,0.09099
4.168,0.05867
4.172,0.15599
4.176,0.07431
4.18,0.18292
4.184,0.20795
4.188,0.18497
4.192,0.16941
4.196,0.20229
4.2,0.22081
4.204,0.15136
4.208,0.17413
4.212,0.22634
4.216,0.1922
4.22,0.16218
4.224,0.25429
4.228,0.16604
4.232,0.14951
4.236,0.19142
4.24,0.09646
4.244,0.19429
4.248,0.22201
4.252,0.03406
4.256,0.14446
4.26,0.08914
4.264,0.0929
4.268,0.09001
4.272,0.1083
4.276,0.07066
4.28,0.03621
4.284,0.03775
4.288,0.04582
4.292,-0.00776
4.296,0.00764
4.3,-0.05691
4.304,0.04987
4.308,0.00954
4.312,0.05846
4.316,-0.01557
4.32,-0.06448
4.324,-0.00078
4.328,0.04306
4.332,-0.04148
4.336,-0.00908
4.34,0.00086
4.344,-0.03395
4.348,0.01439
4.352,-0.07047
4.356,-0.01455
4.36,-0.00539
4.364,-0.04119
4.368,0.01195
4.372,0.02744
4.376,-0.04052
4.38,0.01142
4.384,0.03508
4.388,-0.03621
4.392,-0.04909
4.396,-0.03347
4.4,-0.01204
4.404,-0.05774
4.408,-0.04139
4.412,0.00309
4.416,0.02329
4.42,0.00288
4.424,0.03615
4.428,-0.08591
4.432,0.01939
4.436,0.00122
4.44,-0.01349
4.444,-0.05109
4.448,-0.02348
4.452,-0.0261
4.456,-0.02213
4.46,0.03415
4.464,-0.01621
4.468,-0.02327
4.472,-0.01817
4.476,-0.01734
4.48,-0.02351
4.484,-0.05917
4.488,-0.0002
4.492,-0.00892
4.496,-0.07237
4.5,-0.03378
4.504,0.00356
4.508,-0.08396
4.512,-0.03996
4.516,-0.07436
4.52,-0.02577
4.524,-0.00378
4.528,-0.01393
4.532,-0.02049
4.536,-0.04035
4.54,-0.04967
4.544,-0.05418
4.548,-0.00588
4.552,-0.07207
4.556,0.0023
4.56,-0.02141
4.564,-0.00829
4.568,-0.02616
4.572,0.02361
4.576,-0.05573
4.58,-0.00138
4.584,0.01114
4.588,-2e-05
4.592,-0.0317
4.596,0.0563
4.6,0.01159
4.604,0.08767
4.608,0.00453
4.612,0.06069
4.616,0.00829
4.62,0.09849
4.624,0.0432
4.628,0.05208
4.632,0.0723
4.636,0.01521
4.64,0.00995
4.644,-0.03863
4.648,0.05428
4.652,-0.00871
4.656,-0.02238
4.66,0.04158
4.664,-0.03945
4.668,-0.05096
4.672,0.02648
4.676,-0.00477
4.68,-0.00113
4.684,-0.03743
4.688,0.01741
4.692,-0.00823
4.696,-0.03716
4.7,0.00412
4.704,-0.06612
4.708,-0.07404
4.712,-0.10128
4.716,0.0221
4.72,-0.08241
4.724,-0.1056
4.728,-0.01823
4.732,-0.04556
4.736,-0.05676
4.74,-0.1094
4.744,-0.14589
4.748,-0.07288
4.752,-0.02376
4.756,0.18574
4.76,0.36644
4.764,0.60693
4.768,0.80158
4.772,0.89726
4.776,0.96621
4.78,0.89372
4.784,0.69584
4.788,0.57063
4.792,0.24069
4.796,0.06342
4.8,-0.11047
4.804,-0.17335
4.808,-0.15224
4.812,-0.16832
4.816,-0.17925
4.82,-0.13316
4.824,-0.0647
4.828,-0.00375
4.832,-0.04746
4.836,-0.01963
4.84,-0.05572
4.844,-0.03849
4.848,0.01145
4.852,-0.01847
4.856,-0.04887
4.86,0.05797
4.864,-0.0578
4.868,-0.02291
4.872,-0.04618
4.876,-0.05334
4.88,0.02533
4.884,-0.00539
4.888,-0.01104
4.892,-0.00697
4.896,-0.00793
4.9,-0.07001
4.904,-0.01863
4.908,0.0381
4.912,-0.10819
4.916,-0.06418
4.92,0.01776
4.924,-0.03968
4.928,-0.04458
4.932,0.04018
4.936,-0.00473
4.94,0.03778
4.944,0.02915
4.948,-0.11804
4.952,-0.02108
4.956,-0.03539
4.96,0.04011
4.964,-0.03092
4.968,0.02365
4.972,0.03637
4.976,0.04429
4.98,-0.02251
4.984,0.0557
4.988,0.05653
4.992,0.06804
4.996,-0.01543
5.0,0.1328
5.004,0.07262
5.008,0.14888
5.012,0.08726
5.016,0.13463
5.02,0.14169
5.024,0.17359
5.028,0.14204
5.032,0.10681
5.036,0.19356
5.04,0.13326
5.044,0.10962
5.048,0.19594
5.052,0.16408
5.056,0.2193
5.06,0.15881
5.064,0.12598
5.068,0.20692
5.072,0.25191
5.076,0.17325
5.08,0.14292
5.084,0.139
5.088,0.14983
5.092,0.13965
5.096,0.04081
5.1,0.09528
5.104,0.17177
5.108,0.05174
5.112,0.03436
5.116,0.08913
5.12,-0.00436
5.124,0.14483
5.128,-0.00809
5.132,-0.00518
5.136,-0.00428
5.14,0.02359
5.144,0.04835
5.148,0.04062
5.152,-0.03003
5.156,-0.05511
5.16,0.00361
5.164,-0.02197
5.168,0.06578
5.172,-0.00124
5.176,-0.01745
5.18,-0.00102
5.184,-0.08385
5.188,-0.08541
5.192,-0.0624
5.196,0.00666
5.2,-0.04036
5.204,-0.03569
5.208,0.01126
5.212,-0.01721
5.216,-0.04316
5.22,-0.07918
5.224,-0.08561
5.228,-0.05802
5.232,-0.03313
5.236,0.00395
5.24,-0.09457
5.244,-0.05139
5.248,-0.0378
5.252,0.03626
5.256,-0.07491
5.26,0.00107
5.264,0.00863
5.268,-0.02473
5.272,0.03743
5.276,0.0883
5.28,-0.00692
5.284,0.04556
5.288,0.03504
5.292,0.05742
5.296,0.01742
5.3,0.06497
5.304,0.09868
5.308,0.0125
5.312,0.01012
5.316,0.05542
5.32,0.02813
5.324,-0.00982
5.328,0.01588
5.332,-0.011
5.336,0.02098
5.34,-0.03598
5.344,-0.03486
5.348,-0.04068
5.352,-0.07259
5.356,0.00193
5.36,-0.08495
5.364,-0.0556
5.368,-0.00039
5.372,-0.03732
5.376,-0.07578
5.38,-0.02011
5.384,-0.01084
5.388,0.03184
5.392,-0.01963
5.396,-0.01858
5.4,-0.04465
5.404,-0.02869
5.408,0.00389
5.412,-0.07165
5.416,-0.02549
5.42,-0.03279
5.424,-0.09002
5.428,-0.10748
5.432,-0.16333
5.436,-0.1035
5.44,-0.01394
5.444,0.13957
5.448,0.3311
5.452,0.48938
5.456,0.70166
5.46,0.87138
5.464,1.00863
5.468,0.88567
5.472,0.80893
5.476,0.61654
5.48,0.35687
5.484,0.24881
5.488,-0.03866
5.492,-0.15037
5.496,-0.15796
5.5,-0.20126
5.504,-0.1104
5.508,-0.08923
5.512,-0.04991
5.516,-0.02048
5.52,-0.02523
5.524,-0.00063
5.528,-0.10133
5.532,0.0145
5.536,-0.02823
5.54,-0.02138
5.544,0.02132
5.548,-0.0956
5.552,-0.04445
5.556,-0.09969
5.56,-0.02946
5.564,-0.04309
5.568,-0.02428
5.572,-0.02421
5.576,-0.04741
5.58,-0.03791
5.584,-0.09157
5.588,-0.10731
5.592,-0.02255
5.596,-0.0754
5.6,-0.02554
5.604,0.01606
5.608,0.03295
5.612,-0.02944
5.616,-0.05038
5.62,0.01248
5.624,-0.04244
5.628,-0.03739
5.632,-0.02804
5.636,-0.04971
5.64,-0.0365
5.644,0.01757
5.648,0.01387
5.652,0.00348
5.656,0.05725
5.66,0.04022
5.664,-0.02366
5.668,-0.05265
5.672,0.02863
5.676,0.03321
5.68,0.04332
5.684,0.10858
5.688,0.10383
5.692,0.07878
5.696,0.07801
5.7,0.12388
5.704,0.10889
5.708,0.08272
5.712,0.16505
5.716,0.13381
5.72,0.15755
5.724,0.13795
5.728,0.11478
5.732,0.19606
5.736,0.12244
5.74,0.14443
5.744,0.21112
5.748,0.2332
5.752,0.21598
5.756,0.22081
5.76,0.23358
5.764,0.1874
5.768,0.16461
5.772,0.15312
5.776,0.1809
5.78,0.10887
5.784,0.09594
5.788,0.1633
5.792,0.07994
5.796,0.07938
5.8,0.15926
5.804,-0.00399
5.808,0.02027
5.812,0.05484
5.816,0.09092
5.82,0.05313
5.824,-0.01731
5.828,0.00473
5.832,0.00582
5.836,0.01568
5.84,0.03362
5.844,0.03983
5.848,-0.04014
5.852,0.01289
5.856,-0.00277
5.86,-0.05676
5.864,0.05143
5.868,-0.01594
5.872,-0.01751
5.876,-0.02122
5.88,-0.00174
5.884,-0.04372
5.888,0.03116
5.892,0.03381
5.896,0.05873
5.9,0.04275
5.904,-0.04925
5.908,0.11467
5.912,0.04275
5.916,0.09569
5.92,0.05415
5.924,0.11741
5.928,0.04185
5.932,0.02152
5.936,0.02978
5.94,-0.00193
5.944,0.00747
5.948,0.02212
5.952,-0.02058
5.956,0.02894
5.96,-0.02628
5.964,0.00809
5.968,-0.00527
5.972,0.0276
5.976,-0.06372
5.98,0.01123
5.984,-0.08203
5.988,0.0037
5.992,-0.02134
5.996,-0.04119
6.0,-0.05979
6.004,-0.01802
6.008,-0.0744
6.012,-0.00696
6.016,-0.03672
6.02,-0.02237
6.024,-0.04478
6.028,0.00558
6.032,-0.09563
6.036,-0.07485
6.04,-0.13564
6.044,-0.08352
6.048,-0.18321
6.052,-0.13963
6.056,-0.05099
6.06,0.0945
6.064,0.28535
6.068,0.55806
6.072,0.80649
6.076,0.88575
6.08,0.94653
6.084,0.98413
6.088,0.76703
6.092,0.59012
6.096,0.32927
6.1,0.15023
6.104,-0.00431
6.108,-0.10169
6.112,-0.15741
6.116,-0.15542
6.12,-0.13668
6.124,-0.14592
6.128,-0.06565
6.132,-0.06674
6.136,-0.06352
6.14,-0.01352
6.144,-0.03276
6.148,-0.06798
6.152,-0.02562
6.156,0.05523
6.16,0.00919
6.164,-0.01638
6.168,0.00158
6.172,-0.06418
6.176,-0.05411
6.18,0.00477
6.184,-0.02756
6.188,-0.03438
6.192,-0.02091
6.196,-0.07097
6.2,-0.00705
6.204,-0.13968
6.208,-0.05576
6.212,-0.05416
6.216,0.028
6.22,0.03131
6.224,-0.01033
6.228,-0.06079
6.232,-0.00883
6.236,0.01755
6.24,0.03486
6.244,0.03627
6.248,0.04227
6.252,-0.02151
6.256,-0.03328
6.26,-0.06647
6.264,0.00578
6.268,-0.05809
6.272,-0.01769
6.276,0.08986
6.28,0.01606
6.284,0.04277
6.288,0.02695
6.292,0.11762
6.296,0.05916
6.3,0.01599
6.304,0.0853
6.308,0.11613
6.312,0.11771
6.316,0.14164
6.32,0.1672
6.324,0.16974
6.328,0.1259
6.332,0.14969
6.336,0.21051
6.34,0.18998
6.344,0.19068
6.348,0.16579
6.352,0.18629
6.356,0.25344
6.36,0.28366
6.364,0.20039
6.368,0.27452
6.372,0.27072
6.376,0.23543
6.38,0.24599
6.384,0.1884
6.388,0.27738
6.392,0.25535
6.396,0.23454
6.4,0.2355
6.404,0.22764
6.408,0.15489
6.412,0.16341
6.416,0.17499
6.42,0.08818
6.424,0.07704
6.428,0.1016
6.432,0.07026
6.436,0.06354
6.44,0.04573
6.444,0.03688
6.448,-0.00254
6.452,-0.01362
6.456,0.04698
6.46,0.0648
6.464,0.00731
6.468,0.03579
6.472,-0.05207
6.476,-0.01418
6.48,-0.00757
6.484,0.03942
6.488,0.00054
6.492,-0.05052
6.496,0.01217
6.5,-0.00621
6.504,-0.04053
6.508,-0.06598
6.512,-0.13183
6.516,-0.10334
6.52,-0.09222
6.524,-0.06438
6.528,0.01796
6.532,0.32275
6.536,0.46028
6.54,0.65028
6.544,0.88847
6.548,0.97853
6.552,0.96914
6.556,0.87734
6.56,0.67511
6.564,0.52343
6.568,0.23542
6.572,0.04844
6.576,-0.03833
6.58,-0.13223
6.584,-0.15147
6.588,-0.13205
6.592,-0.10638
6.596,-0.04189
6.6,-0.04664
6.604,-0.03463
6.608,0.01184
6.612,0.00921
6.616,-0.01439
6.62,-0.07411
6.624,-0.02137
6.628,-0.02776
6.632,0.04674
6.636,0.01774
6.64,-0.0324
6.644,0.00112
6.648,-0.07315
6.652,0.01677
6.656,0.01908
6.66,0.01431
6.664,-0.03897
6.668,-0.00151
6.672,0.03601
6.676,-0.01236
6.68,-0.0284
6.684,-0.05185
6.688,0.04277
6.692,0.00427
6.696,-0.02875
6.7,0.00945
6.704,0.0209
6.708,-0.00277
6.712,0.04548
6.716,-0.00146
6.72,-0.00764
6.724,0.05433
6.728,0.00011
6.732,-0.04762
6.736,-0.05862
6.74,-0.00312
6.744,-0.0389
6.748,-0.00764
6.752,0.07978
6.756,0.01778
6.76,0.08747
6.764,0.0574
6.768,0.09312
6.772,0.11861
6.776,0.15155
6.78,0.14158
6.784,0.19785
6.788,0.18635
6.792,0.06007
6.796,0.17255
6.8,0.12902
6.804,0.16035
6.808,0.15905
6.812,0.18311
6.816,0.17707
6.82,0.15008
6.824,0.23041
6.828,0.20528
6.832,0.16014
6.836,0.24065
6.84,0.25659
6.844,0.21873
6.848,0.25166
6.852,0.19331
6.856,0.16167
6.86,0.1677
6.864,0.08007
6.868,0.14868
6.872,0.18164
6.876,0.19449
6.88,0.15269
6.884,0.0793
6.888,0.07674
6.892,0.12866
6.896,0.08676
6.9,0.12039
6.904,0.08646
6.908,0.06671
6.912,0.10134
6.916,0.08354
6.92,0.04719
6.924,0.07585
6.928,0.1002
6.932,-0.00913
6.936,0.08672
6.94,0.0425
6.944,-0.00643
6.948,0.00563
6.952,0.0097
6.956,-0.06326
6.96,-0.0054
6.964,0.0663
6.968,-0.01717
6.972,0.01799
6.976,0.04991
6.98,0.06556
6.984,0.06615
6.988,0.00147
6.992,0.05087
6.996,0.10049
7.0,0.07064
7.004,0.03493
7.008,0.07089
7.012,0.1251
7.016,0.06307
7.02,0.07509
7.024,0.11834
7.028,0.09714
7.032,0.06363
7.036,0.04659
7.04,0.10178
7.044,0.01904
7.048,0.03068
7.052,0.02669
7.056,0.03413
7.06,0.07659
7.064,-0.04461
7.068,-0.05946
7.072,0.01479
7.076,0.04
7.08,-0.01625
7.084,0.01919
7.088,-0.02559
7.092,0.06813
7.096,0.00479
7.1,-0.00091
7.104,0.00857
7.108,-0.00457
7.112,0.03748
7.116,-0.00778
7.12,0.06147
7.124,-0.04379
7.128,-0.03508
7.132,-0.05436
7.136,-0.06749
7.14,-0.09385
7.144,-0.07286
7.148,-0.02763
7.152,0.11588
7.156,0.28193
7.16,0.50248
7.164,0.73976
7.168,0.93798
7.172,1.02557
7.176,1.02098
7.18,0.85722
7.184,0.64904
7.188,0.513
7.192,0.2575
7.196,0.02258
7.2,-0.0861
7.204,-0.22365
7.208,-0.11408
7.212,-0.24774
7.216,-0.11651
7.22,-0.0904
7.224,-0.00935
7.228,-0.01755
7.232,0.0372
7.236,0.05012
7.24,0.00842
7.244,-0.00757
7.248,0.0375
7.252,-0.0017
7.256,-0.02721
7.26,-0.01472
7.264,-0.04586
7.268,0.06323
7.272,0.05622
7.276,4e-05
7.28,0.00214
7.284,-0.00311
7.288,-0.0137
7.292,-0.04706
7.296,0.04144
7.3,0.00763
7.304,0.00068
7.308,0.00517
7.312,0.00095
7.316,0.05764
7.32,0.00533
7.324,-0.05176
7.328,0.09958
7.332,-0.00037
7.336,0.04457
7.34,0.0497
7.344,0.03154
7.348,0.02323
7.352,0.14144
7.356,0.01703
7.36,0.04885
7.364,0.09858
7.368,0.09222
7.372,0.13329
7.376,0.06107
7.38,0.05889
7.384,0.08316
7.388,0.14503
7.392,0.10766
7.396,0.1383
7.4,0.10913
7.404,0.07456
7.408,0.10663
7.412,0.16387
7.416,0.17346
7.42,0.21883
7.424,0.17346
7.428,0.20447
7.432,0.16059
7.436,0.24123
7.44,0.21217
7.444,0.30052
7.448,0.15356
7.452,0.26022
7.456,0.31161
7.46,0.18605
7.464,0.22518
7.468,0.26392
7.472,0.1811
7.476,0.20038
7.48,0.20426
7.484,0.18399
7.488,0.1063
7.492,0.14894
7.496,0.19947
7.5,0.15279
7.504,0.10254
7.508,0.14619
7.512,0.10572
7.516,0.13292
7.52,0.10577
7.524,0.10661
7.528,0.04795
7.532,0.03778
7.536,0.08381
7.54,0.0853
7.544,-0.03398
7.548,0.0383
7.552,0.04392
7.556,0.00203
7.56,0.04793
7.564,0.0477
7.568,0.05531
7.572,-0.02942
7.576,0.03444
7.58,-0.02156
7.584,0.01955
7.588,-0.00707
7.592,0.03332
7.596,0.00223
7.6,-0.04474
7.604,0.0198
7.608,-0.03402
7.612,0.06427
7.616,0.04391
7.62,-0.00965
7.624,0.063
7.628,-0.00489
7.632,0.07014
7.636,0.05088
7.64,0.04132
7.644,-0.00802
7.648,-0.00728
7.652,0.08698
7.656,0.00545
7.66,0.03335
7.664,0.0216
7.668,0.02061
7.672,0.02505
7.676,0.00482
7.68,0.07276
7.684,0.05967
7.688,0.03413
7.692,-0.01434
7.696,0.05609
7.7,0.07029
7.704,-0.02951
7.708,-0.03694
7.712,0.10323
7.716,-0.03363
7.72,-0.00546
7.724,0.00414
7.728,-0.05775
7.732,0.07026
7.736,0.01156
7.74,0.0408
7.744,0.01884
7.748,0.02932
7.752,0.03297
7.756,0.05429
7.76,0.02877
7.764,0.0223
7.768,0.09043
7.772,0.0638
7.776,0.01939
7.78,0.05304
7.784,0.0058
7.788,0.00492
7.792,0.01911
7.796,-0.01697
7.8,0.01357
7.804,0.0227
7.808,0.05379
7.812,0.07867
7.816,0.07823
7.82,0.05879
7.824,0.08276
7.828,0.08248
7.832,0.13997
7.836,0.16411
7.84,0.0992
7.844,0.1466
7.848,0.0728
7.852,0.08001
7.856,0.08068
7.86,0.12624
7.864,0.07186
7.868,-0.01168
7.872,0.07058
7.876,0.0495
7.88,0.0486
7.884,-0.01623
7.888,0.06296
7.892,0.05743
7.896,0.10746
7.9,-0.00491
7.904,0.0233
7.908,-0.02554
7.912,0.03178
7.916,0.01821
7.92,0.01241
7.924,0.0088
7.928,-0.00716
7.932,0.01584
7.936,0.05148
7.94,0.03158
7.944,0.03256
7.948,-0.00191
7.952,0.00177
7.956,0.01767
7.96,-0.12397
7.964,-0.0766
7.968,-0.09502
7.972,-0.05821
7.976,0.08127
7.98,0.15467
7.984,0.46361
7.988,0.69144
7.992,0.84763
7.996,1.01416
8.0,1.0916
8.004,0.9405
8.008,0.77322
8.012,0.47279
8.016,0.26732
8.02,0.09136
8.024,0.00021
8.028,-0.11396
8.032,-0.1861
8.036,-0.16199
8.04,-0.10093
8.044,0.03333
8.048,0.00514
8.052,-0.01273
8.056,0.02647
8.06,0.02165
8.064,0.0159
8.068,0.0647
8.072,0.00241
8.076,-0.00183
8.08,0.0453
8.084,0.02838
8.088,0.00475
8.092,0.05024
8.096,0.02053
8.1,0.07533
8.104,0.007
8.108,-0.02662
8.112,-0.02058
8.116,0.04827
8.12,-0.00626
8.124,0.03527
8.128,0.03329
8.132,0.02004
8.136,-0.01234
8.14,-0.00113
8.144,0.06361
8.148,0.02653
8.152,0.04789
8.156,0.03172
8.16,-0.02175
8.164,0.06192
8.168,0.05838
8.172,0.0722
8.176,0.01731
8.18,-0.00042
8.184,0.03285
8.188,0.03733
8.192,0.02093
8.196,0.02265
8.2,0.05694
8.204,0.09783
8.208,0.0267
8.212,0.13531
8.216,0.12849
8.22,0.11834
8.224,0.14985
8.228,0.08427
8.232,0.17702
8.236,0.09673
8.24,0.15638
8.244,0.1546
8.248,0.23624
8.252,0.22334
8.256,0.24958
8.26,0.31904
8.264,0.292
8.268,0.21941
8.272,0.24608
8.276,0.27758
8.28,0.29206
8.284,0.26541
8.288,0.23517
8.292,0.19854
8.296,0.2635
8.3,0.2691
8.304,0.23387
8.308,0.15539
8.312,0.23334
8.316,0.14464
8.32,0.25613
8.324,0.15673
8.328,0.15924
8.332,0.10342
8.336,0.15965
8.34,0.10889
8.344,0.13977
8.348,0.11537
8.352,0.07597
8.356,0.0986
8.36,0.12575
8.364,0.10459
8.368,0.05379
8.372,0.10215
8.376,0.04511
8.38,0.04045
8.384,0.03739
8.388,0.05037
8.392,0.01922
8.396,0.1198
8.4,0.08926
8.404,0.00948
8.408,0.05614
8.412,0.00712
8.416,0.0213
8.42,0.04671
8.424,0.08193
8.428,0.00714
8.432,0.05494
8.436,0.02697
8.44,0.00299
8.444,-0.01432
8.448,-0.02388
8.452,0.05087
8.456,0.08623
8.46,0.00211
8.464,0.026
8.468,0.02597
8.472,0.10641
8.476,-0.01335
8.48,0.03777
8.484,0.06619
8.488,-0.03339
8.492,0.06335
8.496,0.09479
8.5,0.13964
8.504,0.07214
8.508,0.03854
8.512,0.1192
8.516,0.10464
8.52,0.11387
8.524,0.07177
8.528,0.11816
8.532,0.1659
8.536,0.09166
8.54,0.14057
8.544,0.12871
8.548,0.12967
8.552,0.10575
8.556,0.06734
8.56,0.00458
8.564,0.05199
8.568,0.11594
8.572,0.02145
8.576,0.08141
8.58,-0.05385
8.584,0.03334
8.588,-0.01663
8.592,0.09696
8.596,-0.01714
8.6,0.00279
8.604,0.0141
8.608,0.01293
8.612,0.01208
8.616,0.02044
8.62,0.02112
8.624,-0.01625
8.628,0.07011
8.632,0.02501
8.636,0.02914
8.64,0.04141
8.644,-0.01212
8.648,-0.05043
8.652,-0.01267
8.656,-0.06805
8.66,-0.10201
8.664,-0.00369
8.668,0.19197
8.672,0.31092
8.676,0.58029
8.68,0.72877
8.684,0.93107
8.688,1.0019
8.692,1.03728
8.696,0.86327
8.7,0.62279
8.704,0.40804
8.708,0.20326
8.712,0.05985
8.716,-0.05863
8.72,-0.11501
8.724,-0.12571
8.728,-0.09185
8.732,-0.06515
8.736,0.00299
8.74,-0.06237
8.744,0.02004
8.748,0.0428
8.752,0.04275
8.756,0.06506
8.76,-0.01971
8.764,0.06136
8.768,-0.01311
8.772,0.03729
8.776,0.06494
8.78,0.02484
8.784,-0.02272
8.788,0.01625
8.792,0.03071
8.796,0.02465
8.8,-0.03629
8.804,0.06336
8.808,0.03366
8.812,0.03356
8.816,0.0095
8.82,-0.01746
8.824,0.05502
8.828,0.07892
8.832,0.05822
8.836,0.01742
8.84,-0.0023
8.844,0.03106
8.848,0.03227
8.852,0.01104
8.856,0.03996
8.86,0.04098
8.864,0.03496
8.868,0.07311
8.872,0.0055
8.876,0.02226
8.88,0.06684
8.884,0.05184
8.888,0.09077
8.892,0.0511
8.896,0.04355
8.9,0.15862
8.904,0.08932
8.908,0.17501
8.912,0.08572
8.916,0.07979
8.92,0.15506
8.924,0.1711
8.928,0.19272
8.932,0.17407
8.936,0.20376
8.94,0.21625
8.944,0.23994
8.948,0.20873
8.952,0.21152
8.956,0.23847
8.96,0.27953
8.964,0.24316
8.968,0.27625
8.972,0.2108
8.976,0.22608
8.98,0.23095
8.984,0.25386
8.988,0.23436
8.992,0.20692
8.996,0.2416
9.0,0.21679
9.004,0.21726
9.008,0.19872
9.012,0.15909
9.016,0.12382
9.02,0.1264
9.024,0.14774
9.028,0.03772
9.032,0.0936
9.036,0.12621
9.04,0.1188
9.044,0.05045
9.048,0.01131
9.052,0.04313
9.056,0.07117
9.06,0.02848
9.064,0.07488
9.068,0.01605
9.072,0.03227
9.076,0.08106
9.08,0.03993
9.084,0.05023
9.088,-0.00661
9.092,-0.00057
9.096,-0.003
9.1,0.02576
9.104,0.06053
9.108,0.03916
9.112,0.00661
9.116,0.02921
9.12,0.02226
9.124,0.06389
9.128,0.04694
9.132,-0.02426
9.136,0.02464
9.14,0.04296
9.144,-0.00422
9.148,0.06834
9.152,0.03289
9.156,0.01479
9.16,0.01774
9.164,0.0642
9.168,0.13133
9.172,0.11009
9.176,0.06921
9.18,0.17633
9.184,0.15519
9.188,0.15018
9.192,0.19928
9.196,0.04759
9.2,0.10578
9.204,0.07114
9.208,0.10907
9.212,0.0552
9.216,0.08779
9.22,0.02662
9.224,0.05798
9.228,-0.02046
9.232,0.02701
9.236,0.01904
9.24,-0.02954
9.244,0.0288
9.248,-0.01227
9.252,-0.02107
9.256,0.02855
9.26,0.0175
9.264,-0.02569
9.268,0.06655
9.272,0.01269
9.276,0.04198
9.28,0.0067
9.284,0.02224
9.288,0.00629
9.292,0.05207
9.296,0.0487
9.3,-0.02046
9.304,-0.04093
9.308,-0.038
9.312,-0.10013
9.316,-0.06686
9.32,-0.13086
9.324,0.04976
9.328,0.18744
9.332,0.37221
9.336,0.5461
9.34,0.79453
9.344,0.97079
9.348,0.95287
9.352,1.05308
9.356,0.86912
9.36,0.64731
9.364,0.3608
9.368,0.16221
9.372,-0.00229
9.376,-0.0694
9.38,-0.11746
9.384,-0.16621
9.388,-0.14923
9.392,-0.02963
9.396,-0.01155
9.4,-0.01185
9.404,-0.01227
9.408,-0.00334
9.412,0.02297
9.416,-0.0179
9.42,0.02336
9.424,0.01611
9.428,-0.01527
9.432,0.0272
9.436,0.00665
9.44,0.04206
9.444,-0.0402
9.448,-0.01688
9.452,0.03203
9.456,0.02033
9.46,-0.04781
9.464,-0.01086
9.468,0.04094
9.472,-0.00925
9.476,0.0372
9.48,-0.01254
9.484,0.02564
9.488,0.04395
9.492,-0.03451
9.496,0.07242
9.5,0.00163
9.504,0.00019
9.508,0.0282
9.512,-0.00371
9.516,0.03302
9.52,0.02706
9.524,0.00257
9.528,0.03561
9.532,0.03024
9.536,0.03161
9.54,0.01944
9.544,0.08722
9.548,0.12173
9.552,0.12759
9.556,0.1487
9.56,0.20601
9.564,0.16375
9.568,0.21384
9.572,0.27545
9.576,0.24199
9.58,0.23153
9.584,0.1975
9.588,0.27875
9.592,0.27095
9.596,0.30858
9.6,0.19957
9.604,0.33943
9.608,0.26351
9.612,0.23608
9.616,0.2906
9.62,0.29778
9.624,0.3205
9.628,0.29744
9.632,0.3144
9.636,0.28413
9.64,0.22552
9.644,0.21369
9.648,0.19795
9.652,0.19917
9.656,0.17263
9.66,0.12619
9.664,0.2143
9.668,0.15285
9.672,0.20785
9.676,0.17141
9.68,0.09763
9.684,0.08472
9.688,0.06076
9.692,0.0604
9.696,0.04159
9.7,0.03029
9.704,-0.055
9.708,-0.04235
9.712,0.01769
9.716,-0.02362
9.72,0.11456
9.724,0.24857
9.728,0.40672
9.732,0.54248
9.736,0.63163
9.74,0.65737
9.744,0.68796
9.748,0.61646
9.752,0.4064
9.756,0.21776
9.76,0.08849
9.764,0.05765
9.768,-0.12041
9.772,-0.11383
9.776,-0.13004
9.78,-0.08216
9.784,-0.09425
9.788,-0.03929
9.792,-0.0329
9.796,0.04698
9.8,0.00225
9.804,0.01269
9.808,0.01263
9.812,-0.01397
9.816,-0.02835
9.82,0.01527
9.824,0.01174
9.828,0.04734
9.832,0.0098
9.836,-0.00047
9.84,0.01052
9.844,-0.01749
9.848,0.02921
9.852,0.11486
9.856,-0.01511
9.86,0.04308
9.864,0.04003
9.868,0.01684
9.872,0.0165
9.876,-0.03195
9.88,0.057
9.884,0.01096
9.888,0.08655
9.892,0.01511
9.896,-0.05228
9.9,0.01707
9.904,0.04688
9.908,0.00137
9.912,-0.00298
9.916,-0.05333
9.92,0.04745
9.924,-0.01994
9.928,0.01238
9.932,0.02507
9.936,0.04848
9.94,0.0291
9.944,0.11085
9.948,0.11194
9.952,0.10593
9.956,0.11461
9.96,0.08823
9.964,0.11357
9.968,0.09919
9.972,0.11944
9.976,0.13551
9.98,0.1395
9.984,0.17412
9.988,0.16766
9.992,0.22631
9.996,0.18405
