t_seg,ecg_mV
0.0,0.0012
0.004,0.01504
0.008,-0.01285
0.012,-0.01694
0.016,-0.01599
0.02,0.01111
0.024,-0.04583
0.028,-0.00421
0.032,0.00503
0.036,-0.01454
0.04,-0.00527
0.044,-0.02927
0.048,-0.01628
0.052,-0.0071
0.056,0.01048
0.06,-0.02674
0.064,-0.00286
0.068,-0.02279
0.072,-0.01715
0.076,-0.00401
0.08,-0.02494
0.084,-0.01044
0.088,-0.00402
0.092,-0.00771
0.096,0.00384
0.1,0.00763
0.104,0.00499
0.108,-0.00895
0.112,-0.01844
0.116,-0.00723
0.12,-0.01997
0.124,-0.03107
0.128,0.00042
0.132,-0.0179
0.136,-0.02746
0.14,-0.00019
0.144,-0.01029
0.148,-0.01074
0.152,0.0072
0.156,0.0059
0.16,-0.0006
0.164,-0.00925
0.168,0.01407
0.172,-0.01776
0.176,-0.01563
0.18,-0.00123
0.184,0.01396
0.188,-0.01865
0.192,0.00831
0.196,0.02326
0.2,0.02262
0.204,-0.02001
0.208,0.00502
0.212,-0.01228
0.216,-0.02605
0.22,0.02519
0.224,0.00632
0.228,-0.0145
0.232,0.01244
0.236,0.00392
0.24,0.02856
0.244,0.03842
0.248,-0.01324
0.252,-0.00239
0.256,-0.00431
0.26,0.01549
0.264,-0.02248
0.268,0.00431
0.272,-0.0161
0.276,0.02565
0.28,-0.01922
0.284,0.02371
0.288,-0.00615
0.292,-0.01244
0.296,0.00206
0.3,-0.00659
0.304,-0.00167
0.308,0.01081
0.312,-0.02231
0.316,-0.00684
0.32,0.0205
0.324,0.01063
0.328,0.00495
0.332,0.00585
0.336,0.01378
0.34,0.01016
0.344,0.02106
0.348,-0.00906
0.352,0.00821
0.356,0.00341
0.36,0.03351
0.364,-0.01559
0.368,0.01559
0.372,0.01165
0.376,-0.01036
0.38,-0.02735
0.384,-0.0069
0.388,0.00252
0.392,0.00102
0.396,-0.0001
0.4,-0.00578
0.404,0.02461
0.408,-0.05634
0.412,0.00869
0.416,0.01798
0.42,-0.00145
0.424,0.0294
0.428,0.02925
0.432,0.04138
0.436,0.03781
0.44,0.07707
0.444,0.07906
0.448,0.10239
0.452,0.10695
0.456,0.09698
0.46,0.11912
0.464,0.0988
0.468,0.06367
0.472,0.08102
0.476,0.05207
0.48,0.06286
0.484,0.0714
0.488,0.06262
0.492,0.03865
0.496,0.06925
0.5,0.0275
0.504,0.01377
0.508,0.00514
0.512,-0.01326
0.516,0.0026
0.52,0.00982
0.524,-0.00874
0.528,0.00298
0.532,-0.0197
0.536,0.04938
0.54,0.00208
0.544,-0.02377
0.548,0.02137
0.552,0.03971
0.556,0.02846
0.56,0.00889
0.564,-0.0077
0.568,-0.01891
0.572,-0.00694
0.576,-0.0203
0.58,-0.02966
0.584,-0.09531
0.588,-0.13073
0.592,-0.09954
0.596,-0.02591
0.6,0.12472
0.604,0.31667
0.608,0.50978
0.612,0.72341
0.616,0.89665
0.62,0.99157
0.624,0.98255
0.628,0.87424
0.632,0.66408
0.636,0.44699
0.64,0.19064
0.644,0.0261
0.648,-0.08237
0.652,-0.1269
0.656,-0.14998
0.66,-0.11833
0.664,-0.08909
0.668,-0.02223
0.672,-0.001
0.676,-0.02808
0.68,-0.01644
0.684,0.03471
0.688,0.00511
0.692,0.00737
0.696,0.00558
0.7,0.00654
0.704,0.02144
0.708,0.01851
0.712,0.02453
0.716,0.0249
0.72,0.00099
0.724,0.01865
0.728,0.02232
0.732,0.04628
0.736,0.01415
0.74,0.03865
0.744,0.01878
0.748,0.01675
0.752,0.01744
0.756,0.0022
0.76,0.03855
0.764,-0.00512
0.768,-0.00281
0.772,0.02037
0.776,0.03541
0.78,0.0318
0.784,0.03152
0.788,0.03748
0.792,0.04318
0.796,0.02214
0.8,0.03019
0.804,0.04374
0.808,0.02996
0.812,0.03531
0.816,0.04986
0.82,0.03339
0.824,0.06407
0.828,0.08883
0.832,0.0465
0.836,0.09427
0.84,0.11597
0.844,0.14873
0.848,0.15254
0.852,0.11962
0.856,0.16301
0.86,0.18163
0.864,0.1884
0.868,0.17847
0.872,0.193
0.876,0.1941
0.88,0.1955
0.884,0.22232
0.888,0.22621
0.892,0.25311
0.896,0.21357
0.9,0.23974
0.904,0.23835
0.908,0.22689
0.912,0.22411
0.916,0.22618
0.92,0.20523
0.924,0.24451
0.928,0.25084
0.932,0.16547
0.936,0.17247
0.94,0.14865
0.944,0.16264
0.948,0.15245
0.952,0.1194
0.956,0.14312
0.96,0.11431
0.964,0.09586
0.968,0.06514
0.972,0.10698
0.976,0.06129
0.98,0.07093
0.984,0.0746
0.988,0.05093
0.992,0.05955
0.996,0.03296
1.0,0.06492
1.004,0.04692
1.008,-0.0171
1.012,0.04042
1.016,0.01565
1.02,0.02257
1.024,0.03225
1.028,0.00479
1.032,0.00334
1.036,0.04801
1.04,0.03496
1.044,0.02931
1.048,0.0546
1.052,0.03652
1.056,0.0611
1.06,0.07725
1.064,0.0351
1.068,0.08865
1.072,0.1115
1.076,0.11413
1.08,0.10023
1.084,0.10098
1.088,0.13161
1.092,0.10288
1.096,0.11795
1.1,0.10939
1.104,0.11021
1.108,0.06542
1.112,0.08103
1.116,0.05511
1.12,0.03948
1.124,0.02684
1.128,0.04041
1.132,0.03428
1.136,0.04366
1.14,0.03087
1.144,0.03438
1.148,0.02165
1.152,0.02486
1.156,0.06241
1.16,0.03666
1.164,0.03881
1.168,0.0366
1.172,0.00148
1.176,0.01008
1.18,0.00628
1.184,0.0184
1.188,0.0063
1.192,0.00409
1.196,0.03727
1.2,0.0324
1.204,-0.00592
1.208,-0.04349
1.212,-0.08086
1.216,-0.10284
1.22,-0.04327
1.224,0.06448
1.228,0.25445
1.232,0.42059
1.236,0.64824
1.24,0.82626
1.244,0.97612
1.248,1.0108
1.252,0.9494
1.256,0.757
1.26,0.56821
1.264,0.31753
1.268,0.10727
1.272,-0.02101
1.276,-0.10206
1.28,-0.16997
1.284,-0.15319
1.288,-0.0636
1.292,-0.0421
1.296,-0.02177
1.3,0.00558
1.304,0.04256
1.308,0.03169
1.312,0.0231
1.316,0.00129
1.32,0.05703
1.324,0.02431
1.328,0.03444
1.332,0.05497
1.336,0.00995
1.34,0.03651
1.344,0.00873
1.348,0.03443
1.352,0.04177
1.356,0.00411
1.36,0.00845
1.364,0.01452
1.368,0.04048
1.372,0.0408
1.376,-0.00846
1.38,0.00396
1.384,0.00928
1.388,-0.00127
1.392,-0.00932
1.396,0.01749
1.4,0.0337
1.404,0.02279
1.408,0.06951
1.412,0.02601
1.416,0.02862
1.42,0.02876
1.424,0.06041
1.428,0.03244
1.432,0.07424
1.436,0.06977
1.44,0.04777
1.444,0.07476
1.448,0.10081
1.452,0.08403
1.456,0.09501
1.46,0.1087
1.464,0.11956
1.468,0.13538
1.472,0.13434
1.476,0.14463
1.48,0.15036
1.484,0.15024
1.488,0.16089
1.492,0.18954
1.496,0.1854
1.5,0.18777
1.504,0.19125
1.508,0.19953
1.512,0.231
1.516,0.24004
1.52,0.25176
1.524,0.21733
1.528,0.22984
1.532,0.2509
1.536,0.24532
1.54,0.25081
1.544,0.23831
1.548,0.22412
1.552,0.22146
1.556,0.21379
1.56,0.22223
1.564,0.1913
1.568,0.18466
1.572,0.15473
1.576,0.14147
1.58,0.14252
1.584,0.1073
1.588,0.12078
1.592,0.10721
1.596,0.10302
1.6,0.07391
1.604,0.06944
1.608,0.07041
1.612,0.0794
1.616,0.06143
1.62,0.06186
1.624,0.05792
1.628,0.04279
1.632,0.05032
1.636,0.0426
1.64,0.04501
1.644,0.0949
1.648,0.04093
1.652,0.03548
1.656,0.01777
1.66,0.02781
1.664,0.0394
1.668,0.03235
1.672,0.03244
1.676,0.03808
1.68,0.01998
1.684,0.00515
1.688,0.01602
1.692,0.05297
1.696,0.04534
1.7,0.02577
1.704,0.02361
1.708,0.03881
1.712,0.02114
1.716,0.02156
1.72,0.04089
1.724,0.0078
1.728,0.02173
1.732,0.03461
1.736,0.02592
1.74,0.02588
1.744,0.02454
1.748,0.02095
1.752,0.03396
1.756,0.03546
1.76,0.04596
1.764,0.04213
1.768,0.03009
1.772,0.03826
1.776,0.07073
1.78,0.04607
1.784,0.03963
1.788,0.06952
1.792,0.08819
1.796,0.07383
1.8,0.07949
1.804,0.10664
1.808,0.11497
1.812,0.12908
1.816,0.12839
1.82,0.11874
1.824,0.13434
1.828,0.1126
1.832,0.12106
1.836,0.08243
1.84,0.07709
1.844,0.09999
1.848,0.09565
1.852,0.04063
1.856,0.03038
1.86,0.04346
1.864,0.04616
1.868,0.03802
1.872,0.02658
1.876,0.04782
1.88,0.03069
1.884,0.02087
1.888,0.01129
1.892,0.01994
1.896,0.02431
1.9,0.00146
1.904,0.02874
1.908,0.02818
1.912,0.03437
1.916,0.04187
1.92,-0.00426
1.924,0.02056
1.928,0.02216
1.932,0.0114
1.936,-0.02632
1.94,-0.01089
1.944,-0.09976
1.948,-0.0812
1.952,-0.04102
1.956,0.12076
1.96,0.25522
1.964,0.47903
1.968,0.69239
1.972,0.86636
1.976,0.99461
1.98,1.04199
1.984,0.91206
1.988,0.73715
1.992,0.5338
1.996,0.2799
2.0,0.07889
2.004,-0.03036
2.008,-0.11566
2.012,-0.14026
2.016,-0.1452
2.02,-0.08224
2.024,-0.00728
2.028,0.0043
2.032,0.02562
2.036,0.02133
2.04,0.02372
2.044,0.0223
2.048,0.0551
2.052,-0.00143
2.056,0.00063
2.06,0.00593
2.064,0.03211
2.068,0.0449
2.072,0.01883
2.076,0.02178
2.08,0.04723
2.084,0.0422
2.088,0.02363
2.092,0.02719
2.096,0.02923
2.1,0.00834
2.104,0.02643
2.108,0.04383
2.112,0.04002
2.116,0.03382
2.12,0.02175
2.124,0.0471
2.128,0.02293
2.132,0.03733
2.136,0.01452
2.14,0.04434
2.144,0.04391
2.148,0.03944
2.152,0.06905
2.156,0.04621
2.16,0.04627
2.164,0.0482
2.168,0.0762
2.172,0.0524
2.176,0.05438
2.18,0.09332
2.184,0.09188
2.188,0.07467
2.192,0.10204
2.196,0.09457
2.2,0.11855
2.204,0.14077
2.208,0.14997
2.212,0.15753
2.216,0.17044
2.22,0.18917
2.224,0.18176
2.228,0.19695
2.232,0.18796
2.236,0.23597
2.24,0.22831
2.244,0.26295
2.248,0.2242
2.252,0.242
2.256,0.23649
2.26,0.25614
2.264,0.24859
2.268,0.24554
2.272,0.22483
2.276,0.25424
2.28,0.24377
2.284,0.20536
2.288,0.21365
2.292,0.1961
2.296,0.19626
2.3,0.19501
2.304,0.16267
2.308,0.15039
2.312,0.1207
2.316,0.13329
2.32,0.10476
2.324,0.1033
2.328,0.09342
2.332,0.04777
2.336,0.08132
2.34,0.0497
2.344,0.03843
2.348,0.02258
2.352,0.04157
2.356,0.07497
2.36,0.03456
2.364,0.0385
2.368,0.04385
2.372,0.01272
2.376,0.05176
2.38,0.03498
2.384,0.00419
2.388,0.05577
2.392,0.01231
2.396,0.03828
2.4,0.06798
2.404,0.04843
2.408,0.05258
2.412,0.06777
2.416,0.08448
2.42,0.10758
2.424,0.11092
2.428,0.12299
2.432,0.12614
2.436,0.09255
2.44,0.12159
2.444,0.11718
2.448,0.11945
2.452,0.09798
2.456,0.09614
2.46,0.08289
2.464,0.07594
2.468,0.0364
2.472,0.04123
2.476,0.04155
2.48,0.04449
2.484,0.04036
2.488,0.04627
2.492,0.05646
2.496,0.0431
2.5,0.00091
2.504,0.03486
2.508,0.00564
2.512,0.05977
2.516,0.01032
2.52,0.01526
2.524,0.02961
2.528,0.00189
2.532,0.02577
2.536,0.04264
2.54,0.0081
2.544,0.04132
2.548,0.04239
2.552,-0.01181
2.556,-0.02199
2.56,-0.07627
2.564,-0.1223
2.568,-0.06884
2.572,0.02041
2.576,0.17716
2.58,0.33613
2.584,0.57092
2.588,0.78183
2.592,0.90912
2.596,1.01341
2.6,0.94982
2.604,0.84659
2.608,0.64814
2.612,0.41443
2.616,0.20554
2.62,0.02984
2.624,-0.0941
2.628,-0.13612
2.632,-0.15664
2.636,-0.1171
2.64,-0.07505
2.644,-0.03094
2.648,-0.01444
2.652,0.02148
2.656,0.06028
2.66,0.02068
2.664,0.0274
2.668,0.01795
2.672,0.0395
2.676,0.01464
2.68,0.01316
2.684,0.02124
2.688,0.02544
2.692,0.03043
2.696,0.03291
2.7,0.03334
2.704,0.01253
2.708,0.02111
2.712,0.01989
2.716,0.00428
2.72,0.00892
2.724,0.03294
2.728,0.02815
2.732,0.0286
2.736,0.01716
2.74,0.02226
2.744,0.01364
2.748,0.02607
2.752,0.02947
2.756,0.03347
2.76,0.04867
2.764,0.0249
2.768,0.03325
2.772,0.02956
2.776,0.03808
2.78,0.04839
2.784,0.07183
2.788,0.05149
2.792,0.0638
2.796,0.05092
2.8,0.07615
2.804,0.07586
2.808,0.09928
2.812,0.07969
2.816,0.11695
2.82,0.13739
2.824,0.11311
2.828,0.13955
2.832,0.14289
2.836,0.12833
2.84,0.19597
2.844,0.19766
2.848,0.1845
2.852,0.19618
2.856,0.22993
2.86,0.21886
2.864,0.21607
2.868,0.22202
2.872,0.24238
2.876,0.22345
2.88,0.25514
2.884,0.24916
2.888,0.21859
2.892,0.2018
2.896,0.23223
2.9,0.20826
2.904,0.20571
2.908,0.18506
2.912,0.18996
2.916,0.18516
2.92,0.1379
2.924,0.17556
2.928,0.14628
2.932,0.13702
2.936,0.09744
2.94,0.10757
2.944,0.10844
2.948,0.06243
2.952,0.04965
2.956,0.05297
2.96,0.04313
2.964,0.01228
2.968,0.05035
2.972,0.0415
2.976,0.07368
2.98,0.05805
2.984,0.03115
2.988,0.03589
2.992,0.02004
2.996,0.02814
3.0,0.02416
3.004,0.00476
3.008,-0.0066
3.012,0.03441
3.016,0.03409
3.02,0.00667
3.024,0.01948
3.028,0.013
3.032,0.01561
3.036,0.00242
3.04,0.0048
3.044,-0.00967
3.048,0.02569
3.052,0.02398
3.056,0.02127
3.06,-0.00996
3.064,0.0073
3.068,0.01297
3.072,0.00282
3.076,0.0244
3.08,-0.00155
3.084,0.00126
3.088,0.02811
3.092,0.01398
3.096,0.01043
3.1,-0.01011
3.104,0.01446
3.108,-0.01117
3.112,0.03915
3.116,0.02362
3.12,0.02398
3.124,0.03402
3.128,-0.00712
3.132,0.00221
3.136,0.00385
3.14,0.03811
3.144,0.00266
3.148,0.03279
3.152,0.00702
3.156,0.01613
3.16,0.01628
3.164,0.00823
3.168,0.01578
3.172,0.00444
3.176,0.00516
3.18,-0.01425
3.184,-0.00322
3.188,0.00639
3.192,-0.00387
3.196,0.03268
3.2,0.02317
3.204,0.03999
3.208,0.05045
3.212,0.03757
3.216,0.06592
3.22,0.06821
3.224,0.11056
3.228,0.08831
3.232,0.11029
3.236,0.1073
3.24,0.10088
3.244,0.11388
3.248,0.08698
3.252,0.05872
3.256,0.05075
3.26,0.03553
3.264,0.05882
3.268,0.0399
3.272,0.04126
3.276,0.04292
3.28,-0.0196
3.284,-0.00651
3.288,-0.00102
3.292,0.01658
3.296,0.00215
3.3,-0.00665
3.304,0.01563
3.308,0.01964
3.312,-0.01854
3.316,0.02286
3.32,0.01484
3.324,0.00068
3.328,0.00403
3.332,-0.01654
3.336,0.04041
3.34,0.00804
3.344,-0.01191
3.348,-0.00012
3.352,-0.03171
3.356,-0.07426
3.36,-0.10028
3.364,-0.10003
3.368,-0.09534
3.372,0.0093
3.376,0.1792
3.38,0.38189
3.384,0.57484
3.388,0.76792
3.392,0.94996
3.396,0.97684
3.4,0.92637
3.404,0.8338
3.408,0.60767
3.412,0.35046
3.416,0.16886
3.42,-0.00569
3.424,-0.10432
3.428,-0.15328
3.432,-0.13366
3.436,-0.12609
3.44,-0.08591
3.444,-0.04479
3.448,-0.02561
3.452,-0.01843
3.456,0.01249
3.46,-0.00327
3.464,-0.008
3.468,-0.01401
3.472,0.00169
3.476,-0.00554
3.48,0.00894
3.484,0.02542
3.488,-0.00948
3.492,0.00654
3.496,-0.02248
3.5,0.01062
3.504,0.01439
3.508,0.00574
3.512,-0.01138
3.516,-0.00962
3.52,-0.00708
3.524,0.01681
3.528,0.00415
3.532,-0.01215
3.536,-0.00686
3.54,0.01038
3.544,-0.01754
3.548,-0.01602
3.552,0.02166
3.556,0.02546
3.56,-0.00937
3.564,0.02723
3.568,0.02362
3.572,0.00666
3.576,0.01568
3.58,0.01733
3.584,0.01656
3.588,0.03509
3.592,0.03805
3.596,0.02468
3.6,0.0335
3.604,0.06433
3.608,0.08894
3.612,0.09132
3.616,0.06351
3.62,0.12416
3.624,0.11441
3.628,0.10681
3.632,0.13177
3.636,0.14649
3.64,0.14844
3.644,0.16199
3.648,0.14224
3.652,0.19495
3.656,0.22957
3.66,0.18994
3.664,0.23815
3.668,0.19546
3.672,0.2145
3.676,0.2055
3.68,0.22255
3.684,0.21404
3.688,0.21971
3.692,0.18135
3.696,0.18166
3.7,0.20815
3.704,0.14188
3.708,0.17731
3.712,0.1693
3.716,0.1488
3.72,0.13453
3.724,0.12655
3.728,0.12166
3.732,0.10725
3.736,0.07825
3.74,0.05997
3.744,0.07989
3.748,0.04597
3.752,0.06163
3.756,0.04639
3.76,0.03442
3.764,0.03887
3.768,0.01309
3.772,0.03086
3.776,0.01093
3.78,-0.01196
3.784,-0.00979
3.788,-0.00566
3.792,0.01771
3.796,-0.01718
3.8,0.00076
3.804,0.00793
3.808,-0.0113
3.812,0.01703
3.816,0.02062
3.82,-0.02464
3.824,0.01279
3.828,0.01296
3.832,0.03036
3.836,0.02305
3.84,0.0542
3.844,0.03759
3.848,0.09514
3.852,0.07093
3.856,0.08816
3.86,0.07894
3.864,0.08901
3.868,0.09536
3.872,0.09408
3.876,0.07064
3.88,0.02052
3.884,0.02624
3.888,0.06169
3.892,0.02535
3.896,0.00208
3.9,0.01729
3.904,0.01054
3.908,0.003
3.912,-0.00121
3.916,-0.0088
3.92,-0.05067
3.924,-0.01596
3.928,-0.01988
3.932,-0.02423
3.936,-0.0098
3.94,0.00451
3.944,-0.01581
3.948,-0.0231
3.952,-0.02059
3.956,-0.02958
3.96,0.00127
3.964,-0.00181
3.968,-0.04068
3.972,-0.01468
3.976,-0.03777
3.98,-0.05269
3.984,-0.07745
3.988,-0.12183
3.992,-0.14062
3.996,-0.06332
4.0,0.07411
4.004,0.22739
4.008,0.41751
4.012,0.67171
4.016,0.86048
4.02,1.00488
4.024,0.96519
4.028,0.88322
4.032,0.69829
4.036,0.49141
4.04,0.24125
4.044,0.05341
4.048,-0.03885
4.052,-0.18096
4.056,-0.18859
4.06,-0.14998
4.064,-0.12812
4.068,-0.07495
4.072,-0.022
4.076,-0.00771
4.08,-0.02666
4.084,-0.02257
4.088,-0.01988
4.092,-0.01367
4.096,0.00496
4.1,-0.03199
4.104,-0.01224
4.108,-0.00677
4.112,-0.05196
4.116,-0.02072
4.12,-0.00539
4.124,-0.00208
4.128,-0.02076
4.132,-0.03407
4.136,-0.04013
4.14,0.00016
4.144,-0.02322
4.148,0.00552
4.152,-0.0317
4.156,-0.02735
4.16,-0.02539
4.164,-0.01796
4.168,-0.00942
4.172,-0.01028
4.176,-0.02504
4.18,-0.03185
4.184,-0.02437
4.188,0.01216
4.192,-0.06229
4.196,0.00245
4.2,-0.00136
4.204,0.01439
4.208,-2e-05
4.212,0.03865
4.216,0.02521
4.22,0.02903
4.224,0.00099
4.228,0.03532
4.232,0.04985
4.236,0.09336
4.24,0.07291
4.244,0.07408
4.248,0.10959
4.252,0.0971
4.256,0.11848
4.26,0.13859
4.264,0.11541
4.268,0.13663
4.272,0.15785
4.276,0.1678
4.28,0.16077
4.284,0.21102
4.288,0.19916
4.292,0.19197
4.296,0.18088
4.3,0.21129
4.304,0.19093
4.308,0.19729
4.312,0.18708
4.316,0.19546
4.32,0.19305
4.324,0.18529
4.328,0.17057
4.332,0.15774
4.336,0.13933
4.34,0.12297
4.344,0.12246
4.348,0.09604
4.352,0.10522
4.356,0.0883
4.36,0.07035
4.364,0.06789
4.368,0.06824
4.372,0.05109
4.376,0.05401
4.38,0.03192
4.384,0.03965
4.388,0.0167
4.392,0.00929
4.396,-0.01033
4.4,-0.02157
4.404,0.00336
4.408,0.00957
4.412,-0.00283
4.416,-0.00219
4.42,0.01249
4.424,-0.02171
4.428,-0.02377
4.432,-0.01892
4.436,-0.02026
4.44,-0.03534
4.444,-0.03853
4.448,-0.02401
4.452,-0.03446
4.456,-0.0361
4.46,-0.02535
4.464,-0.001
4.468,-0.02573
4.472,-0.03647
4.476,-0.03655
4.48,-0.03748
4.484,-0.0416
4.488,0.00019
4.492,-0.01583
4.496,-0.01479
4.5,-0.03931
4.504,-0.03345
4.508,-0.02377
4.512,-0.03042
4.516,-0.01493
4.52,-0.03884
4.524,-0.03004
4.528,-0.03817
4.532,-0.02547
4.536,-0.05115
4.54,-0.01062
4.544,-0.03408
4.548,-0.04434
4.552,-0.02705
4.556,-0.01935
4.56,-0.00789
4.564,-0.05665
4.568,0.00011
4.572,-0.01581
4.576,-0.02324
4.58,-0.02709
4.584,-0.01652
4.588,-0.01661
4.592,-0.02886
4.596,-0.02857
4.6,0.00448
4.604,0.01131
4.608,-0.02838
4.612,-0.00835
4.616,-0.02076
4.62,-0.02084
4.624,-0.01567
4.628,0.00087
4.632,-0.01322
4.636,0.00091
4.64,-0.01996
4.644,0.00297
4.648,0.02012
4.652,-0.0061
4.656,0.02486
4.66,0.03017
4.664,0.05162
4.668,0.0674
4.672,0.07788
4.676,0.07415
4.68,0.07796
4.684,0.0689
4.688,0.05727
4.692,0.05327
4.696,0.02973
4.7,0.00915
4.704,-0.00716
4.708,0.01921
4.712,-0.01342
4.716,-0.00202
4.72,-0.00867
4.724,-0.01875
4.728,-0.03618
4.732,-0.04561
4.736,-0.07545
4.74,-0.03761
4.744,-0.04175
4.748,-0.01866
4.752,-0.04013
4.756,-0.03956
4.76,-0.01876
4.764,-0.02175
4.768,-0.0193
4.772,-0.01672
4.776,-0.01727
4.78,-0.04955
4.784,-0.05093
4.788,-0.0325
4.792,-0.04744
4.796,-0.06202
4.8,-0.11112
4.804,-0.14223
4.808,-0.1324
4.812,-0.05741
4.816,0.06733
4.82,0.25913
4.824,0.48568
4.828,0.6659
4.832,0.85819
4.836,0.9637
4.84,0.96257
4.844,0.8375
4.848,0.6253
4.852,0.4283
4.856,0.20206
4.86,0.00947
4.864,-0.10341
4.868,-0.17114
4.872,-0.18941
4.876,-0.1414
4.88,-0.15768
4.884,-0.08738
4.888,-0.03289
4.892,-0.03783
4.896,-0.04522
4.9,-0.00977
4.904,-0.03533
4.908,-0.0257
4.912,-0.02463
4.916,-0.02217
4.92,-0.05342
4.924,-0.04775
4.928,-0.01738
4.932,-0.04839
4.936,-0.05225
4.94,-0.01415
4.944,-0.02524
4.948,-0.01313
4.952,-0.04176
4.956,-0.00615
4.96,-0.02741
4.964,-0.02438
4.968,-0.01535
4.972,-0.03308
4.976,-0.00825
4.98,-0.04784
4.984,0.00871
4.988,-0.01605
4.992,-0.03125
4.996,-0.04156
5.0,-0.04611
5.004,-0.00622
5.008,-0.04121
5.012,-0.03458
5.016,0.01151
5.02,-0.00916
5.024,-0.00324
5.028,0.02607
5.032,0.00992
5.036,-0.00814
5.04,0.02907
5.044,0.00513
5.048,0.03897
5.052,0.03724
5.056,0.04312
5.06,0.04253
5.064,0.08852
5.068,0.10548
5.072,0.09701
5.076,0.13641
5.08,0.09106
5.084,0.12739
5.088,0.12787
5.092,0.15263
5.096,0.15576
5.1,0.17071
5.104,0.18852
5.108,0.18233
5.112,0.188
5.116,0.18699
5.12,0.17035
5.124,0.19062
5.128,0.1923
5.132,0.17312
5.136,0.16835
5.14,0.16257
5.144,0.15504
5.148,0.13461
5.152,0.12583
5.156,0.14024
5.16,0.11309
5.164,0.12552
5.168,0.10615
5.172,0.08347
5.176,0.0682
5.18,0.07505
5.184,0.01483
5.188,0.04332
5.192,0.01217
5.196,0.03703
5.2,-0.00679
5.204,0.00416
5.208,0.00069
5.212,0.01782
5.216,-0.00825
5.22,-0.04089
5.224,-0.01922
5.228,0.01129
5.232,0.00548
5.236,-0.05161
5.24,-0.03588
5.244,-0.02131
5.248,-0.02397
5.252,-0.02555
5.256,-0.04612
5.26,-0.01154
5.264,-0.0118
5.268,-0.02956
5.272,0.01011
5.276,0.02114
5.28,0.02878
5.284,0.02982
5.288,0.0405
5.292,0.05316
5.296,0.05121
5.3,0.05978
5.304,0.03738
5.308,0.02934
5.312,0.06434
5.316,0.02915
5.32,0.03112
5.324,0.01977
5.328,0.00918
5.332,0.00663
5.336,0.0149
5.34,-0.02286
5.344,-0.02093
5.348,-0.02927
5.352,-0.02855
5.356,-0.03307
5.36,-0.00173
5.364,-0.03451
5.368,-0.00272
5.372,-0.02905
5.376,-0.05622
5.38,0.00339
5.384,-0.0166
5.388,-0.04082
5.392,-0.02594
5.396,-0.03831
5.4,-0.04355
5.404,-0.04086
5.408,-0.02746
5.412,-0.01656
5.416,-0.05924
5.42,-0.0667
5.424,-0.13137
5.428,-0.1468
5.432,-0.10913
5.436,-0.00607
5.44,0.1427
5.444,0.34922
5.448,0.56439
5.452,0.77914
5.456,0.92567
5.46,0.96095
5.464,0.94452
5.468,0.7665
5.472,0.52293
5.476,0.32746
5.48,0.10941
5.484,-0.08664
5.488,-0.17015
5.492,-0.20934
5.496,-0.20724
5.5,-0.11717
5.504,-0.09735
5.508,-0.07831
5.512,-0.02661
5.516,-0.03435
5.52,-0.02442
5.524,-0.04924
5.528,-0.04725
5.532,-0.03387
5.536,-0.01945
5.54,-0.05402
5.544,0.00682
5.548,-0.02591
5.552,-0.034
5.556,-0.00954
5.56,-0.02385
5.564,-0.01278
5.568,-0.02614
5.572,-0.01888
5.576,-0.04381
5.58,-0.02286
5.584,-0.04649
5.588,-0.02766
5.592,-0.00253
5.596,-0.00911
5.6,0.00846
5.604,-0.02236
5.608,-0.00512
5.612,-0.02593
5.616,-0.03059
5.62,-0.00146
5.624,-0.03349
5.628,-0.04008
5.632,-0.00502
5.636,-0.02584
5.64,-0.00902
5.644,-0.0176
5.648,0.00145
5.652,0.00615
5.656,0.01051
5.66,0.00495
5.664,0.0198
5.668,0.0371
5.672,0.07948
5.676,0.05146
5.68,0.09207
5.684,0.08755
5.688,0.10264
5.692,0.09952
5.696,0.12884
5.7,0.12485
5.704,0.12183
5.708,0.13408
5.712,0.13623
5.716,0.16861
5.72,0.17249
5.724,0.16424
5.728,0.16025
5.732,0.18911
5.736,0.21072
5.74,0.19468
5.744,0.19165
5.748,0.20562
5.752,0.18106
5.756,0.18465
5.76,0.16355
5.764,0.17802
5.768,0.14202
5.772,0.12639
5.776,0.12636
5.78,0.11611
5.784,0.11829
5.788,0.09525
5.792,0.09567
5.796,0.07192
5.8,0.08147
5.804,0.07816
5.808,0.01848
5.812,0.03922
5.816,0.03992
5.82,-0.01911
5.824,-0.00518
5.828,-0.00786
5.832,0.00242
5.836,0.00804
5.84,-0.01656
5.844,-0.00323
5.848,-0.05423
5.852,-0.0072
5.856,0.00835
5.86,-0.01148
5.864,-0.01855
5.868,-0.00767
5.872,-0.03455
5.876,-0.05141
5.88,-0.04373
5.884,-0.01064
5.888,-0.00023
5.892,-0.0235
5.896,-0.03731
5.9,-0.03491
5.904,-0.03548
5.908,-0.04324
5.912,-0.03344
5.916,-0.03235
5.92,-0.03796
5.924,-0.02724
5.928,-0.00949
5.932,-0.03789
5.936,-0.04636
5.94,0.00893
5.944,0.03086
5.948,-0.01408
5.952,0.01699
5.956,0.02391
5.96,0.04952
5.964,0.05482
5.968,0.05825
5.972,0.07047
5.976,0.08002
5.98,0.10673
5.984,0.052
5.988,0.0659
5.992,0.06531
5.996,0.02952
6.0,0.0176
6.004,0.02357
6.008,0.01969
6.012,-0.00902
6.016,-0.00375
6.02,-0.01363
6.024,-0.01957
6.028,-0.0367
6.032,-0.00235
6.036,-0.01932
6.04,-0.02371
6.044,-0.03756
6.048,-0.02654
6.052,-0.00771
6.056,-0.01397
6.06,-0.017
6.064,-0.0163
6.068,-0.00091
6.072,-0.00066
6.076,-0.0338
6.08,-0.01381
6.084,-0.00129
6.088,0.00678
6.092,-0.05453
6.096,-0.05878
6.1,-0.10417
6.104,-0.13745
6.108,-0.15955
6.112,-0.053
6.116,0.05881
6.12,0.27769
6.124,0.47199
6.128,0.69362
6.132,0.85072
6.136,0.95082
6.14,0.94018
6.144,0.84983
6.148,0.65857
6.152,0.43358
6.156,0.19755
6.16,-0.00249
6.164,-0.11348
6.168,-0.16393
6.172,-0.1642
6.176,-0.14435
6.18,-0.10892
6.184,-0.06051
6.188,-0.06043
6.192,-0.03811
6.196,0.00515
6.2,-0.01577
6.204,-0.02965
6.208,0.01079
6.212,-0.00516
6.216,-0.03393
6.22,-0.04118
6.224,-0.02683
6.228,-0.03049
6.232,-0.00734
6.236,-0.03171
6.24,-0.00902
6.244,-0.02256
6.248,-0.01763
6.252,-0.00158
6.256,-0.02844
6.26,-0.02753
6.264,0.02868
6.268,-0.03977
6.272,0.00322
6.276,-0.01903
6.28,-0.00488
6.284,0.00728
6.288,-0.0194
6.292,0.00912
6.296,-0.00934
6.3,-0.00925
6.304,0.01593
6.308,-0.01144
6.312,0.00257
6.316,0.01069
6.32,0.00101
6.324,0.00216
6.328,0.01457
6.332,0.01443
6.336,0.02367
6.34,0.04255
6.344,0.01998
6.348,0.03698
6.352,0.05838
6.356,0.07827
6.36,0.1033
6.364,0.09058
6.368,0.07705
6.372,0.10502
6.376,0.0929
6.38,0.15141
6.384,0.14983
6.388,0.16346
6.392,0.16557
6.396,0.18947
6.4,0.18744
6.404,0.18014
6.408,0.20282
6.412,0.20202
6.416,0.19194
6.42,0.23189
6.424,0.19148
6.428,0.2125
6.432,0.15959
6.436,0.21642
6.44,0.17777
6.444,0.17572
6.448,0.19676
6.452,0.16254
6.456,0.17257
6.46,0.12955
6.464,0.09847
6.468,0.08875
6.472,0.10056
6.476,0.06721
6.48,0.0656
6.484,0.05769
6.488,0.05561
6.492,0.0491
6.496,0.03429
6.5,0.03464
6.504,0.02872
6.508,0.03558
6.512,0.016
6.516,-0.00302
6.52,-0.02409
6.524,-0.00171
6.528,0.01813
6.532,-0.0076
6.536,0.00761
6.54,0.01993
6.544,-0.0151
6.548,-0.01006
6.552,-0.00188
6.556,-0.01227
6.56,0.00406
6.564,0.00147
6.568,-0.02651
6.572,-0.01243
6.576,0.00704
6.58,-0.00695
6.584,0.01011
6.588,-0.02646
6.592,-0.03627
6.596,0.02237
6.6,-0.02157
6.604,-0.03529
6.608,0.00189
6.612,0.0026
6.616,-0.0135
6.62,-0.00397
6.624,-0.02862
6.628,-0.00465
6.632,-0.0007
6.636,-0.03673
6.64,-0.02797
6.644,-0.01607
6.648,0.01285
6.652,0.01332
6.656,0.01161
6.66,0.00852
6.664,-0.00713
6.668,-0.01996
6.672,-0.00982
6.676,-0.02702
6.68,-0.0002
6.684,0.00205
6.688,-0.00934
6.692,0.01324
6.696,0.00221
6.7,-0.00741
6.704,0.02583
6.708,0.00485
6.712,0.02076
6.716,0.01741
6.72,0.00821
6.724,0.00194
6.728,0.01888
6.732,0.01513
6.736,0.04917
6.74,0.06155
6.744,0.08742
6.748,0.05985
6.752,0.09167
6.756,0.08745
6.76,0.08976
6.764,0.10245
6.768,0.10261
6.772,0.11435
6.776,0.07869
6.78,0.0721
6.784,0.04731
6.788,0.01947
6.792,0.05179
6.796,0.02609
6.8,-0.00608
6.804,0.01847
6.808,0.01339
6.812,0.00605
6.816,0.005
6.82,0.00105
6.824,-0.02525
6.828,-0.00034
6.832,-0.02902
6.836,-0.00677
6.84,0.01974
6.844,0.01405
6.848,-0.02223
6.852,0.00114
6.856,-0.00118
6.86,0.02238
6.864,0.00261
6.868,0.00813
6.872,0.00127
6.876,-0.02173
6.88,-0.05358
6.884,-0.0773
6.888,-0.09808
6.892,-0.1121
6.896,-0.00463
6.9,0.14521
6.904,0.31255
6.908,0.54209
6.912,0.74037
6.916,0.91566
6.92,0.99302
6.924,0.97327
6.928,0.82584
6.932,0.60809
6.936,0.4033
6.94,0.18471
6.944,-0.01704
6.948,-0.09626
6.952,-0.17164
6.956,-0.16336
6.96,-0.11365
6.964,-0.08834
6.968,-0.03248
6.972,-0.03318
6.976,0.01178
6.98,-0.01583
6.984,0.02847
6.988,-0.01386
6.992,0.01819
6.996,0.01739
7.0,0.01016
7.004,0.01137
7.008,0.01455
7.012,-0.00218
7.016,0.00729
7.02,0.0038
7.024,-0.04651
7.028,0.00722
7.032,0.00535
7.036,0.04623
7.04,0.01045
7.044,0.00327
7.048,-0.01256
7.052,-0.01718
7.056,-0.01342
7.06,0.02056
7.064,0.01738
7.068,-0.01215
7.072,0.01935
7.076,0.00954
7.08,-0.00511
7.084,0.02593
7.088,-0.00895
7.092,0.02962
7.096,0.02504
7.1,0.0146
7.104,0.01512
7.108,0.06461
7.112,0.01571
7.116,0.06855
7.12,0.07268
7.124,0.05278
7.128,0.07976
7.132,0.07396
7.136,0.09891
7.14,0.09724
7.144,0.11481
7.148,0.1308
7.152,0.1252
7.156,0.12808
7.16,0.14194
7.164,0.1657
7.168,0.18798
7.172,0.17847
7.176,0.21945
7.18,0.23092
7.184,0.22789
7.188,0.19913
7.192,0.23373
7.196,0.21578
7.2,0.2456
7.204,0.24165
7.208,0.2139
7.212,0.21164
7.216,0.20783
7.22,0.20554
7.224,0.21357
7.228,0.18234
7.232,0.17748
7.236,0.1799
7.24,0.16076
7.244,0.15186
7.248,0.12207
7.252,0.12681
7.256,0.11427
7.26,0.09718
7.264,0.10545
7.268,0.10345
7.272,0.078
7.276,0.06531
7.28,0.07007
7.284,0.07416
7.288,0.06845
7.292,0.04568
7.296,0.02571
7.3,0.03685
7.304,0.03114
7.308,0.00318
7.312,0.02417
7.316,0.02518
7.32,0.01837
7.324,0.00857
7.328,0.00717
7.332,0.01486
7.336,0.01856
7.34,0.0077
7.344,0.00837
7.348,0.00753
7.352,-0.00891
7.356,-0.00025
7.36,0.02045
7.364,0.0277
7.368,-0.00842
7.372,0.02241
7.376,0.02151
7.38,0.02435
7.384,-0.00189
7.388,0.00314
7.392,0.00766
7.396,0.00359
7.4,0.0227
7.404,0.0172
7.408,0.0167
7.412,0.01914
7.416,0.03169
7.42,-0.00026
7.424,0.02372
7.428,0.01231
7.432,0.01875
7.436,0.00418
7.44,0.03502
7.444,0.01165
7.448,0.02654
7.452,0.02901
7.456,0.04709
7.46,-0.0043
7.464,0.03468
7.468,0.00252
7.472,0.02989
7.476,0.00877
7.48,0.01917
7.484,0.02024
7.488,0.02526
7.492,0.01454
7.496,0.02049
7.5,0.03262
7.504,0.01465
7.508,0.0371
7.512,0.03891
7.516,0.04559
7.52,0.07483
7.524,0.06907
7.528,0.09123
7.532,0.11627
7.536,0.11177
7.54,0.11222
7.544,0.1242
7.548,0.13642
7.552,0.1188
7.556,0.08578
7.56,0.08291
7.564,0.09962
7.568,0.0556
7.572,0.08213
7.576,0.04268
7.58,0.05616
7.584,0.04474
7.588,0.04284
7.592,0.01638
7.596,0.01379
7.6,0.005
7.604,0.01629
7.608,0.04204
7.612,-0.00474
7.616,0.01216
7.62,0.0302
7.624,0.00802
7.628,0.02512
7.632,0.01019
7.636,0.0388
7.64,0.03851
7.644,0.0093
7.648,0.02906
7.652,0.02653
7.656,-0.00598
7.66,-0.00659
7.664,-0.03843
7.668,-0.04305
7.672,-0.09385
7.676,-0.06416
7.68,0.00175
7.684,0.13
7.688,0.32538
7.692,0.52264
7.696,0.75817
7.7,0.9022
7.704,1.01958
7.708,1.00967
7.712,0.86567
7.716,0.6708
7.72,0.44564
7.724,0.22304
7.728,0.0723
7.732,-0.09634
7.736,-0.14973
7.74,-0.08316
7.744,-0.11885
7.748,-0.0759
7.752,-0.0385
7.756,0.01008
7.76,-0.00592
7.764,0.04751
7.768,0.01045
7.772,0.01138
7.776,0.03371
7.78,0.02838
7.784,0.02067
7.788,0.01565
7.792,0.02285
7.796,0.03309
7.8,0.01399
7.804,0.02644
7.808,0.02239
7.812,0.0003
7.816,0.04679
7.82,0.02063
7.824,0.00091
7.828,0.01152
7.832,0.01671
7.836,0.02201
7.84,0.00197
7.844,0.0528
7.848,0.02387
7.852,0.04518
7.856,0.01078
7.86,0.04432
7.864,-0.00015
7.868,0.05916
7.872,0.00544
7.876,0.03992
7.88,0.02178
7.884,0.03633
7.888,0.05918
7.892,0.05426
7.896,0.05259
7.9,0.06281
7.904,0.06105
7.908,0.08882
7.912,0.06328
7.916,0.09962
7.92,0.08526
7.924,0.11471
7.928,0.11956
7.932,0.12656
7.936,0.12609
7.94,0.13629
7.944,0.17837
7.948,0.16692
7.952,0.20241
7.956,0.17953
7.96,0.25383
7.964,0.25512
7.968,0.23854
7.972,0.233
7.976,0.24628
7.98,0.24099
7.984,0.22755
7.988,0.2366
7.992,0.23294
7.996,0.21876
8.0,0.22583
8.004,0.23043
8.008,0.2163
8.012,0.21143
8.016,0.18779
8.02,0.19628
8.024,0.198
8.028,0.17741
8.032,0.15966
8.036,0.13808
8.04,0.10808
8.044,0.13922
8.048,0.12678
8.052,0.10204
8.056,0.09004
8.06,0.09806
8.064,0.08027
8.068,0.08267
8.072,0.06224
8.076,0.07306
8.08,0.05211
8.084,0.04102
8.088,0.04871
8.092,0.02638
8.096,0.03367
8.1,0.03703
8.104,0.02758
8.108,0.02272
8.112,0.04364
8.116,0.03171
8.12,0.02661
8.124,0.02101
8.128,0.02778
8.132,0.01746
8.136,0.03134
8.14,0.01297
8.144,0.03293
8.148,0.01215
8.152,0.01342
8.156,0.04455
8.16,0.01239
8.164,0.01407
8.168,0.04124
8.172,0.0047
8.176,0.03244
8.18,0.02682
8.184,0.04669
8.188,0.03392
8.192,0.0219
8.196,0.02735
8.2,0.02574
8.204,0.05115
8.208,0.03686
8.212,0.05139
8.216,0.06214
8.22,0.09499
8.224,0.08922
8.228,0.10189
8.232,0.1168
8.236,0.14162
8.24,0.14689
8.244,0.13221
8.248,0.1267
8.252,0.14352
8.256,0.127
8.26,0.08963
8.264,0.10139
8.268,0.05385
8.272,0.07488
8.276,0.04548
8.28,0.08154
8.284,0.04289
8.288,0.02995
8.292,0.0386
8.296,0.04221
8.3,0.0437
8.304,0.05036
8.308,0.02343
8.312,0.01697
8.316,0.03763
8.32,0.03265
8.324,0.02315
8.328,0.0373
8.332,0.03527
8.336,0.01794
8.34,0.03963
8.344,0.03743
8.348,0.00572
8.352,0.05532
8.356,0.02853
8.36,0.01569
8.364,-0.04611
8.368,-0.10635
8.372,-0.08078
8.376,-0.0374
8.38,0.06289
8.384,0.2267
8.388,0.4519
8.392,0.65278
8.396,0.86004
8.4,0.99638
8.404,1.019
8.408,0.93597
8.412,0.7559
8.416,0.54079
8.42,0.3261
8.424,0.11341
8.428,-0.00807
8.432,-0.12232
8.436,-0.16874
8.44,-0.12012
8.444,-0.09389
8.448,-0.03876
8.452,-0.03666
8.456,0.0023
8.46,0.01479
8.464,0.01035
8.468,0.04717
8.472,0.01542
8.476,0.00564
8.48,0.03919
8.484,0.06051
8.488,0.01589
8.492,0.01828
8.496,0.02487
8.5,0.0535
8.504,0.03851
8.508,0.03412
8.512,0.04909
8.516,0.03127
8.52,0.01823
8.524,0.05531
8.528,0.02741
8.532,0.01509
8.536,0.03204
8.54,0.05426
8.544,0.02694
8.548,0.02198
8.552,0.00792
8.556,0.03086
8.56,0.04477
8.564,0.05344
8.568,0.01552
8.572,0.0176
8.576,0.05597
8.58,0.03559
8.584,0.01291
8.588,0.06305
8.592,0.05201
8.596,0.04879
8.6,0.06437
8.604,0.08319
8.608,0.09977
8.612,0.10617
8.616,0.1007
8.62,0.12
8.624,0.11765
8.628,0.1294
8.632,0.14314
8.636,0.1556
8.64,0.17922
8.644,0.16338
8.648,0.21323
8.652,0.18975
8.656,0.21786
8.66,0.18806
8.664,0.23621
8.668,0.22612
8.672,0.22007
8.676,0.25712
8.68,0.26589
8.684,0.25002
8.688,0.22211
8.692,0.27014
8.696,0.26504
8.7,0.23357
8.704,0.24364
8.708,0.23508
8.712,0.19981
8.716,0.20097
8.72,0.18731
8.724,0.15892
8.728,0.19017
8.732,0.13066
8.736,0.1276
8.74,0.12594
8.744,0.11514
8.748,0.10189
8.752,0.08022
8.756,0.10348
8.76,0.07608
8.764,0.07497
8.768,0.05643
8.772,0.07009
8.776,0.02677
8.78,0.04595
8.784,0.02869
8.788,0.06235
8.792,0.02148
8.796,0.01197
8.8,0.03803
8.804,0.03373
8.808,0.04258
8.812,0.03688
8.816,0.05824
8.82,0.02934
8.824,0.00815
8.828,0.03007
8.832,4e-05
8.836,0.04386
8.84,0.01949
8.844,0.01936
8.848,0.02445
8.852,0.04723
8.856,0.03139
8.86,0.03755
8.864,0.02361
8.868,0.04501
8.872,0.00675
8.876,0.03981
8.88,0.03055
8.884,0.04362
8.888,0.0142
8.892,0.01838
8.896,0.03659
8.9,0.00677
8.904,0.01674
8.908,0.02634
8.912,0.03586
8.916,0.04468
8.92,0.06853
8.924,0.04127
8.928,0.03904
8.932,0.05007
8.936,0.04104
8.94,0.02902
8.944,-0.01855
8.948,0.03438
8.952,0.02946
8.956,0.02076
8.96,0.03632
8.964,0.06041
8.968,0.01066
8.972,0.00918
8.976,0.03638
8.98,0.02249
8.984,0.03091
8.988,0.01906
8.992,0.02419
8.996,0.04484
9.0,0.02217
9.004,0.05253
9.008,0.01622
9.012,0.03503
9.016,0.02591
9.02,0.03155
9.024,0.02848
9.028,0.02312
9.032,0.04128
9.036,0.03239
9.04,0.03175
9.044,0.04329
9.048,0.02331
9.052,0.02974
9.056,0.03629
9.06,0.03898
9.064,0.0474
9.068,0.05546
9.072,0.02724
9.076,0.01509
9.08,0.03201
9.084,0.06488
9.088,0.05967
9.092,0.08242
9.096,0.07147
9.1,0.13175
9.104,0.1144
9.108,0.15646
9.112,0.11235
9.116,0.10337
9.12,0.1455
9.124,0.12556
9.128,0.10608
9.132,0.08872
9.136,0.04242
9.14,0.07096
9.144,0.06041
9.148,0.04725
9.152,0.0546
9.156,0.01411
9.16,0.02801
9.164,0.04356
9.168,0.00565
9.172,0.0427
9.176,0.03148
9.18,0.00772
9.184,0.01687
9.188,0.03784
9.192,0.05637
9.196,0.01806
9.2,0.018
9.204,0.02851
9.208,0.02886
9.212,0.02835
9.216,0.00453
9.22,0.03574
9.224,0.03055
9.228,-0.01857
9.232,-0.01471
9.236,-0.06193
9.24,-0.10592
9.244,-0.06874
9.248,-0.02734
9.252,0.10724
9.256,0.29326
9.26,0.44943
9.264,0.72309
9.268,0.88606
9.272,1.01549
9.276,1.03105
9.28,0.91622
9.284,0.71736
9.288,0.50303
9.292,0.28863
9.296,0.10488
9.3,-0.04281
9.304,-0.14515
9.308,-0.12392
9.312,-0.1013
9.316,-0.11957
9.32,-0.03608
9.324,-0.01238
9.328,0.00625
9.332,0.04799
9.336,0.02516
9.34,0.03023
9.344,0.01691
9.348,0.01676
9.352,0.02374
9.356,0.00349
9.36,0.03104
9.364,0.01601
9.368,0.01864
9.372,0.02914
9.376,0.01873
9.38,0.03444
9.384,0.02645
9.388,0.0098
9.392,0.01015
9.396,0.01035
9.4,0.04215
9.404,0.01864
9.408,0.01908
9.412,0.00688
9.416,0.02132
9.42,-3e-05
9.424,0.05266
9.428,0.01377
9.432,-0.00617
9.436,0.0297
9.44,0.02304
9.444,0.04219
9.448,0.05335
9.452,0.04352
9.456,0.04723
9.46,0.05243
9.464,0.03842
9.468,0.06252
9.472,0.06658
9.476,0.03577
9.48,0.07607
9.484,0.10259
9.488,0.07395
9.492,0.1264
9.496,0.13794
9.5,0.13439
9.504,0.12731
9.508,0.14361
9.512,0.12671
9.516,0.1586
9.52,0.16083
9.524,0.19534
9.528,0.19284
9.532,0.24132
9.536,0.23288
9.54,0.21483
9.544,0.24615
9.548,0.23015
9.552,0.23535
9.556,0.2575
9.56,0.24117
9.564,0.22686
9.568,0.22113
9.572,0.21285
9.576,0.20856
9.58,0.17565
9.584,0.15146
9.588,0.21071
9.592,0.16651
9.596,0.13552
9.6,0.15423
9.604,0.16972
9.608,0.11846
9.612,0.11731
9.616,0.11803
9.62,0.09549
9.624,0.09119
9.628,0.0775
9.632,0.07786
9.636,0.05999
9.64,0.07651
9.644,0.03512
9.648,0.04129
9.652,0.01738
9.656,0.00206
9.66,0.02357
9.664,0.02217
9.668,0.02851
9.672,0.00232
9.676,0.01345
9.68,0.02437
9.684,-0.00827
9.688,0.01904
9.692,0.02845
9.696,-0.01273
9.7,0.01078
9.704,0.0246
9.708,0.00044
9.712,0.03057
9.716,0.0041
9.72,0.00387
9.724,-0.00505
9.728,0.0279
9.732,0.0123
9.736,0.02051
9.74,0.01933
9.744,0.01502
9.748,0.03499
9.752,0.00589
9.756,0.00419
9.76,0.0196
9.764,0.05819
9.768,0.031
9.772,0.02143
9.776,0.02215
9.78,0.05791
9.784,0.05685
9.788,0.06438
9.792,0.05695
9.796,0.07158
9.8,0.05883
9.804,0.10057
9.808,0.12667
9.812,0.08149
9.816,0.09202
9.82,0.11742
9.824,0.10426
9.828,0.08592
9.832,0.07834
9.836,0.03825
9.84,0.04116
9.844,0.01402
9.848,0.03598
9.852,0.03209
9.856,0.04153
9.86,0.01877
9.864,-0.01343
9.868,0.01378
9.872,0.01766
9.876,-0.01126
9.88,0.00984
9.884,-0.00829
9.888,0.013
9.892,0.01903
9.896,0.02138
9.9,-0.00163
9.904,-0.00282
9.908,0.00374
9.912,0.00871
9.916,-0.00223
9.92,-0.01407
9.924,0.00332
9.928,-0.00702
9.932,-0.04113
9.936,-0.10311
9.94,-0.09496
9.944,-0.07287
9.948,0.0458
9.952,0.20805
9.956,0.39057
9.96,0.61674
9.964,0.82898
9.968,0.9446
9.972,0.98503
9.976,0.93802
9.98,0.75559
9.984,0.56528
9.988,0.32422
9.992,0.12499
9.996,-0.03662
