t_seg,ecg_mV
0.0,0.01038
0.004,-0.03417
0.008,0.0177
0.012,-0.0083
0.016,-0.08448
0.02,-0.03498
0.024,-0.01361
0.028,-0.02198
0.032,0.06616
0.036,0.0506
0.04,-0.00707
0.044,-0.04812
0.048,-0.02119
0.052,-0.12776
0.056,0.01495
0.06,0.02752
0.064,-0.05129
0.068,-0.04049
0.072,0.04479
0.076,-0.01203
0.08,-0.01144
0.084,-0.03615
0.088,0.03049
0.092,-0.00373
0.096,-0.00623
0.1,-0.02138
0.104,-0.0126
0.108,0.04748
0.112,-0.08705
0.116,0.07614
0.12,-0.00866
0.124,0.00172
0.128,0.02427
0.132,-0.02826
0.136,0.01415
0.14,-0.0292
0.144,-0.0002
0.148,-0.02992
0.152,0.03249
0.156,0.00202
0.16,0.01032
0.164,-0.04742
0.168,-0.00827
0.172,-0.03651
0.176,-0.04243
0.18,0.01802
0.184,-0.0415
0.188,-0.01137
0.192,0.0065
0.196,-0.00867
0.2,0.01814
0.204,0.015
0.208,0.00458
0.212,-0.06056
0.216,-0.02731
0.22,-0.02894
0.224,0.0034
0.228,0.02622
0.232,-0.04013
0.236,0.00711
0.24,-0.0139
0.244,-0.03179
0.248,0.06332
0.252,-0.0273
0.256,-0.02638
0.26,-0.07927
0.264,0.01066
0.268,0.05674
0.272,-0.01685
0.276,-0.00346
0.28,-0.00617
0.284,-0.0447
0.288,-0.01608
0.292,-0.02898
0.296,-0.034
0.3,-0.00914
0.304,-0.01445
0.308,0.02537
0.312,-0.04026
0.316,0.02102
0.32,-0.03411
0.324,-0.03892
0.328,0.07245
0.332,-0.09549
0.336,-0.00359
0.34,0.02058
0.344,0.08534
0.348,0.04542
0.352,0.03862
0.356,0.10202
0.36,0.05708
0.364,0.05897
0.368,0.0788
0.372,0.06154
0.376,0.0548
0.38,-0.00716
0.384,0.05065
0.388,0.09554
0.392,0.04875
0.396,0.02741
0.4,0.05434
0.404,-0.01717
0.408,-0.00811
0.412,-0.01779
0.416,-0.03613
0.42,0.0102
0.424,-0.00665
0.428,-0.02727
0.432,0.01383
0.436,-0.04528
0.44,-0.05633
0.444,-0.10274
0.448,-0.03638
0.452,-0.05461
0.456,-0.0549
0.46,-0.00558
0.464,-0.02991
0.468,0.05289
0.472,-0.04296
0.476,0.01132
0.48,-0.05695
0.484,-0.08762
0.488,-0.07061
0.492,-0.14164
0.496,-0.17455
0.5,-0.02723
0.504,0.1495
0.508,0.19018
0.512,0.4721
0.516,0.58969
0.52,0.83268
0.524,0.96035
0.528,1.01602
0.532,0.87518
0.536,0.75593
0.54,0.45037
0.544,0.29458
0.548,0.10398
0.552,-0.0364
0.556,-0.14486
0.56,-0.17929
0.564,-0.17125
0.568,-0.14487
0.572,-0.09406
0.576,-0.04857
0.58,-0.01392
0.584,0.01195
0.588,-0.05573
0.592,0.03119
0.596,-0.02227
0.6,-0.02213
0.604,-0.01145
0.608,-0.01617
0.612,-0.08976
0.616,0.01519
0.62,-0.03848
0.624,0.0325
0.628,-0.02734
0.632,-0.0277
0.636,-0.02155
0.64,-0.03346
0.644,-0.01456
0.648,-0.01346
0.652,-0.02228
0.656,-0.00052
0.66,-0.01432
0.664,-0.0293
0.668,-0.05961
0.672,-0.03441
0.676,-0.0513
0.68,-0.01775
0.684,0.03063
0.688,-0.01384
0.692,-0.00588
0.696,-0.02997
0.7,-0.02327
0.704,-0.01108
0.708,-0.03904
0.712,0.04256
0.716,0.08106
0.72,-0.05129
0.724,-0.01535
0.728,0.02647
0.732,0.05801
0.736,0.06579
0.74,0.05783
0.744,0.04994
0.748,0.09352
0.752,0.06287
0.756,0.04709
0.76,0.09939
0.764,0.10883
0.768,0.16705
0.772,0.13057
0.776,0.17383
0.78,0.20711
0.784,0.12646
0.788,0.20383
0.792,0.19089
0.796,0.19261
0.8,0.17335
0.804,0.15643
0.808,0.19762
0.812,0.17411
0.816,0.1851
0.82,0.21929
0.824,0.16783
0.828,0.16785
0.832,0.28796
0.836,0.19844
0.84,0.21704
0.844,0.21638
0.848,0.16857
0.852,0.18311
0.856,0.17338
0.86,0.20991
0.864,0.16833
0.868,0.15347
0.872,0.13353
0.876,0.10957
0.88,0.03465
0.884,0.09067
0.888,0.03975
0.892,0.00303
0.896,0.04339
0.9,-0.06229
0.904,-0.00264
0.908,0.0224
0.912,-0.06461
0.916,0.03483
0.92,-0.04185
0.924,0.01727
0.928,-0.03733
0.932,-0.01001
0.936,-0.02326
0.94,-0.05202
0.944,0.03892
0.948,0.02782
0.952,-0.00848
0.956,-0.04343
0.96,-0.00811
0.964,-0.03405
0.968,-0.03064
0.972,-0.0255
0.976,-0.01933
0.98,-0.04391
0.984,-0.12884
0.988,-0.09158
0.992,-0.05266
0.996,-0.04428
1.0,0.04354
1.004,0.15111
1.008,0.38843
1.012,0.59484
1.016,0.80701
1.02,0.90174
1.024,0.94957
1.028,0.93456
1.032,0.70154
1.036,0.56816
1.04,0.26825
1.044,0.09941
1.048,-0.09225
1.052,-0.13577
1.056,-0.18851
1.06,-0.21225
1.064,-0.1706
1.068,-0.08243
1.072,-0.03893
1.076,-0.11237
1.08,-0.06792
1.084,0.03573
1.088,-0.03086
1.092,-0.02054
1.096,-0.05562
1.1,-0.05145
1.104,-0.0886
1.108,-0.02047
1.112,-0.06117
1.116,-0.04225
1.12,0.01319
1.124,-0.06821
1.128,-0.01147
1.132,-0.05774
1.136,-0.02493
1.14,-0.09203
1.144,0.01349
1.148,-0.008
1.152,-0.04837
1.156,0.00034
1.16,-0.01909
1.164,-0.01149
1.168,-0.04597
1.172,-0.00215
1.176,0.00557
1.18,-0.01448
1.184,-0.00141
1.188,-0.00501
1.192,-0.01141
1.196,-0.02575
1.2,0.00174
1.204,0.00752
1.208,0.03835
1.212,0.04248
1.216,0.02392
1.22,-0.00411
1.224,0.00849
1.228,0.0078
1.232,-0.00748
1.236,0.08882
1.24,0.04556
1.244,-0.01632
1.248,0.0808
1.252,0.15187
1.256,0.12011
1.26,0.13997
1.264,0.11309
1.268,0.13451
1.272,0.08861
1.276,0.12094
1.28,0.15302
1.284,0.10467
1.288,0.1602
1.292,0.18748
1.296,0.21494
1.3,0.19739
1.304,0.17918
1.308,0.22601
1.312,0.1779
1.316,0.18952
1.32,0.17505
1.324,0.11921
1.328,0.17788
1.332,0.15234
1.336,0.16057
1.34,0.0857
1.344,0.0843
1.348,0.13076
1.352,0.09574
1.356,0.12421
1.36,0.04002
1.364,0.03532
1.368,0.11125
1.372,0.01535
1.376,0.00666
1.38,-0.07107
1.384,0.01474
1.388,0.03705
1.392,0.0017
1.396,-0.00068
1.4,-0.06702
1.404,0.00888
1.408,0.01686
1.412,-0.05869
1.416,-0.00129
1.42,-0.0204
1.424,-0.0541
1.428,-0.05176
1.432,-0.00324
1.436,-0.03441
1.44,-0.11505
1.444,-0.12181
1.448,-0.00206
1.452,-0.01351
1.456,-0.00877
1.46,-0.04279
1.464,-0.04606
1.468,-0.03856
1.472,-0.09735
1.476,-0.0208
1.48,-0.03745
1.484,0.0048
1.488,0.05442
1.492,0.00438
1.496,0.08687
1.5,0.05453
1.504,0.04829
1.508,0.10922
1.512,0.13324
1.516,0.0707
1.52,0.05643
1.524,0.02899
1.528,0.05516
1.532,0.03269
1.536,-0.06949
1.54,0.02639
1.544,-0.01859
1.548,-0.04278
1.552,-0.01028
1.556,0.0269
1.56,-0.07501
1.564,-0.00458
1.568,-0.0516
1.572,-0.07067
1.576,-0.05674
1.58,-0.0329
1.584,-0.08468
1.588,-0.08532
1.592,-0.04934
1.596,0.0022
1.6,-0.06079
1.604,-0.00133
1.608,-0.04123
1.612,-0.07312
1.616,-0.01711
1.62,-0.0532
1.624,-0.06283
1.628,-0.12094
1.632,-0.11272
1.636,-0.15665
1.64,-0.13171
1.644,-0.03352
1.648,0.08163
1.652,0.27114
1.656,0.41103
1.66,0.69008
1.664,0.86404
1.668,0.98391
1.672,0.93494
1.676,0.82344
1.68,0.66634
1.684,0.41029
1.688,0.18409
1.692,0.0039
1.696,-0.1281
1.7,-0.18273
1.704,-0.21992
1.708,-0.1889
1.712,-0.10402
1.716,-0.11005
1.72,-0.0019
1.724,-0.07544
1.728,-0.09175
1.732,-0.0147
1.736,-0.05919
1.74,-0.02035
1.744,-0.00296
1.748,0.06818
1.752,-0.00315
1.756,0.15232
1.76,0.07463
1.764,0.00934
1.768,0.01672
1.772,0.03735
1.776,0.00581
1.78,-0.02851
1.784,0.03405
1.788,0.01263
1.792,0.02738
1.796,0.02913
1.8,-0.02182
1.804,-0.03371
1.808,-0.01576
1.812,-0.10855
1.816,0.02688
1.82,-0.04101
1.824,0.00148
1.828,0.00871
1.832,-0.00233
1.836,-0.0074
1.84,0.0333
1.844,0.03697
1.848,0.00309
1.852,-0.00341
1.856,-0.01309
1.86,-0.06078
1.864,0.05229
1.868,0.00914
1.872,-0.0093
1.876,0.01304
1.88,-0.03093
1.884,-0.01955
1.888,-0.0646
1.892,-0.02027
1.896,0.02114
1.9,0.31392
1.904,0.45908
1.908,0.72828
1.912,0.9689
1.916,1.12603
1.92,1.18529
1.924,1.12085
1.928,0.91315
1.932,0.81022
1.936,0.49896
1.94,0.26079
1.944,0.21002
1.948,0.02629
1.952,0.03204
1.956,0.02948
1.96,0.04274
1.964,0.11115
1.968,0.1486
1.972,0.22539
1.976,0.15106
1.98,0.17182
1.984,0.16062
1.988,0.11525
1.992,0.16909
1.996,0.13376
2.0,0.09229
2.004,0.01508
2.008,0.03272
2.012,0.01337
2.016,0.09745
2.02,0.05717
2.024,0.02578
2.028,-0.01655
2.032,0.01048
2.036,0.04071
2.04,0.00945
2.044,-0.04238
2.048,-0.02105
2.052,0.00055
2.056,-0.03671
2.06,0.0028
2.064,-0.02332
2.068,-0.04029
2.072,-0.02054
2.076,-0.07244
2.08,0.00776
2.084,-0.02778
2.088,-0.08493
2.092,-0.00594
2.096,-0.06386
2.1,0.05268
2.104,0.04998
2.108,0.00955
2.112,0.04232
2.116,-0.00611
2.12,0.02891
2.124,0.04248
2.128,0.08829
2.132,0.0849
2.136,0.07111
2.14,0.0441
2.144,0.04721
2.148,0.12095
2.152,0.10083
2.156,0.05377
2.16,0.11462
2.164,0.19366
2.168,0.19301
2.172,0.16974
2.176,0.13642
2.18,0.17703
2.184,0.15508
2.188,0.20945
2.192,0.23193
2.196,0.1768
2.2,0.19388
2.204,0.1498
2.208,0.16862
2.212,0.15211
2.216,0.17879
2.22,0.17192
2.224,0.20997
2.228,0.12713
2.232,0.11498
2.236,0.13842
2.24,0.11042
2.244,0.15266
2.248,0.05583
2.252,0.05771
2.256,0.13189
2.26,0.05652
2.264,0.04467
2.268,0.10365
2.272,-0.01555
2.276,0.07014
2.28,0.05351
2.284,0.05477
2.288,0.10619
2.292,0.15078
2.296,0.06885
2.3,0.07708
2.304,0.11856
2.308,0.09913
2.312,0.06854
2.316,0.02127
2.32,0.07725
2.324,0.03913
2.328,0.09059
2.332,0.05276
2.336,0.01559
2.34,-0.0123
2.344,-0.01202
2.348,-0.01883
2.352,0.01049
2.356,0.0183
2.36,-0.02994
2.364,0.07337
2.368,0.04571
2.372,-0.01526
2.376,-0.02586
2.38,0.04957
2.384,0.02613
2.388,-0.07195
2.392,-0.02596
2.396,-0.02899
2.4,0.03532
2.404,0.0181
2.408,-0.01778
2.412,0.02204
2.416,-0.01976
2.42,-0.10534
2.424,-0.02255
2.428,-0.04951
2.432,-0.0602
2.436,-0.07766
2.44,-0.1905
2.444,-0.10016
2.448,0.03716
2.452,0.09871
2.456,0.29342
2.46,0.50317
2.464,0.7239
2.468,0.8833
2.472,1.0
2.476,0.93446
2.48,0.7974
2.484,0.62559
2.488,0.37268
2.492,0.16683
2.496,-0.063
2.5,-0.09202
2.504,-0.13777
2.508,-0.19614
2.512,-0.17599
2.516,-0.07877
2.52,-0.02704
2.524,-0.04757
2.528,-0.03337
2.532,0.00374
2.536,-0.0204
2.54,0.02963
2.544,-0.06137
2.548,0.00216
2.552,-0.06967
2.556,-0.05361
2.56,-0.02401
2.564,0.01716
2.568,-0.02976
2.572,0.06038
2.576,0.03539
2.58,0.05654
2.584,-0.08274
2.588,0.04605
2.592,-0.04791
2.596,-0.02863
2.6,-0.03604
2.604,-0.05546
2.608,-0.05664
2.612,0.01433
2.616,0.04981
2.62,-0.02033
2.624,0.08601
2.628,-0.0396
2.632,-0.03887
2.636,0.00348
2.64,-0.0304
2.644,0.03844
2.648,0.00943
2.652,0.07627
2.656,-0.04452
2.66,-0.00405
2.664,-0.00196
2.668,0.00152
2.672,-0.00428
2.676,0.02043
2.68,0.01819
2.684,0.08357
2.688,0.09851
2.692,0.14665
2.696,0.09274
2.7,0.16326
2.704,0.12163
2.708,0.06895
2.712,0.19649
2.716,0.16985
2.72,0.16566
2.724,0.19007
2.728,0.15791
2.732,0.13019
2.736,0.23379
2.74,0.22582
2.744,0.21247
2.748,0.24239
2.752,0.24263
2.756,0.22032
2.76,0.24217
2.764,0.19027
2.768,0.22191
2.772,0.14631
2.776,0.11757
2.78,0.18613
2.784,0.17236
2.788,0.04786
2.792,0.11675
2.796,0.11503
2.8,0.10772
2.804,0.07232
2.808,0.06529
2.812,0.0562
2.816,0.0765
2.82,0.04254
2.824,0.03547
2.828,0.09542
2.832,0.0493
2.836,0.01821
2.84,0.02172
2.844,-0.00355
2.848,0.04376
2.852,0.06662
2.856,-0.02398
2.86,-0.03057
2.864,0.01574
2.868,0.03754
2.872,-0.01453
2.876,0.04768
2.88,0.12451
2.884,-0.09521
2.888,0.01861
2.892,0.0172
2.896,0.0121
2.9,-0.02217
2.904,-0.00188
2.908,0.05328
2.912,0.03261
2.916,0.01336
2.92,0.04256
2.924,-0.03023
2.928,-0.02138
2.932,0.07503
2.936,0.01141
2.94,0.02843
2.944,0.00408
2.948,-0.0163
2.952,-0.01069
2.956,-0.00586
2.96,0.02763
2.964,-0.02644
2.968,-0.01572
2.972,-0.02248
2.976,-0.0031
2.98,-0.02628
2.984,0.03256
2.988,-0.00606
2.992,0.02942
2.996,0.00717
3.0,0.01033
3.004,0.05962
3.008,-0.03444
3.012,0.00984
3.016,0.08728
3.02,0.05456
3.024,0.02406
3.028,0.02165
3.032,0.14044
3.036,0.07619
3.04,0.06335
3.044,0.10641
3.048,0.13197
3.052,0.07637
3.056,0.10884
3.06,0.08509
3.064,0.09237
3.068,0.07063
3.072,0.04424
3.076,0.00121
3.08,-0.03902
3.084,0.03709
3.088,-0.02439
3.092,-0.01636
3.096,0.01455
3.1,0.00017
3.104,-0.0508
3.108,0.02297
3.112,-0.0013
3.116,0.02399
3.12,0.03478
3.124,0.07522
3.128,0.02137
3.132,0.00219
3.136,0.05786
3.14,0.00734
3.144,-0.0828
3.148,-0.00839
3.152,0.04544
3.156,-0.00055
3.16,-0.05279
3.164,-0.04788
3.168,-0.01143
3.172,-0.03571
3.176,-0.10744
3.18,-0.06098
3.184,0.00688
3.188,0.11963
3.192,0.30897
3.196,0.51839
3.2,0.76873
3.204,0.86546
3.208,0.92681
3.212,0.94545
3.216,0.83786
3.22,0.72842
3.224,0.49166
3.228,0.28997
3.232,-0.00154
3.236,-0.1039
3.24,-0.16431
3.244,-0.18537
3.248,-0.15875
3.252,-0.0815
3.256,-0.11692
3.26,-0.06941
3.264,0.00487
3.268,0.06959
3.272,-0.00538
3.276,0.05106
3.28,-0.01949
3.284,-0.04715
3.288,-0.06551
3.292,0.03628
3.296,0.01128
3.3,0.00955
3.304,0.04289
3.308,0.05389
3.312,0.01689
3.316,0.02116
3.32,0.03195
3.324,-0.04479
3.328,0.01269
3.332,-0.03478
3.336,0.04733
3.34,-0.00475
3.344,-0.03286
3.348,0.04519
3.352,0.0003
3.356,0.0028
3.36,0.007
3.364,0.00304
3.368,0.02991
3.372,0.05039
3.376,0.04662
3.38,0.02844
3.384,-0.02118
3.388,0.07372
3.392,0.03041
3.396,0.04324
3.4,0.10249
3.404,0.11655
3.408,0.1543
3.412,0.20255
3.416,0.2028
3.42,0.15254
3.424,0.16662
3.428,0.18954
3.432,0.21532
3.436,0.21302
3.44,0.1926
3.444,0.21375
3.448,0.17036
3.452,0.18011
3.456,0.2447
3.46,0.22247
3.464,0.18689
3.468,0.24013
3.472,0.24229
3.476,0.2367
3.48,0.17449
3.484,0.25383
3.488,0.23564
3.492,0.29139
3.496,0.22138
3.5,0.18412
3.504,0.24291
3.508,0.24919
3.512,0.16625
3.516,0.17506
3.52,0.22951
3.524,0.20304
3.528,0.21294
3.532,0.13943
3.536,0.03551
3.54,0.0739
3.544,0.08418
3.548,0.00477
3.552,-0.04766
3.556,0.04446
3.56,0.21312
3.564,0.35885
3.568,0.61737
3.572,0.76346
3.576,0.92006
3.58,1.07472
3.584,0.99208
3.588,0.91486
3.592,0.75683
3.596,0.38053
3.6,0.25186
3.604,0.03221
3.608,-0.07418
3.612,-0.13359
3.616,-0.23567
3.62,-0.10335
3.624,-0.10942
3.628,-0.05502
3.632,0.0276
3.636,-0.04084
3.64,-0.03154
3.644,0.02806
3.648,0.00777
3.652,-0.00426
3.656,-0.00358
3.66,0.00716
3.664,0.04576
3.668,0.0407
3.672,-0.04371
3.676,-0.0851
3.68,0.03894
3.684,-0.01659
3.688,0.05693
3.692,0.02654
3.696,0.02569
3.7,0.02504
3.704,0.07555
3.708,0.00604
3.712,-0.00659
3.716,0.03006
3.72,0.0721
3.724,0.07647
3.728,0.1023
3.732,0.10186
3.736,0.1152
3.74,0.10005
3.744,0.12294
3.748,0.12827
3.752,0.17445
3.756,0.08398
3.76,0.12015
3.764,0.0928
3.768,0.16889
3.772,0.08338
3.776,0.05739
3.78,0.12911
3.784,0.03012
3.788,0.11129
3.792,0.06366
3.796,0.13329
3.8,0.12487
3.804,0.18436
3.808,0.13666
3.812,0.11002
3.816,0.18898
3.82,0.16509
3.824,0.17235
3.828,0.22217
3.832,0.20147
3.836,0.21603
3.84,0.19096
3.844,0.21138
3.848,0.15143
3.852,0.23292
3.856,0.25134
3.86,0.24852
3.864,0.21768
3.868,0.2568
3.872,0.13644
3.876,0.15011
3.88,0.18424
3.884,0.27789
3.888,0.49552
3.892,0.67669
3.896,0.83341
3.9,1.05743
3.904,1.18168
3.908,1.20327
3.912,1.06036
3.916,0.81391
3.92,0.62616
3.924,0.33619
3.928,0.16861
3.932,-0.03268
3.936,-0.05049
3.94,-0.12647
3.944,-0.02036
3.948,-0.0218
3.952,-0.05755
3.956,-0.05722
3.96,-0.00214
3.964,0.05237
3.968,0.05463
3.972,-0.01315
3.976,0.03636
3.98,0.06919
3.984,-0.02482
3.988,0.02031
3.992,0.02027
3.996,0.01453
4.0,0.04252
4.004,0.07111
4.008,-0.01174
4.012,0.03432
4.016,-0.01
4.02,0.03262
4.024,0.04828
4.028,-0.01848
4.032,0.06225
4.036,0.02946
4.04,-0.02255
4.044,0.02749
4.048,0.00779
4.052,-0.02759
4.056,0.00636
4.06,0.05871
4.064,0.0118
4.068,0.05482
4.072,0.03066
4.076,0.01233
4.08,0.04464
4.084,0.03347
4.088,0.06919
4.092,0.01787
4.096,0.08555
4.1,0.05656
4.104,0.02453
4.108,0.07636
4.112,0.08319
4.116,0.08183
4.12,0.10859
4.124,0.18385
4.128,0.11815
4.132,0.10551
4.136,0.15245
4.14,0.16514
4.144,0.14864
4.148,0.17725
4.152,0.16319
4.156,0.25902
4.16,0.18104
4.164,0.22793
4.168,0.22574
4.172,0.23816
4.176,0.21763
4.18,0.21283
4.184,0.2202
4.188,0.23581
4.192,0.2161
4.196,0.24367
4.2,0.21841
4.204,0.24002
4.208,0.18242
4.212,0.17424
4.216,0.29864
4.22,0.19727
4.224,0.19557
4.228,0.19027
4.232,0.10964
4.236,0.13384
4.24,0.06535
4.244,0.14247
4.248,0.11042
4.252,0.12272
4.256,0.09385
4.26,0.12552
4.264,0.0983
4.268,0.04298
4.272,0.08867
4.276,0.04277
4.28,0.04305
4.284,0.0843
4.288,0.01341
4.292,0.02409
4.296,0.02754
4.3,0.02564
4.304,0.09078
4.308,0.01981
4.312,0.04686
4.316,-0.01861
4.32,0.01913
4.324,0.03416
4.328,0.05292
4.332,-0.02023
4.336,0.01008
4.34,-0.00237
4.344,0.08686
4.348,0.01824
4.352,0.00468
4.356,-0.01651
4.36,0.06655
4.364,0.09046
4.368,0.08989
4.372,0.00492
4.376,0.05248
4.38,-0.00072
4.384,0.09496
4.388,0.10655
4.392,0.00164
4.396,0.08813
4.4,0.00858
4.404,0.05926
4.408,0.02854
4.412,-0.00286
4.416,0.115
4.42,0.05361
4.424,0.03549
4.428,0.07163
4.432,0.02535
4.436,0.001
4.44,0.03456
4.444,0.02361
4.448,0.02111
4.452,0.0089
4.456,0.00508
4.46,0.00785
4.464,0.00611
4.468,0.06887
4.472,0.07183
4.476,0.06211
4.48,0.02819
4.484,0.01464
4.488,-0.00626
4.492,0.01499
4.496,0.00167
4.5,0.0493
4.504,0.02211
4.508,-0.00879
4.512,0.01773
4.516,0.09351
4.52,-0.02982
4.524,-0.02728
4.528,0.05393
4.532,0.07935
4.536,0.00322
4.54,-0.02143
4.544,0.09146
4.548,0.0161
4.552,-0.003
4.556,0.05153
4.56,0.01569
4.564,0.06391
4.568,0.02422
4.572,0.0589
4.576,0.15154
4.58,0.11034
4.584,0.16062
4.588,0.21517
4.592,0.15417
4.596,0.08223
4.6,0.1567
4.604,0.07867
4.608,0.06903
4.612,0.12773
4.616,0.08995
4.62,0.0967
4.624,0.03231
4.628,0.02627
4.632,-0.00055
4.636,0.06675
4.64,0.03855
4.644,0.02865
4.648,-0.00096
4.652,-0.00458
4.656,0.05294
4.66,0.01405
4.664,0.02413
4.668,0.05416
4.672,0.00149
4.676,0.11377
4.68,0.03043
4.684,0.03331
4.688,0.00989
4.692,0.12727
4.696,0.02004
4.7,0.05334
4.704,0.00903
4.708,-0.08856
4.712,-0.10272
4.716,-0.12313
4.72,-0.00618
4.724,0.04867
4.728,0.19148
4.732,0.35831
4.736,0.59551
4.74,0.79001
4.744,0.96389
4.748,0.99909
4.752,0.95411
4.756,0.82884
4.76,0.60049
4.764,0.42008
4.768,0.22158
4.772,0.06926
4.776,-0.07825
4.78,-0.1553
4.784,-0.16097
4.788,-0.10996
4.792,-0.05661
4.796,0.01519
4.8,0.06312
4.804,0.00131
4.808,0.00518
4.812,0.10881
4.816,0.0108
4.82,0.04985
4.824,-0.00675
4.828,0.02033
4.832,0.06252
4.836,0.07931
4.84,0.02304
4.844,0.06061
4.848,0.07835
4.852,0.03247
4.856,-0.0137
4.86,-0.02754
4.864,0.02174
4.868,0.02312
4.872,0.05207
4.876,-0.05352
4.88,0.06712
4.884,0.06584
4.888,0.06398
4.892,-0.03739
4.896,0.06871
4.9,0.10728
4.904,0.03452
4.908,0.00634
4.912,0.06876
4.916,0.10568
4.92,0.01235
4.924,0.02955
4.928,0.04709
4.932,0.02392
4.936,0.04024
4.94,0.06942
4.944,0.00143
4.948,0.07802
4.952,0.09521
4.956,0.07507
4.96,0.14956
4.964,0.14661
4.968,0.16819
4.972,0.08981
4.976,0.13622
4.98,0.11215
4.984,0.10394
4.988,0.18014
4.992,0.2181
4.996,0.11661
5.0,0.29293
5.004,0.20938
5.008,0.22656
5.012,0.23071
5.016,0.19979
5.02,0.18883
5.024,0.24115
5.028,0.2628
5.032,0.26561
5.036,0.32086
5.04,0.23225
5.044,0.21088
5.048,0.25797
5.052,0.2557
5.056,0.18871
5.06,0.1668
5.064,0.20059
5.068,0.18011
5.072,0.18222
5.076,0.15312
5.08,0.10354
5.084,0.14279
5.088,0.10519
5.092,0.0975
5.096,0.09141
5.1,0.13093
5.104,0.05281
5.108,0.02373
5.112,0.03102
5.116,0.14344
5.12,0.01243
5.124,0.07618
5.128,0.0754
5.132,0.05917
5.136,0.10047
5.14,0.12397
5.144,0.08293
5.148,0.11696
5.152,0.10813
5.156,0.19571
5.16,0.17159
5.164,0.09075
5.168,0.10114
5.172,0.11543
5.176,0.07873
5.18,0.0767
5.184,0.0382
5.188,0.03566
5.192,0.06068
5.196,-0.00329
5.2,-0.02146
5.204,0.07858
5.208,0.00455
5.212,5e-05
5.216,0.0529
5.22,0.03005
5.224,-0.01369
5.228,0.05439
5.232,-0.02714
5.236,0.05654
5.24,0.01174
5.244,0.01311
5.248,-0.06179
5.252,0.04929
5.256,0.02793
5.26,0.03351
5.264,-0.00267
5.268,-0.00617
5.272,0.06329
5.276,-0.05907
5.28,-0.03256
5.284,0.00327
5.288,-0.11772
5.292,-0.01872
5.296,0.10478
5.3,0.19181
5.304,0.44902
5.308,0.58701
5.312,0.83211
5.316,0.98883
5.32,0.99606
5.324,0.95851
5.328,0.79849
5.332,0.58555
5.336,0.37095
5.34,0.07647
5.344,-0.01026
5.348,-0.14912
5.352,-0.15809
5.356,-0.15566
5.36,-0.11745
5.364,-0.04022
5.368,-0.06302
5.372,0.02387
5.376,0.08147
5.38,0.03303
5.384,0.01093
5.388,-0.02345
5.392,-0.03439
5.396,4e-05
5.4,0.01568
5.404,0.05026
5.408,-0.04773
5.412,0.00605
5.416,0.00334
5.42,-0.00455
5.424,-0.01019
5.428,0.02053
5.432,0.00797
5.436,-0.0215
5.44,-0.00844
5.444,0.00072
5.448,-0.01876
5.452,-0.01088
5.456,-0.02964
5.46,0.05608
5.464,-0.04242
5.468,0.06134
5.472,-0.00625
5.476,0.07658
5.48,0.06125
5.484,0.0075
5.488,-0.00603
5.492,0.04008
5.496,0.04387
5.5,0.07948
5.504,0.07639
5.508,0.00556
5.512,0.0836
5.516,0.06733
5.52,0.09633
5.524,0.09957
5.528,0.04348
5.532,0.11748
5.536,0.06793
5.54,0.14293
5.544,0.13182
5.548,0.09313
5.552,0.12343
5.556,0.11879
5.56,0.19754
5.564,0.16999
5.568,0.19983
5.572,0.2311
5.576,0.19213
5.58,0.2276
5.584,0.2383
5.588,0.20223
5.592,0.23445
5.596,0.21474
5.6,0.17277
5.604,0.20952
5.608,0.27109
5.612,0.1713
5.616,0.25572
5.62,0.19951
5.624,0.17277
5.628,0.25277
5.632,0.17061
5.636,0.12884
5.64,0.195
5.644,0.12821
5.648,0.15381
5.652,0.1065
5.656,0.16627
5.66,0.07041
5.664,0.07713
5.668,0.0794
5.672,0.12634
5.676,0.09054
5.68,0.08371
5.684,0.10618
5.688,0.03621
5.692,0.15778
5.696,0.01648
5.7,0.05618
5.704,0.06151
5.708,0.09939
5.712,0.0668
5.716,0.02898
5.72,0.04712
5.724,0.15829
5.728,0.10614
5.732,0.11122
5.736,0.11479
5.74,0.04298
5.744,0.0632
5.748,0.09857
5.752,0.03115
5.756,0.0339
5.76,0.0663
5.764,-0.01891
5.768,0.02119
5.772,0.02647
5.776,0.00606
5.78,0.06003
5.784,0.05326
5.788,-0.04196
5.792,0.02425
5.796,0.01366
5.8,0.002
5.804,-0.02274
5.808,0.08047
5.812,-0.03967
5.816,0.01246
5.82,0.03914
5.824,0.00331
5.828,0.03435
5.832,-0.05654
5.836,0.0349
5.84,-0.03328
5.844,-0.07691
5.848,-0.12401
5.852,-0.09642
5.856,-0.04555
5.86,0.11168
5.864,0.2956
5.868,0.45425
5.872,0.61732
5.876,0.89491
5.88,1.00104
5.884,0.96426
5.888,0.89824
5.892,0.72527
5.896,0.48016
5.9,0.21934
5.904,0.12696
5.908,-0.12144
5.912,-0.09722
5.916,-0.2188
5.92,-0.11011
5.924,-0.05958
5.928,-0.14029
5.932,-0.0422
5.936,0.02489
5.94,0.03115
5.944,-0.0364
5.948,-0.05823
5.952,0.01017
5.956,0.00556
5.96,0.02776
5.964,-0.01692
5.968,0.06302
5.972,-0.0042
5.976,-0.05576
5.98,-0.01742
5.984,0.06801
5.988,0.07182
5.992,-0.0108
5.996,0.00484
6.0,0.05937
6.004,0.00222
6.008,-0.01623
6.012,0.00149
6.016,0.0566
6.02,0.03285
6.024,-0.08605
6.028,-0.04845
6.032,-0.01355
6.036,-0.03111
6.04,0.0316
6.044,-0.03037
6.048,0.01376
6.052,0.02164
6.056,0.05263
6.06,0.01318
6.064,0.02789
6.068,0.08104
6.072,0.01032
6.076,0.04065
6.08,-0.00509
6.084,0.16274
6.088,0.09053
6.092,0.00482
6.096,0.10114
6.1,0.12421
6.104,0.1558
6.108,0.0851
6.112,0.15735
6.116,0.15803
6.12,0.17252
6.124,0.15525
6.128,0.16788
6.132,0.13152
6.136,0.29455
6.14,0.22774
6.144,0.24954
6.148,0.26545
6.152,0.20925
6.156,0.29599
6.16,0.28858
6.164,0.32377
6.168,0.3069
6.172,0.34523
6.176,0.31106
6.18,0.2972
6.184,0.35288
6.188,0.321
6.192,0.22512
6.196,0.24321
6.2,0.16579
6.204,0.14545
6.208,0.2127
6.212,0.07526
6.216,0.1319
6.22,0.14165
6.224,0.07451
6.228,0.04633
6.232,0.13536
6.236,0.06292
6.24,0.06291
6.244,-0.02454
6.248,0.06261
6.252,0.1194
6.256,-0.01966
6.26,-0.02305
6.264,-0.00077
6.268,-0.00053
6.272,0.02604
6.276,-0.01394
6.28,0.05335
6.284,-0.00158
6.288,0.0263
6.292,-0.06444
6.296,-0.08055
6.3,-0.06317
6.304,-0.05869
6.308,-0.08492
6.312,0.01203
6.316,0.19085
6.32,0.39213
6.324,0.63269
6.328,0.78983
6.332,0.94732
6.336,1.02192
6.34,0.96726
6.344,0.71305
6.348,0.50988
6.352,0.30521
6.356,0.11362
6.36,-0.0741
6.364,-0.11719
6.368,-0.1258
6.372,-0.17547
6.376,-0.11878
6.38,-0.05962
6.384,-0.04126
6.388,-0.041
6.392,0.02581
6.396,-0.00722
6.4,-0.01482
6.404,-0.00835
6.408,0.01725
6.412,-0.04594
6.416,0.00784
6.42,0.05046
6.424,0.03644
6.428,0.02866
6.432,0.04652
6.436,-0.01304
6.44,-0.00976
6.444,-0.05591
6.448,0.01675
6.452,0.02037
6.456,-0.01625
6.46,-0.04183
6.464,-0.04797
6.468,-0.01991
6.472,-0.0007
6.476,0.04469
6.48,0.0288
6.484,-0.00334
6.488,-0.00523
6.492,-0.05163
6.496,0.02225
6.5,0.01324
6.504,0.00186
6.508,-0.05132
6.512,0.03428
6.516,0.05923
6.52,0.00146
6.524,0.07294
6.528,0.01695
6.532,0.08599
6.536,0.11946
6.54,-0.00381
6.544,0.10174
6.548,0.12376
6.552,0.10267
6.556,0.17107
6.56,0.14057
6.564,0.14911
6.568,0.25099
6.572,0.24967
6.576,0.21608
6.58,0.25831
6.584,0.26689
6.588,0.26183
6.592,0.29418
6.596,0.25743
6.6,0.27563
6.604,0.30863
6.608,0.29515
6.612,0.29691
6.616,0.21045
6.62,0.15899
6.624,0.20174
6.628,0.1944
6.632,0.24921
6.636,0.17104
6.64,0.17016
6.644,0.26751
6.648,0.13646
6.652,0.13194
6.656,0.09668
6.66,0.09834
6.664,0.12658
6.668,0.11322
6.672,0.06903
6.676,0.04797
6.68,0.08023
6.684,0.02887
6.688,0.11213
6.692,0.07222
6.696,-0.00465
6.7,-0.06288
6.704,-0.04327
6.708,-0.06509
6.712,-0.04672
6.716,0.05345
6.72,0.21344
6.724,0.44595
6.728,0.68148
6.732,0.85948
6.736,0.97869
6.74,0.98868
6.744,0.90002
6.748,0.67547
6.752,0.49609
6.756,0.22635
6.76,-0.00335
6.764,0.00354
6.768,-0.17464
6.772,-0.18559
6.776,-0.146
6.78,-0.09706
6.784,-0.02932
6.788,-0.00094
6.792,-0.01537
6.796,-0.0338
6.8,-0.01357
6.804,-0.05164
6.808,-0.02029
6.812,-0.03434
6.816,-0.01365
6.82,-0.05944
6.824,0.01005
6.828,-0.02716
6.832,-0.07609
6.836,-0.05456
6.84,0.02218
6.844,-0.03736
6.848,-0.08091
6.852,0.03373
6.856,-0.018
6.86,-0.03339
6.864,-0.00022
6.868,-0.00093
6.872,-0.05177
6.876,0.01321
6.88,-0.01864
6.884,-0.00894
6.888,0.00522
6.892,-0.01462
6.896,-0.07823
6.9,-0.00862
6.904,-0.02006
6.908,-0.00994
6.912,-0.01534
6.916,-0.02634
6.92,-0.00883
6.924,-0.05047
6.928,-0.0109
6.932,-0.02097
6.936,-0.03373
6.94,0.0274
6.944,0.00278
6.948,0.06229
6.952,0.05397
6.956,0.02639
6.96,0.07451
6.964,0.0747
6.968,0.07886
6.972,0.12495
6.976,0.116
6.98,0.14832
6.984,0.15418
6.988,0.18386
6.992,0.25083
6.996,0.27978
7.0,0.29668
7.004,0.22202
7.008,0.30516
7.012,0.29537
7.016,0.33299
7.02,0.30307
7.024,0.21099
7.028,0.25324
7.032,0.28787
7.036,0.26292
7.04,0.17748
7.044,0.24855
7.048,0.16021
7.052,0.13005
7.056,0.15297
7.06,0.09289
7.064,0.08387
7.068,0.15108
7.072,0.09109
7.076,0.12639
7.08,0.09292
7.084,0.06766
7.088,0.07551
7.092,0.07532
7.096,0.04179
7.1,0.07541
7.104,0.0142
7.108,-0.00936
7.112,0.01477
7.116,0.03422
7.12,-0.06239
7.124,-0.04938
7.128,-0.09331
7.132,-0.08094
7.136,-0.08071
7.14,-0.0582
7.144,-0.09356
7.148,0.02297
7.152,0.16588
7.156,0.3292
7.16,0.54659
7.164,0.76751
7.168,0.88358
7.172,0.96037
7.176,0.90796
7.18,0.73506
7.184,0.48755
7.188,0.37246
7.192,0.12504
7.196,-0.06985
7.2,-0.14015
7.204,-0.2292
7.208,-0.16202
7.212,-0.1228
7.216,-0.07389
7.22,-0.00158
7.224,-0.05543
7.228,-0.04362
7.232,0.01433
7.236,-0.04378
7.24,0.01236
7.244,0.02862
7.248,-0.00731
7.252,-0.04471
7.256,-0.0056
7.26,-0.00235
7.264,0.0113
7.268,0.00231
7.272,-0.0415
7.276,-0.02274
7.28,0.01211
7.284,-0.03206
7.288,-0.04467
7.292,-0.02225
7.296,0.01721
7.3,-0.06307
7.304,-0.02251
7.308,-0.05708
7.312,0.03794
7.316,0.03258
7.32,-0.01611
7.324,-0.05046
7.328,-0.03863
7.332,-0.02782
7.336,0.02002
7.34,0.04941
7.344,-0.09791
7.348,0.01084
7.352,0.01814
7.356,0.06009
7.36,-0.04524
7.364,0.05791
7.368,-0.00646
7.372,-0.0041
7.376,-0.00596
7.38,0.00613
7.384,0.08386
7.388,0.0995
7.392,0.04743
7.396,0.09897
7.4,0.13056
7.404,0.18179
7.408,0.12956
7.412,0.10979
7.416,0.16114
7.42,0.10749
7.424,0.20481
7.428,0.21224
7.432,0.19479
7.436,0.16377
7.44,0.14086
7.444,0.20392
7.448,0.17203
7.452,0.2618
7.456,0.22825
7.46,0.15461
7.464,0.19884
7.468,0.16805
7.472,0.16515
7.476,0.17819
7.48,0.18631
7.484,0.1286
7.488,0.07136
7.492,0.09678
7.496,0.09076
7.5,0.10346
7.504,0.09529
7.508,0.08604
7.512,0.06744
7.516,0.03055
7.52,0.01264
7.524,0.09317
7.528,0.05223
7.532,0.0018
7.536,0.07836
7.54,-0.07751
7.544,0.01634
7.548,0.04326
7.552,0.00327
7.556,0.01135
7.56,0.02522
7.564,-0.01369
7.568,0.03559
7.572,-0.03289
7.576,-0.00612
7.58,-0.00998
7.584,-0.08559
7.588,-0.04617
7.592,-0.03031
7.596,-0.06973
7.6,0.00867
7.604,-0.04296
7.608,-0.01272
7.612,-0.01648
7.616,-0.04183
7.62,-0.04893
7.624,-0.03255
7.628,0.00322
7.632,-0.0145
7.636,-0.05851
7.64,-0.02741
7.644,0.00513
7.648,-0.01043
7.652,-0.02895
7.656,-0.03653
7.66,-0.02872
7.664,-0.02998
7.668,-0.04893
7.672,0.02847
7.676,-0.02433
7.68,-0.03294
7.684,-0.02955
7.688,0.00164
7.692,0.02983
7.696,0.0109
7.7,0.07037
7.704,0.03737
7.708,0.09018
7.712,0.11902
7.716,0.03598
7.72,0.10172
7.724,0.04476
7.728,0.04562
7.732,0.0117
7.736,0.0819
7.74,0.05931
7.744,-0.04423
7.748,-0.01142
7.752,0.00157
7.756,-0.01316
7.76,-0.01114
7.764,0.02827
7.768,-0.09124
7.772,-0.03734
7.776,-0.03001
7.78,-0.05587
7.784,-0.08531
7.788,-0.01227
7.792,-0.0369
7.796,-0.05536
7.8,-0.00066
7.804,-0.01293
7.808,0.01836
7.812,-0.02924
7.816,-0.11255
7.82,-0.06653
7.824,-0.08311
7.828,-0.00937
7.832,-0.11433
7.836,-0.1468
7.84,-0.15268
7.844,-0.18486
7.848,-0.0777
7.852,0.08346
7.856,0.17959
7.86,0.41442
7.864,0.61837
7.868,0.8504
7.872,0.94402
7.876,0.98466
7.88,0.87386
7.884,0.71276
7.888,0.45038
7.892,0.2451
7.896,0.10002
7.9,-0.12929
7.904,-0.19319
7.908,-0.17507
7.912,-0.16377
7.916,-0.12481
7.92,-0.16103
7.924,-0.0957
7.928,-0.04769
7.932,-0.08631
7.936,-0.01024
7.94,-0.04057
7.944,-0.05136
7.948,-0.04364
7.952,-0.09102
7.956,0.02005
7.96,-0.06887
7.964,0.01197
7.968,0.00854
7.972,-0.01679
7.976,-0.02113
7.98,-0.00859
7.984,-0.02523
7.988,-0.08409
7.992,-0.04574
7.996,0.0296
8.0,0.02092
8.004,0.01511
8.008,-0.06539
8.012,-0.04468
8.016,-0.09634
8.02,-0.08406
8.024,-0.08123
8.028,-0.06399
8.032,-0.01003
8.036,-0.06125
8.04,0.00357
8.044,0.04606
8.048,-0.0302
8.052,-0.02033
8.056,0.05642
8.06,-0.01374
8.064,-0.04065
8.068,0.05875
8.072,0.03998
8.076,0.05004
8.08,0.00512
8.084,0.0283
8.088,0.02413
8.092,0.0024
8.096,0.03969
8.1,0.05588
8.104,0.06508
8.108,0.06473
8.112,0.15481
8.116,0.10559
8.12,0.17486
8.124,0.21151
8.128,0.17269
8.132,0.14423
8.136,0.17764
8.14,0.1693
8.144,0.1539
8.148,0.17368
8.152,0.22048
8.156,0.17894
8.16,0.18017
8.164,0.19811
8.168,0.23663
8.172,0.16279
8.176,0.14018
8.18,0.17715
8.184,0.17787
8.188,0.09827
8.192,0.14637
8.196,0.10803
8.2,0.15918
8.204,0.12158
8.208,0.10387
8.212,0.07012
8.216,0.13611
8.22,-0.02559
8.224,0.01512
8.228,0.0571
8.232,0.00904
8.236,-0.04351
8.24,0.04566
8.244,0.01705
8.248,-0.05391
8.252,0.02808
8.256,-0.00649
8.26,0.03416
8.264,-0.03792
8.268,0.02942
8.272,0.02631
8.276,0.04452
8.28,-0.03826
8.284,-0.06777
8.288,-0.00531
8.292,-0.04218
8.296,0.02115
8.3,-0.0799
8.304,0.01842
8.308,-0.03902
8.312,-0.01512
8.316,-0.0423
8.32,-0.03547
8.324,-0.04601
8.328,-0.05886
8.332,-0.09567
8.336,-0.0736
8.34,-0.0317
8.344,-0.03054
8.348,-0.01055
8.352,-0.04161
8.356,0.02429
8.36,0.01115
8.364,0.03194
8.368,-0.03561
8.372,0.05234
8.376,0.01262
8.38,-0.00159
8.384,0.02242
8.388,0.01829
8.392,0.11401
8.396,0.07946
8.4,0.04583
8.404,0.066
8.408,0.0606
8.412,0.0174
8.416,0.03474
8.42,-0.00652
8.424,0.056
8.428,0.01276
8.432,-0.0604
8.436,-0.04217
8.44,-0.00173
8.444,-0.01763
8.448,-0.02591
8.452,-0.02984
8.456,-0.05715
8.46,-0.01663
8.464,-0.02111
8.468,0.01695
8.472,-0.05049
8.476,-0.07653
8.48,-0.02721
8.484,-0.04682
8.488,-0.02602
8.492,-0.00784
8.496,-0.07962
8.5,0.02686
8.504,-0.04438
8.508,-0.08281
8.512,-0.08089
8.516,-0.0943
8.52,-0.12367
8.524,-0.11143
8.528,-0.07496
8.532,0.08122
8.536,0.25609
8.54,0.49219
8.544,0.66417
8.548,0.83865
8.552,0.97988
8.556,0.93606
8.56,0.83244
8.564,0.60354
8.568,0.3682
8.572,0.18549
8.576,-0.01013
8.58,-0.15976
8.584,-0.21117
8.588,-0.19322
8.592,-0.14529
8.596,-0.0882
8.6,-0.06238
8.604,-0.06331
8.608,-0.01139
8.612,-0.03185
8.616,-0.04115
8.62,-0.05178
8.624,0.00474
8.628,-0.05162
8.632,-0.00171
8.636,-0.02941
8.64,-0.06202
8.644,0.00124
8.648,0.04727
8.652,-0.00609
8.656,-0.03057
8.66,-0.02947
8.664,-0.03012
8.668,-0.05729
8.672,0.00668
8.676,-0.01537
8.68,-0.00107
8.684,-0.01198
8.688,-0.02079
8.692,-0.00365
8.696,-0.03082
8.7,0.01662
8.704,-0.0432
8.708,-0.04469
8.712,-0.05691
8.716,-0.00039
8.72,-0.09062
8.724,-0.03954
8.728,0.00044
8.732,-0.0409
8.736,-0.00202
8.74,-0.02933
8.744,0.0176
8.748,0.06074
8.752,0.0013
8.756,0.07957
8.76,0.03431
8.764,-0.00813
8.768,0.04021
8.772,0.05762
8.776,0.04037
8.78,0.12109
8.784,0.08637
8.788,0.07899
8.792,0.06929
8.796,0.12489
8.8,0.10859
8.804,0.17764
8.808,0.13601
8.812,0.16625
8.816,0.20512
8.82,0.16697
8.824,0.16686
8.828,0.16835
8.832,0.171
8.836,0.22744
8.84,0.23444
8.844,0.21526
8.848,0.16469
8.852,0.18429
8.856,0.18135
8.86,0.18196
8.864,0.13315
8.868,0.15546
8.872,0.17572
8.876,0.13206
8.88,0.11132
8.884,0.16201
8.888,0.1265
8.892,0.06933
8.896,0.10953
8.9,0.08468
8.904,0.04671
8.908,0.0112
8.912,-0.03821
8.916,0.01992
8.92,0.01459
8.924,-0.00189
8.928,0.00418
8.932,0.02271
8.936,-0.08468
8.94,-0.00052
8.944,-0.01463
8.948,-0.0696
8.952,-0.01547
8.956,-0.00434
8.96,-0.03749
8.964,0.01731
8.968,-0.00049
8.972,-0.04634
8.976,0.0443
8.98,-0.04138
8.984,0.06323
8.988,0.0127
8.992,-0.05765
8.996,-0.05257
9.0,-0.01558
9.004,-0.00505
9.008,-0.03491
9.012,-0.00567
9.016,-0.04801
9.02,-0.02802
9.024,-0.0622
9.028,1e-05
9.032,0.0335
9.036,0.01273
9.04,-0.04907
9.044,-0.01555
9.048,-0.00156
9.052,0.04858
9.056,-0.00261
9.06,0.03441
9.064,-0.0624
9.068,0.00823
9.072,0.00434
9.076,0.02283
9.08,0.04322
9.084,0.04635
9.088,0.02706
9.092,0.05935
9.096,0.07602
9.1,0.08958
9.104,0.08551
9.108,0.09102
9.112,0.09745
9.116,0.07364
9.12,0.05854
9.124,-0.0036
9.128,0.01277
9.132,-0.00487
9.136,0.07502
9.14,0.05575
9.144,-0.03641
9.148,-0.0095
9.152,-0.03361
9.156,-0.08766
9.16,-0.03335
9.164,-0.10129
9.168,-0.01995
9.172,-0.06364
9.176,-0.0546
9.18,0.03916
9.184,-0.02937
9.188,-0.07781
9.192,0.01432
9.196,-0.02903
9.2,-0.08298
9.204,-0.03449
9.208,0.00085
9.212,0.01027
9.216,0.01308
9.22,-0.04604
9.224,-0.00982
9.228,-0.00247
9.232,-0.1348
9.236,-0.18374
9.24,-0.11241
9.244,-0.01228
9.248,0.07473
9.252,0.23503
9.256,0.52068
9.26,0.73529
9.264,0.85729
9.268,0.95981
9.272,0.98936
9.276,0.79346
9.28,0.63492
9.284,0.4201
9.288,0.1899
9.292,0.04402
9.296,-0.0555
9.3,-0.13357
9.304,-0.17299
9.308,-0.17793
9.312,-0.10838
9.316,-0.13122
9.32,-0.04382
9.324,-0.02111
9.328,-0.01151
9.332,-0.00046
9.336,-0.02245
9.34,0.05582
9.344,-0.05561
9.348,-0.03764
9.352,-0.02828
9.356,-0.01838
9.36,-0.05378
9.364,0.00165
9.368,-0.00168
9.372,-0.05627
9.376,0.04966
9.38,-0.01918
9.384,-0.01081
9.388,0.00723
9.392,0.00623
9.396,0.04663
9.4,0.04273
9.404,-0.01987
9.408,-0.04289
9.412,0.00526
9.416,0.07809
9.42,-0.04163
9.424,0.00098
9.428,-0.02866
9.432,0.015
9.436,-0.01165
9.44,0.01505
9.444,0.02341
9.448,0.02121
9.452,0.04301
9.456,0.00618
9.46,0.07315
9.464,0.00019
9.468,-1e-05
9.472,0.10933
9.476,-0.04215
9.48,0.02311
9.484,0.04209
9.488,0.06895
9.492,0.09953
9.496,0.01951
9.5,0.08667
9.504,0.15402
9.508,0.15852
9.512,0.18633
9.516,0.12536
9.52,0.17579
9.524,0.11278
9.528,0.18888
9.532,0.18486
9.536,0.20719
9.54,0.24249
9.544,0.183
9.548,0.20574
9.552,0.12367
9.556,0.24952
9.56,0.25227
9.564,0.24332
9.568,0.21162
9.572,0.13281
9.576,0.14927
9.58,0.27831
9.584,0.17592
9.588,0.19847
9.592,0.13881
9.596,0.09601
9.6,0.12494
9.604,0.1164
9.608,0.07924
9.612,0.06089
9.616,0.0235
9.62,0.03181
9.624,0.01923
9.628,0.00202
9.632,0.03122
9.636,0.03452
9.64,0.09036
9.644,-0.05191
9.648,-0.01186
9.652,0.01819
9.656,-0.02715
9.66,-0.00178
9.664,-0.03623
9.668,-0.04456
9.672,0.05113
9.676,0.0172
9.68,0.02214
9.684,-0.04171
9.688,0.02815
9.692,-0.04221
9.696,0.02444
9.7,0.0545
9.704,-0.00296
9.708,0.01723
9.712,-0.03703
9.716,0.03744
9.72,0.10001
9.724,0.02778
9.728,0.00892
9.732,0.05195
9.736,0.02898
9.74,0.03663
9.744,0.10898
9.748,0.06354
9.752,0.14161
9.756,0.07514
9.76,0.01825
9.764,0.12726
9.768,0.10244
9.772,-0.0086
9.776,0.00492
9.78,0.0628
9.784,0.02136
9.788,-0.0144
9.792,-0.00261
9.796,0.02675
9.8,0.00042
9.804,-0.01629
9.808,0.02893
9.812,-0.01248
9.816,2e-05
9.82,-0.01988
9.824,-0.02879
9.828,0.03829
9.832,0.0658
9.836,0.01331
9.84,0.07348
9.844,0.0513
9.848,-0.0153
9.852,0.01526
9.856,0.00421
9.86,-0.03235
9.864,0.01788
9.868,-0.06216
9.872,-0.06799
9.876,-0.09067
9.88,-0.11792
9.884,-0.03213
9.888,0.02839
9.892,0.23086
9.896,0.42302
9.9,0.63832
9.904,0.83308
9.908,0.99586
9.912,0.94047
9.916,0.91094
9.92,0.69763
9.924,0.53284
9.928,0.29329
9.932,0.10649
9.936,-0.07164
9.94,-0.14388
9.944,-0.19954
9.948,-0.19992
9.952,-0.07752
9.956,-0.11342
9.96,-0.01129
9.964,-0.01393
9.968,0.03817
9.972,0.00694
9.976,0.0616
9.98,0.04087
9.984,-0.04574
9.988,0.07849
9.992,0.00097
9.996,0.01779
