t_seg,ecg_mV
0.0,0.01738
0.004,0.02235
0.008,0.0089
0.012,-0.00756
0.016,-0.01964
0.02,-0.02357
0.024,-0.00279
0.028,-0.02442
0.032,-0.06214
0.036,-0.02938
0.04,-0.01309
0.044,-0.04832
0.048,-0.0099
0.052,-0.05348
0.056,-0.028
0.06,-0.05524
0.064,-0.01988
0.068,-0.03666
0.072,-0.04081
0.076,-0.0289
0.08,-0.05317
0.084,-0.02067
0.088,-0.01023
0.092,-0.06273
0.096,-0.06312
0.1,-0.10831
0.104,-0.17521
0.108,-0.14592
0.112,-0.06932
0.116,0.03275
0.12,0.1911
0.124,0.40464
0.128,0.62878
0.132,0.81393
0.136,0.93543
0.14,0.95801
0.144,0.87095
0.148,0.70825
0.152,0.48902
0.156,0.24917
0.16,0.07079
0.164,-0.09982
0.168,-0.18583
0.172,-0.19233
0.176,-0.1531
0.18,-0.15917
0.184,-0.10491
0.188,-0.02634
0.192,-0.03721
0.196,-0.02252
0.2,-0.04836
0.204,-0.04708
0.208,-0.03763
0.212,-0.02422
0.216,-0.01474
0.22,-0.03523
0.224,-0.02821
0.228,-0.05041
0.232,-0.01223
0.236,-0.0274
0.24,-0.01476
0.244,-0.03002
0.248,-0.05285
0.252,-0.02527
0.256,0.00538
0.26,-0.02642
0.264,-0.02873
0.268,-0.04596
0.272,-0.0184
0.276,-0.03183
0.28,-0.0334
0.284,-0.03623
0.288,-0.02162
0.292,-0.03362
0.296,-0.02435
0.3,-0.02964
0.304,-0.02823
0.308,-0.02085
0.312,0.02717
0.316,-0.00917
0.32,0.001
0.324,-0.00457
0.328,0.01726
0.332,0.00208
0.336,0.01667
0.34,0.01127
0.344,0.02903
0.348,0.02663
0.352,0.03464
0.356,0.03624
0.36,0.05503
0.364,0.08887
0.368,0.07625
0.372,0.10336
0.376,0.12382
0.38,0.12064
0.384,0.12926
0.388,0.13055
0.392,0.16666
0.396,0.15508
0.4,0.1656
0.404,0.1959
0.408,0.16494
0.412,0.16459
0.416,0.19611
0.42,0.22157
0.424,0.19335
0.428,0.17492
0.432,0.20876
0.436,0.18876
0.44,0.17284
0.444,0.13274
0.448,0.14383
0.452,0.14656
0.456,0.13121
0.46,0.1214
0.464,0.11265
0.468,0.11369
0.472,0.1026
0.476,0.07534
0.48,0.05156
0.484,0.03307
0.488,0.05343
0.492,0.02948
0.496,-0.00292
0.5,0.03704
0.504,0.01175
0.508,0.01029
0.512,0.0037
0.516,-0.01747
0.52,0.00471
0.524,-0.02175
0.528,0.02949
0.532,-0.03293
0.536,-0.02428
0.54,-0.02174
0.544,-0.02145
0.548,-0.02026
0.552,-0.03268
0.556,-0.0273
0.56,-0.01744
0.564,-0.01061
0.568,-0.01275
0.572,-0.03694
0.576,-0.04482
0.58,-0.0314
0.584,-0.04594
0.588,-0.01936
0.592,-0.00539
0.596,-0.02853
0.6,-0.01349
0.604,-0.03921
0.608,-0.03788
0.612,-0.02626
0.616,-0.03218
0.62,-0.01774
0.624,-0.03079
0.628,-0.01256
0.632,-0.01954
0.636,-0.00292
0.64,-0.00314
0.644,0.0002
0.648,0.00492
0.652,0.0037
0.656,0.04177
0.66,0.03795
0.664,0.05588
0.668,0.07066
0.672,0.08796
0.676,0.08554
0.68,0.07542
0.684,0.08506
0.688,0.0558
0.692,0.03604
0.696,0.02486
0.7,0.03458
0.704,-0.00536
0.708,0.02344
0.712,-0.00302
0.716,0.01367
0.72,-0.02707
0.724,-0.01367
0.728,-0.01688
0.732,-0.03418
0.736,-0.02362
0.74,-0.01846
0.744,-0.02774
0.748,-0.03977
0.752,-0.01213
0.756,-0.00911
0.76,-0.01566
0.764,-0.01248
0.768,-0.00219
0.772,-0.01813
0.776,-0.00175
0.78,-0.03477
0.784,-0.01134
0.788,-0.0312
0.792,-0.05592
0.796,-0.05996
0.8,-0.0999
0.804,-0.15093
0.808,-0.1293
0.812,-0.0516
0.816,0.06018
0.82,0.24385
0.824,0.44692
0.828,0.68103
0.832,0.89088
0.836,0.96963
0.84,0.94222
0.844,0.85302
0.848,0.66209
0.852,0.4171
0.856,0.20647
0.86,0.03457
0.864,-0.11944
0.868,-0.18254
0.872,-0.20252
0.876,-0.1348
0.88,-0.11181
0.884,-0.0541
0.888,-0.05146
0.892,-0.01799
0.896,-0.00578
0.9,0.00147
0.904,-0.05632
0.908,-0.03409
0.912,-0.02795
0.916,-0.03319
0.92,-0.01167
0.924,-0.02681
0.928,-0.03336
0.932,-0.03991
0.936,-0.01047
0.94,-0.01963
0.944,0.01654
0.948,0.01514
0.952,-0.00732
0.956,-0.01501
0.96,-0.02771
0.964,-0.03481
0.968,-0.00808
0.972,-0.01535
0.976,0.01014
0.98,-0.03093
0.984,-0.00771
0.988,-0.01308
0.992,0.00616
0.996,-0.02245
1.0,-0.02811
1.004,0.01304
1.008,-0.00939
1.012,-0.04429
1.016,-0.01366
1.02,0.01399
1.024,-0.01179
1.028,0.01451
1.032,0.02457
1.036,0.00857
1.04,0.02874
1.044,0.04084
1.048,0.04743
1.052,0.06774
1.056,0.07004
1.06,0.05982
1.064,0.08469
1.068,0.09027
1.072,0.13726
1.076,0.13946
1.08,0.12489
1.084,0.14245
1.088,0.14858
1.092,0.16886
1.096,0.17904
1.1,0.19121
1.104,0.20014
1.108,0.17884
1.112,0.19063
1.116,0.20705
1.12,0.23932
1.124,0.21177
1.128,0.18752
1.132,0.1893
1.136,0.17303
1.14,0.17915
1.144,0.15289
1.148,0.17392
1.152,0.1589
1.156,0.12922
1.16,0.12717
1.164,0.13821
1.168,0.11791
1.172,0.09278
1.176,0.05117
1.18,0.05247
1.184,0.06014
1.188,0.07568
1.192,0.03149
1.196,0.01842
1.2,0.02362
1.204,0.03493
1.208,0.01513
1.212,0.0043
1.216,0.02386
1.22,-0.0106
1.224,0.00837
1.228,-0.01038
1.232,-0.0142
1.236,-0.02626
1.24,-0.01232
1.244,-0.00701
1.248,-0.01296
1.252,-0.00144
1.256,-0.01135
1.26,-0.03721
1.264,0.00818
1.268,-0.01288
1.272,-0.0112
1.276,-0.02432
1.28,-0.0254
1.284,-0.05341
1.288,-0.02542
1.292,0.01278
1.296,-0.00982
1.3,-0.02353
1.304,0.01263
1.308,-0.01228
1.312,0.0042
1.316,-0.01613
1.32,-0.01251
1.324,-0.01834
1.328,-0.01982
1.332,-0.02991
1.336,0.00263
1.34,-0.00049
1.344,-0.00339
1.348,-0.02211
1.352,-0.02108
1.356,-0.0146
1.36,-0.01694
1.364,0.00482
1.368,-0.00064
1.372,-0.03153
1.376,-0.01106
1.38,-0.00938
1.384,-0.01097
1.388,-0.01899
1.392,-0.04354
1.396,-0.02194
1.4,-0.01933
1.404,-0.00522
1.408,0.01196
1.412,-0.01196
1.416,0.01026
1.42,-0.00871
1.424,-0.00324
1.428,-0.00559
1.432,0.00518
1.436,-0.00192
1.44,0.00963
1.444,-0.02243
1.448,-0.01551
1.452,-0.04279
1.456,-0.00279
1.46,0.0099
1.464,0.01146
1.468,0.00579
1.472,0.01222
1.476,0.03312
1.48,0.03599
1.484,0.00219
1.488,0.0455
1.492,0.0601
1.496,0.06646
1.5,0.06332
1.504,0.09148
1.508,0.08431
1.512,0.11065
1.516,0.06738
1.52,0.06378
1.524,0.07939
1.528,0.09794
1.532,0.05666
1.536,0.05062
1.54,0.0501
1.544,0.04688
1.548,0.00629
1.552,0.0053
1.556,-0.00742
1.56,0.00266
1.564,0.00273
1.568,0.00805
1.572,-0.00433
1.576,-0.0026
1.58,-0.01898
1.584,-0.00619
1.588,-0.03816
1.592,-0.01947
1.596,-0.01902
1.6,-0.02346
1.604,0.01797
1.608,-0.00993
1.612,0.00369
1.616,0.00821
1.62,-0.02162
1.624,0.01143
1.628,-0.00798
1.632,-0.04686
1.636,-0.11209
1.64,-0.13005
1.644,-0.11815
1.648,-0.02146
1.652,0.12559
1.656,0.28113
1.66,0.52093
1.664,0.71691
1.668,0.90636
1.672,0.99559
1.676,0.96745
1.68,0.8609
1.684,0.64417
1.688,0.38951
1.692,0.21244
1.696,0.00767
1.7,-0.10852
1.704,-0.1802
1.708,-0.14794
1.712,-0.12122
1.716,-0.08591
1.72,-0.05721
1.724,-0.0327
1.728,0.00197
1.732,0.01335
1.736,-0.02603
1.74,0.0259
1.744,0.00631
1.748,0.00854
1.752,-0.01101
1.756,0.0225
1.76,0.00934
1.764,-0.02354
1.768,0.00892
1.772,-0.01622
1.776,-0.02129
1.78,-0.00875
1.784,0.00531
1.788,-0.02291
1.792,0.0058
1.796,-0.00575
1.8,-0.0164
1.804,-0.00718
1.808,0.00981
1.812,0.01367
1.816,-0.02452
1.82,0.01011
1.824,-0.02961
1.828,-0.01301
1.832,0.01041
1.836,0.00727
1.84,-0.00733
1.844,0.02451
1.848,0.03293
1.852,0.02912
1.856,0.03453
1.86,0.03743
1.864,0.00681
1.868,0.03016
1.872,0.04241
1.876,0.07899
1.88,0.07425
1.884,0.07359
1.888,0.07212
1.892,0.10681
1.896,0.09484
1.9,0.11126
1.904,0.11467
1.908,0.12986
1.912,0.16346
1.916,0.17741
1.92,0.17931
1.924,0.16366
1.928,0.17688
1.932,0.21729
1.936,0.20809
1.94,0.21822
1.944,0.21724
1.948,0.20282
1.952,0.24491
1.956,0.20517
1.96,0.21239
1.964,0.22279
1.968,0.1993
1.972,0.1987
1.976,0.18884
1.98,0.19031
1.984,0.16602
1.988,0.18784
1.992,0.16593
1.996,0.16144
2.0,0.12769
2.004,0.1008
2.008,0.11241
2.012,0.11685
2.016,0.06783
2.02,0.08772
2.024,0.06299
2.028,0.06875
2.032,0.03832
2.036,0.01895
2.04,0.02505
2.044,0.03997
2.048,0.02999
2.052,0.03533
2.056,0.03055
2.06,0.03901
2.064,0.04767
2.068,-0.00019
2.072,0.02726
2.076,0.02694
2.08,0.01221
2.084,0.0129
2.088,0.01801
2.092,0.01387
2.096,0.01799
2.1,-0.02936
2.104,-0.01741
2.108,0.01667
2.112,0.01859
2.116,0.0447
2.12,-0.00095
2.124,0.02117
2.128,-0.01848
2.132,0.0148
2.136,0.00887
2.14,0.01235
2.144,0.02959
2.148,0.00968
2.152,0.00204
2.156,-0.03204
2.16,0.03039
2.164,-0.00209
2.168,0.02347
2.172,-0.01254
2.176,0.02374
2.18,-0.00124
2.184,0.0345
2.188,0.0312
2.192,0.02707
2.196,0.0476
2.2,0.03706
2.204,0.05937
2.208,0.08035
2.212,0.11786
2.216,0.10281
2.22,0.10702
2.224,0.08332
2.228,0.12726
2.232,0.11585
2.236,0.1031
2.24,0.1215
2.244,0.07011
2.248,0.05885
2.252,0.06586
2.256,0.04284
2.26,0.05927
2.264,0.02964
2.268,0.0389
2.272,0.05338
2.276,0.03061
2.28,0.02234
2.284,0.03353
2.288,0.01214
2.292,0.016
2.296,-0.00922
2.3,0.01942
2.304,0.02362
2.308,-0.02207
2.312,0.02797
2.316,0.00096
2.32,0.00177
2.324,0.00352
2.328,-0.01299
2.332,0.04892
2.336,-0.01538
2.34,0.00531
2.344,-0.00567
2.348,-0.06106
2.352,-0.09948
2.356,-0.07703
2.36,-0.01575
2.364,0.07464
2.368,0.26653
2.372,0.46058
2.376,0.6638
2.38,0.86548
2.384,0.99233
2.388,1.00496
2.392,0.91944
2.396,0.74712
2.4,0.51254
2.404,0.27613
2.408,0.07537
2.412,-0.05449
2.416,-0.1209
2.42,-0.13743
2.424,-0.12015
2.428,-0.10225
2.432,-0.07073
2.436,-0.02066
2.44,-0.00884
2.444,-0.01407
2.448,0.02261
2.452,0.00447
2.456,0.02717
2.46,0.03036
2.464,0.02213
2.468,0.01663
2.472,0.03195
2.476,0.04004
2.48,-0.00578
2.484,0.02837
2.488,0.01794
2.492,0.02168
2.496,0.02276
2.5,-0.00648
2.504,0.02594
2.508,0.00344
2.512,0.03164
2.516,0.0035
2.52,0.0431
2.524,-0.01439
2.528,0.03269
2.532,0.00222
2.536,0.01595
2.54,0.02821
2.544,0.03106
2.548,0.03444
2.552,0.01785
2.556,0.06231
2.56,0.02648
2.564,0.01757
2.568,0.04721
2.572,0.01139
2.576,0.07197
2.58,0.01395
2.584,0.1045
2.588,0.07399
2.592,0.07807
2.596,0.07453
2.6,0.08541
2.604,0.07364
2.608,0.10524
2.612,0.14364
2.616,0.13127
2.62,0.16473
2.624,0.16829
2.628,0.16209
2.632,0.16264
2.636,0.20227
2.64,0.18623
2.644,0.20841
2.648,0.2097
2.652,0.26205
2.656,0.24674
2.66,0.23863
2.664,0.23809
2.668,0.22394
2.672,0.25354
2.676,0.23372
2.68,0.22728
2.684,0.22713
2.688,0.22091
2.692,0.22546
2.696,0.16143
2.7,0.18793
2.704,0.16718
2.708,0.16515
2.712,0.17627
2.716,0.13953
2.72,0.10778
2.724,0.11748
2.728,0.0993
2.732,0.10758
2.736,0.10467
2.74,0.08503
2.744,0.06349
2.748,0.05976
2.752,0.07763
2.756,0.05608
2.76,0.07415
2.764,0.03646
2.768,0.0388
2.772,0.02098
2.776,0.02559
2.78,0.02229
2.784,0.02505
2.788,0.01357
2.792,0.0426
2.796,0.03294
2.8,0.02755
2.804,0.02673
2.808,0.01134
2.812,0.01749
2.816,0.04771
2.82,0.00215
2.824,0.01533
2.828,0.02496
2.832,0.02815
2.836,0.02267
2.84,0.03697
2.844,0.00203
2.848,0.03481
2.852,0.02641
2.856,0.01334
2.86,0.00931
2.864,0.04938
2.868,0.02439
2.872,0.02499
2.876,0.02609
2.88,0.0265
2.884,0.04163
2.888,-0.00814
2.892,0.01412
2.896,0.03393
2.9,0.04785
2.904,0.01548
2.908,0.02633
2.912,0.0171
2.916,0.03087
2.92,0.0343
2.924,0.01595
2.928,0.0272
2.932,0.03028
2.936,0.02236
2.94,0.01741
2.944,0.01243
2.948,0.04286
2.952,0.02645
2.956,-0.00647
2.96,0.01488
2.964,0.02002
2.968,0.04796
2.972,0.03415
2.976,0.03195
2.98,0.01344
2.984,0.07794
2.988,0.07465
2.992,0.05003
2.996,0.08332
3.0,0.06967
3.004,0.0833
3.008,0.08705
3.012,0.11276
3.016,0.10903
3.02,0.10256
3.024,0.12805
3.028,0.13544
3.032,0.14292
3.036,0.12673
3.04,0.07869
3.044,0.09573
3.048,0.07993
3.052,0.06001
3.056,0.04703
3.06,0.05367
3.064,0.05262
3.068,0.06531
3.072,0.03234
3.076,0.0415
3.08,0.03753
3.084,0.04356
3.088,0.02594
3.092,0.01266
3.096,0.02896
3.1,0.02055
3.104,0.04727
3.108,0.026
3.112,0.0419
3.116,0.02268
3.12,0.03238
3.124,0.02575
3.128,0.02684
3.132,-0.00095
3.136,0.01932
3.14,0.00939
3.144,-0.03623
3.148,-0.05554
3.152,-0.09196
3.156,-0.08722
3.16,0.01042
3.164,0.18039
3.168,0.35286
3.172,0.55998
3.176,0.77687
3.18,0.94264
3.184,1.01511
3.188,0.99794
3.192,0.84918
3.196,0.6665
3.2,0.44089
3.204,0.20451
3.208,0.01878
3.212,-0.10526
3.216,-0.13195
3.22,-0.13256
3.224,-0.09726
3.228,-0.06535
3.232,-0.01392
3.236,0.0064
3.24,0.0403
3.244,0.03069
3.248,0.01527
3.252,0.02672
3.256,0.04361
3.26,0.04835
3.264,0.03562
3.268,0.03747
3.272,0.01425
3.276,0.02354
3.28,0.02561
3.284,0.01467
3.288,0.04352
3.292,0.04494
3.296,0.04019
3.3,0.0495
3.304,0.03666
3.308,0.02158
3.312,0.03121
3.316,-0.00741
3.32,0.03363
3.324,0.04563
3.328,0.02109
3.332,0.03906
3.336,0.03455
3.34,0.03053
3.344,0.0301
3.348,0.03942
3.352,0.03704
3.356,0.03886
3.36,0.04857
3.364,0.05372
3.368,0.04333
3.372,0.06768
3.376,0.05391
3.38,0.05405
3.384,0.0757
3.388,0.07126
3.392,0.09208
3.396,0.06602
3.4,0.11994
3.404,0.12615
3.408,0.12742
3.412,0.13649
3.416,0.15338
3.42,0.19021
3.424,0.19726
3.428,0.22369
3.432,0.20744
3.436,0.21885
3.44,0.21336
3.444,0.22695
3.448,0.2455
3.452,0.23536
3.456,0.25004
3.46,0.26288
3.464,0.23944
3.468,0.24421
3.472,0.23952
3.476,0.25472
3.48,0.24529
3.484,0.25419
3.488,0.20811
3.492,0.20431
3.496,0.20834
3.5,0.18334
3.504,0.17979
3.508,0.15909
3.512,0.14182
3.516,0.1122
3.52,0.1511
3.524,0.1472
3.528,0.11559
3.532,0.10157
3.536,0.10053
3.54,0.06896
3.544,0.06637
3.548,0.06749
3.552,0.07159
3.556,0.04776
3.56,0.03315
3.564,0.04616
3.568,0.05314
3.572,0.04336
3.576,0.05865
3.58,0.04646
3.584,0.03027
3.588,0.02092
3.592,0.04407
3.596,0.0481
3.6,0.01802
3.604,0.0198
3.608,0.01401
3.612,0.00852
3.616,0.00512
3.62,0.02789
3.624,0.00359
3.628,0.02403
3.632,-0.01741
3.636,0.03559
3.64,0.02866
3.644,0.06994
3.648,0.03965
3.652,0.03724
3.656,0.02132
3.66,0.01272
3.664,0.03259
3.668,0.01459
3.672,0.03199
3.676,0.04396
3.68,0.03124
3.684,0.04952
3.688,-0.00567
3.692,0.03561
3.696,0.00147
3.7,0.02381
3.704,0.04634
3.708,0.02454
3.712,0.02399
3.716,0.05454
3.72,0.03019
3.724,0.04466
3.728,0.00327
3.732,0.01831
3.736,0.0335
3.74,0.024
3.744,0.03515
3.748,0.04478
3.752,0.02045
3.756,0.03681
3.76,0.00462
3.764,-0.00162
3.768,-0.01331
3.772,0.0019
3.776,0.01263
3.78,0.04407
3.784,0.04512
3.788,0.008
3.792,0.04378
3.796,0.0062
3.8,0.0095
3.804,0.0774
3.808,0.04526
3.812,0.05045
3.816,0.02114
3.82,0.03981
3.824,0.04844
3.828,0.03128
3.832,0.01485
3.836,0.0227
3.84,0.02123
3.844,0.04736
3.848,0.0312
3.852,0.02311
3.856,0.00906
3.86,0.03845
3.864,0.03435
3.868,0.04449
3.872,0.03518
3.876,0.03627
3.88,0.01708
3.884,0.03171
3.888,0.04434
3.892,-0.00374
3.896,0.06798
3.9,0.05888
3.904,0.03831
3.908,0.00836
3.912,0.05237
3.916,0.02319
3.92,0.06146
3.924,0.0782
3.928,0.09659
3.932,0.11283
3.936,0.09982
3.94,0.12586
3.944,0.12245
3.948,0.09224
3.952,0.12586
3.956,0.10696
3.96,0.10538
3.964,0.08242
3.968,0.07954
3.972,0.08655
3.976,0.06346
3.98,0.03384
3.984,0.06224
3.988,0.05814
3.992,0.00661
3.996,0.04298
4.0,0.02038
4.004,0.03061
4.008,0.03328
4.012,0.03073
4.016,0.01776
4.02,-0.00235
4.024,0.03004
4.028,-0.00343
4.032,0.01809
4.036,0.01556
4.04,0.06776
4.044,0.01316
4.048,0.0265
4.052,0.03911
4.056,0.03622
4.06,0.03598
4.064,-0.03273
4.068,-0.04033
4.072,-0.12192
4.076,-0.09746
4.08,-0.03806
4.084,0.03844
4.088,0.22303
4.092,0.41601
4.096,0.63364
4.1,0.8537
4.104,0.96663
4.108,1.01266
4.112,0.93016
4.116,0.82036
4.12,0.58751
4.124,0.31941
4.128,0.12577
4.132,-0.03596
4.136,-0.12266
4.14,-0.13585
4.144,-0.13811
4.148,-0.11464
4.152,-0.05865
4.156,-0.00041
4.16,-0.005
4.164,0.00087
4.168,-0.00993
4.172,0.01516
4.176,0.00982
4.18,0.01673
4.184,0.04113
4.188,0.00082
4.192,0.03044
4.196,0.03694
4.2,0.02351
4.204,-0.00055
4.208,-0.00246
4.212,0.04544
4.216,0.02686
4.22,0.02293
4.224,0.03543
4.228,0.03411
4.232,0.01809
4.236,0.02063
4.24,0.04092
4.244,0.02448
4.248,0.04017
4.252,0.01494
4.256,0.00933
4.26,0.04289
4.264,0.00762
4.268,0.03232
4.272,0.02293
4.276,0.03274
4.28,0.06224
4.284,0.05136
4.288,0.02356
4.292,0.06248
4.296,0.04427
4.3,0.04736
4.304,0.06814
4.308,0.06641
4.312,0.09208
4.316,0.06544
4.32,0.10251
4.324,0.11708
4.328,0.11661
4.332,0.14691
4.336,0.13704
4.34,0.16768
4.344,0.14131
4.348,0.18835
4.352,0.17296
4.356,0.16609
4.36,0.21611
4.364,0.23044
4.368,0.22671
4.372,0.2361
4.376,0.2489
4.38,0.23588
4.384,0.23884
4.388,0.24063
4.392,0.24963
4.396,0.23207
4.4,0.25494
4.404,0.20269
4.408,0.22793
4.412,0.2111
4.416,0.22024
4.42,0.18214
4.424,0.18774
4.428,0.16882
4.432,0.1497
4.436,0.13093
4.44,0.12489
4.444,0.11976
4.448,0.13841
4.452,0.10101
4.456,0.06442
4.46,0.07342
4.464,0.05718
4.468,0.067
4.472,0.01984
4.476,0.06458
4.48,0.02762
4.484,0.02665
4.488,0.06097
4.492,0.03173
4.496,0.02426
4.5,0.02097
4.504,0.03345
4.508,-0.0077
4.512,-0.00628
4.516,0.01031
4.52,0.02273
4.524,0.03632
4.528,0.03005
4.532,-0.00526
4.536,-0.00402
4.54,0.01756
4.544,0.03477
4.548,0.01304
4.552,0.01176
4.556,0.03425
4.56,-0.00149
4.564,0.03967
4.568,0.02463
4.572,0.00708
4.576,0.00685
4.58,0.00787
4.584,0.00197
4.588,-0.00167
4.592,0.02687
4.596,0.01158
4.6,-0.01725
4.604,0.01585
4.608,0.02546
4.612,0.01125
4.616,-0.00041
4.62,-0.01294
4.624,0.02554
4.628,-0.00137
4.632,0.0218
4.636,0.03307
4.64,0.0149
4.644,0.00846
4.648,0.0405
4.652,0.01234
4.656,0.06166
4.66,0.08468
4.664,0.07085
4.668,0.08114
4.672,0.11751
4.676,0.1033
4.68,0.11136
4.684,0.11031
4.688,0.07382
4.692,0.09428
4.696,0.07818
4.7,0.06804
4.704,0.04456
4.708,0.08716
4.712,0.05999
4.716,0.04687
4.72,0.01714
4.724,0.00632
4.728,0.00565
4.732,0.03568
4.736,0.02915
4.74,0.00048
4.744,0.00282
4.748,0.00294
4.752,0.00894
4.756,0.00661
4.76,-0.02011
4.764,0.02932
4.768,0.00857
4.772,0.02309
4.776,0.00811
4.78,0.02012
4.784,0.01128
4.788,0.00703
4.792,0.01141
4.796,-0.02792
4.8,-0.07006
4.804,-0.09274
4.808,-0.11367
4.812,-0.06855
4.816,0.02086
4.82,0.17238
4.824,0.37326
4.828,0.61441
4.832,0.7971
4.836,0.95432
4.84,1.02716
4.844,0.98369
4.848,0.80271
4.852,0.59577
4.856,0.35942
4.86,0.13681
4.864,-0.02459
4.868,-0.11263
4.872,-0.16651
4.876,-0.13545
4.88,-0.12096
4.884,-0.07272
4.888,-0.04188
4.892,-0.01048
4.896,0.00154
4.9,0.01557
4.904,0.01387
4.908,-0.01673
4.912,-0.01004
4.916,0.0428
4.92,0.01473
4.924,-0.00908
4.928,0.01787
4.932,0.00366
4.936,-0.00278
4.94,0.01935
4.944,0.01979
4.948,0.03635
4.952,0.00111
4.956,-0.01365
4.96,0.0155
4.964,0.05605
4.968,0.01313
4.972,-0.01083
4.976,-0.00599
4.98,-0.00957
4.984,0.01874
4.988,-0.00112
4.992,0.00857
4.996,-0.00014
5.0,-0.01312
5.004,0.02966
5.008,0.00668
5.012,0.01846
5.016,0.01065
5.02,0.00826
5.024,0.00325
5.028,0.03447
5.032,0.03807
5.036,0.04492
5.04,0.0485
5.044,0.03823
5.048,0.05513
5.052,0.06103
5.056,0.07537
5.06,0.09901
5.064,0.09171
5.068,0.08978
5.072,0.12353
5.076,0.13892
5.08,0.13878
5.084,0.16276
5.088,0.15634
5.092,0.17491
5.096,0.17078
5.1,0.18166
5.104,0.20032
5.108,0.24326
5.112,0.2252
5.116,0.22431
5.12,0.2244
5.124,0.23819
5.128,0.1973
5.132,0.20127
5.136,0.20373
5.14,0.21547
5.144,0.21296
5.148,0.21406
5.152,0.1663
5.156,0.14841
5.16,0.16689
5.164,0.11892
5.168,0.11421
5.172,0.09027
5.176,0.08539
5.18,0.10089
5.184,0.06888
5.188,0.0746
5.192,0.07458
5.196,0.04288
5.2,0.06043
5.204,0.02321
5.208,0.02421
5.212,-0.0125
5.216,0.01826
5.22,0.0247
5.224,0.00097
5.228,0.01226
5.232,-0.00958
5.236,0.02383
5.24,-0.02063
5.244,0.01657
5.248,0.03393
5.252,-0.00872
5.256,-0.01268
5.26,-0.00361
5.264,-0.00926
5.268,0.0013
5.272,0.00201
5.276,-0.01846
5.28,-0.00302
5.284,-0.00865
5.288,-0.01418
5.292,0.01768
5.296,-0.00418
5.3,0.01284
5.304,-0.01352
5.308,-0.01638
5.312,0.00291
5.316,0.00745
5.32,0.00787
5.324,-0.02359
5.328,-0.01288
5.332,0.00967
5.336,-0.02757
5.34,0.01313
5.344,0.00484
5.348,-0.02015
5.352,0.01394
5.356,0.01331
5.36,0.00976
5.364,0.02925
5.368,0.01481
5.372,0.04321
5.376,0.07441
5.38,0.0666
5.384,0.05853
5.388,0.08405
5.392,0.11092
5.396,0.07927
5.4,0.10052
5.404,0.09783
5.408,0.06564
5.412,0.05335
5.416,0.01489
5.42,0.03155
5.424,0.03602
5.428,-0.00234
5.432,0.00465
5.436,0.01233
5.44,0.00474
5.444,0.01206
5.448,0.00427
5.452,0.00046
5.456,0.00066
5.46,-0.02292
5.464,0.00144
5.468,-0.01818
5.472,-0.00261
5.476,0.01559
5.48,-0.0055
5.484,0.01112
5.488,-0.00776
5.492,-0.01212
5.496,-0.00945
5.5,0.00401
5.504,-0.03433
5.508,-0.02065
5.512,-0.07455
5.516,-0.09407
5.52,-0.12157
5.524,-0.11968
5.528,-0.0025
5.532,0.10288
5.536,0.29331
5.54,0.53018
5.544,0.73824
5.548,0.88647
5.552,0.98761
5.556,0.94216
5.56,0.82982
5.564,0.63731
5.568,0.42095
5.572,0.17034
5.576,0.00831
5.58,-0.15068
5.584,-0.17422
5.588,-0.17869
5.592,-0.16008
5.596,-0.12539
5.6,-0.07878
5.604,-0.05056
5.608,-0.02631
5.612,-0.02213
5.616,-0.00483
5.62,-0.02811
5.624,-0.02533
5.628,-0.00627
5.632,-0.00581
5.636,0.00466
5.64,-0.01497
5.644,-0.02965
5.648,-0.02172
5.652,-0.02497
5.656,0.00164
5.66,-0.02576
5.664,-0.04711
5.668,-0.00568
5.672,-0.02433
5.676,-0.02636
5.68,-0.02847
5.684,-0.02535
5.688,-0.01194
5.692,-0.00906
5.696,-0.00612
5.7,0.00337
5.704,-0.02163
5.708,-0.02937
5.712,-0.00037
5.716,-0.00206
5.72,-0.0084
5.724,0.00122
5.728,0.01247
5.732,0.00064
5.736,-0.00115
5.74,0.01514
5.744,0.01452
5.748,-9e-05
5.752,0.03984
5.756,0.03273
5.76,0.05583
5.764,0.03984
5.768,0.06859
5.772,0.06211
5.776,0.0915
5.78,0.07725
5.784,0.08213
5.788,0.10573
5.792,0.12387
5.796,0.12471
5.8,0.15018
5.804,0.19338
5.808,0.16103
5.812,0.2097
5.816,0.2017
5.82,0.20386
5.824,0.22589
5.828,0.21299
5.832,0.19597
5.836,0.17036
5.84,0.18977
5.844,0.19628
5.848,0.17884
5.852,0.17752
5.856,0.15644
5.86,0.19047
5.864,0.1604
5.868,0.145
5.872,0.12339
5.876,0.10692
5.88,0.10209
5.884,0.09187
5.888,0.07612
5.892,0.05949
5.896,0.08581
5.9,0.04847
5.904,0.06013
5.908,0.0318
5.912,0.02465
5.916,-0.00204
5.92,0.02321
5.924,0.02385
5.928,-0.01762
5.932,0.00686
5.936,-0.00635
5.94,0.02222
5.944,-0.01194
5.948,0.00088
5.952,0.0023
5.956,-0.0335
5.96,-0.0091
5.964,-0.02398
5.968,-0.03306
5.972,-0.02547
5.976,-0.0424
5.98,-0.01675
5.984,-0.00421
5.988,-0.0498
5.992,-0.05104
5.996,-0.03831
6.0,-0.00259
6.004,-0.02865
6.008,-0.04062
6.012,-0.01509
6.016,-0.01148
6.02,-0.02048
6.024,-0.03252
6.028,-0.04008
6.032,-0.02075
6.036,-0.029
6.04,-0.02666
6.044,-0.02056
6.048,-0.04101
6.052,-0.04443
6.056,-0.02613
6.06,-0.02481
6.064,-0.03602
6.068,-0.05194
6.072,-0.0282
6.076,-0.03952
6.08,-0.03237
6.084,-0.04025
6.088,-0.03737
6.092,-0.03158
6.096,-0.01635
6.1,0.00727
6.104,-0.00127
6.108,0.03155
6.112,0.00703
6.116,0.03731
6.12,0.04187
6.124,0.04439
6.128,0.05844
6.132,0.07627
6.136,0.0721
6.14,0.06383
6.144,0.08681
6.148,0.08793
6.152,0.05869
6.156,0.05275
6.16,0.04406
6.164,0.01874
6.168,-0.0014
6.172,-0.02036
6.176,0.01322
6.18,-0.01322
6.184,-0.01621
6.188,-0.03564
6.192,-0.00925
6.196,-0.04066
6.2,0.00162
6.204,-0.02715
6.208,-0.03527
6.212,-0.04021
6.216,-0.00242
6.22,-0.04605
6.224,-0.0262
6.228,-0.03474
6.232,-0.0412
6.236,-0.01162
6.24,-0.05418
6.244,-0.01911
6.248,-0.0345
6.252,-0.06786
6.256,-0.10591
6.26,-0.0937
6.264,-0.13712
6.268,-0.13483
6.272,-0.05201
6.276,0.08362
6.28,0.2544
6.284,0.51623
6.288,0.71573
6.292,0.87004
6.296,0.95981
6.3,0.9468
6.304,0.80621
6.308,0.59967
6.312,0.37879
6.316,0.17725
6.32,0.00066
6.324,-0.16441
6.328,-0.19525
6.332,-0.20599
6.336,-0.17554
6.34,-0.11834
6.344,-0.0762
6.348,-0.06822
6.352,-0.04895
6.356,-0.00796
6.36,-0.03917
6.364,-0.03505
6.368,-0.03777
6.372,-0.01673
6.376,-0.03944
6.38,-0.01229
6.384,-0.02042
6.388,-0.04382
6.392,-0.00035
6.396,-0.03808
6.4,-0.03794
6.404,-0.05197
6.408,-0.02782
6.412,-0.06109
6.416,-0.02523
6.42,0.00369
6.424,-0.02129
6.428,-0.02604
6.432,-0.03312
6.436,-0.03307
6.44,-0.01156
6.444,-0.02061
6.448,0.00408
6.452,-0.02055
6.456,-0.0181
6.46,-0.02427
6.464,-0.0049
6.468,0.00396
6.472,0.00966
6.476,0.01496
6.48,-0.01596
6.484,-0.02519
6.488,-0.01398
6.492,0.00378
6.496,0.01534
6.5,0.02791
6.504,0.01721
6.508,0.04274
6.512,0.03991
6.516,0.06885
6.52,0.07118
6.524,0.08174
6.528,0.10188
6.532,0.12081
6.536,0.1196
6.54,0.13271
6.544,0.15282
6.548,0.16345
6.552,0.16338
6.556,0.15792
6.56,0.1647
6.564,0.20048
6.568,0.18505
6.572,0.21099
6.576,0.18351
6.58,0.20075
6.584,0.17249
6.588,0.16284
6.592,0.19356
6.596,0.17444
6.6,0.16158
6.604,0.149
6.608,0.15918
6.612,0.12039
6.616,0.14439
6.62,0.07326
6.624,0.10729
6.628,0.1013
6.632,0.09316
6.636,0.06133
6.64,0.05309
6.644,0.0523
6.648,0.04613
6.652,0.02502
6.656,0.02032
6.66,0.00537
6.664,-0.01523
6.668,0.00244
6.672,0.0106
6.676,0.02444
6.68,-0.0105
6.684,0.01357
6.688,-0.03213
6.692,-0.00692
6.696,0.00806
6.7,-0.04895
6.704,-0.03689
6.708,-0.03003
6.712,-0.04398
6.716,-0.00698
6.72,-0.05737
6.724,-0.02108
6.728,-0.0164
6.732,-0.05922
6.736,-0.0127
6.74,-0.02937
6.744,-0.04428
6.748,-0.00107
6.752,-0.02834
6.756,-0.05033
6.76,-0.06284
6.764,-0.03539
6.768,-0.0289
6.772,-0.02175
6.776,-0.04573
6.78,-0.02666
6.784,-0.0413
6.788,-0.00481
6.792,-0.02678
6.796,-0.02752
6.8,-0.02225
6.804,-0.03768
6.808,-0.03083
6.812,-0.00885
6.816,-0.03404
6.82,-0.03061
6.824,-0.02011
6.828,-0.04169
6.832,-0.03364
6.836,-0.06693
6.84,-0.03241
6.844,-0.03974
6.848,-0.00363
6.852,-0.00421
6.856,-0.05321
6.86,-0.04648
6.864,-0.0324
6.868,-0.02892
6.872,-0.02835
6.876,-0.00519
6.88,-0.01715
6.884,-0.02026
6.888,-0.02982
6.892,-0.00064
6.896,0.0044
6.9,-0.03982
6.904,-0.02575
6.908,-0.01294
6.912,-0.03444
6.916,-0.03038
6.92,-0.05197
6.924,-0.03961
6.928,-0.04023
6.932,-0.03063
6.936,-0.0446
6.94,-0.01628
6.944,-0.04389
6.948,-0.01501
6.952,-0.04069
6.956,-0.02985
6.96,-0.02734
6.964,-0.01583
6.968,-0.06139
6.972,-0.04294
6.976,-0.04263
6.98,-0.0172
6.984,-0.03517
6.988,-0.04209
6.992,-0.0235
6.996,-0.05749
7.0,-0.02909
7.004,-0.0373
7.008,-0.02658
7.012,-0.03489
7.016,-0.03553
7.02,0.00203
7.024,0.00119
7.028,-0.00896
7.032,0.01901
7.036,0.01957
7.04,0.03825
7.044,0.07686
7.048,0.06085
7.052,0.0655
7.056,0.0567
7.06,0.06869
7.064,0.04436
7.068,0.03581
7.072,0.06294
7.076,0.0415
7.08,0.01426
7.084,0.00436
7.088,0.00626
7.092,-0.0243
7.096,-0.01578
7.1,9e-05
7.104,-0.05711
7.108,-0.01388
7.112,-0.017
7.116,0.01367
7.12,-0.02058
7.124,-0.02412
7.128,-0.03412
7.132,-0.02604
7.136,-0.02941
7.14,-0.0304
7.144,-0.02896
7.148,-0.03077
7.152,-0.03294
7.156,-0.03011
7.16,-0.00863
7.164,-0.03446
7.168,-0.01453
7.172,-0.07477
7.176,-0.09043
7.18,-0.11191
7.184,-0.14527
7.188,-0.14648
7.192,-0.02858
7.196,0.13386
7.2,0.34162
7.204,0.53982
7.208,0.72608
7.212,0.89093
7.216,0.95462
7.22,0.91919
7.224,0.81242
7.228,0.57069
7.232,0.34184
7.236,0.12454
7.24,-0.05165
7.244,-0.17073
7.248,-0.18707
7.252,-0.189
7.256,-0.14203
7.26,-0.10911
7.264,-0.0493
7.268,-0.05146
7.272,-0.04348
7.276,0.00394
7.28,-0.03443
7.284,-0.00806
7.288,-0.04772
7.292,-0.02486
7.296,-0.01969
7.3,-0.02273
7.304,-0.01222
7.308,-0.02027
7.312,-0.03864
7.316,-0.00796
7.32,-0.02054
7.324,-0.05223
7.328,-0.0203
7.332,-0.03186
7.336,-0.01929
7.34,-0.03469
7.344,-0.03917
7.348,-0.0036
7.352,0.00145
7.356,0.00543
7.36,-0.01693
7.364,-0.01509
7.368,-0.01904
7.372,0.00119
7.376,-0.0194
7.38,-0.01005
7.384,-0.0399
7.388,-0.02996
7.392,-0.00541
7.396,0.01154
7.4,-0.02083
7.404,-0.00926
7.408,0.02484
7.412,0.01025
7.416,0.00813
7.42,0.03598
7.424,0.04433
7.428,0.0552
7.432,0.06081
7.436,0.04664
7.44,0.06199
7.444,0.09578
7.448,0.09689
7.452,0.09144
7.456,0.1247
7.46,0.15503
7.464,0.15272
7.468,0.15222
7.472,0.16866
7.476,0.16862
7.48,0.1863
7.484,0.22527
7.488,0.18441
7.492,0.17188
7.496,0.20695
7.5,0.18423
7.504,0.17199
7.508,0.1667
7.512,0.18668
7.516,0.14578
7.52,0.16337
7.524,0.16157
7.528,0.15247
7.532,0.13893
7.536,0.14487
7.54,0.10896
7.544,0.11624
7.548,0.08953
7.552,0.06983
7.556,0.06569
7.56,0.03188
7.564,0.05214
7.568,0.05772
7.572,0.02997
7.576,0.01269
7.58,0.03057
7.584,-0.00319
7.588,-0.00741
7.592,0.00692
7.596,0.011
7.6,-0.0176
7.604,0.00807
7.608,-0.01506
7.612,-0.02355
7.616,0.00753
7.62,0.00368
7.624,-0.00767
7.628,-0.01363
7.632,-0.00377
7.636,-0.03555
7.64,-0.04939
7.644,-0.01905
7.648,-0.03339
7.652,-0.02032
7.656,-0.01132
7.66,-0.00142
7.664,-0.01899
7.668,-0.02857
7.672,-0.01522
7.676,-0.02536
7.68,-0.01328
7.684,-0.01379
7.688,-0.00237
7.692,-0.02069
7.696,-0.04209
7.7,-0.01428
7.704,0.00482
7.708,-0.02283
7.712,-0.03622
7.716,-0.01678
7.72,-0.00501
7.724,-0.0271
7.728,-0.02578
7.732,-0.02369
7.736,-0.05052
7.74,-0.04368
7.744,-0.02294
7.748,-0.03447
7.752,-0.02619
7.756,-0.03007
7.76,-0.01606
7.764,-0.04428
7.768,-0.00572
7.772,-0.00884
7.776,-0.01744
7.78,0.00097
7.784,-0.01816
7.788,-0.02059
7.792,0.01195
7.796,-0.03167
7.8,-0.03554
7.804,-0.01178
7.808,-0.01205
7.812,0.00281
7.816,0.00921
7.82,-0.02556
7.824,-0.0236
7.828,-0.01443
7.832,0.00166
7.836,-0.0058
7.84,0.02317
7.844,-0.02263
7.848,-0.02845
7.852,0.00728
7.856,-0.00734
7.86,-0.01545
7.864,0.00343
7.868,-0.0306
7.872,0.0071
7.876,0.03514
7.88,0.0333
7.884,0.05418
7.888,0.07843
7.892,0.07686
7.896,0.083
7.9,0.10124
7.904,0.09847
7.908,0.10735
7.912,0.08588
7.916,0.06984
7.92,0.04942
7.924,0.06057
7.928,0.03915
7.932,0.00484
7.936,0.01504
7.94,0.01443
7.944,-0.01419
7.948,-0.00487
7.952,-0.01949
7.956,-0.01557
7.96,-0.03631
7.964,0.01406
7.968,-0.03095
7.972,-0.00982
7.976,-0.01295
7.98,-0.03806
7.984,-0.00835
7.988,-0.00595
7.992,0.00104
7.996,0.00875
8.0,-0.01517
8.004,-0.02978
8.008,-0.00342
8.012,-0.03389
8.016,-0.03664
8.02,-0.04595
8.024,-0.06057
8.028,-0.10727
8.032,-0.12633
8.036,-0.06469
8.04,0.0217
8.044,0.20447
8.048,0.37023
8.052,0.60666
8.056,0.80828
8.06,0.93251
8.064,0.98263
8.068,0.92697
8.072,0.79188
8.076,0.54083
8.08,0.3215
8.084,0.11147
8.088,-0.06511
8.092,-0.1398
8.096,-0.16457
8.1,-0.16066
8.104,-0.12129
8.108,-0.0717
8.112,-0.06255
8.116,-0.02035
8.12,-0.02584
8.124,-0.00614
8.128,0.00447
8.132,-0.01769
8.136,-0.0016
8.14,-0.03308
8.144,-0.00536
8.148,-0.04352
8.152,-0.0151
8.156,-0.02706
8.16,-0.01853
8.164,-0.04106
8.168,-0.02419
8.172,-0.00722
8.176,0.01373
8.18,-0.00437
8.184,-0.0017
8.188,0.00683
8.192,0.0063
8.196,-0.00543
8.2,-0.01804
8.204,-0.01091
8.208,0.00558
8.212,-0.0084
8.216,-0.02437
8.22,-0.00267
8.224,-0.01661
8.228,0.01807
8.232,0.00033
8.236,0.01076
8.24,0.02495
8.244,0.01718
8.248,0.03119
8.252,0.0267
8.256,0.03078
8.26,0.02391
8.264,0.03977
8.268,0.07734
8.272,0.04753
8.276,0.0626
8.28,0.07507
8.284,0.08451
8.288,0.12404
8.292,0.07895
8.296,0.11422
8.3,0.16553
8.304,0.15281
8.308,0.15572
8.312,0.1626
8.316,0.16136
8.32,0.1922
8.324,0.18191
8.328,0.19625
8.332,0.19518
8.336,0.20105
8.34,0.21308
8.344,0.21086
8.348,0.21878
8.352,0.20533
8.356,0.18642
8.36,0.21149
8.364,0.20062
8.368,0.18121
8.372,0.1945
8.376,0.16563
8.38,0.16648
8.384,0.14115
8.388,0.12632
8.392,0.11754
8.396,0.10821
8.4,0.13761
8.404,0.07109
8.408,0.08578
8.412,0.07212
8.416,0.04915
8.42,0.03893
8.424,0.04696
8.428,0.03763
8.432,0.04217
8.436,0.02252
8.44,0.02047
8.444,-0.00021
8.448,-0.00537
8.452,0.03931
8.456,0.00539
8.46,-0.00537
8.464,-0.00111
8.468,0.02356
8.472,0.02717
8.476,-0.00028
8.48,-0.00118
8.484,0.00884
8.488,0.00248
8.492,-0.00815
8.496,0.00411
8.5,-0.02409
8.504,0.00789
8.508,0.01083
8.512,0.00041
8.516,-0.01134
8.52,0.02412
8.524,-0.0059
8.528,-0.01282
8.532,0.01087
8.536,0.00676
8.54,0.01397
8.544,0.00607
8.548,0.01278
8.552,0.02497
8.556,0.01008
8.56,0.05482
8.564,0.01883
8.568,0.01065
8.572,-0.00939
8.576,-0.00214
8.58,0.01558
8.584,0.02357
8.588,-0.0159
8.592,0.00282
8.596,0.00578
8.6,0.01842
8.604,0.01404
8.608,0.00973
8.612,0.018
8.616,-0.00985
8.62,0.01388
8.624,0.01143
8.628,0.01163
8.632,-0.01198
8.636,-0.00674
8.64,-0.02004
8.644,0.00407
8.648,0.00742
8.652,-0.00968
8.656,0.00296
8.66,0.02997
8.664,-0.00936
8.668,0.01446
8.672,0.01848
8.676,0.01426
8.68,0.01262
8.684,-0.01025
8.688,0.01471
8.692,-0.00029
8.696,0.03584
8.7,-0.0051
8.704,0.02178
8.708,0.01356
8.712,0.02876
8.716,0.01212
8.72,0.00772
8.724,0.00253
8.728,0.01816
8.732,0.02655
8.736,-0.01194
8.74,0.05039
8.744,0.02472
8.748,0.06161
8.752,0.05756
8.756,0.08417
8.76,0.10754
8.764,0.09756
8.768,0.09253
8.772,0.12323
8.776,0.1326
8.78,0.07461
8.784,0.07818
8.788,0.06982
8.792,0.07848
8.796,0.06522
8.8,0.07777
8.804,0.03101
8.808,0.05519
8.812,0.01023
8.816,0.00477
8.82,0.02108
8.824,0.03729
8.828,0.001
8.832,0.01712
8.836,0.01658
8.84,0.01779
8.844,0.0263
8.848,0.02653
8.852,0.00799
8.856,-0.0032
8.86,-0.00681
8.864,0.03596
8.868,0.01967
8.872,-0.00123
8.876,0.03122
8.88,0.01377
8.884,-0.00542
8.888,0.0119
8.892,-0.08271
8.896,-0.0821
8.9,-0.09803
8.904,-0.08509
8.908,0.01237
8.912,0.1481
8.916,0.34387
8.92,0.54944
8.924,0.76851
8.928,0.9201
8.932,1.00677
8.936,0.9741
8.94,0.86799
8.944,0.62785
8.948,0.40264
8.952,0.18154
8.956,0.02661
8.96,-0.08341
8.964,-0.14465
8.968,-0.15416
8.972,-0.14863
8.976,-0.06261
8.98,-0.03304
8.984,-0.01207
8.988,0.02441
8.992,0.01872
8.996,0.0171
9.0,0.02291
9.004,-0.00071
9.008,-0.01284
9.012,-0.00323
9.016,0.01688
9.02,0.04551
9.024,0.01476
9.028,0.00569
9.032,0.0199
9.036,0.01681
9.04,0.018
9.044,0.03201
9.048,0.02342
9.052,0.0396
9.056,0.01512
9.06,0.03651
9.064,0.01567
9.068,0.03648
9.072,0.02099
9.076,0.01658
9.08,0.01915
9.084,0.01656
9.088,0.03376
9.092,0.02169
9.096,-0.00653
9.1,0.03267
9.104,0.01106
9.108,0.02562
9.112,0.03465
9.116,0.0514
9.12,0.03825
9.124,0.06854
9.128,0.06578
9.132,0.0428
9.136,0.06332
9.14,0.08377
9.144,0.08566
9.148,0.09974
9.152,0.10844
9.156,0.12165
9.16,0.10496
9.164,0.14963
9.168,0.15505
9.172,0.17035
9.176,0.18176
9.18,0.18425
9.184,0.19725
9.188,0.21547
9.192,0.23988
9.196,0.23321
9.2,0.23301
9.204,0.25311
9.208,0.24228
9.212,0.24829
9.216,0.24167
9.22,0.22274
9.224,0.25894
9.228,0.24029
9.232,0.224
9.236,0.1896
9.24,0.21313
9.244,0.18742
9.248,0.20826
9.252,0.1693
9.256,0.15414
9.26,0.13246
9.264,0.14353
9.268,0.13818
9.272,0.15146
9.276,0.09719
9.28,0.12119
9.284,0.07067
9.288,0.07734
9.292,0.08457
9.296,0.06069
9.3,0.05263
9.304,0.0544
9.308,0.03274
9.312,0.04204
9.316,0.0353
9.32,0.05874
9.324,0.0522
9.328,0.04487
9.332,0.05063
9.336,0.01054
9.34,0.0015
9.344,0.04697
9.348,-0.00148
9.352,0.03176
9.356,0.00615
9.36,0.03165
9.364,0.02898
9.368,0.00758
9.372,0.04415
9.376,-0.00996
9.38,0.02194
9.384,0.03193
9.388,0.01517
9.392,0.02527
9.396,0.02915
9.4,0.02569
9.404,0.05062
9.408,0.03393
9.412,0.01104
9.416,0.03031
9.42,0.05376
9.424,0.03056
9.428,0.04225
9.432,0.03932
9.436,0.04678
9.44,0.01566
9.444,0.03884
9.448,0.03508
9.452,0.02793
9.456,0.00859
9.46,0.01636
9.464,0.04581
9.468,0.06086
9.472,0.06676
9.476,0.06004
9.48,0.07204
9.484,0.09215
9.488,0.09306
9.492,0.13674
9.496,0.10643
9.5,0.11969
9.504,0.1125
9.508,0.12399
9.512,0.09442
9.516,0.12461
9.52,0.10653
9.524,0.09193
9.528,0.05799
9.532,0.06502
9.536,0.07605
9.54,0.04747
9.544,0.03579
9.548,0.02047
9.552,0.03108
9.556,0.00839
9.56,0.03675
9.564,-0.01572
9.568,0.03593
9.572,0.03675
9.576,0.06716
9.58,0.0371
9.584,0.01314
9.588,0.01457
9.592,0.00332
9.596,0.04464
9.6,-0.00092
9.604,0.03505
9.608,0.02612
9.612,0.05715
9.616,0.012
9.62,-0.02473
9.624,-0.03091
9.628,-0.08082
9.632,-0.08033
9.636,-0.05604
9.64,0.03333
9.644,0.14961
9.648,0.35884
9.652,0.58158
9.656,0.80357
9.66,0.91879
9.664,1.05224
9.668,0.98777
9.672,0.85959
9.676,0.65965
9.68,0.43357
9.684,0.20965
9.688,0.02383
9.692,-0.106
9.696,-0.10273
9.7,-0.17592
9.704,-0.08876
9.708,-0.03217
9.712,-0.02848
9.716,-0.00323
9.72,0.02853
9.724,-0.00944
9.728,0.03896
9.732,0.0261
9.736,0.0115
9.74,0.02836
9.744,0.00834
9.748,0.04246
9.752,0.04442
9.756,0.04614
9.76,0.006
9.764,0.02091
9.768,0.00256
9.772,0.03031
9.776,0.06836
9.78,0.01711
9.784,0.05112
9.788,0.04406
9.792,0.04417
9.796,0.03496
9.8,0.03175
9.804,0.01592
9.808,0.01913
9.812,0.04245
9.816,0.00999
9.82,0.02073
9.824,0.02479
9.828,0.04433
9.832,0.04324
9.836,0.04081
9.84,0.02949
9.844,0.06625
9.848,0.05632
9.852,0.04561
9.856,0.07427
9.86,0.07401
9.864,0.05532
9.868,0.08995
9.872,0.08769
9.876,0.09047
9.88,0.09794
9.884,0.12394
9.888,0.1319
9.892,0.12846
9.896,0.14702
9.9,0.16066
9.904,0.17567
9.908,0.16727
9.912,0.18913
9.916,0.21112
9.92,0.22336
9.924,0.22863
9.928,0.20441
9.932,0.23726
9.936,0.2517
9.94,0.26902
9.944,0.25861
9.948,0.23292
9.952,0.22091
9.956,0.24041
9.96,0.21779
9.964,0.22624
9.968,0.19716
9.972,0.20297
9.976,0.19908
9.98,0.21647
9.984,0.16727
9.988,0.14811
9.992,0.14457
9.996,0.15304
