t_seg,ecg_mV
0.0,-0.06103
0.004,-0.06547
0.008,-0.01133
0.012,-0.0429
0.016,-0.01836
0.02,-0.00119
0.024,-0.03857
0.028,-0.03995
0.032,-0.00833
0.036,-0.02396
0.04,-0.06895
0.044,-0.02964
0.048,-0.05895
0.052,-0.04668
0.056,-0.01481
0.06,0.02946
0.064,0.00216
0.068,-0.0474
0.072,0.01886
0.076,0.02095
0.08,-0.01636
0.084,0.02139
0.088,-0.10338
0.092,-0.01648
0.096,-0.06966
0.1,-0.02281
0.104,0.00653
0.108,-0.01836
0.112,0.0162
0.116,-0.01498
0.12,-0.06069
0.124,-0.06133
0.128,-0.05748
0.132,0.04104
0.136,0.01804
0.14,-0.09277
0.144,-0.03643
0.148,-0.06422
0.152,0.0266
0.156,-0.00237
0.16,-0.00817
0.164,-0.04521
0.168,-0.07043
0.172,-0.05172
0.176,-0.0372
0.18,0.01487
0.184,-0.01519
0.188,0.02945
0.192,-0.03902
0.196,0.00159
0.2,0.00566
0.204,-0.06927
0.208,-0.01204
0.212,-0.05269
0.216,-0.03811
0.22,-0.01057
0.224,-0.00046
0.228,-0.02975
0.232,0.00602
0.236,0.00733
0.24,0.00864
0.244,-0.065
0.248,0.02516
0.252,0.03547
0.256,0.01285
0.26,-0.02746
0.264,-0.04452
0.268,-0.00299
0.272,0.00559
0.276,-0.05028
0.28,-0.00667
0.284,0.035
0.288,-0.08624
0.292,0.0218
0.296,-0.01055
0.3,0.01933
0.304,-0.03297
0.308,0.03805
0.312,0.03142
0.316,0.04699
0.32,0.11605
0.324,0.09727
0.328,0.0818
0.332,0.09415
0.336,0.05863
0.34,-0.02793
0.344,0.03855
0.348,0.06753
0.352,-0.01773
0.356,0.01174
0.36,-0.00159
0.364,0.05078
0.368,-0.01237
0.372,0.0509
0.376,-0.02182
0.38,-0.10936
0.384,-0.00933
0.388,-0.00658
0.392,0.01779
0.396,0.01528
0.4,0.01025
0.404,0.0291
0.408,-0.01702
0.412,-0.00706
0.416,-0.03005
0.42,-0.05774
0.424,-0.06108
0.428,0.00168
0.432,-0.01386
0.436,0.00888
0.44,-0.07877
0.444,-0.08019
0.448,-0.08474
0.452,-0.17674
0.456,-0.19556
0.46,-0.17764
0.464,0.00477
0.468,0.16124
0.472,0.31853
0.476,0.60255
0.48,0.76938
0.484,0.90782
0.488,0.99506
0.492,0.93314
0.496,0.80567
0.5,0.504
0.504,0.30819
0.508,0.12207
0.512,-0.05022
0.516,-0.16099
0.52,-0.15449
0.524,-0.18622
0.528,-0.04033
0.532,-0.13855
0.536,-0.02806
0.54,-0.02872
0.544,-0.00813
0.548,-0.02407
0.552,0.0155
0.556,-0.0733
0.56,-0.0194
0.564,-0.04699
0.568,-0.04672
0.572,-0.03136
0.576,-0.0265
0.58,-0.05934
0.584,-0.02787
0.588,-0.02468
0.592,-0.00555
0.596,-0.02301
0.6,-0.05788
0.604,-0.04229
0.608,-0.00998
0.612,-0.04875
0.616,-0.01967
0.62,-0.07713
0.624,-0.03371
0.628,-0.02272
0.632,-0.05204
0.636,-0.01766
0.64,-0.07215
0.644,-0.00783
0.648,-0.00853
0.652,-0.00635
0.656,0.03858
0.66,0.06845
0.664,0.00797
0.668,0.04667
0.672,-0.0353
0.676,0.00141
0.68,0.01744
0.684,0.00122
0.688,0.07755
0.692,-0.06649
0.696,0.00174
0.7,0.13312
0.704,0.02181
0.708,0.04705
0.712,0.12033
0.716,0.02612
0.72,0.20501
0.724,0.10117
0.728,0.14591
0.732,0.13446
0.736,0.12358
0.74,0.12391
0.744,0.2156
0.748,0.19893
0.752,0.11041
0.756,0.15498
0.76,0.17522
0.764,0.20608
0.768,0.17396
0.772,0.15096
0.776,0.15972
0.78,0.18268
0.784,0.13243
0.788,0.16469
0.792,0.14032
0.796,0.12396
0.8,0.11905
0.804,0.15951
0.808,0.13776
0.812,0.0325
0.816,0.06828
0.82,0.04175
0.824,0.04695
0.828,0.06413
0.832,0.06461
0.836,-0.01743
0.84,0.03511
0.844,0.00476
0.848,0.00704
0.852,0.05188
0.856,-0.02411
0.86,0.05772
0.864,-0.06229
0.868,-0.0578
0.872,0.02165
0.876,-0.00876
0.88,0.02097
0.884,-0.03346
0.888,0.05876
0.892,0.0421
0.896,0.01594
0.9,0.09817
0.904,0.07314
0.908,0.0556
0.912,0.05566
0.916,0.05085
0.92,0.06203
0.924,0.03501
0.928,0.08907
0.932,0.03363
0.936,-0.03577
0.94,-0.07067
0.944,0.00797
0.948,-0.01426
0.952,-0.00431
0.956,-0.01541
0.96,-0.06331
0.964,0.01768
0.968,-0.02706
0.972,-0.07162
0.976,-0.03557
0.98,-0.03895
0.984,-0.05752
0.988,-0.01824
0.992,-0.00059
0.996,-0.0812
1.0,-0.05165
1.004,0.01739
1.008,-0.04668
1.012,-0.12381
1.016,-0.05564
1.02,-0.03933
1.024,-0.07056
1.028,-0.10772
1.032,-0.12342
1.036,-0.18273
1.04,-0.07958
1.044,0.07602
1.048,0.24923
1.052,0.44506
1.056,0.69593
1.06,0.88291
1.064,0.94625
1.068,0.96646
1.072,0.83804
1.076,0.60546
1.08,0.48133
1.084,0.15358
1.088,0.02059
1.092,-0.14067
1.096,-0.17774
1.1,-0.16663
1.104,-0.14974
1.108,-0.15239
1.112,-0.13036
1.116,-0.02283
1.12,-0.05516
1.124,-0.08069
1.128,-0.03393
1.132,-0.0891
1.136,-0.05279
1.14,-0.06276
1.144,0.0478
1.148,-0.05539
1.152,-0.02465
1.156,-0.09589
1.16,-0.09243
1.164,0.01678
1.168,-0.04147
1.172,-0.02268
1.176,-0.06807
1.18,0.01369
1.184,0.00824
1.188,-0.04089
1.192,-0.05829
1.196,-0.07531
1.2,-0.10248
1.204,-0.08219
1.208,-0.0514
1.212,-0.0238
1.216,-0.01786
1.22,0.02702
1.224,-0.04771
1.228,-0.03333
1.232,-0.00733
1.236,-0.00709
1.24,-0.01233
1.244,-0.0122
1.248,-0.00732
1.252,-0.04164
1.256,-0.00712
1.26,-0.00941
1.264,0.03721
1.268,0.00906
1.272,0.06504
1.276,0.05346
1.28,0.04286
1.284,0.05867
1.288,0.10848
1.292,0.09692
1.296,0.03573
1.3,0.1018
1.304,0.09407
1.308,0.10676
1.312,0.13434
1.316,0.12957
1.32,0.19013
1.324,0.17105
1.328,0.1814
1.332,0.21408
1.336,0.15948
1.34,0.14398
1.344,0.1531
1.348,0.26167
1.352,0.1669
1.356,0.18226
1.36,0.1819
1.364,0.1743
1.368,0.1538
1.372,0.12005
1.376,0.12514
1.38,0.16508
1.384,0.10259
1.388,0.1474
1.392,0.06193
1.396,0.1003
1.4,0.16951
1.404,0.04417
1.408,0.08569
1.412,0.11119
1.416,-0.02484
1.42,0.04838
1.424,0.03942
1.428,-0.02346
1.432,0.04153
1.436,-0.00594
1.44,-0.04969
1.444,0.02821
1.448,0.02633
1.452,-0.03163
1.456,-0.04027
1.46,-0.04604
1.464,-0.06007
1.468,0.02216
1.472,-0.0512
1.476,-0.00216
1.48,-0.0347
1.484,-0.02106
1.488,0.02112
1.492,-0.037
1.496,-0.00959
1.5,0.01809
1.504,-0.01975
1.508,-0.00375
1.512,0.04205
1.516,-0.08874
1.52,0.00426
1.524,-0.06361
1.528,-0.06229
1.532,-0.03699
1.536,0.00458
1.54,-0.04304
1.544,-0.00732
1.548,-0.00955
1.552,-0.06799
1.556,-0.03537
1.56,0.01652
1.564,-0.0458
1.568,-0.03941
1.572,-0.02337
1.576,-0.12994
1.58,-0.07699
1.584,0.00078
1.588,-0.01861
1.592,-0.01998
1.596,-0.01596
1.6,-0.0315
1.604,-0.06924
1.608,0.02393
1.612,-0.03858
1.616,-0.01808
1.62,-0.03273
1.624,-0.07187
1.628,0.07894
1.632,-0.0281
1.636,-0.00888
1.64,0.03167
1.644,-0.04748
1.648,-0.07583
1.652,0.01901
1.656,-0.03761
1.66,-0.1189
1.664,-0.02832
1.668,-0.02757
1.672,0.00775
1.676,-0.04455
1.68,-0.00155
1.684,-0.05641
1.688,0.00494
1.692,0.0016
1.696,-0.02701
1.7,-0.01238
1.704,0.00429
1.708,-0.02
1.712,-0.03579
1.716,-0.02307
1.72,0.00037
1.724,0.00109
1.728,0.0068
1.732,-0.04081
1.736,0.02632
1.74,-0.00839
1.744,-0.00559
1.748,0.00062
1.752,-0.04628
1.756,0.0648
1.76,0.08507
1.764,0.09597
1.768,0.07999
1.772,0.07519
1.776,0.1103
1.78,0.12959
1.784,0.05914
1.788,0.00259
1.792,-0.00166
1.796,-0.00292
1.8,-0.01593
1.804,-0.011
1.808,-0.04371
1.812,-0.01987
1.816,-0.02842
1.82,-0.01339
1.824,-0.01348
1.828,0.00073
1.832,-0.05124
1.836,0.00896
1.84,0.02208
1.844,-0.04265
1.848,-0.03175
1.852,-0.01356
1.856,-0.01688
1.86,0.0117
1.864,-0.02027
1.868,-0.06235
1.872,-0.03965
1.876,-0.00365
1.88,-0.06887
1.884,-0.10924
1.888,-0.03144
1.892,-0.07574
1.896,-0.2439
1.9,-0.10493
1.904,-0.03265
1.908,0.07244
1.912,0.34578
1.916,0.58036
1.92,0.6835
1.924,0.95097
1.928,0.93657
1.932,0.95819
1.936,0.82888
1.94,0.57076
1.944,0.36659
1.948,0.18795
1.952,-0.02337
1.956,-0.15604
1.96,-0.16627
1.964,-0.23661
1.968,-0.14165
1.972,-0.106
1.976,-0.07047
1.98,-0.06049
1.984,-0.02452
1.988,-0.05235
1.992,0.02183
1.996,0.00582
2.0,-0.00289
2.004,-0.0094
2.008,-0.01588
2.012,-0.04969
2.016,0.0048
2.02,-0.04568
2.024,-0.04281
2.028,-0.01329
2.032,-0.04681
2.036,-0.04396
2.04,-0.05316
2.044,-0.07493
2.048,0.07109
2.052,-0.0091
2.056,-0.06522
2.06,0.01627
2.064,-0.02364
2.068,0.01337
2.072,-0.00492
2.076,0.00416
2.08,-0.06831
2.084,0.0385
2.088,-0.01215
2.092,0.06027
2.096,-0.01783
2.1,-0.02402
2.104,0.01599
2.108,0.0352
2.112,-0.00288
2.116,0.02562
2.12,-0.03774
2.124,0.01224
2.128,0.01302
2.132,0.05657
2.136,0.06701
2.14,0.05725
2.144,0.06163
2.148,0.07235
2.152,0.05484
2.156,0.11063
2.16,0.10467
2.164,0.1196
2.168,0.12193
2.172,0.1646
2.176,0.10306
2.18,0.17214
2.184,0.12559
2.188,0.17362
2.192,0.2134
2.196,0.18095
2.2,0.1796
2.204,0.23006
2.208,0.1786
2.212,0.25037
2.216,0.20625
2.22,0.18333
2.224,0.22377
2.228,0.22534
2.232,0.23386
2.236,0.12335
2.24,0.172
2.244,0.15853
2.248,0.12935
2.252,0.08267
2.256,0.15549
2.26,0.10237
2.264,0.143
2.268,0.07536
2.272,0.03525
2.276,0.06941
2.28,0.02084
2.284,0.03088
2.288,0.0843
2.292,0.05638
2.296,0.00864
2.3,0.02468
2.304,0.01058
2.308,0.00266
2.312,0.00062
2.316,-0.00144
2.32,-0.01923
2.324,-0.01841
2.328,-0.05839
2.332,0.03499
2.336,-0.02648
2.34,-0.03503
2.344,-0.0175
2.348,0.07
2.352,-0.0162
2.356,0.01354
2.36,0.05776
2.364,0.09644
2.368,0.06725
2.372,0.08851
2.376,0.08488
2.38,0.07088
2.384,0.08021
2.388,0.12367
2.392,0.02114
2.396,0.03973
2.4,0.06754
2.404,0.02476
2.408,0.02396
2.412,0.00958
2.416,0.04408
2.42,-0.0048
2.424,0.00108
2.428,0.0323
2.432,-0.00657
2.436,-0.06872
2.44,-0.02386
2.444,0.05609
2.448,-0.00984
2.452,0.03567
2.456,-0.01175
2.46,-0.00496
2.464,-0.02559
2.468,-0.04603
2.472,0.01965
2.476,0.05747
2.48,-0.04027
2.484,0.00424
2.488,0.02364
2.492,-0.05411
2.496,-0.02856
2.5,-0.04329
2.504,-0.12902
2.508,-0.17136
2.512,-0.14617
2.516,-0.00328
2.52,0.17172
2.524,0.34541
2.528,0.5221
2.532,0.78841
2.536,0.94622
2.54,1.0418
2.544,0.99177
2.548,0.83091
2.552,0.628
2.556,0.3808
2.56,0.13946
2.564,0.03518
2.568,-0.1079
2.572,-0.13961
2.576,-0.14289
2.58,-0.12411
2.584,0.0007
2.588,0.0071
2.592,-0.03374
2.596,-0.02417
2.6,-0.01948
2.604,0.05099
2.608,0.00908
2.612,0.00171
2.616,0.03762
2.62,0.08339
2.624,-0.02969
2.628,0.00656
2.632,0.04319
2.636,0.03206
2.64,0.04912
2.644,0.00778
2.648,0.01979
2.652,-0.01372
2.656,-0.00724
2.66,0.03577
2.664,0.09284
2.668,0.00933
2.672,-0.00174
2.676,0.04382
2.68,0.08774
2.684,0.10274
2.688,0.124
2.692,0.15294
2.696,0.05912
2.7,0.12099
2.704,0.04075
2.708,0.08346
2.712,0.05178
2.716,0.0502
2.72,0.06554
2.724,0.08471
2.728,0.0334
2.732,0.02097
2.736,0.02172
2.74,0.07547
2.744,0.10102
2.748,0.09568
2.752,0.08052
2.756,0.05001
2.76,0.12933
2.764,0.12279
2.768,0.15648
2.772,0.13773
2.776,0.066
2.78,0.17604
2.784,0.14847
2.788,0.16459
2.792,0.19824
2.796,0.15869
2.8,0.16564
2.804,0.17916
2.808,0.23553
2.812,0.17855
2.816,0.13994
2.82,0.10273
2.824,0.12
2.828,0.20026
2.832,0.29031
2.836,0.44935
2.84,0.73273
2.844,0.98861
2.848,1.10195
2.852,1.16772
2.856,1.12701
2.86,1.04511
2.864,0.87363
2.868,0.58827
2.872,0.3639
2.876,0.12153
2.88,-0.03027
2.884,-0.06588
2.888,-0.06739
2.892,-0.06233
2.896,-0.0501
2.9,-0.06174
2.904,0.0572
2.908,-0.01529
2.912,0.04528
2.916,0.06653
2.92,0.08765
2.924,-0.00013
2.928,0.03265
2.932,0.01404
2.936,-0.0362
2.94,0.00906
2.944,-0.00348
2.948,0.02421
2.952,-0.01842
2.956,0.02623
2.96,0.00147
2.964,0.01323
2.968,0.03217
2.972,0.02868
2.976,0.03298
2.98,-0.03431
2.984,0.01658
2.988,0.01146
2.992,0.04726
2.996,-0.03495
3.0,-0.01417
3.004,0.04771
3.008,-0.04372
3.012,-0.02281
3.016,0.02728
3.02,-0.00454
3.024,-0.04904
3.028,0.04084
3.032,0.0433
3.036,0.03458
3.04,0.02832
3.044,0.05923
3.048,0.0006
3.052,0.06726
3.056,0.03916
3.06,0.11502
3.064,0.1121
3.068,0.0638
3.072,0.05824
3.076,0.16034
3.08,0.11332
3.084,0.09268
3.088,0.1349
3.092,0.10176
3.096,0.15881
3.1,0.17901
3.104,0.22573
3.108,0.22807
3.112,0.14058
3.116,0.1985
3.12,0.27397
3.124,0.2346
3.128,0.20693
3.132,0.18946
3.136,0.20912
3.14,0.25948
3.144,0.21091
3.148,0.17109
3.152,0.19194
3.156,0.19739
3.16,0.1688
3.164,0.21135
3.168,0.19501
3.172,0.21558
3.176,0.14763
3.18,0.20013
3.184,0.17962
3.188,0.13298
3.192,0.13834
3.196,0.13016
3.2,0.11575
3.204,0.12267
3.208,0.09152
3.212,0.07724
3.216,0.08145
3.22,0.06202
3.224,0.1302
3.228,0.05729
3.232,0.09993
3.236,0.00101
3.24,0.0771
3.244,-0.02344
3.248,0.03432
3.252,-0.0302
3.256,0.01522
3.26,0.04282
3.264,-0.00754
3.268,-0.00309
3.272,-0.0115
3.276,-0.0466
3.28,-0.00439
3.284,0.05964
3.288,0.01993
3.292,-0.00672
3.296,0.03829
3.3,-0.03012
3.304,0.02288
3.308,0.05659
3.312,0.01361
3.316,0.09016
3.32,0.0826
3.324,0.00732
3.328,0.04849
3.332,0.06191
3.336,0.04345
3.34,0.07427
3.344,0.09139
3.348,-0.03694
3.352,0.13363
3.356,0.07881
3.36,0.03575
3.364,0.0497
3.368,0.11119
3.372,0.12
3.376,0.05783
3.38,0.10181
3.384,0.08699
3.388,0.13868
3.392,0.14782
3.396,0.07373
3.4,0.04929
3.404,0.11885
3.408,0.13745
3.412,0.08749
3.416,0.04554
3.42,0.015
3.424,0.06754
3.428,-0.01797
3.432,0.04281
3.436,0.05028
3.44,0.04795
3.444,-0.04729
3.448,0.01956
3.452,0.05625
3.456,-0.04481
3.46,0.00561
3.464,0.04108
3.468,0.04363
3.472,0.05734
3.476,0.00276
3.48,-0.0369
3.484,-0.00843
3.488,0.03913
3.492,0.02403
3.496,0.11261
3.5,-0.0384
3.504,-0.01469
3.508,-0.07142
3.512,0.00134
3.516,-0.03911
3.52,-0.07299
3.524,-0.03701
3.528,0.11261
3.532,0.25041
3.536,0.46972
3.54,0.76611
3.544,0.88189
3.548,1.00383
3.552,1.01205
3.556,0.90517
3.56,0.67852
3.564,0.50647
3.568,0.17979
3.572,0.08309
3.576,-0.0213
3.58,-0.1449
3.584,-0.12352
3.588,-0.09838
3.592,-0.05936
3.596,-0.08009
3.6,-0.05857
3.604,-0.0267
3.608,0.03653
3.612,0.00518
3.616,-0.02729
3.62,-0.01255
3.624,0.04625
3.628,-0.00556
3.632,0.01321
3.636,-0.01006
3.64,0.0401
3.644,0.01157
3.648,-0.0025
3.652,0.00301
3.656,-0.05598
3.66,-0.02534
3.664,0.08236
3.668,0.05302
3.672,0.02818
3.676,0.02774
3.68,0.08252
3.684,-0.00063
3.688,0.106
3.692,0.04486
3.696,-0.00564
3.7,0.01261
3.704,0.00131
3.708,0.0122
3.712,0.07846
3.716,0.04795
3.72,-0.00651
3.724,0.05641
3.728,0.06688
3.732,0.0231
3.736,0.0919
3.74,0.12765
3.744,-0.01215
3.748,0.09786
3.752,0.08645
3.756,0.07899
3.76,0.12745
3.764,0.09675
3.768,0.10519
3.772,0.12745
3.776,0.10642
3.78,0.1537
3.784,0.14144
3.788,0.15972
3.792,0.15539
3.796,0.19816
3.8,0.18218
3.804,0.18624
3.808,0.20982
3.812,0.22739
3.816,0.24561
3.82,0.25844
3.824,0.19568
3.828,0.2285
3.832,0.18672
3.836,0.2176
3.84,0.24706
3.844,0.26841
3.848,0.19576
3.852,0.25656
3.856,0.19393
3.86,0.22026
3.864,0.19023
3.868,0.20294
3.872,0.1557
3.876,0.09593
3.88,0.18356
3.884,0.14847
3.888,0.1392
3.892,0.10501
3.896,0.05953
3.9,0.05969
3.904,0.09297
3.908,0.11296
3.912,0.10622
3.916,0.03831
3.92,0.01784
3.924,0.08375
3.928,0.01927
3.932,0.0375
3.936,-0.01322
3.94,0.01477
3.944,0.00368
3.948,-0.00568
3.952,0.03039
3.956,0.0944
3.96,0.1355
3.964,0.0531
3.968,0.07754
3.972,0.01935
3.976,0.06106
3.98,0.01836
3.984,0.11127
3.988,0.1299
3.992,0.11547
3.996,0.09259
4.0,0.10825
4.004,0.12442
4.008,0.1475
4.012,0.08254
4.016,0.11944
4.02,0.01217
4.024,0.13289
4.028,0.02136
4.032,0.06107
4.036,0.02911
4.04,0.06128
4.044,0.04434
4.048,0.02766
4.052,0.08152
4.056,-0.01223
4.06,0.02875
4.064,0.12594
4.068,0.0003
4.072,0.0797
4.076,0.02468
4.08,0.08485
4.084,-0.04594
4.088,0.01371
4.092,0.02307
4.096,0.01314
4.1,0.01078
4.104,0.06118
4.108,0.0148
4.112,0.02647
4.116,0.00727
4.12,0.01243
4.124,-0.04992
4.128,-0.04552
4.132,-0.11353
4.136,-0.0008
4.14,0.17301
4.144,0.35015
4.148,0.6097
4.152,0.75363
4.156,0.94086
4.16,1.0199
4.164,1.02087
4.168,0.94814
4.172,0.72782
4.176,0.49259
4.18,0.2348
4.184,0.03384
4.188,-0.08849
4.192,-0.19942
4.196,-0.16122
4.2,-0.03088
4.204,-0.10334
4.208,-0.06319
4.212,-0.01985
4.216,-0.00822
4.22,0.04611
4.224,0.07025
4.228,0.00961
4.232,-0.01108
4.236,-0.03237
4.24,0.01828
4.244,0.04503
4.248,0.05717
4.252,0.01946
4.256,-0.03631
4.26,0.04169
4.264,0.05206
4.268,0.079
4.272,-0.03091
4.276,0.03092
4.28,0.03131
4.284,0.00045
4.288,0.04517
4.292,-0.01232
4.296,0.02595
4.3,-0.00183
4.304,0.02672
4.308,0.05521
4.312,-0.01249
4.316,0.05839
4.32,0.02205
4.324,0.03775
4.328,0.05628
4.332,0.05514
4.336,0.03264
4.34,-0.0012
4.344,0.032
4.348,0.1085
4.352,0.07333
4.356,0.04166
4.36,0.07046
4.364,0.06109
4.368,0.0516
4.372,0.16982
4.376,0.16629
4.38,0.18491
4.384,0.14891
4.388,0.12036
4.392,0.1627
4.396,0.14014
4.4,0.12892
4.404,0.17804
4.408,0.24018
4.412,0.13403
4.416,0.24918
4.42,0.21037
4.424,0.22097
4.428,0.23768
4.432,0.32821
4.436,0.26662
4.44,0.20956
4.444,0.26016
4.448,0.2083
4.452,0.23992
4.456,0.24607
4.46,0.12654
4.464,0.21592
4.468,0.2404
4.472,0.18626
4.476,0.15763
4.48,0.18596
4.484,0.11454
4.488,0.08084
4.492,0.12711
4.496,0.20079
4.5,0.14391
4.504,0.11687
4.508,0.10046
4.512,0.16163
4.516,0.10466
4.52,0.10384
4.524,0.09924
4.528,0.05819
4.532,0.0922
4.536,0.05564
4.54,0.08956
4.544,0.01114
4.548,0.09265
4.552,0.04567
4.556,0.00375
4.56,0.03816
4.564,0.00956
4.568,0.0585
4.572,0.01289
4.576,0.07861
4.58,0.03574
4.584,0.02558
4.588,-0.00823
4.592,0.03723
4.596,0.00046
4.6,0.01142
4.604,0.11463
4.608,0.03711
4.612,-0.02297
4.616,0.04582
4.62,-0.02072
4.624,-0.00495
4.628,0.05993
4.632,0.04002
4.636,0.07416
4.64,0.00594
4.644,0.00722
4.648,-0.02286
4.652,0.06506
4.656,0.03754
4.66,0.01011
4.664,0.04274
4.668,0.03615
4.672,0.02276
4.676,-0.05225
4.68,0.04231
4.684,0.05568
4.688,0.05679
4.692,0.08385
4.696,0.03787
4.7,0.02926
4.704,0.0399
4.708,0.08674
4.712,0.06531
4.716,0.08087
4.72,0.07868
4.724,0.10153
4.728,0.10462
4.732,0.11795
4.736,0.10091
4.74,0.18834
4.744,0.09
4.748,0.16076
4.752,0.13165
4.756,0.10639
4.76,0.05861
4.764,0.06117
4.768,0.00688
4.772,0.05791
4.776,0.09029
4.78,0.05908
4.784,0.03828
4.788,0.12489
4.792,0.03104
4.796,0.01226
4.8,0.06972
4.804,0.13374
4.808,0.02413
4.812,0.01149
4.816,0.00646
4.82,0.03809
4.824,0.02466
4.828,0.03608
4.832,0.07236
4.836,0.04915
4.84,0.01657
4.844,0.00869
4.848,0.06741
4.852,0.0269
4.856,-0.03094
4.86,-0.11574
4.864,-0.08406
4.868,-0.03646
4.872,0.12666
4.876,0.2861
4.88,0.41208
4.884,0.71914
4.888,0.88058
4.892,1.05594
4.896,1.04214
4.9,0.91162
4.904,0.74883
4.908,0.4892
4.912,0.29011
4.916,0.07903
4.92,-0.02242
4.924,-0.1141
4.928,-0.11177
4.932,-0.06784
4.936,-0.12416
4.94,-0.07978
4.944,0.02299
4.948,0.00657
4.952,-0.04283
4.956,0.02307
4.96,0.04044
4.964,0.02715
4.968,0.00367
4.972,-0.00617
4.976,0.05625
4.98,0.05705
4.984,-0.05159
4.988,0.00542
4.992,0.00175
4.996,0.05263
5.0,0.03721
5.004,0.05052
5.008,0.00238
5.012,-0.02037
5.016,0.06995
5.02,0.01681
5.024,0.04058
5.028,-0.01829
5.032,0.06617
5.036,0.07961
5.04,-0.01737
5.044,-0.04398
5.048,0.02784
5.052,0.07759
5.056,0.07368
5.06,0.0484
5.064,0.08797
5.068,0.02861
5.072,0.08942
5.076,0.1122
5.08,0.05018
5.084,0.02238
5.088,0.02439
5.092,0.054
5.096,0.07719
5.1,0.09803
5.104,0.02251
5.108,0.10394
5.112,0.17507
5.116,0.14301
5.12,0.11124
5.124,0.16792
5.128,0.11277
5.132,0.23256
5.136,0.1637
5.14,0.26128
5.144,0.23662
5.148,0.17184
5.152,0.18948
5.156,0.26023
5.16,0.18553
5.164,0.23458
5.168,0.29786
5.172,0.18843
5.176,0.23961
5.18,0.2335
5.184,0.25005
5.188,0.23002
5.192,0.15913
5.196,0.23085
5.2,0.21111
5.204,0.27143
5.208,0.18587
5.212,0.15113
5.216,0.12893
5.22,0.17074
5.224,0.15858
5.228,0.14531
5.232,0.13028
5.236,0.10337
5.24,0.06306
5.244,0.02971
5.248,0.07992
5.252,0.09396
5.256,0.05529
5.26,0.06514
5.264,0.08374
5.268,0.10768
5.272,0.08358
5.276,0.11087
5.28,0.14047
5.284,0.11955
5.288,0.14234
5.292,0.08528
5.296,0.10884
5.3,0.09556
5.304,0.12788
5.308,0.11864
5.312,0.08371
5.316,0.04094
5.32,0.02148
5.324,0.09905
5.328,-0.02593
5.332,0.07221
5.336,-0.02813
5.34,0.07211
5.344,0.04351
5.348,0.03441
5.352,-0.03079
5.356,0.04437
5.36,0.00919
5.364,-0.04394
5.368,0.02956
5.372,0.00144
5.376,0.01376
5.38,0.03615
5.384,0.04029
5.388,0.03193
5.392,0.01641
5.396,-0.05462
5.4,0.00219
5.404,0.03319
5.408,0.03762
5.412,-0.12074
5.416,-0.05934
5.42,-0.087
5.424,-0.12008
5.428,-0.02224
5.432,0.0605
5.436,0.21296
5.44,0.42243
5.444,0.60068
5.448,0.74137
5.452,0.92524
5.456,0.97634
5.46,0.88934
5.464,0.80582
5.468,0.57024
5.472,0.36097
5.476,0.12149
5.48,-0.01594
5.484,-0.10156
5.488,-0.15749
5.492,-0.09717
5.496,-0.13161
5.5,-0.02847
5.504,0.05147
5.508,-0.04443
5.512,-0.03462
5.516,0.00987
5.52,0.03058
5.524,0.01502
5.528,0.02714
5.532,0.03797
5.536,0.00055
5.54,0.04129
5.544,0.05146
5.548,0.00373
5.552,-0.00045
5.556,0.07499
5.56,0.03107
5.564,-0.01096
5.568,0.00107
5.572,-0.00995
5.576,-0.06536
5.58,0.03165
5.584,-0.02229
5.588,0.01191
5.592,0.00048
5.596,-0.01573
5.6,-0.01097
5.604,-0.0262
5.608,0.02978
5.612,0.03985
5.616,0.06516
5.62,0.00592
5.624,0.03327
5.628,-0.01767
5.632,0.03577
5.636,-0.04088
5.64,0.07257
5.644,-0.01992
5.648,0.05502
5.652,0.0086
5.656,0.06655
5.66,0.0618
5.664,0.10681
5.668,0.03142
5.672,0.0247
5.676,0.09726
5.68,0.10774
5.684,0.06608
5.688,0.14466
5.692,0.16235
5.696,0.11764
5.7,0.16121
5.704,0.2021
5.708,0.16978
5.712,0.21474
5.716,0.23394
5.72,0.18741
5.724,0.24895
5.728,0.25405
5.732,0.18459
5.736,0.23141
5.74,0.17768
5.744,0.22515
5.748,0.23797
5.752,0.25297
5.756,0.22413
5.76,0.19025
5.764,0.20185
5.768,0.12532
5.772,0.18436
5.776,0.13021
5.78,0.25282
5.784,0.19032
5.788,0.1081
5.792,0.11082
5.796,0.08452
5.8,0.07902
5.804,0.11497
5.808,0.07886
5.812,0.13278
5.816,0.00363
5.82,0.05263
5.824,0.06078
5.828,0.07322
5.832,0.00406
5.836,0.08207
5.84,-0.01475
5.844,0.02821
5.848,-0.04809
5.852,0.0045
5.856,0.06341
5.86,-0.00539
5.864,-0.0458
5.868,-0.00034
5.872,-0.01606
5.876,-0.02455
5.88,-0.02019
5.884,0.03467
5.888,0.01396
5.892,0.00729
5.896,0.02276
5.9,0.03467
5.904,0.02493
5.908,0.00377
5.912,-0.02922
5.916,-0.04844
5.92,-0.03333
5.924,-0.01434
5.928,0.00775
5.932,0.01447
5.936,-0.02326
5.94,0.0532
5.944,0.06897
5.948,0.0829
5.952,0.01585
5.956,0.0256
5.96,0.08449
5.964,0.08014
5.968,0.05224
5.972,0.08549
5.976,0.05429
5.98,0.12721
5.984,0.10299
5.988,0.01172
5.992,0.03824
5.996,0.08347
6.0,0.09854
6.004,0.1168
6.008,-0.01889
6.012,0.05289
6.016,0.01898
6.02,0.03528
6.024,0.0136
6.028,-0.0799
6.032,-0.00382
6.036,0.02373
6.04,-0.015
6.044,0.00971
6.048,0.02252
6.052,-0.03144
6.056,0.03202
6.06,-0.02334
6.064,-0.06241
6.068,0.04437
6.072,-0.0217
6.076,-0.06134
6.08,-0.00702
6.084,0.0025
6.088,-0.05171
6.092,0.02531
6.096,-0.00491
6.1,-0.06971
6.104,-0.07439
6.108,-0.08382
6.112,-0.11286
6.116,-0.04857
6.12,0.029
6.124,0.22743
6.128,0.35292
6.132,0.58933
6.136,0.78936
6.14,0.96762
6.144,0.94201
6.148,0.94959
6.152,0.75387
6.156,0.53887
6.16,0.34189
6.164,0.06045
6.168,0.00362
6.172,-0.1795
6.176,-0.12247
6.18,-0.19755
6.184,-0.12593
6.188,-0.08506
6.192,-0.0688
6.196,-0.05788
6.2,-0.02091
6.204,-0.01956
6.208,0.04791
6.212,0.00543
6.216,-0.0001
6.22,-0.06674
6.224,-0.03354
6.228,-0.04786
6.232,0.01686
6.236,0.00988
6.24,0.01384
6.244,0.03734
6.248,0.00457
6.252,0.01059
6.256,0.01264
6.26,0.00636
6.264,-0.05041
6.268,0.03484
6.272,0.0375
6.276,0.00548
6.28,-0.00872
6.284,0.00696
6.288,0.00165
6.292,-0.04092
6.296,-0.04073
6.3,-0.00401
6.304,-0.05775
6.308,0.07145
6.312,-0.00389
6.316,0.0046
6.32,0.017
6.324,-0.02224
6.328,0.01363
6.332,0.0131
6.336,0.01727
6.34,0.02381
6.344,0.02885
6.348,0.01834
6.352,0.05457
6.356,0.08797
6.36,0.01992
6.364,0.03138
6.368,0.115
6.372,0.0593
6.376,0.12911
6.38,0.14881
6.384,0.17338
6.388,0.15258
6.392,0.1456
6.396,0.16044
6.4,0.16567
6.404,0.19417
6.408,0.20863
6.412,0.26431
6.416,0.12918
6.42,0.15633
6.424,0.17531
6.428,0.1493
6.432,0.24829
6.436,0.20484
6.44,0.24114
6.444,0.14781
6.448,0.12759
6.452,0.14903
6.456,0.07028
6.46,0.11303
6.464,0.12897
6.468,0.12335
6.472,0.08686
6.476,0.08532
6.48,0.05646
6.484,0.1344
6.488,0.05413
6.492,0.11817
6.496,0.02341
6.5,0.03781
6.504,0.03091
6.508,-0.02388
6.512,0.04675
6.516,0.01035
6.52,-0.00844
6.524,0.00995
6.528,0.00303
6.532,0.01868
6.536,-0.00475
6.54,-0.00962
6.544,-0.01751
6.548,-0.07028
6.552,-0.02547
6.556,-0.04636
6.56,-0.03577
6.564,-0.01993
6.568,0.0322
6.572,-0.05126
6.576,0.06901
6.58,-0.05131
6.584,-0.07679
6.588,0.06064
6.592,-0.0856
6.596,-0.01257
6.6,0.01426
6.604,-0.03844
6.608,-0.06964
6.612,-0.0124
6.616,-0.02285
6.62,0.03213
6.624,-0.05206
6.628,-0.00888
6.632,0.02563
6.636,-0.02361
6.64,-0.01286
6.644,-0.05692
6.648,-0.03856
6.652,0.00426
6.656,0.01355
6.66,0.02546
6.664,0.11211
6.668,0.11176
6.672,0.10499
6.676,0.0184
6.68,0.068
6.684,0.08187
6.688,0.0533
6.692,0.03081
6.696,-0.02721
6.7,0.02236
6.704,0.01701
6.708,-0.0366
6.712,0.04351
6.716,0.06283
6.72,0.01329
6.724,-0.03214
6.728,-0.04673
6.732,-0.04919
6.736,0.00544
6.74,0.0023
6.744,-0.10744
6.748,0.00942
6.752,-0.01211
6.756,-0.02205
6.76,-0.00175
6.764,-0.07375
6.768,-0.02176
6.772,-0.06758
6.776,-0.01793
6.78,-0.00826
6.784,-0.04498
6.788,-0.03292
6.792,-0.08379
6.796,-0.12524
6.8,-0.13743
6.804,-0.13301
6.808,-0.06966
6.812,0.02012
6.816,0.19101
6.82,0.41679
6.824,0.61386
6.828,0.78767
6.832,0.96019
6.836,1.00558
6.84,0.89838
6.844,0.74418
6.848,0.54507
6.852,0.28793
6.856,0.11834
6.86,-0.11099
6.864,-0.15751
6.868,-0.17567
6.872,-0.22219
6.876,-0.11751
6.88,-0.13527
6.884,-0.07808
6.888,-0.07525
6.892,-0.05521
6.896,0.0007
6.9,-0.02685
6.904,-0.03903
6.908,-0.03392
6.912,-0.00447
6.916,-0.0474
6.92,-0.01229
6.924,-0.06503
6.928,-0.03708
6.932,-0.05721
6.936,-0.01348
6.94,-0.00182
6.944,-0.06513
6.948,0.0619
6.952,-0.008
6.956,-0.03471
6.96,-0.02456
6.964,0.02365
6.968,-0.04413
6.972,-0.01871
6.976,0.01202
6.98,0.01882
6.984,-0.01155
6.988,0.02455
6.992,0.00875
6.996,-0.05664
7.0,-0.02621
7.004,-0.04761
7.008,-0.03203
7.012,0.01225
7.016,-0.02397
7.02,0.03896
7.024,-0.02916
7.028,-0.01088
7.032,-0.03589
7.036,0.01323
7.04,0.04681
7.044,0.0102
7.048,0.01239
7.052,0.01236
7.056,0.03455
7.06,0.08299
7.064,0.07711
7.068,0.13827
7.072,0.13019
7.076,0.08682
7.08,0.126
7.084,0.20273
7.088,0.14159
7.092,0.19705
7.096,0.12996
7.1,0.19287
7.104,0.20976
7.108,0.13594
7.112,0.14471
7.116,0.15683
7.12,0.12401
7.124,0.17791
7.128,0.19373
7.132,0.18683
7.136,0.15463
7.14,0.23901
7.144,0.11877
7.148,0.10681
7.152,0.13571
7.156,0.13252
7.16,0.05648
7.164,0.12457
7.168,0.0295
7.172,-0.01151
7.176,0.06022
7.18,0.06367
7.184,0.06577
7.188,0.0688
7.192,0.00873
7.196,0.04008
7.2,0.02847
7.204,-0.00267
7.208,-0.00706
7.212,0.02426
7.216,-0.00017
7.22,-0.03634
7.224,0.00065
7.228,-0.02875
7.232,-0.00142
7.236,-0.04286
7.24,0.01134
7.244,-0.04073
7.248,-0.05318
7.252,-0.01696
7.256,0.01082
7.26,0.00728
7.264,-0.02597
7.268,-0.0365
7.272,0.0053
7.276,0.02854
7.28,-0.0414
7.284,-0.05513
7.288,-0.04213
7.292,-0.06379
7.296,0.01279
7.3,-0.0408
7.304,-0.00574
7.308,-0.01148
7.312,-0.14273
7.316,-0.04472
7.32,-0.00844
7.324,-0.03295
7.328,-0.032
7.332,-0.04144
7.336,-0.07211
7.34,0.0067
7.344,-0.07207
7.348,0.01899
7.352,-0.03958
7.356,-0.07319
7.36,-0.06871
7.364,-0.02898
7.368,0.03537
7.372,-0.02743
7.376,-0.04126
7.38,-0.02088
7.384,-0.02794
7.388,-0.04088
7.392,0.03888
7.396,0.03374
7.4,0.03728
7.404,0.10392
7.408,0.03692
7.412,0.11747
7.416,0.14825
7.42,0.01217
7.424,0.05488
7.428,0.01675
7.432,0.04227
7.436,0.06442
7.44,0.03346
7.444,0.00553
7.448,-0.0426
7.452,-0.08536
7.456,-0.11553
7.46,-0.00126
7.464,0.0111
7.468,0.00125
7.472,-0.01927
7.476,-0.05316
7.48,-0.03947
7.484,-0.133
7.488,-0.04212
7.492,-0.07451
7.496,-0.04426
7.5,-0.03555
7.504,-0.05395
7.508,-0.02304
7.512,-0.05427
7.516,-0.04055
7.52,-0.02899
7.524,-0.09131
7.528,-0.14921
7.532,-0.12275
7.536,-0.16131
7.54,-0.07815
7.544,-0.0587
7.548,0.17083
7.552,0.31934
7.556,0.5349
7.56,0.758
7.564,0.96923
7.568,0.98387
7.572,0.91339
7.576,0.81973
7.58,0.50515
7.584,0.33333
7.588,0.15827
7.592,-0.07252
7.596,-0.13415
7.6,-0.25179
7.604,-0.17851
7.608,-0.12009
7.612,-0.09125
7.616,-0.10807
7.62,-0.0582
7.624,-0.01488
7.628,-0.00595
7.632,0.05294
7.636,-0.07564
7.64,-0.03627
7.644,0.02734
7.648,-0.10009
7.652,-0.01833
7.656,-0.08516
7.66,-0.019
7.664,-0.01913
7.668,0.01029
7.672,-0.04499
7.676,-0.07483
7.68,-0.08697
7.684,0.0036
7.688,-0.07695
7.692,-0.03489
7.696,-0.04295
7.7,-0.00995
7.704,0.03943
7.708,0.02884
7.712,0.00131
7.716,-0.0309
7.72,-0.06361
7.724,-0.0175
7.728,-0.01089
7.732,-0.02098
7.736,-0.00553
7.74,0.00117
7.744,-0.02443
7.748,-0.0246
7.752,-0.03475
7.756,0.04762
7.76,0.00361
7.764,-0.02058
7.768,0.02402
7.772,0.01862
7.776,0.11725
7.78,0.0715
7.784,0.10214
7.788,0.14105
7.792,0.1858
7.796,0.14675
7.8,0.17194
7.804,0.29412
7.808,0.20914
7.812,0.26733
7.816,0.22467
7.82,0.18317
7.824,0.23561
7.828,0.22464
7.832,0.28977
7.836,0.25422
7.84,0.18269
7.844,0.21302
7.848,0.19662
7.852,0.169
7.856,0.14938
7.86,0.15409
7.864,0.18816
7.868,0.1375
7.872,0.20164
7.876,0.20545
7.88,0.08489
7.884,0.11816
7.888,0.16565
7.892,0.11044
7.896,0.16458
7.9,0.08256
7.904,0.09183
7.908,0.03367
7.912,0.07426
7.916,0.01125
7.92,0.00101
7.924,-0.03128
7.928,-0.02667
7.932,-0.10382
7.936,-0.13828
7.94,0.00043
7.944,0.03272
7.948,0.24066
7.952,0.37699
7.956,0.63266
7.96,0.81459
7.964,0.96684
7.968,0.95289
7.972,0.88212
7.976,0.64935
7.98,0.4963
7.984,0.22191
7.988,0.06507
7.992,-0.09701
7.996,-0.14871
8.0,-0.28155
8.004,-0.17937
8.008,-0.15006
8.012,-0.08635
8.016,-0.0995
8.02,-0.07769
8.024,-0.05487
8.028,-0.04613
8.032,-0.06604
8.036,-0.01464
8.04,0.00864
8.044,-0.07682
8.048,-0.02927
8.052,-0.0237
8.056,-0.01053
8.06,-0.10636
8.064,0.01355
8.068,-0.00819
8.072,-0.0473
8.076,-0.02771
8.08,0.02075
8.084,-0.01718
8.088,-0.01896
8.092,-0.05064
8.096,-0.03406
8.1,-0.0637
8.104,-0.08148
8.108,-0.0027
8.112,-0.00585
8.116,-0.10642
8.12,0.00616
8.124,0.01221
8.128,-0.0215
8.132,-0.00616
8.136,-0.0193
8.14,-0.04656
8.144,0.00247
8.148,-0.02024
8.152,-0.03542
8.156,0.03581
8.16,-0.00581
8.164,-0.0057
8.168,0.00378
8.172,-0.09472
8.176,-0.00247
8.18,0.0484
8.184,0.1287
8.188,0.0121
8.192,0.05277
8.196,0.05969
8.2,0.04694
8.204,0.09161
8.208,0.11031
8.212,0.13301
8.216,0.12285
8.22,0.16434
8.224,0.1512
8.228,0.21104
8.232,0.12393
8.236,0.21376
8.24,0.22184
8.244,0.21068
8.248,0.22516
8.252,0.24319
8.256,0.21494
8.26,0.18926
8.264,0.22409
8.268,0.24813
8.272,0.21168
8.276,0.20851
8.28,0.25447
8.284,0.2202
8.288,0.21303
8.292,0.24542
8.296,0.18852
8.3,0.17396
8.304,0.1934
8.308,0.07662
8.312,0.13468
8.316,0.05045
8.32,0.0668
8.324,0.01435
8.328,0.05908
8.332,0.05228
8.336,-0.03229
8.34,-0.04121
8.344,0.01978
8.348,-0.02785
8.352,0.0832
8.356,-0.0928
8.36,-0.02992
8.364,0.01407
8.368,0.04176
8.372,-0.01814
8.376,-0.01565
8.38,0.01105
8.384,0.03965
8.388,-0.04995
8.392,-0.08095
8.396,-0.02727
8.4,-0.04179
8.404,-0.04506
8.408,-0.06908
8.412,-0.13576
8.416,-0.1275
8.42,-0.03166
8.424,0.06195
8.428,0.17751
8.432,0.45309
8.436,0.72688
8.44,0.86931
8.444,0.98545
8.448,0.96602
8.452,0.94447
8.456,0.60314
8.46,0.48826
8.464,0.21295
8.468,0.07502
8.472,-0.12468
8.476,-0.22482
8.48,-0.20533
8.484,-0.14536
8.488,-0.13503
8.492,-0.10369
8.496,-0.03774
8.5,-0.04335
8.504,0.00483
8.508,-0.02956
8.512,-0.01326
8.516,0.00627
8.52,-0.02002
8.524,-0.0354
8.528,0.01288
8.532,-0.02928
8.536,-0.05982
8.54,0.00354
8.544,0.00806
8.548,0.00462
8.552,-0.02001
8.556,-0.05232
8.56,0.02001
8.564,0.01382
8.568,0.01176
8.572,-0.05137
8.576,0.00482
8.58,0.00334
8.584,-0.02414
8.588,-0.06164
8.592,-0.04604
8.596,-0.06886
8.6,0.01371
8.604,0.02159
8.608,0.01805
8.612,0.00987
8.616,-0.00286
8.62,0.01461
8.624,-0.03907
8.628,-0.03467
8.632,0.08752
8.636,0.03221
8.64,0.00973
8.644,-0.0275
8.648,0.02622
8.652,0.09476
8.656,0.01219
8.66,0.05388
8.664,0.02921
8.668,0.07234
8.672,0.10211
8.676,0.01812
8.68,0.07848
8.684,0.15056
8.688,0.16482
8.692,0.13781
8.696,0.17072
8.7,0.13776
8.704,0.10239
8.708,0.13494
8.712,0.18272
8.716,0.12272
8.72,0.16598
8.724,0.20483
8.728,0.19386
8.732,0.24918
8.736,0.23043
8.74,0.1582
8.744,0.17926
8.748,0.20938
8.752,0.12224
8.756,0.14851
8.76,0.16031
8.764,0.13419
8.768,0.13184
8.772,0.1595
8.776,0.13625
8.78,0.08427
8.784,0.13052
8.788,0.04578
8.792,0.04151
8.796,-0.00304
8.8,0.05757
8.804,0.05379
8.808,0.05363
8.812,0.04873
8.816,-0.05278
8.82,-0.04182
8.824,-0.01082
8.828,0.03398
8.832,-0.01673
8.836,0.04287
8.84,0.03051
8.844,0.0286
8.848,0.00575
8.852,0.08649
8.856,0.07756
8.86,0.1133
8.864,0.06929
8.868,0.09479
8.872,0.12133
8.876,0.09774
8.88,0.09265
8.884,0.05254
8.888,0.06328
8.892,0.09953
8.896,-0.00966
8.9,0.0158
8.904,0.02079
8.908,0.01083
8.912,0.02574
8.916,-0.03794
8.92,-0.00794
8.924,0.04436
8.928,-0.08569
8.932,-0.08046
8.936,0.04478
8.94,0.05321
8.944,0.02139
8.948,0.03446
8.952,0.04297
8.956,-0.00479
8.96,0.02395
8.964,-0.00656
8.968,0.02516
8.972,-0.0429
8.976,0.02814
8.98,-0.01524
8.984,0.00092
8.988,-0.04135
8.992,-0.1136
8.996,-0.10458
9.0,-0.08724
9.004,-0.08339
9.008,-0.00299
9.012,0.2288
9.016,0.41593
9.02,0.58978
9.024,0.77489
9.028,0.92767
9.032,1.00171
9.036,0.88172
9.04,0.76346
9.044,0.50334
9.048,0.33252
9.052,0.06663
9.056,-0.01513
9.06,-0.11584
9.064,-0.17661
9.068,-0.24387
9.072,-0.13332
9.076,-0.06186
9.08,-0.02962
9.084,0.00701
9.088,-0.04192
9.092,-0.0074
9.096,-0.02541
9.1,0.01338
9.104,-0.04986
9.108,0.0302
9.112,-0.02976
9.116,-0.04928
9.12,0.03306
9.124,-0.01672
9.128,-0.01781
9.132,-0.06568
9.136,-0.00873
9.14,0.03333
9.144,0.01285
9.148,0.02751
9.152,0.01835
9.156,-0.05586
9.16,0.01624
9.164,-0.02716
9.168,0.00258
9.172,-0.05907
9.176,-0.0031
9.18,-0.00339
9.184,0.00959
9.188,0.08077
9.192,0.00127
9.196,0.02668
9.2,-0.01924
9.204,0.01524
9.208,0.00152
9.212,0.01275
9.216,0.03779
9.22,0.01232
9.224,-0.02668
9.228,0.0386
9.232,0.08377
9.236,0.07315
9.24,0.09485
9.244,0.0874
9.248,0.15199
9.252,0.12741
9.256,0.13223
9.26,0.12504
9.264,0.12771
9.268,0.14452
9.272,0.15322
9.276,0.19077
9.28,0.18304
9.284,0.15438
9.288,0.2207
9.292,0.22136
9.296,0.17356
9.3,0.19333
9.304,0.23066
9.308,0.21207
9.312,0.21291
9.316,0.18087
9.32,0.22517
9.324,0.26018
9.328,0.14237
9.332,0.22722
9.336,0.19995
9.34,0.19504
9.344,0.16019
9.348,0.20654
9.352,0.16071
9.356,0.12077
9.36,0.08378
9.364,0.1371
9.368,0.10879
9.372,0.17041
9.376,0.13934
9.38,0.05868
9.384,0.09685
9.388,0.04151
9.392,0.07429
9.396,0.01661
9.4,0.0206
9.404,0.02253
9.408,0.06833
9.412,0.02122
9.416,0.03569
9.42,-0.07596
9.424,0.01672
9.428,0.04237
9.432,0.01242
9.436,0.00372
9.44,0.04804
9.444,0.01382
9.448,0.04607
9.452,0.03816
9.456,0.00386
9.46,0.04007
9.464,0.03051
9.468,0.01748
9.472,0.0813
9.476,0.0199
9.48,0.03231
9.484,0.08937
9.488,0.08628
9.492,0.06634
9.496,0.08165
9.5,0.11899
9.504,0.0416
9.508,0.13356
9.512,0.06535
9.516,0.048
9.52,0.03453
9.524,0.06543
9.528,0.04267
9.532,-0.00027
9.536,0.0105
9.54,0.00952
9.544,-0.04548
9.548,-0.05388
9.552,0.0512
9.556,0.0571
9.56,-0.04321
9.564,0.00523
9.568,0.03623
9.572,-0.02303
9.576,0.02828
9.58,-0.05164
9.584,-0.05752
9.588,0.00459
9.592,0.05814
9.596,0.03006
9.6,0.01742
9.604,0.02649
9.608,-0.00678
9.612,-0.05875
9.616,-0.07413
9.62,-0.05315
9.624,-0.11491
9.628,-0.14125
9.632,0.00247
9.636,0.13585
9.64,0.38967
9.644,0.6342
9.648,0.84184
9.652,0.92632
9.656,0.97864
9.66,0.9414
9.664,0.78132
9.668,0.59484
9.672,0.32339
9.676,0.17091
9.68,0.00888
9.684,-0.08281
9.688,-0.13481
9.692,-0.15485
9.696,-0.02994
9.7,-0.01959
9.704,-0.08655
9.708,-0.03768
9.712,0.00881
9.716,0.05183
9.72,0.03326
9.724,0.04013
9.728,-0.02534
9.732,-0.0172
9.736,-0.02561
9.74,0.00584
9.744,0.03678
9.748,0.04598
9.752,-0.02485
9.756,-0.0322
9.76,0.005
9.764,-0.05377
9.768,0.00773
9.772,0.00533
9.776,0.07375
9.78,-0.08911
9.784,0.07102
9.788,-0.02126
9.792,0.03276
9.796,-0.0341
9.8,0.05681
9.804,0.00402
9.808,0.02201
9.812,0.03206
9.816,-0.00269
9.82,-0.00067
9.824,0.10221
9.828,-0.00281
9.832,-0.00453
9.836,0.0395
9.84,0.05152
9.844,0.06611
9.848,0.02224
9.852,0.01808
9.856,0.08254
9.86,0.07025
9.864,0.04353
9.868,0.08127
9.872,0.0844
9.876,0.06409
9.88,0.16931
9.884,0.17521
9.888,0.17713
9.892,0.169
9.896,0.15181
9.9,0.21234
9.904,0.15966
9.908,0.17994
9.912,0.24597
9.916,0.18733
9.92,0.2457
9.924,0.23
9.928,0.26916
9.932,0.20886
9.936,0.24221
9.94,0.30184
9.944,0.24911
9.948,0.29394
9.952,0.17051
9.956,0.24439
9.96,0.14212
9.964,0.24759
9.968,0.21795
9.972,0.16716
9.976,0.14934
9.98,0.16479
9.984,0.15081
9.988,0.16725
9.992,0.14452
9.996,0.06574
