t_seg,ecg_mV
0.0,0.02538
0.004,-0.02126
0.008,-0.0144
0.012,-0.02745
0.016,-0.03745
0.02,-0.01125
0.024,-0.03026
0.028,-0.03357
0.032,-0.03992
0.036,-0.03306
0.04,-0.02907
0.044,-0.05493
0.048,-0.00511
0.052,0.03546
0.056,-0.05655
0.06,-0.02755
0.064,-0.00548
0.068,-0.01635
0.072,-0.00169
0.076,-0.01459
0.08,-0.03151
0.084,-0.00858
0.088,-0.00617
0.092,-0.01941
0.096,-0.01102
0.1,-0.03371
0.104,-0.03645
0.108,-0.00804
0.112,-0.00361
0.116,-0.0435
0.12,-0.03489
0.124,-0.01495
0.128,-0.00801
0.132,-0.01606
0.136,-0.00478
0.14,-0.00838
0.144,-0.01212
0.148,-0.01175
0.152,0.00501
0.156,-0.01948
0.16,-0.03866
0.164,-0.01563
0.168,-0.02209
0.172,-0.03841
0.176,-0.02752
0.18,-0.04287
0.184,-0.0129
0.188,0.00228
0.192,-0.04786
0.196,-0.00445
0.2,-0.03858
0.204,-0.05805
0.208,-0.00924
0.212,-0.0151
0.216,-0.0355
0.22,-0.05342
0.224,-0.00416
0.228,-0.03738
0.232,-0.036
0.236,-0.05393
0.24,-0.02484
0.244,-0.01707
0.248,-0.03057
0.252,-0.0245
0.256,-0.01558
0.26,-0.02542
0.264,-0.01845
0.268,-0.01594
0.272,-0.03727
0.276,-0.01403
0.28,-0.04252
0.284,-0.01673
0.288,-0.00305
0.292,-0.04472
0.296,-0.04147
0.3,-0.02465
0.304,-0.03191
0.308,-0.04443
0.312,-0.03609
0.316,-0.03159
0.32,-0.02419
0.324,-0.01724
0.328,-0.06197
0.332,-0.0448
0.336,-0.03932
0.34,-0.00529
0.344,-0.03226
0.348,-0.02821
0.352,-0.03585
0.356,-0.03
0.36,-0.01378
0.364,-0.02258
0.368,-0.03887
0.372,-0.02942
0.376,-0.02651
0.38,-0.04475
0.384,-0.04483
0.388,-0.02221
0.392,-0.0324
0.396,-0.01998
0.4,-0.02307
0.404,-0.05926
0.408,-0.06237
0.412,-0.02006
0.416,-0.03168
0.42,-0.01155
0.424,-0.02459
0.428,-0.02799
0.432,-0.05124
0.436,-0.0109
0.44,-0.00062
0.444,-0.04694
0.448,-0.03242
0.452,-0.03968
0.456,-0.01916
0.46,-0.0186
0.464,-0.01979
0.468,-0.00343
0.472,-0.03339
0.476,-0.06719
0.48,-0.03973
0.484,-0.00877
0.488,-0.0363
0.492,-0.03819
0.496,-0.00414
0.5,-0.002
0.504,-0.01157
0.508,-0.02802
0.512,-0.00727
0.516,0.00152
0.52,-0.00728
0.524,0.02035
0.528,0.0331
0.532,0.0351
0.536,0.04911
0.54,0.05314
0.544,0.08686
0.548,0.09552
0.552,0.05706
0.556,0.06431
0.56,0.07013
0.564,0.05205
0.568,0.05127
0.572,0.01817
0.576,0.00604
0.58,-0.0104
0.584,-0.01211
0.588,0.00248
0.592,-0.01861
0.596,-0.03311
0.6,-0.04764
0.604,-0.031
0.608,-0.01635
0.612,-0.01575
0.616,-0.00434
0.62,-0.04533
0.624,-0.03435
0.628,-0.04217
0.632,-0.01572
0.636,-0.03828
0.64,-0.03071
0.644,-0.02274
0.648,-0.03118
0.652,-0.0459
0.656,-0.04425
0.66,-0.0478
0.664,-0.085
0.668,-0.09975
0.672,-0.13069
0.676,-0.15076
0.68,-0.08878
0.684,-0.02128
0.688,0.13387
0.692,0.35029
0.696,0.52906
0.7,0.755
0.704,0.90616
0.708,0.96089
0.712,0.91392
0.716,0.76247
0.72,0.56747
0.724,0.32969
0.728,0.14767
0.732,-0.0745
0.736,-0.14031
0.74,-0.19835
0.744,-0.17305
0.748,-0.14552
0.752,-0.09579
0.756,-0.05128
0.76,-0.06351
0.764,-0.02616
0.768,-0.02803
0.772,-0.04309
0.776,-0.05372
0.78,-0.02476
0.784,-0.04202
0.788,-0.03431
0.792,-0.01999
0.796,-0.04839
0.8,-0.02263
0.804,-0.01237
0.808,-0.00481
0.812,-0.04064
0.816,-0.01395
0.82,-0.03478
0.824,-0.05459
0.828,-0.02783
0.832,-0.02427
0.836,-0.01294
0.84,-0.00538
0.844,-0.03501
0.848,-0.04341
0.852,-0.03012
0.856,0.00307
0.86,-0.04953
0.864,-0.03546
0.868,-0.02994
0.872,-0.02216
0.876,-0.02239
0.88,-0.03989
0.884,0.0128
0.888,0.01434
0.892,-0.01056
0.896,-0.00355
0.9,-0.0104
0.904,0.01447
0.908,0.03823
0.912,0.01003
0.916,0.02727
0.92,0.02601
0.924,0.05024
0.928,0.05981
0.932,0.08065
0.936,0.06632
0.94,0.10561
0.944,0.13046
0.948,0.1179
0.952,0.12233
0.956,0.15908
0.96,0.15956
0.964,0.1369
0.968,0.16262
0.972,0.18604
0.976,0.20781
0.98,0.18313
0.984,0.18671
0.988,0.17794
0.992,0.21189
0.996,0.19629
1.0,0.18912
1.004,0.16871
1.008,0.17522
1.012,0.13814
1.016,0.15347
1.02,0.13583
1.024,0.14672
1.028,0.14357
1.032,0.10049
1.036,0.10341
1.04,0.0749
1.044,0.07077
1.048,0.07616
1.052,0.04427
1.056,0.03837
1.06,0.04659
1.064,0.02834
1.068,-0.00024
1.072,-0.01249
1.076,0.03335
1.08,0.01292
1.084,-0.0096
1.088,-0.00939
1.092,-0.02354
1.096,0.01284
1.1,-0.02454
1.104,-0.01618
1.108,-0.01492
1.112,-0.02851
1.116,-0.05364
1.12,-0.01888
1.124,-0.03411
1.128,-0.02756
1.132,-0.03296
1.136,-0.02756
1.14,-0.03639
1.144,-0.02496
1.148,-0.03927
1.152,-0.02741
1.156,-0.04305
1.16,-0.03993
1.164,-0.0458
1.168,-0.03574
1.172,-0.03244
1.176,-0.0426
1.18,-0.02852
1.184,-0.02645
1.188,-0.03884
1.192,-0.01377
1.196,-0.04471
1.2,-0.03812
1.204,-0.05656
1.208,-0.03207
1.212,0.00449
1.216,-0.04426
1.22,-0.00578
1.224,-0.01927
1.228,0.00805
1.232,-0.02426
1.236,-0.02476
1.24,-0.03682
1.244,-0.01258
1.248,-0.03042
1.252,-0.00671
1.256,-0.04253
1.26,-0.03168
1.264,0.00401
1.268,-0.05844
1.272,-0.01626
1.276,-0.03638
1.28,-0.01857
1.284,-0.0442
1.288,-0.02603
1.292,-0.04615
1.296,-0.00694
1.3,-0.02848
1.304,-0.0465
1.308,-0.03715
1.312,-0.02295
1.316,-0.01001
1.32,-0.01626
1.324,-0.0403
1.328,-0.03712
1.332,-0.01357
1.336,-0.00096
1.34,-0.04757
1.344,-0.05149
1.348,-0.0161
1.352,-0.03394
1.356,-0.02879
1.36,-0.00259
1.364,0.00021
1.368,-0.01335
1.372,-0.04553
1.376,-0.05275
1.38,-0.05844
1.384,-0.04559
1.388,-0.03144
1.392,-0.01903
1.396,-0.01148
1.4,-0.04794
1.404,-0.03348
1.408,0.0061
1.412,-0.04171
1.416,-0.00672
1.42,-0.01358
1.424,0.00301
1.428,-0.02539
1.432,-0.01116
1.436,-0.03307
1.44,-0.02725
1.444,-0.04088
1.448,-0.03552
1.452,-0.02113
1.456,0.00256
1.46,-0.0212
1.464,-0.01257
1.468,-0.03607
1.472,-0.01422
1.476,-0.01353
1.48,-0.01362
1.484,-0.01081
1.488,-0.00999
1.492,-0.0041
1.496,-0.01152
1.5,-0.02213
1.504,-0.01185
1.508,0.01511
1.512,-0.00451
1.516,-0.00586
1.52,-0.01233
1.524,0.02073
1.528,0.03344
1.532,0.04235
1.536,0.0483
1.54,0.04291
1.544,0.04871
1.548,0.08734
1.552,0.06634
1.556,0.08386
1.56,0.02554
1.564,0.03417
1.568,0.0111
1.572,0.0201
1.576,-0.00595
1.58,0.0092
1.584,-0.02122
1.588,-0.02372
1.592,-0.00059
1.596,-0.03624
1.6,-0.01414
1.604,-0.02591
1.608,-0.02716
1.612,-0.00723
1.616,-0.00515
1.62,-0.01571
1.624,-0.0072
1.628,-0.03265
1.632,-0.03141
1.636,-0.00522
1.64,-0.01855
1.644,-0.07761
1.648,-0.01594
1.652,-0.0414
1.656,-0.04681
1.66,-0.03128
1.664,-0.04552
1.668,-0.08316
1.672,-0.10996
1.676,-0.15248
1.68,-0.11091
1.684,-0.00906
1.688,0.16812
1.692,0.37402
1.696,0.57259
1.7,0.78023
1.704,0.89664
1.708,0.96293
1.712,0.89489
1.716,0.76776
1.72,0.52313
1.724,0.34669
1.728,0.13126
1.732,-0.05185
1.736,-0.1563
1.74,-0.16272
1.744,-0.15297
1.748,-0.1303
1.752,-0.09727
1.756,-0.07161
1.76,-0.05396
1.764,-0.02589
1.768,-0.02452
1.772,0.00674
1.776,-0.00598
1.78,-0.03292
1.784,-0.04631
1.788,-0.01498
1.792,-0.03268
1.796,-0.02949
1.8,-0.0399
1.804,-0.03649
1.808,-0.03267
1.812,-0.03084
1.816,-0.02618
1.82,-0.02101
1.824,-0.04185
1.828,-0.00188
1.832,-0.02759
1.836,-0.01865
1.84,-0.02208
1.844,-0.02328
1.848,-0.0316
1.852,-0.00752
1.856,-0.0441
1.86,-0.01444
1.864,-0.01482
1.868,-0.01391
1.872,-0.00753
1.876,-0.02825
1.88,-0.01017
1.884,0.01617
1.888,0.01797
1.892,0.01269
1.896,0.0055
1.9,0.02416
1.904,0.01754
1.908,0.03017
1.912,0.03306
1.916,0.02944
1.92,0.03051
1.924,0.04733
1.928,0.06375
1.932,0.09263
1.936,0.07078
1.94,0.09164
1.944,0.09267
1.948,0.09898
1.952,0.15256
1.956,0.15142
1.96,0.1507
1.964,0.14657
1.968,0.16719
1.972,0.18828
1.976,0.21642
1.98,0.19515
1.984,0.18261
1.988,0.20642
1.992,0.20659
1.996,0.18883
2.0,0.19613
2.004,0.17516
2.008,0.18754
2.012,0.19416
2.016,0.15259
2.02,0.15472
2.024,0.17349
2.028,0.13046
2.032,0.1488
2.036,0.12911
2.04,0.09785
2.044,0.07335
2.048,0.07239
2.052,0.04924
2.056,0.07005
2.06,0.0534
2.064,0.01467
2.068,0.03673
2.072,0.03128
2.076,0.03002
2.08,0.00461
2.084,0.00743
2.088,0.00162
2.092,-0.01147
2.096,0.01732
2.1,-0.02367
2.104,-0.01258
2.108,-0.0083
2.112,0.01486
2.116,-0.02087
2.12,-0.01856
2.124,-0.02734
2.128,-0.01915
2.132,-0.0207
2.136,-0.00768
2.14,-0.03862
2.144,-0.00239
2.148,-0.01616
2.152,-0.00337
2.156,-0.01199
2.16,-0.04108
2.164,-0.04146
2.168,0.00334
2.172,0.00124
2.176,-0.02663
2.18,0.00408
2.184,-0.02638
2.188,-0.01185
2.192,-0.01573
2.196,-0.01244
2.2,-0.02822
2.204,-0.01174
2.208,-0.02936
2.212,0.00513
2.216,-0.02461
2.22,0.01519
2.224,-0.0222
2.228,0.01213
2.232,-0.02483
2.236,-0.01434
2.24,-0.00647
2.244,-0.00135
2.248,-0.01605
2.252,-0.00289
2.256,-0.0148
2.26,-0.03319
2.264,0.00876
2.268,-0.01756
2.272,-0.01366
2.276,-0.00642
2.28,-0.02854
2.284,-0.01871
2.288,0.02691
2.292,-0.03044
2.296,0.00133
2.3,-0.01421
2.304,-0.0146
2.308,-0.00478
2.312,0.00608
2.316,0.00515
2.32,-0.03001
2.324,-0.01046
2.328,0.02064
2.332,0.01638
2.336,0.00716
2.34,-0.01566
2.344,-0.00704
2.348,0.01222
2.352,-0.00072
2.356,-0.03242
2.36,-0.01658
2.364,-0.0112
2.368,-0.02792
2.372,-0.00829
2.376,-0.0022
2.38,-0.00855
2.384,-0.002
2.388,-0.00995
2.392,0.02002
2.396,-0.01999
2.4,-0.0049
2.404,-0.02823
2.408,-0.00393
2.412,-0.01176
2.416,-0.02191
2.42,0.01032
2.424,0.00485
2.428,-0.0099
2.432,-0.0023
2.436,-0.03039
2.44,-0.0066
2.444,-0.00073
2.448,-0.00444
2.452,0.01833
2.456,-0.02829
2.46,0.00733
2.464,-0.01146
2.468,-0.02407
2.472,0.00976
2.476,0.00379
2.48,0.00407
2.484,0.00117
2.488,-0.01042
2.492,0.02402
2.496,0.01119
2.5,-0.01287
2.504,0.00132
2.508,-0.02183
2.512,-0.009
2.516,0.00585
2.52,0.01313
2.524,0.0274
2.528,-0.00641
2.532,0.00561
2.536,0.0084
2.54,0.0023
2.544,0.02049
2.548,0.01434
2.552,0.00533
2.556,0.00802
2.56,0.02574
2.564,0.03706
2.568,0.07996
2.572,0.08528
2.576,0.08113
2.58,0.10233
2.584,0.1112
2.588,0.13053
2.592,0.0906
2.596,0.10394
2.6,0.08082
2.604,0.04584
2.608,0.05824
2.612,0.06712
2.616,0.05689
2.62,0.01951
2.624,0.00558
2.628,0.00749
2.632,-0.00942
2.636,-0.00118
2.64,0.00581
2.644,0.0001
2.648,-0.00958
2.652,-0.0121
2.656,-0.00793
2.66,-0.00495
2.664,-0.01322
2.668,0.00826
2.672,-0.00534
2.676,0.02381
2.68,0.03139
2.684,0.00333
2.688,-0.01083
2.692,0.00204
2.696,-0.02755
2.7,-0.01499
2.704,-0.03157
2.708,-0.10036
2.712,-0.12328
2.716,-0.11654
2.72,-0.03424
2.724,0.07023
2.728,0.24932
2.732,0.46634
2.736,0.70213
2.74,0.86992
2.744,0.97022
2.748,0.97748
2.752,0.87414
2.756,0.69699
2.76,0.48601
2.764,0.22295
2.768,0.05282
2.772,-0.05382
2.776,-0.12312
2.78,-0.16667
2.784,-0.11537
2.788,-0.04602
2.792,-0.04502
2.796,-0.04376
2.8,0.00622
2.804,-0.02834
2.808,0.02512
2.812,-0.00638
2.816,-0.0088
2.82,-0.01301
2.824,-0.00832
2.828,0.01235
2.832,-0.0065
2.836,0.00642
2.84,-8e-05
2.844,0.01798
2.848,0.00077
2.852,-0.00994
2.856,0.00284
2.86,-0.00422
2.864,-0.00966
2.868,0.01244
2.872,0.0328
2.876,0.00954
2.88,-0.01886
2.884,-0.0145
2.888,0.00446
2.892,0.01523
2.896,0.01981
2.9,-0.00406
2.904,0.03599
2.908,0.01233
2.912,0.02384
2.916,0.00571
2.92,-0.00494
2.924,0.03899
2.928,0.00865
2.932,0.01055
2.936,0.038
2.94,0.04164
2.944,0.04765
2.948,0.05818
2.952,0.08054
2.956,0.08297
2.96,0.08958
2.964,0.07937
2.968,0.0937
2.972,0.13094
2.976,0.11391
2.98,0.1499
2.984,0.1663
2.988,0.15064
2.992,0.17745
2.996,0.19501
3.0,0.19265
3.004,0.21446
3.008,0.2281
3.012,0.22159
3.016,0.20128
3.02,0.19736
3.024,0.22561
3.028,0.23484
3.032,0.22844
3.036,0.21704
3.04,0.20424
3.044,0.20988
3.048,0.19857
3.052,0.1802
3.056,0.18717
3.06,0.16428
3.064,0.19524
3.068,0.1439
3.072,0.13772
3.076,0.13971
3.08,0.12908
3.084,0.10502
3.088,0.11437
3.092,0.08274
3.096,0.09657
3.1,0.07423
3.104,0.05039
3.108,0.04572
3.112,0.05021
3.116,0.03287
3.12,0.02437
3.124,0.03901
3.128,0.04114
3.132,0.02529
3.136,0.01934
3.14,0.00102
3.144,0.02697
3.148,0.02968
3.152,0.05032
3.156,0.03235
3.16,0.00455
3.164,-0.01803
3.168,0.01325
3.172,0.04007
3.176,0.01586
3.18,0.01485
3.184,-0.00415
3.188,-0.00167
3.192,0.00668
3.196,0.03829
3.2,-0.01998
3.204,0.02095
3.208,0.02275
3.212,0.0319
3.216,0.00784
3.22,0.03448
3.224,0.05231
3.228,-0.00521
3.232,0.02134
3.236,0.02937
3.24,0.02079
3.244,0.03412
3.248,-0.02014
3.252,0.02618
3.256,0.02474
3.26,0.02942
3.264,0.00894
3.268,0.024
3.272,0.01613
3.276,0.05189
3.28,-0.00802
3.284,0.00497
3.288,0.0035
3.292,0.02453
3.296,0.02364
3.3,0.04349
3.304,0.01154
3.308,0.01488
3.312,0.02121
3.316,-0.00896
3.32,0.00447
3.324,0.02405
3.328,0.01871
3.332,0.04521
3.336,0.02478
3.34,0.02063
3.344,0.02712
3.348,0.02275
3.352,0.04169
3.356,0.01753
3.36,0.04041
3.364,0.02755
3.368,0.00794
3.372,0.02596
3.376,0.00822
3.38,0.02201
3.384,0.00673
3.388,0.01419
3.392,-0.00427
3.396,0.02383
3.4,0.02903
3.404,0.01921
3.408,0.03599
3.412,0.02193
3.416,0.0232
3.42,0.0105
3.424,0.04793
3.428,0.03682
3.432,-0.01762
3.436,0.01536
3.44,0.03752
3.444,0.00515
3.448,0.05235
3.452,-0.01159
3.456,0.00873
3.46,0.01565
3.464,0.03069
3.468,-0.00888
3.472,0.03464
3.476,0.04915
3.48,0.02071
3.484,0.05201
3.488,0.05156
3.492,0.03607
3.496,0.07508
3.5,0.09505
3.504,0.09456
3.508,0.11426
3.512,0.08978
3.516,0.12293
3.52,0.10924
3.524,0.10144
3.528,0.11544
3.532,0.10915
3.536,0.10069
3.54,0.05972
3.544,0.05391
3.548,0.06116
3.552,0.05462
3.556,0.06685
3.56,0.01823
3.564,0.03789
3.568,0.04645
3.572,0.03545
3.576,0.04784
3.58,0.04257
3.584,0.03597
3.588,0.0184
3.592,0.04223
3.596,0.00849
3.6,0.00291
3.604,0.04148
3.608,0.02545
3.612,0.01105
3.616,0.01153
3.62,0.01462
3.624,-0.00133
3.628,0.03776
3.632,-0.00881
3.636,-0.00436
3.64,-0.00187
3.644,-0.08933
3.648,-0.10164
3.652,-0.07524
3.656,-0.0197
3.66,0.13891
3.664,0.28362
3.668,0.54712
3.672,0.72529
3.676,0.92571
3.68,1.00801
3.684,0.98203
3.688,0.87385
3.692,0.69685
3.696,0.46238
3.7,0.22985
3.704,0.05336
3.708,-0.0498
3.712,-0.11074
3.716,-0.13661
3.72,-0.11278
3.724,-0.07028
3.728,-0.01627
3.732,-0.0091
3.736,7e-05
3.74,-0.00053
3.744,0.04259
3.748,0.02616
3.752,0.01987
3.756,0.00223
3.76,0.02537
3.764,-0.00728
3.768,-0.00301
3.772,0.03121
3.776,0.02524
3.78,0.04564
3.784,0.01899
3.788,0.00361
3.792,0.04071
3.796,0.01062
3.8,0.02065
3.804,0.01644
3.808,0.02683
3.812,0.03318
3.816,0.02084
3.82,0.03625
3.824,0.02285
3.828,0.04388
3.832,0.02862
3.836,0.01726
3.84,-0.00421
3.844,0.02206
3.848,0.03902
3.852,0.05256
3.856,0.02831
3.86,0.03363
3.864,0.03887
3.868,0.03384
3.872,0.02517
3.876,0.04785
3.88,0.07638
3.884,0.08763
3.888,0.07995
3.892,0.07092
3.896,0.08834
3.9,0.11308
3.904,0.13428
3.908,0.11078
3.912,0.14324
3.916,0.1381
3.92,0.17367
3.924,0.18839
3.928,0.20316
3.932,0.20698
3.936,0.19825
3.94,0.23748
3.944,0.22558
3.948,0.23316
3.952,0.26356
3.956,0.23888
3.96,0.24696
3.964,0.2584
3.968,0.25823
3.972,0.24126
3.976,0.21455
3.98,0.21816
3.984,0.21638
3.988,0.21877
3.992,0.20513
3.996,0.19898
4.0,0.20067
4.004,0.16716
4.008,0.15723
4.012,0.14564
4.016,0.13929
4.02,0.12216
4.024,0.11571
4.028,0.12293
4.032,0.1047
4.036,0.07382
4.04,0.0801
4.044,0.0784
4.048,0.06716
4.052,0.06954
4.056,0.04744
4.06,0.06912
4.064,0.04541
4.068,0.04838
4.072,0.03966
4.076,0.04673
4.08,0.01867
4.084,0.03042
4.088,0.05389
4.092,0.04207
4.096,0.00256
4.1,0.00817
4.104,0.04601
4.108,0.03881
4.112,0.03703
4.116,0.03195
4.12,0.05119
4.124,0.03525
4.128,0.00673
4.132,0.03956
4.136,0.03368
4.14,0.02553
4.144,0.03436
4.148,0.04768
4.152,0.02874
4.156,0.04991
4.16,0.04671
4.164,0.04722
4.168,0.0278
4.172,0.02388
4.176,0.03847
4.18,0.0108
4.184,0.02572
4.188,0.02357
4.192,0.01957
4.196,0.0149
4.2,0.05111
4.204,0.05198
4.208,0.02472
4.212,0.05376
4.216,0.03697
4.22,0.04143
4.224,0.05226
4.228,0.04232
4.232,0.01214
4.236,0.02627
4.24,0.01391
4.244,0.03487
4.248,0.05249
4.252,0.05079
4.256,0.05683
4.26,0.03965
4.264,0.05952
4.268,0.04708
4.272,0.04959
4.276,0.03212
4.28,0.00561
4.284,0.00388
4.288,0.02887
4.292,0.04936
4.296,0.04009
4.3,0.03145
4.304,0.04015
4.308,0.02442
4.312,0.04109
4.316,-0.0051
4.32,0.02537
4.324,0.02863
4.328,0.02317
4.332,0.04428
4.336,0.02149
4.34,0.04654
4.344,0.03626
4.348,0.03417
4.352,0.03643
4.356,0.06275
4.36,0.0344
4.364,0.05267
4.368,0.01793
4.372,0.02416
4.376,0.04966
4.38,0.02536
4.384,0.0343
4.388,0.02949
4.392,0.07235
4.396,0.08928
4.4,0.08043
4.404,0.08399
4.408,0.07495
4.412,0.07843
4.416,0.12949
4.42,0.12133
4.424,0.14393
4.428,0.12524
4.432,0.12239
4.436,0.1158
4.44,0.09173
4.444,0.06956
4.448,0.04828
4.452,0.06502
4.456,0.05376
4.46,0.04024
4.464,0.06686
4.468,0.03967
4.472,0.04236
4.476,0.02048
4.48,0.04332
4.484,0.01303
4.488,0.03188
4.492,0.03416
4.496,0.0281
4.5,0.00515
4.504,0.02933
4.508,0.02966
4.512,0.02425
4.516,0.04959
4.52,0.06907
4.524,0.02202
4.528,0.02273
4.532,0.01593
4.536,0.04123
4.54,0.02683
4.544,-0.02007
4.548,-0.05904
4.552,-0.09956
4.556,-0.05042
4.56,0.04164
4.564,0.15153
4.568,0.35155
4.572,0.55287
4.576,0.73724
4.58,0.93161
4.584,1.00938
4.588,0.98033
4.592,0.88539
4.596,0.68027
4.6,0.47158
4.604,0.23014
4.608,0.0676
4.612,-0.04542
4.616,-0.10644
4.62,-0.16687
4.624,-0.09938
4.628,-0.05818
4.632,-0.031
4.636,-0.00118
4.64,0.03411
4.644,0.02609
4.648,0.03325
4.652,0.01922
4.656,0.01594
4.66,0.01852
4.664,0.03614
4.668,-0.00405
4.672,0.02292
4.676,0.03469
4.68,9e-05
4.684,0.03427
4.688,0.0605
4.692,0.02235
4.696,0.03179
4.7,0.03162
4.704,0.0211
4.708,0.00963
4.712,0.02518
4.716,0.03132
4.72,0.02392
4.724,0.01543
4.728,0.04089
4.732,0.04191
4.736,0.00259
4.74,0.03491
4.744,0.02298
4.748,0.05245
4.752,0.06349
4.756,0.03089
4.76,0.02865
4.764,0.0663
4.768,0.06311
4.772,0.04952
4.776,0.07703
4.78,0.03135
4.784,0.05265
4.788,0.07325
4.792,0.09202
4.796,0.10187
4.8,0.08916
4.804,0.12068
4.808,0.11864
4.812,0.14159
4.816,0.1754
4.82,0.13576
4.824,0.17947
4.828,0.20531
4.832,0.1911
4.836,0.20054
4.84,0.18311
4.844,0.21123
4.848,0.22855
4.852,0.22487
4.856,0.2324
4.86,0.22578
4.864,0.2518
4.868,0.25852
4.872,0.24089
4.876,0.25842
4.88,0.23292
4.884,0.23667
4.888,0.21366
4.892,0.19924
4.896,0.23005
4.9,0.18567
4.904,0.16998
4.908,0.16481
4.912,0.1482
4.916,0.13324
4.92,0.10099
4.924,0.10317
4.928,0.10762
4.932,0.11071
4.936,0.07617
4.94,0.08471
4.944,0.06414
4.948,0.09231
4.952,0.06346
4.956,0.0539
4.96,0.05885
4.964,0.03717
4.968,0.04916
4.972,0.03667
4.976,0.03591
4.98,0.03795
4.984,0.04746
4.988,0.04159
4.992,0.03948
4.996,0.00984
5.0,-0.01797
5.004,-0.00149
5.008,0.00226
5.012,0.04865
5.016,0.01428
5.02,0.0282
5.024,0.02541
5.028,0.03083
5.032,0.04401
5.036,0.02887
5.04,0.03591
5.044,0.01589
5.048,0.02317
5.052,0.03587
5.056,0.02526
5.06,0.00646
5.064,-0.01139
5.068,0.02797
5.072,0.03786
5.076,0.0218
5.08,0.02234
5.084,0.0199
5.088,0.0353
5.092,0.00976
5.096,0.01727
5.1,0.02048
5.104,0.02592
5.108,0.0255
5.112,0.01181
5.116,0.02618
5.12,0.03257
5.124,0.03135
5.128,0.02169
5.132,0.01319
5.136,0.03874
5.14,0.00694
5.144,0.04244
5.148,-0.00619
5.152,0.00897
5.156,0.03559
5.16,0.02096
5.164,0.01977
5.168,0.01346
5.172,0.02811
5.176,0.01043
5.18,0.04617
5.184,0.02824
5.188,0.01436
5.192,0.03843
5.196,0.00131
5.2,0.0003
5.204,0.01898
5.208,0.03217
5.212,0.00901
5.216,0.03348
5.22,0.01659
5.224,0.03513
5.228,0.01157
5.232,-0.00988
5.236,0.02542
5.24,0.00832
5.244,0.01526
5.248,0.02798
5.252,0.01751
5.256,0.04926
5.26,0.01436
5.264,0.02234
5.268,0.03748
5.272,0.05988
5.276,0.06248
5.28,0.08764
5.284,0.07264
5.288,0.06711
5.292,0.09019
5.296,0.09724
5.3,0.09907
5.304,0.13025
5.308,0.12354
5.312,0.12145
5.316,0.10518
5.32,0.09977
5.324,0.10576
5.328,0.05883
5.332,0.03562
5.336,0.02812
5.34,-0.00205
5.344,0.03769
5.348,0.01789
5.352,0.00434
5.356,0.03303
5.36,0.01752
5.364,0.01324
5.368,0.03192
5.372,0.01205
5.376,0.02454
5.38,0.02127
5.384,0.02025
5.388,0.01638
5.392,-0.00034
5.396,0.02148
5.4,0.01759
5.404,0.02737
5.408,3e-05
5.412,0.01921
5.416,0.01068
5.42,-0.03014
5.424,-0.05271
5.428,-0.0892
5.432,-0.08402
5.436,-0.02456
5.44,0.07859
5.444,0.25057
5.448,0.47439
5.452,0.68306
5.456,0.88014
5.46,1.00316
5.464,0.98419
5.468,0.88903
5.472,0.72499
5.476,0.50915
5.48,0.26829
5.484,0.06968
5.488,-0.06797
5.492,-0.12511
5.496,-0.1667
5.5,-0.12301
5.504,-0.07798
5.508,-0.03801
5.512,-0.00572
5.516,0.01455
5.52,0.01116
5.524,0.01998
5.528,0.00257
5.532,0.00586
5.536,-0.00263
5.54,-0.00105
5.544,-0.01307
5.548,0.00039
5.552,0.00832
5.556,0.02139
5.56,-0.00825
5.564,0.0013
5.568,0.01115
5.572,0.02569
5.576,0.02478
5.58,-0.01228
5.584,0.01305
5.588,0.03198
5.592,-0.00951
5.596,-0.00276
5.6,0.02414
5.604,0.02022
5.608,0.01276
5.612,-0.02079
5.616,0.04132
5.62,0.03646
5.624,0.02149
5.628,-0.01261
5.632,0.01774
5.636,0.02014
5.64,0.00626
5.644,0.01563
5.648,0.04221
5.652,0.05579
5.656,0.07502
5.66,0.05899
5.664,0.0519
5.668,0.08789
5.672,0.06698
5.676,0.07364
5.68,0.10131
5.684,0.0933
5.688,0.12771
5.692,0.09968
5.696,0.13494
5.7,0.14161
5.704,0.16969
5.708,0.18466
5.712,0.18608
5.716,0.17995
5.72,0.21573
5.724,0.22733
5.728,0.17896
5.732,0.23624
5.736,0.22929
5.74,0.22783
5.744,0.2425
5.748,0.22876
5.752,0.21162
5.756,0.22337
5.76,0.20172
5.764,0.19276
5.768,0.1925
5.772,0.19701
5.776,0.16997
5.78,0.17555
5.784,0.1664
5.788,0.1255
5.792,0.1305
5.796,0.12561
5.8,0.08461
5.804,0.13006
5.808,0.09454
5.812,0.04162
5.816,0.08387
5.82,0.07269
5.824,0.05586
5.828,0.04675
5.832,0.01968
5.836,0.02718
5.84,0.01217
5.844,0.01469
5.848,0.04848
5.852,0.01457
5.856,-0.00908
5.86,-0.00295
5.864,0.01106
5.868,0.01633
5.872,0.0301
5.876,0.01201
5.88,-0.00931
5.884,0.04167
5.888,-0.00169
5.892,0.01105
5.896,0.00883
5.9,-0.0192
5.904,0.01993
5.908,-0.01839
5.912,0.00865
5.916,-0.0356
5.92,-0.0077
5.924,0.02796
5.928,-0.00227
5.932,0.01246
5.936,0.00199
5.94,0.0016
5.944,-0.01492
5.948,-0.00769
5.952,0.01396
5.956,0.00756
5.96,-0.00382
5.964,-0.00303
5.968,-0.00505
5.972,0.01426
5.976,-0.00285
5.98,0.00132
5.984,-0.01921
5.988,-0.0048
5.992,0.00305
5.996,-0.02736
6.0,0.01867
6.004,-0.00282
6.008,-0.0123
6.012,-0.01174
6.016,0.0234
6.02,0.00815
6.024,0.00563
6.028,0.0033
6.032,0.00938
6.036,-0.02503
6.04,0.01131
6.044,-0.00581
6.048,0.02192
6.052,0.00106
6.056,-0.00444
6.06,0.01665
6.064,-0.00412
6.068,0.00912
6.072,0.00997
6.076,-0.00693
6.08,0.01278
6.084,0.01398
6.088,-0.01554
6.092,-0.02101
6.096,0.00158
6.1,-0.0115
6.104,-0.00927
6.108,-0.01694
6.112,0.01069
6.116,0.00129
6.12,0.00448
6.124,-0.02656
6.128,0.03289
6.132,-0.00323
6.136,0.00891
6.14,0.00395
6.144,0.00034
6.148,-0.00516
6.152,-0.00728
6.156,-0.03018
6.16,0.00039
6.164,-0.01405
6.168,0.00487
6.172,0.00826
6.176,0.01828
6.18,-0.03676
6.184,-0.01513
6.188,0.00469
6.192,-0.02393
6.196,-0.02564
6.2,-0.0002
6.204,-0.00539
6.208,0.00363
6.212,0.00187
6.216,0.04837
6.22,0.06172
6.224,0.03377
6.228,0.05851
6.232,0.04005
6.236,0.07973
6.24,0.08499
6.244,0.11531
6.248,0.10174
6.252,0.07675
6.256,0.09508
6.26,0.06757
6.264,0.02901
6.268,0.08331
6.272,0.03384
6.276,0.04454
6.28,0.03826
6.284,-0.00055
6.288,-0.01558
6.292,-0.00751
6.296,-0.01092
6.3,-0.02455
6.304,0.00178
6.308,-0.01448
6.312,0.00482
6.316,-0.01429
6.32,-0.03356
6.324,-0.0015
6.328,-0.02305
6.332,0.00545
6.336,0.00817
6.34,0.00138
6.344,0.00137
6.348,0.01179
6.352,-0.01635
6.356,-0.02197
6.36,-0.04784
6.364,-0.04593
6.368,-0.06807
6.372,-0.11061
6.376,-0.1119
6.38,-0.09194
6.384,0.05185
6.388,0.23461
6.392,0.41812
6.396,0.64222
6.4,0.82593
6.404,0.97826
6.408,0.98483
6.412,0.88819
6.416,0.7072
6.42,0.4918
6.424,0.26391
6.428,0.07407
6.432,-0.07255
6.436,-0.16167
6.44,-0.1701
6.444,-0.15838
6.448,-0.09515
6.452,-0.02663
6.456,-0.01663
6.46,-0.02896
6.464,-0.02467
6.468,-0.00424
6.472,-0.02482
6.476,-0.01915
6.48,-0.01296
6.484,-0.05586
6.488,0.01212
6.492,0.01137
6.496,0.00329
6.5,-0.00827
6.504,0.00132
6.508,-0.01236
6.512,-0.00989
6.516,-0.012
6.52,-0.00537
6.524,-0.03209
6.528,0.00243
6.532,-0.01113
6.536,0.0113
6.54,-0.00953
6.544,-0.02256
6.548,-0.01063
6.552,-0.03308
6.556,-0.02138
6.56,-0.00244
6.564,0.00726
6.568,-0.01468
6.572,-0.00746
6.576,-0.01313
6.58,0.00688
6.584,0.0024
6.588,0.00295
6.592,0.02147
6.596,0.01162
6.6,-0.00519
6.604,0.0425
6.608,0.06815
6.612,0.03096
6.616,0.01988
6.62,0.05467
6.624,0.05791
6.628,0.06378
6.632,0.09314
6.636,0.12445
6.64,0.09144
6.644,0.13069
6.648,0.13782
6.652,0.14846
6.656,0.16941
6.66,0.15747
6.664,0.18008
6.668,0.18263
6.672,0.16331
6.676,0.19552
6.68,0.20343
6.684,0.22169
6.688,0.16825
6.692,0.19936
6.696,0.19886
6.7,0.19303
6.704,0.18937
6.708,0.19896
6.712,0.15169
6.716,0.15669
6.72,0.15641
6.724,0.11597
6.728,0.14056
6.732,0.10589
6.736,0.11016
6.74,0.08971
6.744,0.03443
6.748,0.07719
6.752,0.07823
6.756,0.07206
6.76,0.02556
6.764,0.03436
6.768,0.03318
6.772,0.02708
6.776,0.03399
6.78,0.02889
6.784,0.02192
6.788,0.00169
6.792,-0.00967
6.796,-0.00414
6.8,-0.01997
6.804,-0.02625
6.808,-0.03444
6.812,-0.02159
6.816,-0.01686
6.82,-0.0001
6.824,-0.01752
6.828,-0.04312
6.832,-0.00703
6.836,-0.01421
6.84,-0.00716
6.844,-0.02155
6.848,0.00102
6.852,-0.00034
6.856,-0.02967
6.86,-0.03216
6.864,-0.02067
6.868,-0.00023
6.872,-0.0034
6.876,-0.02374
6.88,-0.03101
6.884,-0.01418
6.888,-0.03445
6.892,-0.04965
6.896,-0.02539
6.9,-0.0205
6.904,-0.03322
6.908,-0.02415
6.912,-0.05019
6.916,-0.02107
6.92,-0.06733
6.924,-0.03162
6.928,-0.02818
6.932,-0.01996
6.936,-0.03027
6.94,-0.03365
6.944,-0.01715
6.948,-0.04528
6.952,0.00304
6.956,-0.0212
6.96,-0.00073
6.964,-0.0304
6.968,-0.00716
6.972,-0.06252
6.976,-0.02947
6.98,-0.00204
6.984,-0.02567
6.988,-0.0377
6.992,-0.02834
6.996,-0.01795
7.0,-0.01348
7.004,-0.03178
7.008,-0.03301
7.012,-0.02802
7.016,-0.03041
7.02,-0.03355
7.024,-0.03607
7.028,-0.02173
7.032,-0.00272
7.036,-0.01517
7.04,-0.02533
7.044,-0.02044
7.048,-0.005
7.052,-0.02878
7.056,-0.01002
7.06,-0.00142
7.064,0.03374
7.068,-0.00346
7.072,0.01218
7.076,0.03102
7.08,0.02576
7.084,0.04496
7.088,0.05576
7.092,0.06603
7.096,0.05503
7.1,0.06759
7.104,0.08155
7.108,0.03919
7.112,0.01472
7.116,-0.0061
7.12,0.01894
7.124,-0.00298
7.128,0.01648
7.132,-0.01436
7.136,0.00416
7.14,-0.05132
7.144,-0.04445
7.148,-0.03726
7.152,-0.02924
7.156,-0.03287
7.16,0.01512
7.164,-0.06179
7.168,-0.02641
7.172,-0.00223
7.176,-0.02508
7.18,-0.01826
7.184,-0.03291
7.188,-0.01665
7.192,-0.02406
7.196,-0.05017
7.2,-0.03932
7.204,-0.04832
7.208,-0.0587
7.212,-0.04584
7.216,-0.08869
7.22,-0.15153
7.224,-0.14043
7.228,-0.03697
7.232,0.06111
7.236,0.27039
7.24,0.52351
7.244,0.68818
7.248,0.87574
7.252,0.93969
7.256,0.96015
7.26,0.81546
7.264,0.65907
7.268,0.37832
7.272,0.17775
7.276,-0.0262
7.28,-0.10941
7.284,-0.18173
7.288,-0.19634
7.292,-0.1424
7.296,-0.1287
7.3,-0.05712
7.304,-0.03339
7.308,-0.0273
7.312,-0.00771
7.316,-0.04411
7.32,-0.01755
7.324,-0.0459
7.328,-0.0323
7.332,-0.02142
7.336,-0.05631
7.34,-0.03056
7.344,-0.03477
7.348,0.00074
7.352,-0.01074
7.356,-0.03409
7.36,-0.01485
7.364,-0.03897
7.368,-0.05489
7.372,-0.00405
7.376,-0.03101
7.38,-0.04257
7.384,-0.06472
7.388,-0.0188
7.392,-0.05373
7.396,-0.04879
7.4,-0.03838
7.404,-0.01783
7.408,-0.03246
7.412,-0.025
7.416,-0.01076
7.42,-0.01452
7.424,-0.02075
7.428,-0.00597
7.432,0.01574
7.436,-0.01195
7.44,-0.02566
7.444,-0.00819
7.448,0.03125
7.452,0.00869
7.456,0.01768
7.46,0.02075
7.464,0.0537
7.468,0.0426
7.472,0.07679
7.476,0.07871
7.48,0.06455
7.484,0.08465
7.488,0.09859
7.492,0.09916
7.496,0.12046
7.5,0.11917
7.504,0.14872
7.508,0.15471
7.512,0.19672
7.516,0.18671
7.52,0.16201
7.524,0.21084
7.528,0.17907
7.532,0.18908
7.536,0.20368
7.54,0.1856
7.544,0.16528
7.548,0.16461
7.552,0.18593
7.556,0.1616
7.56,0.14478
7.564,0.15982
7.568,0.13104
7.572,0.10567
7.576,0.1209
7.58,0.10475
7.584,0.06152
7.588,0.06513
7.592,0.05979
7.596,0.06827
7.6,0.05317
7.604,0.05684
7.608,0.03253
7.612,0.04142
7.616,0.02462
7.62,0.00713
7.624,-0.01228
7.628,-0.01039
7.632,-0.00278
7.636,0.00584
7.64,-0.01475
7.644,-0.01858
7.648,0.00442
7.652,-0.00059
7.656,-0.01329
7.66,-0.0361
7.664,-0.01915
7.668,-0.02224
7.672,-0.0101
7.676,-0.01879
7.68,-0.02991
7.684,-0.02193
7.688,-0.04242
7.692,-0.03758
7.696,-0.02683
7.7,-0.03404
7.704,-0.03511
7.708,-0.00645
7.712,-0.03593
7.716,-0.0325
7.72,-0.05469
7.724,-0.02888
7.728,-0.03963
7.732,-0.04071
7.736,-0.04886
7.74,-0.01252
7.744,-0.01975
7.748,-0.03386
7.752,-0.05278
7.756,-0.0374
7.76,-0.06644
7.764,-0.01358
7.768,-0.01955
7.772,-0.01581
7.776,-0.03407
7.78,-0.02785
7.784,-0.04445
7.788,-0.0226
7.792,-0.01612
7.796,-0.02365
7.8,-0.02257
7.804,-0.02966
7.808,-0.02422
7.812,-0.03746
7.816,-0.0347
7.82,-0.01733
7.824,-0.0403
7.828,-0.05878
7.832,-0.03146
7.836,0.00129
7.84,-0.01632
7.844,-0.05346
7.848,-0.04212
7.852,-0.01069
7.856,-0.03869
7.86,-0.05156
7.864,-0.03363
7.868,0.00421
7.872,-0.02464
7.876,-0.02741
7.88,-0.03434
7.884,-0.01934
7.888,0.01197
7.892,-0.06087
7.896,-0.01846
7.9,-0.02169
7.904,-0.01909
7.908,-0.03426
7.912,-0.00586
7.916,-0.02049
7.92,-0.017
7.924,-0.02095
7.928,-0.01262
7.932,-0.03467
7.936,-0.01809
7.94,-0.01055
7.944,-0.02574
7.948,-0.00686
7.952,-0.04459
7.956,-0.0281
7.96,-0.02128
7.964,-0.01341
7.968,-0.0162
7.972,-0.03934
7.976,-0.02424
7.98,-0.03861
7.984,-0.0404
7.988,-0.04038
7.992,-0.03214
7.996,-0.02534
8.0,-0.02481
8.004,0.00209
8.008,-0.01742
8.012,0.00951
8.016,-0.01019
8.02,0.00897
8.024,0.02086
8.028,0.04073
8.032,0.02919
8.036,0.07152
8.04,0.06656
8.044,0.04828
8.048,0.07341
8.052,0.09221
8.056,0.0677
8.06,0.07895
8.064,0.05422
8.068,0.03535
8.072,0.0131
8.076,0.01152
8.08,0.00983
8.084,-0.0059
8.088,-0.02012
8.092,-0.03457
8.096,-0.0129
8.1,-0.03766
8.104,-0.02994
8.108,-0.04572
8.112,-0.03278
8.116,-0.05041
8.12,-0.02576
8.124,-0.00108
8.128,-0.03126
8.132,-0.02717
8.136,-0.02446
8.14,-0.02771
8.144,-0.00968
8.148,-0.02117
8.152,0.00021
8.156,-0.0246
8.16,-0.0682
8.164,-0.07981
8.168,-0.09374
8.172,-0.11838
8.176,-0.15284
8.18,-0.07043
8.184,0.06534
8.188,0.22291
8.192,0.41812
8.196,0.65599
8.2,0.85018
8.204,0.94393
8.208,0.98388
8.212,0.87203
8.216,0.69676
8.22,0.43208
8.224,0.21075
8.228,0.02861
8.232,-0.12889
8.236,-0.16983
8.24,-0.18433
8.244,-0.15686
8.248,-0.10749
8.252,-0.05841
8.256,-0.03419
8.26,-0.02771
8.264,-0.01331
8.268,-0.02594
8.272,-0.01286
8.276,-0.03146
8.28,-0.02488
8.284,-0.00654
8.288,-0.02093
8.292,-0.00385
8.296,-0.03565
8.3,-0.03701
8.304,-0.02109
8.308,-0.03801
8.312,-0.029
8.316,-0.02198
8.32,0.00828
8.324,-0.02882
8.328,-0.01591
8.332,-0.03594
8.336,-0.00626
8.34,0.00866
8.344,-0.02948
8.348,-0.0272
8.352,-0.00548
8.356,-0.02433
8.36,-0.03177
8.364,-0.01549
8.368,-0.02261
8.372,-0.02907
8.376,-0.00553
8.38,0.01244
8.384,0.00302
8.388,-0.00567
8.392,0.00774
8.396,0.00694
8.4,0.0061
8.404,0.01834
8.408,0.025
8.412,0.03849
8.416,0.05428
8.42,0.05664
8.424,0.05658
8.428,0.08164
8.432,0.08205
8.436,0.09116
8.44,0.07959
8.444,0.13225
8.448,0.13011
8.452,0.1272
8.456,0.14713
8.46,0.17802
8.464,0.16572
8.468,0.17564
8.472,0.18462
8.476,0.20861
8.48,0.22023
8.484,0.21679
8.488,0.1987
8.492,0.21042
8.496,0.18348
8.5,0.18032
8.504,0.17392
8.508,0.1919
8.512,0.15795
8.516,0.14862
8.52,0.16069
8.524,0.13384
8.528,0.15349
8.532,0.1003
8.536,0.10423
8.54,0.08306
8.544,0.10396
8.548,0.04973
8.552,0.07023
8.556,0.06114
8.56,0.04431
8.564,0.02954
8.568,0.05529
8.572,-0.00435
8.576,-0.01649
8.58,0.01101
8.584,0.01829
8.588,-0.01022
8.592,0.00852
8.596,0.00872
8.6,-0.01702
8.604,0.00911
8.608,-0.01601
8.612,0.02722
8.616,-0.01595
8.62,-0.0309
8.624,-0.01826
8.628,-0.00269
8.632,-0.0029
8.636,-0.02037
8.64,-0.0119
8.644,-0.01642
8.648,-0.02143
8.652,-0.01552
8.656,-0.04122
8.66,-0.03824
8.664,-0.04356
8.668,-0.00849
8.672,-0.04734
8.676,-0.01733
8.68,-0.01827
8.684,-0.00219
8.688,-0.02018
8.692,0.00246
8.696,-0.01475
8.7,-0.0202
8.704,-0.01384
8.708,-0.03805
8.712,-0.02529
8.716,0.00014
8.72,-0.0148
8.724,-0.02588
8.728,-0.00256
8.732,-0.06666
8.736,-0.03295
8.74,-0.00498
8.744,-0.0461
8.748,0.00295
8.752,0.0032
8.756,-0.02474
8.76,-0.03533
8.764,-0.01469
8.768,-0.01991
8.772,-0.02075
8.776,-0.00807
8.78,-0.02875
8.784,-0.02147
8.788,-0.01566
8.792,-0.01551
8.796,-0.0288
8.8,-0.02932
8.804,-0.02279
8.808,0.00998
8.812,-0.00896
8.816,-0.01883
8.82,-0.0069
8.824,-0.0386
8.828,-0.02452
8.832,0.00725
8.836,-0.01042
8.84,-0.01699
8.844,-0.00171
8.848,-0.01704
8.852,0.01485
8.856,0.00197
8.86,-0.03131
8.864,-0.01943
8.868,0.01175
8.872,-0.04033
8.876,-0.02577
8.88,-0.01354
8.884,-0.04936
8.888,-0.0251
8.892,-0.0079
8.896,-0.01037
8.9,-0.04497
8.904,-0.02991
8.908,0.00881
8.912,-0.01117
8.916,-0.02508
8.92,-0.03047
8.924,-0.0132
8.928,-0.01292
8.932,0.00526
8.936,-0.00776
8.94,-0.01774
8.944,-0.00825
8.948,0.04388
8.952,0.03133
8.956,0.03843
8.96,0.05297
8.964,0.06122
8.968,0.06435
8.972,0.07874
8.976,0.12162
8.98,0.08248
8.984,0.08456
8.988,0.07828
8.992,0.03304
8.996,0.06429
9.0,0.0395
9.004,0.05809
9.008,0.0169
9.012,0.0042
9.016,0.0179
9.02,-0.00027
9.024,0.00884
9.028,0.01448
9.032,-0.01028
9.036,-0.01627
9.04,-0.0129
9.044,-0.01554
9.048,0.0039
9.052,-0.01608
9.056,0.00307
9.06,-0.01256
9.064,0.01818
9.068,0.01333
9.072,-0.0056
9.076,-0.02382
9.08,-0.02512
9.084,0.00143
9.088,0.00619
9.092,-0.02923
9.096,-0.03321
9.1,-0.08506
9.104,-0.11201
9.108,-0.12278
9.112,-0.01604
9.116,0.12093
9.12,0.29579
9.124,0.50757
9.128,0.74372
9.132,0.90987
9.136,0.97993
9.14,0.96466
9.144,0.84165
9.148,0.68351
9.152,0.413
9.156,0.19436
9.16,0.01424
9.164,-0.13122
9.168,-0.15847
9.172,-0.2208
9.176,-0.13044
9.18,-0.07177
9.184,-0.05971
9.188,-0.03722
9.192,-0.01836
9.196,-0.01951
9.2,0.0184
9.204,-0.00386
9.208,-0.00795
9.212,-0.0016
9.216,-0.00109
9.22,-0.03793
9.224,-0.01549
9.228,-0.01791
9.232,0.01782
9.236,-0.04071
9.24,0.01069
9.244,-0.00936
9.248,-0.01741
9.252,-0.00882
9.256,0.01068
9.26,0.00447
9.264,-0.01581
9.268,0.00466
9.272,0.00406
9.276,-0.01486
9.28,-0.00115
9.284,-0.01344
9.288,-0.00265
9.292,0.00537
9.296,0.03274
9.3,0.00675
9.304,0.01499
9.308,0.00601
9.312,0.03131
9.316,0.00388
9.32,0.06161
9.324,0.04328
9.328,0.03452
9.332,0.02645
9.336,0.03457
9.34,0.04996
9.344,0.05595
9.348,0.08232
9.352,0.09592
9.356,0.09351
9.36,0.10013
9.364,0.10617
9.368,0.1078
9.372,0.14011
9.376,0.16469
9.38,0.16733
9.384,0.18218
9.388,0.20484
9.392,0.1953
9.396,0.18666
9.4,0.19241
9.404,0.23657
9.408,0.21839
9.412,0.2157
9.416,0.24079
9.42,0.22776
9.424,0.21073
9.428,0.229
9.432,0.19446
9.436,0.216
9.44,0.18139
9.444,0.20232
9.448,0.18286
9.452,0.16924
9.456,0.16638
9.46,0.11082
9.464,0.12396
9.468,0.13537
9.472,0.10597
9.476,0.11986
9.48,0.09261
9.484,0.08573
9.488,0.09277
9.492,0.06299
9.496,0.04475
9.5,0.04079
9.504,0.01767
9.508,0.02886
9.512,0.04932
9.516,0.0222
9.52,0.02848
9.524,-0.00037
9.528,-0.00059
9.532,0.02335
9.536,-0.00343
9.54,0.00256
9.544,0.00925
9.548,-0.00267
9.552,0.01543
9.556,0.02751
9.56,0.01058
9.564,0.02211
9.568,0.02398
9.572,0.01766
9.576,0.00211
9.58,0.01441
9.584,0.02128
9.588,-0.01595
9.592,0.03059
9.596,0.00411
9.6,0.01132
9.604,-0.00236
9.608,0.02553
9.612,0.00667
9.616,0.01583
9.62,0.01675
9.624,0.02283
9.628,0.02047
9.632,-0.00873
9.636,0.00921
9.64,0.0207
9.644,-0.00409
9.648,0.00651
9.652,0.01795
9.656,0.01585
9.66,0.01189
9.664,0.02486
9.668,0.01036
9.672,0.01692
9.676,0.00898
9.68,0.02646
9.684,0.02295
9.688,0.01764
9.692,0.02268
9.696,0.05513
9.7,0.0513
9.704,0.06117
9.708,0.0949
9.712,0.10776
9.716,0.08444
9.72,0.11502
9.724,0.10476
9.728,0.11337
9.732,0.07809
9.736,0.09159
9.74,0.06857
9.744,0.08634
9.748,0.05256
9.752,0.04812
9.756,0.03951
9.76,0.03283
9.764,0.01958
9.768,0.00544
9.772,0.02533
9.776,0.00966
9.78,0.0156
9.784,0.00531
9.788,0.0239
9.792,0.02586
9.796,0.02797
9.8,0.01634
9.804,0.014
9.808,0.02557
9.812,0.02174
9.816,-0.00217
9.82,0.03112
9.824,0.01555
9.828,0.02768
9.832,0.03374
9.836,0.01076
9.84,-0.0106
9.844,-0.06039
9.848,-0.09098
9.852,-0.07828
9.856,-0.08765
9.86,0.00748
9.864,0.17656
9.868,0.33404
9.872,0.56565
9.876,0.76542
9.88,0.93095
9.884,1.00645
9.888,0.97785
9.892,0.83928
9.896,0.62246
9.9,0.37138
9.904,0.19922
9.908,0.01239
9.912,-0.08457
9.916,-0.14876
9.92,-0.16359
9.924,-0.07817
9.928,-0.06507
9.932,-0.02991
9.936,-0.00052
9.94,0.00303
9.944,-0.00273
9.948,0.02465
9.952,0.00671
9.956,0.02458
9.96,0.01989
9.964,-0.00795
9.968,0.00741
9.972,-0.00516
9.976,0.01287
9.98,0.01254
9.984,0.01477
9.988,0.02727
9.992,0.02848
9.996,0.01674
