t_seg,ecg_mV
0.0,-0.02467
0.004,0.05
0.008,0.05952
0.012,0.01812
0.016,0.03786
0.02,0.07183
0.024,0.03489
0.028,0.04673
0.032,0.01692
0.036,0.05436
0.04,-0.01216
0.044,0.07949
0.048,-0.00475
0.052,0.06562
0.056,-0.02251
0.06,-0.00455
0.064,0.04008
0.068,0.04648
0.072,0.02987
0.076,0.05414
0.08,0.02345
0.084,-0.00674
0.088,0.00659
0.092,0.03848
0.096,0.09112
0.1,0.05333
0.104,-0.01549
0.108,-0.01417
0.112,-0.02731
0.116,0.07111
0.12,0.0114
0.124,-0.00949
0.128,0.04021
0.132,0.02997
0.136,0.06475
0.14,0.00793
0.144,0.03085
0.148,0.01034
0.152,-0.00406
0.156,0.05994
0.16,0.05513
0.164,0.02362
0.168,-0.02653
0.172,0.06531
0.176,0.05039
0.18,0.08069
0.184,0.05233
0.188,0.03051
0.192,-0.01915
0.196,0.01324
0.2,0.04492
0.204,0.04305
0.208,0.02688
0.212,0.04219
0.216,0.03924
0.22,0.03347
0.224,0.01801
0.228,-0.02424
0.232,0.00756
0.236,0.04942
0.24,0.05361
0.244,0.06905
0.248,6e-05
0.252,0.03815
0.256,0.12797
0.26,0.03833
0.264,0.04936
0.268,0.14052
0.272,0.08726
0.276,0.13324
0.28,0.15928
0.284,0.14141
0.288,0.13408
0.292,0.15884
0.296,0.09799
0.3,0.14449
0.304,0.11067
0.308,0.0458
0.312,0.04702
0.316,0.0842
0.32,0.07176
0.324,0.02782
0.328,0.03683
0.332,0.06213
0.336,0.06433
0.34,0.02099
0.344,0.04422
0.348,0.04585
0.352,-0.03056
0.356,-0.00214
0.36,-0.00463
0.364,0.06415
0.368,0.05456
0.372,0.03156
0.376,-0.01202
0.38,0.00084
0.384,0.02508
0.388,0.06831
0.392,-0.00155
0.396,0.02159
0.4,0.07771
0.404,-0.03918
0.408,-0.03305
0.412,0.00618
0.416,0.00233
0.42,-0.02586
0.424,0.08361
0.428,0.19079
0.432,0.40999
0.436,0.58512
0.44,0.76956
0.444,0.98554
0.448,0.98143
0.452,0.95715
0.456,0.83657
0.46,0.63953
0.464,0.33439
0.468,0.17097
0.472,0.02616
0.476,-0.08008
0.48,-0.07012
0.484,-0.17752
0.488,-0.07372
0.492,-0.00412
0.496,-0.02555
0.5,0.01888
0.504,0.01513
0.508,0.06814
0.512,0.04486
0.516,0.05579
0.52,0.08209
0.524,0.02733
0.528,-0.0094
0.532,-0.02154
0.536,0.01093
0.54,0.01129
0.544,0.07463
0.548,0.04152
0.552,0.0231
0.556,0.06043
0.56,0.09313
0.564,0.02491
0.568,-0.00033
0.572,0.01515
0.576,0.02551
0.58,0.0848
0.584,0.0245
0.588,0.0414
0.592,0.07386
0.596,0.02675
0.6,-0.00253
0.604,-0.00367
0.608,0.05259
0.612,-0.00344
0.616,0.04088
0.62,0.06051
0.624,0.11934
0.628,0.0516
0.632,0.03744
0.636,0.08218
0.64,0.04703
0.644,0.0821
0.648,0.10328
0.652,0.02512
0.656,0.07462
0.66,0.10298
0.664,0.09414
0.668,0.11331
0.672,0.06256
0.676,0.08448
0.68,0.18482
0.684,0.15835
0.688,0.16775
0.692,0.24249
0.696,0.19541
0.7,0.17691
0.704,0.25683
0.708,0.26778
0.712,0.30858
0.716,0.20982
0.72,0.22219
0.724,0.22737
0.728,0.24522
0.732,0.19811
0.736,0.30705
0.74,0.24357
0.744,0.18799
0.748,0.17843
0.752,0.14849
0.756,0.22646
0.76,0.25837
0.764,0.10581
0.768,0.12258
0.772,0.14915
0.776,0.19681
0.78,0.11697
0.784,0.12703
0.788,0.08353
0.792,0.17439
0.796,0.09957
0.8,0.09303
0.804,0.1095
0.808,0.08783
0.812,0.05908
0.816,0.02855
0.82,0.10307
0.824,0.05357
0.828,0.06192
0.832,0.06182
0.836,0.05066
0.84,0.03958
0.844,0.05874
0.848,0.02226
0.852,0.07026
0.856,0.04035
0.86,0.0231
0.864,0.02737
0.868,0.11836
0.872,0.01478
0.876,0.01685
0.88,0.00571
0.884,0.03155
0.888,0.06907
0.892,0.04378
0.896,0.10277
0.9,0.1342
0.904,0.16397
0.908,0.03684
0.912,0.12745
0.916,0.10586
0.92,0.11446
0.924,0.06128
0.928,0.09167
0.932,0.08793
0.936,0.09604
0.94,0.10097
0.944,0.07127
0.948,0.05497
0.952,0.03458
0.956,-0.00276
0.96,0.03186
0.964,0.0648
0.968,0.11202
0.972,0.00216
0.976,-0.00864
0.98,0.02395
0.984,0.00847
0.988,-0.01033
0.992,0.00475
0.996,0.05167
1.0,0.05042
1.004,0.04761
1.008,-0.00321
1.012,-0.03522
1.016,0.07907
1.02,0.02272
1.024,0.03012
1.028,0.00083
1.032,0.00679
1.036,-0.03122
1.04,-0.10117
1.044,-0.10158
1.048,-0.07651
1.052,-0.06874
1.056,0.1569
1.06,0.27323
1.064,0.5219
1.068,0.7398
1.072,0.88753
1.076,1.02839
1.08,0.97567
1.084,0.92259
1.088,0.72978
1.092,0.52054
1.096,0.23404
1.1,0.04767
1.104,-0.11892
1.108,-0.07182
1.112,-0.23157
1.116,-0.09584
1.12,-0.04452
1.124,-0.02715
1.128,0.00912
1.132,0.05621
1.136,0.03615
1.14,0.04619
1.144,0.04624
1.148,0.03188
1.152,0.01437
1.156,0.00626
1.16,0.05413
1.164,0.01902
1.168,0.02846
1.172,0.03298
1.176,0.06023
1.18,0.05942
1.184,0.02912
1.188,0.02014
1.192,0.00795
1.196,0.04681
1.2,0.04261
1.204,0.00705
1.208,0.06084
1.212,-0.03751
1.216,0.05788
1.22,-0.01657
1.224,0.10192
1.228,0.06762
1.232,0.03656
1.236,0.08531
1.24,0.02194
1.244,0.11291
1.248,0.09088
1.252,0.13653
1.256,0.13146
1.26,0.16502
1.264,0.04162
1.268,0.20914
1.272,0.1627
1.276,0.12413
1.28,0.20762
1.284,0.06758
1.288,0.10663
1.292,0.1018
1.296,0.1594
1.3,0.10475
1.304,0.19118
1.308,0.16222
1.312,0.11057
1.316,0.19677
1.32,0.12218
1.324,0.17991
1.328,0.23323
1.332,0.20828
1.336,0.2726
1.34,0.22271
1.344,0.24864
1.348,0.23918
1.352,0.24175
1.356,0.21224
1.36,0.21995
1.364,0.24018
1.368,0.22512
1.372,0.20323
1.376,0.18893
1.38,0.13549
1.384,0.09068
1.388,0.09055
1.392,0.15423
1.396,0.17957
1.4,0.36144
1.404,0.44998
1.408,0.70851
1.412,0.80922
1.416,1.05489
1.42,1.10228
1.424,1.07236
1.428,0.84713
1.432,0.70383
1.436,0.3829
1.44,0.21614
1.444,0.03265
1.448,-0.05983
1.452,-0.10053
1.456,-0.10322
1.46,-0.16316
1.464,-0.02609
1.468,0.00164
1.472,0.03262
1.476,-0.00775
1.48,0.03838
1.484,-0.00381
1.488,0.00887
1.492,0.03492
1.496,0.06062
1.5,0.00474
1.504,0.05776
1.508,-0.02017
1.512,0.01835
1.516,-0.06145
1.52,0.03134
1.524,-0.01444
1.528,0.02694
1.532,-0.01233
1.536,-0.02015
1.54,-0.0306
1.544,-0.03292
1.548,0.02803
1.552,0.01266
1.556,0.01798
1.56,0.00121
1.564,0.0223
1.568,-0.00599
1.572,-0.00577
1.576,0.04141
1.58,0.00684
1.584,0.01361
1.588,0.04072
1.592,0.01143
1.596,0.05551
1.6,0.0259
1.604,0.05995
1.608,0.00701
1.612,0.01377
1.616,0.05498
1.62,0.05842
1.624,0.06257
1.628,0.06214
1.632,0.1071
1.636,0.08393
1.64,0.09639
1.644,0.12125
1.648,0.1332
1.652,0.11765
1.656,0.1106
1.66,0.19684
1.664,0.11676
1.668,0.21883
1.672,0.18176
1.676,0.27068
1.68,0.20969
1.684,0.25025
1.688,0.28436
1.692,0.23284
1.696,0.24951
1.7,0.32734
1.704,0.3007
1.708,0.34909
1.712,0.33488
1.716,0.34875
1.72,0.30995
1.724,0.29704
1.728,0.23606
1.732,0.32561
1.736,0.31105
1.74,0.23639
1.744,0.21421
1.748,0.15047
1.752,0.06177
1.756,0.15211
1.76,0.07732
1.764,0.07142
1.768,0.02964
1.772,0.06737
1.776,0.00762
1.78,0.03199
1.784,0.02283
1.788,0.02932
1.792,-0.00471
1.796,0.0424
1.8,0.0338
1.804,0.05734
1.808,0.02397
1.812,0.03068
1.816,-0.03604
1.82,0.07043
1.824,-0.01927
1.828,0.01711
1.832,0.02615
1.836,-0.05785
1.84,-0.02975
1.844,-0.1379
1.848,-0.1145
1.852,-0.00413
1.856,0.02107
1.86,0.28931
1.864,0.4856
1.868,0.72255
1.872,0.8599
1.876,1.01081
1.88,1.00573
1.884,0.90631
1.888,0.70324
1.892,0.45342
1.896,0.26666
1.9,-0.00223
1.904,-0.09677
1.908,-0.14065
1.912,-0.13161
1.916,-0.13721
1.92,-0.07915
1.924,-0.04847
1.928,-0.03454
1.932,0.01998
1.936,-0.03684
1.94,0.0468
1.944,-0.02029
1.948,0.06707
1.952,0.00498
1.956,0.01537
1.96,-0.03217
1.964,-0.00229
1.968,-0.03735
1.972,-0.00336
1.976,0.00595
1.98,-0.01095
1.984,0.01865
1.988,0.0076
1.992,0.03812
1.996,-3e-05
2.0,-0.01415
2.004,0.02296
2.008,-0.00611
2.012,-0.02775
2.016,0.0071
2.02,0.01971
2.024,0.04854
2.028,0.06458
2.032,0.04632
2.036,0.02697
2.04,-0.03801
2.044,0.02195
2.048,0.04101
2.052,0.055
2.056,0.01445
2.06,0.03411
2.064,0.02751
2.068,0.01479
2.072,0.03917
2.076,0.07691
2.08,0.10434
2.084,0.03309
2.088,0.09954
2.092,-0.00258
2.096,0.03834
2.1,0.13302
2.104,0.0779
2.108,0.14165
2.112,0.13959
2.116,0.17971
2.12,0.11803
2.124,0.12998
2.128,0.18321
2.132,0.14988
2.136,0.1931
2.14,0.19735
2.144,0.24425
2.148,0.25172
2.152,0.13544
2.156,0.17651
2.16,0.27796
2.164,0.20813
2.168,0.24033
2.172,0.24081
2.176,0.19064
2.18,0.21636
2.184,0.22544
2.188,0.14202
2.192,0.22621
2.196,0.1437
2.2,0.16882
2.204,0.08591
2.208,0.14767
2.212,0.10729
2.216,0.08613
2.22,0.08393
2.224,0.02499
2.228,0.17294
2.232,0.03366
2.236,0.1278
2.24,0.09448
2.244,0.04615
2.248,-0.03974
2.252,0.02157
2.256,0.0415
2.26,0.0942
2.264,0.04241
2.268,0.03028
2.272,0.0542
2.276,-0.03495
2.28,0.00299
2.284,0.01087
2.288,0.0692
2.292,0.00373
2.296,0.0193
2.3,0.0014
2.304,-0.02841
2.308,0.02116
2.312,-0.0207
2.316,-0.04242
2.32,0.00573
2.324,0.01376
2.328,-0.06372
2.332,0.06575
2.336,0.03368
2.34,0.00172
2.344,-0.03349
2.348,0.03462
2.352,-0.00025
2.356,-0.00579
2.36,0.00889
2.364,0.04805
2.368,0.0363
2.372,0.11905
2.376,0.14445
2.38,0.14996
2.384,0.08394
2.388,0.08775
2.392,0.08983
2.396,0.08778
2.4,0.06025
2.404,0.09059
2.408,0.0727
2.412,0.01293
2.416,0.03905
2.42,0.00457
2.424,0.05087
2.428,-0.0313
2.432,-0.02929
2.436,-0.02572
2.44,-0.0191
2.444,-0.00802
2.448,0.01478
2.452,0.03584
2.456,-0.04628
2.46,0.05663
2.464,-0.01494
2.468,0.02359
2.472,-0.00873
2.476,0.01748
2.48,-0.0469
2.484,8e-05
2.488,-0.03305
2.492,-0.00869
2.496,-0.08162
2.5,-0.08693
2.504,-0.08832
2.508,-0.12301
2.512,-0.1318
2.516,-0.06491
2.52,-0.02396
2.524,0.18557
2.528,0.35543
2.532,0.64615
2.536,0.82263
2.54,0.91849
2.544,0.9498
2.548,0.88475
2.552,0.80872
2.556,0.58367
2.56,0.41133
2.564,0.07657
2.568,0.02708
2.572,-0.15564
2.576,-0.19441
2.58,-0.19939
2.584,-0.18269
2.588,-0.08188
2.592,-0.03551
2.596,-0.01285
2.6,-0.05952
2.604,-0.03823
2.608,0.01351
2.612,0.02067
2.616,-0.01479
2.62,-0.00267
2.624,0.04639
2.628,-0.0579
2.632,-0.06551
2.636,0.00176
2.64,0.02076
2.644,0.01649
2.648,-0.05487
2.652,-0.06722
2.656,0.01238
2.66,-0.06753
2.664,-0.0492
2.668,0.01342
2.672,-0.06051
2.676,-0.05345
2.68,0.02946
2.684,-0.03013
2.688,0.00266
2.692,0.03755
2.696,0.02938
2.7,0.07152
2.704,0.07666
2.708,0.09555
2.712,0.09394
2.716,0.05048
2.72,0.05188
2.724,0.16531
2.728,0.08626
2.732,0.13266
2.736,0.04159
2.74,0.03632
2.744,0.05653
2.748,0.13639
2.752,0.06844
2.756,0.13448
2.76,0.03905
2.764,0.07156
2.768,0.13262
2.772,0.06772
2.776,0.1244
2.78,0.07108
2.784,0.05191
2.788,0.12244
2.792,0.19078
2.796,0.18373
2.8,0.15743
2.804,0.16904
2.808,0.22577
2.812,0.1577
2.816,0.15832
2.82,0.17753
2.824,0.16971
2.828,0.1908
2.832,0.24481
2.836,0.16967
2.84,0.14468
2.844,0.08818
2.848,0.06378
2.852,0.11246
2.856,0.126
2.86,0.27778
2.864,0.49038
2.868,0.7369
2.872,0.84921
2.876,1.03474
2.88,1.05664
2.884,0.97442
2.888,0.84432
2.892,0.63304
2.896,0.38606
2.9,0.24281
2.904,0.00783
2.908,-0.02727
2.912,-0.15161
2.916,-0.11986
2.92,-0.09652
2.924,-0.05796
2.928,-0.0747
2.932,-0.01908
2.936,0.03198
2.94,0.00556
2.944,-0.03386
2.948,-0.06122
2.952,-0.03976
2.956,0.02228
2.96,-0.01952
2.964,0.02982
2.968,-0.0314
2.972,0.01492
2.976,0.01001
2.98,0.01886
2.984,-0.02717
2.988,-0.03365
2.992,0.00594
2.996,0.04067
3.0,-0.02985
3.004,-0.02025
3.008,-0.01305
3.012,-0.00742
3.016,-0.01614
3.02,-0.04912
3.024,-0.00321
3.028,0.02411
3.032,0.00757
3.036,-0.03788
3.04,-0.0249
3.044,-0.03319
3.048,0.02283
3.052,0.02727
3.056,-0.06199
3.06,0.04138
3.064,0.03452
3.068,0.01296
3.072,0.05028
3.076,0.03865
3.08,0.05749
3.084,0.01239
3.088,0.05172
3.092,0.10542
3.096,0.07913
3.1,0.01923
3.104,0.08989
3.108,0.11873
3.112,0.16048
3.116,0.11992
3.12,0.08757
3.124,0.13685
3.128,0.15253
3.132,0.13713
3.136,0.21225
3.14,0.18203
3.144,0.17496
3.148,0.18201
3.152,0.20972
3.156,0.15802
3.16,0.21231
3.164,0.21745
3.168,0.17325
3.172,0.19931
3.176,0.13169
3.18,0.14124
3.184,0.15417
3.188,0.14081
3.192,0.20641
3.196,0.13942
3.2,0.10822
3.204,0.1772
3.208,0.07257
3.212,0.056
3.216,0.08653
3.22,0.05495
3.224,0.03142
3.228,0.00284
3.232,0.02955
3.236,-0.00236
3.24,0.01879
3.244,0.03204
3.248,-0.02502
3.252,0.02439
3.256,0.01662
3.26,-0.02801
3.264,0.07055
3.268,0.04526
3.272,-0.00101
3.276,0.03167
3.28,0.01629
3.284,-0.04231
3.288,-0.02253
3.292,-0.02947
3.296,-0.08393
3.3,0.0519
3.304,-0.02159
3.308,-0.0024
3.312,-0.06633
3.316,0.03882
3.32,0.07552
3.324,0.02306
3.328,-0.02885
3.332,-0.00271
3.336,-0.0278
3.34,-0.00219
3.344,-0.06651
3.348,-0.03311
3.352,-0.00778
3.356,-0.06915
3.36,-0.0194
3.364,-0.04696
3.368,-0.03494
3.372,-0.04245
3.376,-0.05244
3.38,0.01377
3.384,-0.052
3.388,-0.01733
3.392,-0.072
3.396,-0.0217
3.4,0.02493
3.404,-0.00131
3.408,-0.01114
3.412,0.00594
3.416,-0.0095
3.42,-0.0438
3.424,-0.03828
3.428,-0.02625
3.432,-0.11785
3.436,-0.02409
3.44,-0.05029
3.444,-0.18139
3.448,-0.08167
3.452,0.0179
3.456,-0.05558
3.46,-0.00349
3.464,-0.06601
3.468,-0.0372
3.472,0.00437
3.476,-0.00699
3.48,-0.02735
3.484,-0.08286
3.488,-0.0524
3.492,-0.01643
3.496,-0.00139
3.5,-0.03343
3.504,-0.02053
3.508,-0.03795
3.512,-0.00822
3.516,-0.03224
3.52,-0.01952
3.524,0.00995
3.528,-0.00648
3.532,-0.0147
3.536,-0.06011
3.54,-0.08424
3.544,0.00242
3.548,0.01057
3.552,0.03227
3.556,0.01398
3.56,0.01049
3.564,0.00495
3.568,-0.0062
3.572,-0.00654
3.576,0.04959
3.58,0.02611
3.584,0.04929
3.588,0.05178
3.592,0.04313
3.596,0.09614
3.6,0.07474
3.604,0.04458
3.608,-0.00939
3.612,0.03792
3.616,-0.02932
3.62,0.02372
3.624,-0.00088
3.628,-0.04882
3.632,-0.05157
3.636,0.00626
3.64,-0.01254
3.644,-0.01925
3.648,-0.07298
3.652,0.00908
3.656,0.01316
3.66,0.02474
3.664,-0.03338
3.668,0.01039
3.672,-0.04643
3.676,-0.02445
3.68,-0.0084
3.684,0.01892
3.688,-0.0189
3.692,0.01568
3.696,-0.09034
3.7,-0.06691
3.704,-0.05115
3.708,-0.07287
3.712,-0.11849
3.716,-0.18316
3.72,-0.05876
3.724,-0.04313
3.728,0.09367
3.732,0.3706
3.736,0.5103
3.74,0.71463
3.744,0.90563
3.748,0.99819
3.752,0.90883
3.756,0.7608
3.76,0.54004
3.764,0.38331
3.768,0.16872
3.772,-0.07331
3.776,-0.2008
3.78,-0.19765
3.784,-0.18638
3.788,-0.1734
3.792,-0.17236
3.796,-0.07744
3.8,0.00744
3.804,-0.04845
3.808,-0.05575
3.812,-0.04554
3.816,-0.03939
3.82,-0.02003
3.824,-0.03914
3.828,-0.02167
3.832,-0.00054
3.836,-0.06113
3.84,0.01345
3.844,-0.08885
3.848,0.02007
3.852,-0.06372
3.856,-0.0764
3.86,-0.05721
3.864,0.00292
3.868,-0.05286
3.872,0.03284
3.876,0.03188
3.88,0.01223
3.884,-0.07738
3.888,-0.10245
3.892,-0.03751
3.896,-0.05928
3.9,-0.02785
3.904,-0.0183
3.908,-0.03773
3.912,0.01457
3.916,-0.02688
3.92,0.05099
3.924,-0.01815
3.928,-0.03805
3.932,-0.01127
3.936,-0.04882
3.94,0.04259
3.944,0.0106
3.948,-0.0013
3.952,0.00211
3.956,0.04591
3.96,0.09811
3.964,0.07352
3.968,0.08651
3.972,0.02315
3.976,0.07862
3.98,0.12816
3.984,0.12515
3.988,0.15712
3.992,0.12827
3.996,0.10488
4.0,0.1154
4.004,0.16823
4.008,0.25076
4.012,0.20973
4.016,0.22267
4.02,0.20911
4.024,0.15924
4.028,0.23503
4.032,0.15503
4.036,0.161
4.04,0.18466
4.044,0.15513
4.048,0.18236
4.052,0.12041
4.056,0.19848
4.06,0.14005
4.064,0.18507
4.068,0.12471
4.072,0.13223
4.076,0.11576
4.08,0.09293
4.084,0.02745
4.088,0.0648
4.092,0.13245
4.096,0.0847
4.1,0.09344
4.104,0.00152
4.108,0.04386
4.112,-0.03973
4.116,-0.04254
4.12,-0.04905
4.124,0.00269
4.128,-0.03743
4.132,-0.01912
4.136,-0.00915
4.14,0.01248
4.144,-0.09159
4.148,-0.05751
4.152,-0.05781
4.156,-0.05204
4.16,-0.03215
4.164,0.01113
4.168,-0.03809
4.172,0.04398
4.176,-0.06328
4.18,-0.02262
4.184,-0.04321
4.188,0.02657
4.192,-0.01426
4.196,-0.00212
4.2,-0.01223
4.204,-0.01281
4.208,-0.03332
4.212,-0.00307
4.216,0.00957
4.22,0.00811
4.224,0.04138
4.228,0.07719
4.232,0.03062
4.236,0.08924
4.24,0.06115
4.244,0.04373
4.248,0.04369
4.252,0.05906
4.256,0.04505
4.26,0.00648
4.264,-0.00045
4.268,-0.00686
4.272,0.01401
4.276,-0.01279
4.28,-0.02395
4.284,0.05233
4.288,-0.01347
4.292,-0.04509
4.296,0.00623
4.3,-0.00912
4.304,-0.05487
4.308,-0.03852
4.312,0.01988
4.316,-0.00757
4.32,-0.01891
4.324,-0.03404
4.328,0.02998
4.332,-0.03085
4.336,-0.06297
4.34,0.04875
4.344,-0.00855
4.348,-0.03384
4.352,-0.05322
4.356,-0.12238
4.36,-0.1068
4.364,-0.11424
4.368,-0.17659
4.372,0.00883
4.376,0.15085
4.38,0.28823
4.384,0.46192
4.388,0.74299
4.392,0.88239
4.396,0.95328
4.4,0.97109
4.404,0.77786
4.408,0.60822
4.412,0.31184
4.416,0.11348
4.42,-0.0256
4.424,-0.12992
4.428,-0.21195
4.432,-0.153
4.436,-0.16053
4.44,-0.13761
4.444,-0.0995
4.448,0.00102
4.452,0.01937
4.456,0.01987
4.46,-0.00663
4.464,-0.04356
4.468,-0.02442
4.472,0.02239
4.476,0.03916
4.48,-0.03554
4.484,-0.08468
4.488,-0.00492
4.492,0.01767
4.496,0.02329
4.5,0.03605
4.504,0.04656
4.508,-0.03792
4.512,0.0604
4.516,-0.02696
4.52,-0.08246
4.524,-0.04494
4.528,-0.07503
4.532,-0.03398
4.536,-0.01431
4.54,-0.0331
4.544,-0.03142
4.548,-0.03539
4.552,-0.09077
4.556,-0.07546
4.56,-0.0073
4.564,-0.02175
4.568,-0.03492
4.572,0.033
4.576,-0.04829
4.58,-0.05759
4.584,-0.01185
4.588,0.03078
4.592,0.01269
4.596,0.00516
4.6,0.03163
4.604,0.01735
4.608,0.05681
4.612,-0.00024
4.616,0.15986
4.62,0.11051
4.624,0.04952
4.628,0.17613
4.632,0.06902
4.636,0.15262
4.64,0.14956
4.644,0.1482
4.648,0.14708
4.652,0.1825
4.656,0.18414
4.66,0.16303
4.664,0.16306
4.668,0.16221
4.672,0.17402
4.676,0.1686
4.68,0.2054
4.684,0.15961
4.688,0.19562
4.692,0.18064
4.696,0.25427
4.7,0.18945
4.704,0.23765
4.708,0.22031
4.712,0.19889
4.716,0.18893
4.72,0.31505
4.724,0.31236
4.728,0.26233
4.732,0.11241
4.736,0.16355
4.74,0.15497
4.744,0.11826
4.748,0.15595
4.752,0.13469
4.756,0.10181
4.76,0.03524
4.764,0.02333
4.768,0.05099
4.772,-0.06806
4.776,0.01182
4.78,0.04787
4.784,0.02464
4.788,-0.01678
4.792,0.0389
4.796,-0.08635
4.8,-0.03073
4.804,-0.04547
4.808,-0.05825
4.812,0.0082
4.816,0.01983
4.82,-0.01055
4.824,0.04081
4.828,0.01611
4.832,-0.01435
4.836,-0.01175
4.84,0.02753
4.844,-0.05794
4.848,-0.06121
4.852,-0.13003
4.856,-0.16646
4.86,-0.0979
4.864,-0.04075
4.868,0.12942
4.872,0.2665
4.876,0.5397
4.88,0.70183
4.884,0.9068
4.888,1.01757
4.892,0.95544
4.896,0.79766
4.9,0.55846
4.904,0.39154
4.908,0.13255
4.912,-0.07714
4.916,-0.14484
4.92,-0.11274
4.924,-0.22246
4.928,-0.12595
4.932,-0.14213
4.936,-0.07754
4.94,-0.01864
4.944,-0.00949
4.948,-0.05507
4.952,0.0076
4.956,-0.0928
4.96,-0.00014
4.964,-0.03585
4.968,-0.08552
4.972,0.05518
4.976,-0.03516
4.98,-0.0273
4.984,-0.01595
4.988,0.00973
4.992,0.01574
4.996,-0.01896
5.0,-0.00473
5.004,0.02365
5.008,-0.04988
5.012,-0.0442
5.016,-0.10015
5.02,0.05655
5.024,0.0049
5.028,0.04719
5.032,0.021
5.036,-0.01549
5.04,-0.02164
5.044,-0.00356
5.048,-0.01239
5.052,-0.03241
5.056,0.08778
5.06,0.01966
5.064,-0.0555
5.068,-0.0395
5.072,-0.05468
5.076,-0.0014
5.08,0.00357
5.084,-0.02405
5.088,0.05055
5.092,0.03897
5.096,0.06797
5.1,0.1008
5.104,0.13117
5.108,0.12348
5.112,0.06178
5.116,0.16708
5.12,0.19121
5.124,0.23
5.128,0.19218
5.132,0.31632
5.136,0.27144
5.14,0.23556
5.144,0.20854
5.148,0.25198
5.152,0.29445
5.156,0.28495
5.16,0.29846
5.164,0.27221
5.168,0.17022
5.172,0.27077
5.176,0.27464
5.18,0.25983
5.184,0.18855
5.188,0.153
5.192,0.101
5.196,0.16777
5.2,0.11505
5.204,0.15546
5.208,0.07982
5.212,0.16368
5.216,0.14192
5.22,0.08016
5.224,0.07873
5.228,0.01641
5.232,0.07349
5.236,0.05463
5.24,0.07925
5.244,0.05307
5.248,0.03594
5.252,0.08521
5.256,-0.04894
5.26,-0.07686
5.264,-0.14506
5.268,-0.141
5.272,0.08043
5.276,0.22895
5.28,0.48999
5.284,0.58208
5.288,0.79828
5.292,0.96178
5.296,1.03279
5.3,1.01019
5.304,0.80843
5.308,0.5335
5.312,0.23767
5.316,0.02229
5.32,-0.01177
5.324,-0.10576
5.328,-0.20176
5.332,-0.09999
5.336,-0.10303
5.34,-0.10491
5.344,-0.02495
5.348,0.00534
5.352,0.0638
5.356,-0.02407
5.36,-0.03581
5.364,-0.04796
5.368,-0.04891
5.372,-0.07048
5.376,0.03786
5.38,0.04863
5.384,0.01318
5.388,-0.05888
5.392,0.02071
5.396,0.07866
5.4,0.06412
5.404,-0.01645
5.408,0.02229
5.412,0.00888
5.416,0.02687
5.42,0.05148
5.424,0.03061
5.428,0.0256
5.432,0.02909
5.436,0.01571
5.44,0.01007
5.444,-0.0188
5.448,0.02461
5.452,-0.00163
5.456,0.04337
5.46,-0.00577
5.464,0.08191
5.468,0.03403
5.472,0.05238
5.476,0.00532
5.48,0.00874
5.484,0.01018
5.488,0.02019
5.492,0.06034
5.496,0.06909
5.5,0.02856
5.504,0.07061
5.508,0.03346
5.512,0.10672
5.516,0.06409
5.52,0.1393
5.524,0.19512
5.528,0.10349
5.532,0.17781
5.536,0.13288
5.54,0.15512
5.544,0.18841
5.548,0.22284
5.552,0.18205
5.556,0.23564
5.56,0.28928
5.564,0.22759
5.568,0.23647
5.572,0.15039
5.576,0.16719
5.58,0.221
5.584,0.25056
5.588,0.21408
5.592,0.22855
5.596,0.19774
5.6,0.21725
5.604,0.2058
5.608,0.20453
5.612,0.21646
5.616,0.17439
5.62,0.13429
5.624,0.18976
5.628,0.23085
5.632,0.15334
5.636,0.10801
5.64,0.17796
5.644,0.14667
5.648,0.13857
5.652,0.18882
5.656,0.21048
5.66,0.09679
5.664,0.19023
5.668,0.13082
5.672,0.07672
5.676,0.08546
5.68,0.16919
5.684,0.07389
5.688,0.04562
5.692,0.06271
5.696,0.03723
5.7,0.01509
5.704,0.02323
5.708,0.0155
5.712,0.00414
5.716,0.00525
5.72,0.02263
5.724,0.02543
5.728,-0.01565
5.732,0.01055
5.736,0.01901
5.74,-0.04
5.744,0.03451
5.748,-0.01504
5.752,-0.00616
5.756,0.02042
5.76,-0.0244
5.764,0.06973
5.768,0.00187
5.772,-0.0476
5.776,-0.0578
5.78,-0.06496
5.784,-0.11731
5.788,-0.02666
5.792,0.06082
5.796,0.16758
5.8,0.39628
5.804,0.57125
5.808,0.79548
5.812,0.93912
5.816,1.07981
5.82,0.96588
5.824,0.77347
5.828,0.5822
5.832,0.35439
5.836,0.17622
5.84,-0.02706
5.844,-0.18868
5.848,-0.15236
5.852,-0.16978
5.856,-0.11021
5.86,-0.08468
5.864,-0.02548
5.868,-0.00186
5.872,0.01943
5.876,0.05765
5.88,0.00315
5.884,-0.04469
5.888,-0.01214
5.892,0.0036
5.896,0.00811
5.9,0.0248
5.904,-0.00159
5.908,-0.01798
5.912,0.03429
5.916,-0.04085
5.92,0.08998
5.924,0.03635
5.928,0.03599
5.932,0.04083
5.936,-0.00484
5.94,0.02044
5.944,0.04016
5.948,-0.0213
5.952,0.05589
5.956,0.01964
5.96,0.00763
5.964,0.00862
5.968,0.02448
5.972,-0.01455
5.976,0.0106
5.98,0.01766
5.984,0.0666
5.988,0.03335
5.992,0.00253
5.996,0.04163
6.0,-0.01818
6.004,0.11208
6.008,0.04151
6.012,0.0835
6.016,-0.00893
6.02,0.08779
6.024,0.03883
6.028,0.13872
6.032,0.06293
6.036,0.05929
6.04,0.14267
6.044,0.18297
6.048,0.18894
6.052,0.15692
6.056,0.14448
6.06,0.15831
6.064,0.1444
6.068,0.21797
6.072,0.2093
6.076,0.23079
6.08,0.25118
6.084,0.22946
6.088,0.2396
6.092,0.21518
6.096,0.24165
6.1,0.18399
6.104,0.24911
6.108,0.25571
6.112,0.20869
6.116,0.27256
6.12,0.24144
6.124,0.19722
6.128,0.1679
6.132,0.2145
6.136,0.17156
6.14,0.19317
6.144,0.12598
6.148,0.15499
6.152,0.12208
6.156,0.06698
6.16,0.11151
6.164,0.08213
6.168,0.10516
6.172,0.07217
6.176,0.08319
6.18,0.01315
6.184,0.0647
6.188,0.02353
6.192,0.09369
6.196,0.11328
6.2,0.13905
6.204,0.01619
6.208,0.03253
6.212,-0.05349
6.216,-0.0166
6.22,0.05969
6.224,0.09341
6.228,0.01478
6.232,0.025
6.236,-0.00673
6.24,0.02968
6.244,0.00308
6.248,-0.03965
6.252,0.02229
6.256,0.00805
6.26,0.00817
6.264,0.0652
6.268,0.03125
6.272,-0.01466
6.276,0.03723
6.28,0.07509
6.284,0.02739
6.288,0.01273
6.292,-0.02453
6.296,-0.03454
6.3,0.06293
6.304,-0.00533
6.308,-0.02811
6.312,0.04102
6.316,0.06489
6.32,-0.02718
6.324,-0.00735
6.328,0.02627
6.332,-0.00168
6.336,0.00173
6.34,-0.05048
6.344,0.06934
6.348,0.03612
6.352,-0.00759
6.356,0.0372
6.36,0.05225
6.364,0.00036
6.368,0.02537
6.372,0.02373
6.376,0.14726
6.38,0.08286
6.384,0.12412
6.388,0.12896
6.392,0.08637
6.396,0.1084
6.4,0.14371
6.404,0.04331
6.408,0.0847
6.412,0.0894
6.416,0.08667
6.42,0.05624
6.424,0.15496
6.428,0.06825
6.432,0.07662
6.436,0.01724
6.44,0.08337
6.444,0.08708
6.448,0.03607
6.452,0.00288
6.456,0.01438
6.46,0.04819
6.464,0.01803
6.468,0.01112
6.472,-0.02431
6.476,0.07166
6.48,0.00355
6.484,0.06831
6.488,-0.00631
6.492,0.02984
6.496,-0.00507
6.5,0.05097
6.504,0.0213
6.508,-0.00256
6.512,-0.02071
6.516,0.00846
6.52,-0.07139
6.524,-0.07157
6.528,-0.04635
6.532,0.10286
6.536,0.27368
6.54,0.52466
6.544,0.66366
6.548,0.87366
6.552,1.05375
6.556,0.97769
6.56,0.87472
6.564,0.7218
6.568,0.54385
6.572,0.29272
6.576,0.07656
6.58,-0.1075
6.584,-0.09833
6.588,-0.12068
6.592,-0.12714
6.596,-0.13225
6.6,-0.01269
6.604,0.00347
6.608,-0.0018
6.612,-0.02397
6.616,-0.01491
6.62,0.06907
6.624,-0.02888
6.628,0.01688
6.632,-0.01722
6.636,0.04693
6.64,0.03375
6.644,0.0375
6.648,0.03628
6.652,0.08864
6.656,-0.0177
6.66,-0.02986
6.664,0.02135
6.668,-0.01806
6.672,0.03358
6.676,0.02468
6.68,0.03924
6.684,0.05484
6.688,0.05278
6.692,0.09153
6.696,0.02035
6.7,-0.04444
6.704,-0.00869
6.708,0.01679
6.712,0.03237
6.716,0.02047
6.72,0.08799
6.724,0.0077
6.728,0.01374
6.732,0.07908
6.736,-0.01535
6.74,0.06206
6.744,0.04212
6.748,0.11539
6.752,0.09235
6.756,0.07332
6.76,0.03312
6.764,0.09778
6.768,0.1209
6.772,0.0955
6.776,0.15669
6.78,0.19583
6.784,0.11718
6.788,0.12348
6.792,0.14419
6.796,0.18246
6.8,0.1782
6.804,0.24713
6.808,0.21467
6.812,0.27816
6.816,0.26289
6.82,0.31142
6.824,0.30714
6.828,0.3398
6.832,0.31884
6.836,0.31475
6.84,0.42349
6.844,0.31482
6.848,0.39267
6.852,0.39712
6.856,0.28726
6.86,0.34316
6.864,0.32183
6.868,0.25425
6.872,0.21876
6.876,0.2091
6.88,0.16189
6.884,0.15396
6.888,0.1748
6.892,0.11591
6.896,0.16854
6.9,0.09792
6.904,0.092
6.908,0.09124
6.912,0.12987
6.916,0.13685
6.92,0.06052
6.924,0.0779
6.928,-0.00548
6.932,0.03894
6.936,0.04322
6.94,-0.03625
6.944,0.0502
6.948,0.05193
6.952,0.05764
6.956,0.02653
6.96,0.05165
6.964,-0.02512
6.968,-0.09674
6.972,-0.0677
6.976,-0.11906
6.98,-0.03489
6.984,0.10023
6.988,0.23206
6.992,0.41211
6.996,0.7304
7.0,0.88237
7.004,1.00137
7.008,0.99156
7.012,0.96037
7.016,0.80216
7.02,0.59255
7.024,0.33478
7.028,0.07157
7.032,-0.03308
7.036,-0.09206
7.04,-0.10439
7.044,-0.06622
7.048,-0.06577
7.052,0.01092
7.056,0.02251
7.06,0.01147
7.064,-0.01557
7.068,0.02557
7.072,0.02445
7.076,0.00234
7.08,0.03955
7.084,0.02537
7.088,0.0279
7.092,0.06005
7.096,0.04452
7.1,0.11935
7.104,-0.01923
7.108,-0.01942
7.112,0.03793
7.116,0.08834
7.12,0.02681
7.124,0.07513
7.128,0.04774
7.132,0.05896
7.136,0.031
7.14,0.05705
7.144,-0.0142
7.148,-0.01724
7.152,0.07919
7.156,0.07204
7.16,0.07005
7.164,0.09553
7.168,0.11236
7.172,0.09104
7.176,0.1066
7.18,0.09083
7.184,0.10523
7.188,0.13308
7.192,0.12107
7.196,0.11738
7.2,0.17625
7.204,0.12354
7.208,0.14713
7.212,0.14779
7.216,0.12195
7.22,0.10606
7.224,0.11376
7.228,0.17441
7.232,0.13839
7.236,0.18385
7.24,0.17778
7.244,0.16409
7.248,0.12199
7.252,0.14637
7.256,0.23568
7.26,0.21692
7.264,0.21737
7.268,0.28038
7.272,0.28643
7.276,0.23095
7.28,0.2475
7.284,0.29452
7.288,0.19671
7.292,0.22646
7.296,0.22767
7.3,0.27118
7.304,0.20876
7.308,0.15951
7.312,0.21657
7.316,0.06198
7.32,0.12983
7.324,0.17623
7.328,0.30632
7.332,0.48358
7.336,0.68057
7.34,0.88198
7.344,1.04919
7.348,1.04501
7.352,1.10394
7.356,0.94095
7.36,0.7402
7.364,0.5263
7.368,0.32128
7.372,0.11488
7.376,-0.04762
7.38,-0.1077
7.384,-0.12721
7.388,-0.10539
7.392,-0.07878
7.396,-0.0518
7.4,0.0535
7.404,0.06889
7.408,0.09806
7.412,0.05987
7.416,0.06576
7.42,0.09765
7.424,0.08014
7.428,0.10208
7.432,0.0662
7.436,0.05891
7.44,0.09695
7.444,0.10427
7.448,0.16421
7.452,0.14925
7.456,0.118
7.46,0.09206
7.464,0.1478
7.468,0.1434
7.472,0.05788
7.476,0.10092
7.48,0.11106
7.484,0.08939
7.488,0.06767
7.492,0.06426
7.496,0.04839
7.5,0.02928
7.504,0.0491
7.508,-0.00318
7.512,0.07982
7.516,0.02563
7.52,0.00869
7.524,0.03596
7.528,-0.00498
7.532,0.01501
7.536,0.09832
7.54,0.01189
7.544,0.18385
7.548,0.13078
7.552,-0.00676
7.556,0.15067
7.56,0.11372
7.564,0.11815
7.568,0.05291
7.572,0.04559
7.576,0.06396
7.58,0.0113
7.584,0.07105
7.588,0.16929
7.592,0.31674
7.596,0.58087
7.6,0.76712
7.604,1.01243
7.608,1.22381
7.612,1.24506
7.616,1.18109
7.62,0.97039
7.624,0.84532
7.628,0.62029
7.632,0.3475
7.636,0.25725
7.64,0.10149
7.644,0.02345
7.648,0.12313
7.652,0.10832
7.656,0.13065
7.66,0.17069
7.664,0.15015
7.668,0.13437
7.672,0.17708
7.676,0.14659
7.68,0.18168
7.684,0.11571
7.688,0.19246
7.692,0.15255
7.696,0.08698
7.7,0.08653
7.704,0.03108
7.708,0.04114
7.712,0.1142
7.716,0.05555
7.72,0.03156
7.724,0.06079
7.728,0.02851
7.732,0.0391
7.736,0.10207
7.74,0.00403
7.744,0.08164
7.748,0.00786
7.752,0.00819
7.756,0.07981
7.76,0.02687
7.764,0.00177
7.768,0.04322
7.772,0.01327
7.776,0.10027
7.78,0.03411
7.784,0.05217
7.788,0.05682
7.792,0.03737
7.796,0.03722
7.8,0.00391
7.804,0.05051
7.808,0.07917
7.812,0.04116
7.816,0.06973
7.82,0.09218
7.824,0.1036
7.828,0.06708
7.832,0.11301
7.836,0.13603
7.84,0.16076
7.844,0.13442
7.848,0.17426
7.852,0.17452
7.856,0.16351
7.86,0.30732
7.864,0.18669
7.868,0.1546
7.872,0.15634
7.876,0.29565
7.88,0.21067
7.884,0.22349
7.888,0.26802
7.892,0.26302
7.896,0.26167
7.9,0.2359
7.904,0.30504
7.908,0.20492
7.912,0.22341
7.916,0.22771
7.92,0.15712
7.924,0.24334
7.928,0.14369
7.932,0.16821
7.936,0.09705
7.94,0.15789
7.944,0.10534
7.948,0.1516
7.952,0.12923
7.956,0.086
7.96,0.02591
7.964,-0.02521
7.968,0.06399
7.972,0.07653
7.976,0.07177
7.98,0.0155
7.984,0.02327
7.988,0.09013
7.992,0.04224
7.996,0.0015
8.0,0.00997
8.004,0.01874
8.008,0.08732
8.012,-0.02929
8.016,0.03578
8.02,0.06183
8.024,0.1111
8.028,-0.01025
8.032,0.10598
8.036,0.0653
8.04,0.07569
8.044,0.05807
8.048,0.16048
8.052,0.14041
8.056,0.09424
8.06,0.05038
8.064,0.0949
8.068,0.04211
8.072,0.05589
8.076,0.03539
8.08,0.0597
8.084,0.00529
8.088,0.01591
8.092,0.05046
8.096,0.06421
8.1,0.0186
8.104,0.06297
8.108,0.00683
8.112,0.08825
8.116,0.00481
8.12,0.03089
8.124,-0.00889
8.128,0.04347
8.132,0.01125
8.136,0.01682
8.14,-0.01456
8.144,0.00604
8.148,0.01165
8.152,0.0847
8.156,-0.02377
8.16,0.03352
8.164,-0.01782
8.168,-0.01439
8.172,-0.07428
8.176,-0.0429
8.18,-0.08275
8.184,0.00686
8.188,0.12655
8.192,0.36088
8.196,0.55431
8.2,0.78881
8.204,0.92356
8.208,0.96088
8.212,0.98232
8.216,0.82767
8.22,0.70565
8.224,0.50123
8.228,0.2226
8.232,-0.0227
8.236,-0.05775
8.24,-0.14579
8.244,-0.13181
8.248,-0.10404
8.252,-0.00838
8.256,-0.05013
8.26,-0.02337
8.264,-0.03987
8.268,0.01706
8.272,0.00618
8.276,-0.0156
8.28,0.01666
8.284,0.0723
8.288,-0.03041
8.292,0.06349
8.296,0.03684
8.3,0.02475
8.304,-0.00344
8.308,0.0456
8.312,-0.04603
8.316,0.04044
8.32,0.00494
8.324,0.02946
8.328,0.05187
8.332,0.02296
8.336,-0.02186
8.34,0.03792
8.344,0.04327
8.348,-0.02089
8.352,0.02476
8.356,0.05696
8.36,0.05099
8.364,0.04612
8.368,0.082
8.372,0.02532
8.376,0.04913
8.38,0.0413
8.384,0.01342
8.388,0.03391
8.392,0.02976
8.396,0.05793
8.4,0.06843
8.404,0.03171
8.408,0.02093
8.412,0.06249
8.416,0.05768
8.42,0.05636
8.424,0.035
8.428,0.06238
8.432,0.12457
8.436,0.09296
8.44,0.11988
8.444,0.1947
8.448,0.17947
8.452,0.15462
8.456,0.20679
8.46,0.16528
8.464,0.21065
8.468,0.18165
8.472,0.22197
8.476,0.25583
8.48,0.2402
8.484,0.1952
8.488,0.1981
8.492,0.2376
8.496,0.27078
8.5,0.26848
8.504,0.24819
8.508,0.29359
8.512,0.27549
8.516,0.24955
8.52,0.30871
8.524,0.31332
8.528,0.23416
8.532,0.24271
8.536,0.28629
8.54,0.18843
8.544,0.19458
8.548,0.15213
8.552,0.12939
8.556,0.08116
8.56,0.09489
8.564,0.086
8.568,0.04631
8.572,0.06907
8.576,-0.02436
8.58,0.02503
8.584,0.10338
8.588,0.04811
8.592,-0.02922
8.596,0.01464
8.6,0.05156
8.604,-0.03114
8.608,0.05243
8.612,-0.01383
8.616,0.03295
8.62,0.04568
8.624,0.01735
8.628,0.05022
8.632,0.08049
8.636,0.01052
8.64,0.06218
8.644,0.01159
8.648,-0.03804
8.652,-0.07824
8.656,-0.08656
8.66,-0.0786
8.664,-0.07032
8.668,0.0692
8.672,0.32794
8.676,0.49681
8.68,0.67105
8.684,0.95347
8.688,0.98597
8.692,0.95636
8.696,0.88325
8.7,0.63859
8.704,0.43152
8.708,0.23751
8.712,0.00401
8.716,-0.04944
8.72,-0.15687
8.724,-0.11575
8.728,-0.17465
8.732,-0.10134
8.736,-0.02919
8.74,0.00586
8.744,-0.00235
8.748,-0.06092
8.752,-0.0357
8.756,-0.04579
8.76,0.03797
8.764,0.05041
8.768,-0.02497
8.772,-0.00055
8.776,-0.01153
8.78,0.07466
8.784,-0.05297
8.788,0.0087
8.792,0.00276
8.796,-0.00796
8.8,-0.0163
8.804,-0.01706
8.808,0.02852
8.812,0.00917
8.816,-0.00096
8.82,0.06215
8.824,0.00545
8.828,0.07414
8.832,-0.06133
8.836,0.01168
8.84,-0.05214
8.844,0.02949
8.848,-0.0306
8.852,0.06151
8.856,0.01394
8.86,0.04506
8.864,0.00285
8.868,-0.00937
8.872,-0.00709
8.876,0.041
8.88,0.05405
8.884,-0.00712
8.888,0.02322
8.892,0.07089
8.896,0.03116
8.9,0.03596
8.904,0.07539
8.908,0.02969
8.912,0.07557
8.916,0.08042
8.92,0.13354
8.924,0.14483
8.928,0.10606
8.932,0.14693
8.936,0.16796
8.94,0.13893
8.944,0.15702
8.948,0.22556
8.952,0.17049
8.956,0.2287
8.96,0.24089
8.964,0.19323
8.968,0.27597
8.972,0.19451
8.976,0.19297
8.98,0.23389
8.984,0.25224
8.988,0.27139
8.992,0.14586
8.996,0.18826
9.0,0.22259
9.004,0.14513
9.008,0.11701
9.012,0.15899
9.016,0.12935
9.02,0.04193
9.024,0.09909
9.028,0.05899
9.032,0.09755
9.036,0.12139
9.04,0.1357
9.044,0.0348
9.048,0.07188
9.052,0.06714
9.056,0.05249
9.06,0.11267
9.064,0.15972
9.068,0.08499
9.072,0.12005
9.076,0.06961
9.08,0.13886
9.084,0.04978
9.088,0.05236
9.092,0.07208
9.096,0.05515
9.1,0.02871
9.104,-0.07669
9.108,-0.06135
9.112,-0.02046
9.116,-0.01432
9.12,-0.00019
9.124,0.01586
9.128,-0.01326
9.132,0.03998
9.136,0.01082
9.14,-0.00068
9.144,0.07622
9.148,0.00528
9.152,-0.02058
9.156,0.00096
9.16,-0.05487
9.164,0.01773
9.168,-0.02947
9.172,0.0694
9.176,-0.07205
9.18,-0.00902
9.184,-0.04954
9.188,-0.14823
9.192,-0.14945
9.196,-0.0958
9.2,-0.04712
9.204,0.14174
9.208,0.27181
9.212,0.4472
9.216,0.67087
9.22,0.86863
9.224,1.05717
9.228,0.97619
9.232,0.86808
9.236,0.67656
9.24,0.43537
9.244,0.30499
9.248,0.02901
9.252,-0.07308
9.256,-0.15206
9.26,-0.19914
9.264,-0.21917
9.268,-0.09109
9.272,-0.08312
9.276,-0.02112
9.28,-0.00932
9.284,-0.08745
9.288,0.05437
9.292,0.05577
9.296,-0.02182
9.3,-0.01007
9.304,-0.07182
9.308,-0.02935
9.312,0.02593
9.316,-0.04916
9.32,0.07359
9.324,0.01019
9.328,0.01827
9.332,0.02208
9.336,-0.04154
9.34,0.00075
9.344,-0.02781
9.348,0.01851
9.352,-0.06446
9.356,-0.01705
9.36,0.00788
9.364,-0.01803
9.368,0.05637
9.372,0.05556
9.376,0.01964
9.38,0.06434
9.384,0.1007
9.388,0.11041
9.392,0.13413
9.396,0.10545
9.4,0.08061
9.404,0.08616
9.408,0.09563
9.412,0.08417
9.416,0.10006
9.42,0.02943
9.424,0.10128
9.428,0.08251
9.432,0.01156
9.436,0.04504
9.44,-0.01422
9.444,0.10427
9.448,0.04477
9.452,0.12382
9.456,0.11529
9.46,0.12479
9.464,0.15119
9.468,0.15742
9.472,0.07011
9.476,0.15929
9.48,0.13604
9.484,0.20949
9.488,0.26753
9.492,0.14922
9.496,0.20155
9.5,0.20099
9.504,0.20095
9.508,0.20962
9.512,0.15625
9.516,0.11083
9.52,0.06632
9.524,0.10265
9.528,0.22244
9.532,0.33672
9.536,0.47548
9.54,0.77883
9.544,0.90853
9.548,1.04217
9.552,1.11234
9.556,1.07656
9.56,0.8376
9.564,0.66019
9.568,0.41955
9.572,0.23596
9.576,0.04927
9.58,-0.08717
9.584,-0.12119
9.588,-0.08656
9.592,-0.12121
9.596,-0.03703
9.6,-0.05242
9.604,0.03923
9.608,-0.03118
9.612,-0.00148
9.616,0.04224
9.62,-0.00544
9.624,0.05682
9.628,-0.06947
9.632,-0.01803
9.636,-0.04363
9.64,-0.0891
9.644,0.02238
9.648,-0.0121
9.652,0.01011
9.656,-0.00195
9.66,0.02813
9.664,-0.02244
9.668,-0.03049
9.672,-0.03781
9.676,-0.00696
9.68,-0.01939
9.684,0.0329
9.688,-0.04076
9.692,0.02237
9.696,-0.07116
9.7,-0.02347
9.704,-0.07522
9.708,-0.04698
9.712,-0.028
9.716,-0.08151
9.72,-0.00521
9.724,-0.01052
9.728,-0.00461
9.732,0.01728
9.736,0.07209
9.74,-0.00832
9.744,0.05878
9.748,0.01587
9.752,-0.01404
9.756,0.07867
9.76,0.00834
9.764,0.02641
9.768,0.01796
9.772,0.05397
9.776,0.08817
9.78,0.0545
9.784,0.09466
9.788,0.10404
9.792,0.17319
9.796,0.16475
9.8,0.15704
9.804,0.0595
9.808,0.13656
9.812,0.1992
9.816,0.14183
9.82,0.14931
9.824,0.19141
9.828,0.25291
9.832,0.26294
9.836,0.19449
9.84,0.2341
9.844,0.12416
9.848,0.23394
9.852,0.21789
9.856,0.21541
9.86,0.14659
9.864,0.17039
9.868,0.20073
9.872,0.10401
9.876,0.07615
9.88,0.02418
9.884,0.06634
9.888,0.08853
9.892,0.05926
9.896,0.01693
9.9,0.02811
9.904,0.05112
9.908,0.01626
9.912,0.00957
9.916,0.08359
9.92,-0.03076
9.924,0.03928
9.928,-0.02222
9.932,-0.00173
9.936,-0.05625
9.94,-0.01359
9.944,0.01601
9.948,0.04078
9.952,-0.00343
9.956,-0.0564
9.96,-0.04413
9.964,-0.05578
9.968,-0.03151
9.972,-0.03819
9.976,-0.01102
9.98,-0.02545
9.984,0.03035
9.988,-0.02792
9.992,0.02256
9.996,-0.07711
