t_seg,ecg_mV
0.0,-0.01631
0.004,-0.06401
0.008,-0.05933
0.012,-0.01043
0.016,0.04047
0.02,0.03226
0.024,-0.01052
0.028,-0.0205
0.032,0.03469
0.036,-0.04108
0.04,-0.01258
0.044,-0.00131
0.048,-0.06172
0.052,-0.01503
0.056,-0.02703
0.06,0.04333
0.064,0.0189
0.068,0.0306
0.072,0.00558
0.076,0.06335
0.08,-0.07751
0.084,-0.05621
0.088,-0.03755
0.092,0.02787
0.096,-0.02858
0.1,-0.0084
0.104,0.01764
0.108,-0.05063
0.112,0.0353
0.116,0.05028
0.12,-0.04612
0.124,0.03221
0.128,-0.00461
0.132,-0.02285
0.136,-0.00133
0.14,-0.02238
0.144,-0.01586
0.148,-0.00808
0.152,2e-05
0.156,0.05529
0.16,0.00161
0.164,0.00092
0.168,0.00494
0.172,-0.01082
0.176,0.00921
0.18,-0.01469
0.184,0.06188
0.188,-0.03462
0.192,0.03356
0.196,-0.0555
0.2,0.02681
0.204,-0.04826
0.208,-0.02875
0.212,0.02567
0.216,0.00344
0.22,-0.07366
0.224,-0.02267
0.228,0.01653
0.232,0.05773
0.236,0.05246
0.24,0.00576
0.244,-0.03811
0.248,0.05739
0.252,0.00977
0.256,0.03146
0.26,0.01964
0.264,-0.0106
0.268,0.03238
0.272,0.09685
0.276,0.13383
0.28,0.0633
0.284,0.09794
0.288,0.12326
0.292,0.07203
0.296,0.08268
0.3,0.11545
0.304,0.10893
0.308,0.07187
0.312,0.04725
0.316,0.03689
0.32,-0.01338
0.324,0.02425
0.328,0.03014
0.332,0.03216
0.336,0.00598
0.34,0.0127
0.344,0.02195
0.348,-0.05198
0.352,0.05223
0.356,0.03237
0.36,-0.03274
0.364,-0.03686
0.368,0.00933
0.372,0.01177
0.376,0.02196
0.38,0.03897
0.384,0.00084
0.388,-0.00744
0.392,0.01198
0.396,-0.0492
0.4,-0.01499
0.404,-0.02957
0.408,-0.05991
0.412,-0.10462
0.416,-0.11434
0.42,-0.13332
0.424,-0.13754
0.428,0.02272
0.432,0.14012
0.436,0.41595
0.44,0.61266
0.444,0.81664
0.448,0.93953
0.452,1.05155
0.456,0.90037
0.46,0.78258
0.464,0.52777
0.468,0.30941
0.472,0.11607
0.476,-0.04262
0.48,-0.07259
0.484,-0.20065
0.488,-0.18698
0.492,-0.17036
0.496,-0.03081
0.5,-0.07125
0.504,-0.03452
0.508,-0.07022
0.512,0.03365
0.516,0.04493
0.52,-0.00548
0.524,0.03872
0.528,-0.05799
0.532,-0.0419
0.536,-0.02047
0.54,-0.05099
0.544,0.0146
0.548,0.00491
0.552,-0.03948
0.556,0.00873
0.56,0.00595
0.564,-0.00265
0.568,0.01544
0.572,-0.05832
0.576,0.02155
0.58,0.04904
0.584,0.12831
0.588,-0.02584
0.592,-0.0036
0.596,0.01337
0.6,0.01333
0.604,0.00831
0.608,0.02037
0.612,-0.03729
0.616,0.01605
0.62,0.0321
0.624,0.05763
0.628,0.01124
0.632,0.05545
0.636,0.0281
0.64,0.07716
0.644,0.0519
0.648,0.07528
0.652,0.029
0.656,0.01584
0.66,0.02593
0.664,0.02331
0.668,0.09295
0.672,0.13312
0.676,0.06562
0.68,0.09819
0.684,0.19075
0.688,0.19822
0.692,0.16326
0.696,0.12813
0.7,0.19997
0.704,0.16532
0.708,0.3138
0.712,0.25825
0.716,0.22145
0.72,0.2885
0.724,0.37169
0.728,0.28752
0.732,0.31678
0.736,0.34372
0.74,0.34364
0.744,0.30447
0.748,0.24007
0.752,0.23495
0.756,0.28481
0.76,0.18996
0.764,0.22142
0.768,0.15176
0.772,0.18556
0.776,0.15161
0.78,0.15889
0.784,0.1852
0.788,0.12113
0.792,0.08238
0.796,0.13414
0.8,0.12092
0.804,0.05296
0.808,0.0206
0.812,0.02012
0.816,0.06808
0.82,0.03111
0.824,0.0872
0.828,0.11063
0.832,0.02713
0.836,-0.00847
0.84,-0.00039
0.844,-0.05895
0.848,0.04417
0.852,-0.03071
0.856,-0.12591
0.86,-0.11708
0.864,-0.00236
0.868,0.09929
0.872,0.26481
0.876,0.45635
0.88,0.69112
0.884,0.87309
0.888,1.0056
0.892,1.01125
0.896,0.92941
0.9,0.75804
0.904,0.46569
0.908,0.2592
0.912,0.05287
0.916,-0.03234
0.92,-0.11198
0.924,-0.13929
0.928,-0.09269
0.932,-0.03177
0.936,-0.05476
0.94,0.00974
0.944,-0.02524
0.948,0.04529
0.952,-0.00987
0.956,-0.01249
0.96,0.027
0.964,0.04638
0.968,0.01925
0.972,0.01202
0.976,0.03033
0.98,0.09388
0.984,0.04829
0.988,0.04643
0.992,0.07888
0.996,0.01354
1.0,0.03745
1.004,0.0824
1.008,-0.02702
1.012,0.00363
1.016,-0.00338
1.02,0.03578
1.024,-0.01121
1.028,-0.02391
1.032,0.04354
1.036,0.00473
1.04,0.03122
1.044,0.02214
1.048,0.0111
1.052,0.04064
1.056,0.06476
1.06,0.01904
1.064,0.04358
1.068,0.02945
1.072,0.05574
1.076,0.06879
1.08,0.06698
1.084,0.03811
1.088,0.0499
1.092,0.0914
1.096,0.08986
1.1,0.1434
1.104,0.08189
1.108,0.06846
1.112,0.09785
1.116,0.13151
1.12,0.12311
1.124,0.13083
1.128,0.17473
1.132,0.22846
1.136,0.23679
1.14,0.20788
1.144,0.15831
1.148,0.19298
1.152,0.18471
1.156,0.24144
1.16,0.23514
1.164,0.22459
1.168,0.2436
1.172,0.24555
1.176,0.2666
1.18,0.29378
1.184,0.19511
1.188,0.21261
1.192,0.19745
1.196,0.19489
1.2,0.23642
1.204,0.20184
1.208,0.1813
1.212,0.2126
1.216,0.14312
1.22,0.09674
1.224,0.07898
1.228,0.12487
1.232,0.15437
1.236,0.11084
1.24,0.1218
1.244,0.17365
1.248,0.13599
1.252,0.15602
1.256,0.1713
1.26,0.08417
1.264,0.12351
1.268,0.11566
1.272,0.15161
1.276,0.12659
1.28,0.10066
1.284,0.10207
1.288,0.07425
1.292,0.05634
1.296,-0.0055
1.3,0.06709
1.304,0.02903
1.308,0.05696
1.312,-0.05001
1.316,0.06568
1.32,0.03461
1.324,0.07633
1.328,0.05621
1.332,0.10577
1.336,-0.00114
1.34,-0.04666
1.344,0.02767
1.348,0.0512
1.352,0.04412
1.356,-0.00326
1.36,0.04129
1.364,0.01515
1.368,0.1048
1.372,-0.07356
1.376,-0.01622
1.38,0.01911
1.384,-0.03591
1.388,-0.13842
1.392,-0.08991
1.396,0.01234
1.4,0.13246
1.404,0.2491
1.408,0.49069
1.412,0.68684
1.416,0.90729
1.42,1.0129
1.424,1.1282
1.428,0.84487
1.432,0.67693
1.436,0.44947
1.44,0.29431
1.444,0.12958
1.448,-0.07354
1.452,-0.16498
1.456,-0.1199
1.46,-0.13904
1.464,-0.03949
1.468,-0.00846
1.472,0.01046
1.476,0.00653
1.48,0.00653
1.484,0.07953
1.488,-0.01549
1.492,0.04256
1.496,0.01456
1.5,0.06901
1.504,0.02305
1.508,0.0547
1.512,0.02046
1.516,0.06907
1.52,-0.01065
1.524,0.01633
1.528,0.0533
1.532,0.05079
1.536,0.04293
1.54,0.01789
1.544,0.04591
1.548,-0.01494
1.552,0.10109
1.556,0.05687
1.56,0.07451
1.564,0.11224
1.568,0.10613
1.572,0.12028
1.576,0.08086
1.58,0.12993
1.584,0.18951
1.588,0.17149
1.592,0.07216
1.596,0.13244
1.6,0.12866
1.604,0.08593
1.608,0.10407
1.612,0.09176
1.616,0.07497
1.62,0.05523
1.624,0.05755
1.628,0.07516
1.632,0.08428
1.636,0.14587
1.64,0.12814
1.644,0.19671
1.648,0.13197
1.652,0.13349
1.656,0.13835
1.66,0.19214
1.664,0.16993
1.668,0.2238
1.672,0.20752
1.676,0.26703
1.68,0.24913
1.684,0.19548
1.688,0.20507
1.692,0.22843
1.696,0.1906
1.7,0.19221
1.704,0.13988
1.708,0.11269
1.712,0.16143
1.716,0.17787
1.72,0.28577
1.724,0.46287
1.728,0.64139
1.732,0.86333
1.736,1.02758
1.74,1.1017
1.744,1.19067
1.748,1.10492
1.752,0.87992
1.756,0.67201
1.76,0.42176
1.764,0.18462
1.768,0.03062
1.772,-0.01045
1.776,-0.07466
1.78,-0.0544
1.784,-0.07233
1.788,-0.02004
1.792,0.04187
1.796,0.02333
1.8,0.03426
1.804,0.06564
1.808,0.02979
1.812,0.04536
1.816,0.01509
1.82,0.00309
1.824,0.02031
1.828,0.04726
1.832,0.07895
1.836,0.01024
1.84,0.06279
1.844,0.09098
1.848,0.07015
1.852,0.00798
1.856,0.02328
1.86,0.01135
1.864,-0.00044
1.868,0.0016
1.872,-0.01536
1.876,0.01801
1.88,0.04958
1.884,0.01314
1.888,0.04183
1.892,0.01598
1.896,0.08141
1.9,0.05999
1.904,0.04621
1.908,0.06331
1.912,0.04637
1.916,-0.0345
1.92,0.08523
1.924,0.11099
1.928,0.07769
1.932,0.05825
1.936,0.04701
1.94,0.06868
1.944,0.04525
1.948,0.02393
1.952,0.08814
1.956,0.12023
1.96,0.10043
1.964,0.10225
1.968,0.08025
1.972,0.11849
1.976,0.0986
1.98,0.12974
1.984,0.16743
1.988,0.17863
1.992,0.24488
1.996,0.22029
2.0,0.29015
2.004,0.20494
2.008,0.2407
2.012,0.23549
2.016,0.28255
2.02,0.26089
2.024,0.22616
2.028,0.28206
2.032,0.26076
2.036,0.20567
2.04,0.25961
2.044,0.28561
2.048,0.30167
2.052,0.23151
2.056,0.19994
2.06,0.16925
2.064,0.18143
2.068,0.15307
2.072,0.1686
2.076,0.09768
2.08,0.14528
2.084,0.13507
2.088,0.07969
2.092,0.10038
2.096,0.09322
2.1,0.06521
2.104,0.04366
2.108,0.07781
2.112,0.06289
2.116,0.06236
2.12,0.07545
2.124,0.09606
2.128,0.01536
2.132,-0.04962
2.136,0.05802
2.14,0.06261
2.144,0.05667
2.148,0.02273
2.152,0.01628
2.156,0.04279
2.16,0.10286
2.164,0.00804
2.168,-0.02743
2.172,-0.00198
2.176,-0.0233
2.18,-0.00241
2.184,0.04143
2.188,0.08591
2.192,-0.04489
2.196,0.04038
2.2,0.03553
2.204,0.00302
2.208,0.05918
2.212,0.05384
2.216,0.02161
2.22,0.04978
2.224,0.05167
2.228,-0.01353
2.232,0.01926
2.236,0.06842
2.24,-0.00549
2.244,0.05969
2.248,0.08184
2.252,0.06385
2.256,-0.02035
2.26,0.03519
2.264,0.01736
2.268,0.07628
2.272,0.0833
2.276,0.02499
2.28,0.1166
2.284,0.08116
2.288,0.02939
2.292,0.05385
2.296,-0.00836
2.3,-0.01234
2.304,0.00538
2.308,0.01808
2.312,0.00341
2.316,0.01238
2.32,0.03297
2.324,0.03067
2.328,0.08913
2.332,-0.03787
2.336,0.03279
2.34,0.00834
2.344,-0.04801
2.348,0.00916
2.352,0.01111
2.356,-0.00617
2.36,0.0331
2.364,0.10008
2.368,-0.04671
2.372,-0.005
2.376,-0.03436
2.38,-0.00575
2.384,0.01311
2.388,0.04103
2.392,0.05448
2.396,0.0136
2.4,0.06393
2.404,0.10282
2.408,0.0779
2.412,0.04583
2.416,0.02064
2.42,0.0102
2.424,-0.01417
2.428,0.04776
2.432,0.00689
2.436,0.01827
2.44,0.02284
2.444,0.01283
2.448,0.03514
2.452,0.01058
2.456,0.03963
2.46,-0.04574
2.464,0.03174
2.468,0.04084
2.472,-0.01717
2.476,0.06685
2.48,-0.02873
2.484,0.02844
2.488,0.04166
2.492,0.02499
2.496,0.03392
2.5,-0.0267
2.504,0.03773
2.508,-0.02484
2.512,0.02033
2.516,0.00501
2.52,-0.03629
2.524,0.03547
2.528,0.01088
2.532,0.07582
2.536,-0.03254
2.54,0.02727
2.544,0.00513
2.548,0.07815
2.552,0.14142
2.556,0.1088
2.56,0.0354
2.564,0.12385
2.568,0.11367
2.572,0.05428
2.576,0.15161
2.58,0.12695
2.584,0.08359
2.588,0.11258
2.592,0.16128
2.596,0.10679
2.6,0.022
2.604,0.04935
2.608,-0.00356
2.612,-0.00777
2.616,0.06805
2.62,0.09423
2.624,-0.02073
2.628,-0.0323
2.632,0.05845
2.636,0.01121
2.64,0.07463
2.644,0.0114
2.648,-0.04573
2.652,0.05984
2.656,0.0487
2.66,0.07631
2.664,0.04929
2.668,0.03641
2.672,0.0116
2.676,0.03133
2.68,0.00833
2.684,-0.005
2.688,-0.0223
2.692,-0.03826
2.696,-0.10585
2.7,-0.00383
2.704,-0.14191
2.708,-0.09339
2.712,0.04232
2.716,0.22591
2.72,0.41911
2.724,0.64821
2.728,0.82982
2.732,0.95261
2.736,0.97471
2.74,0.9938
2.744,0.80189
2.748,0.55373
2.752,0.31344
2.756,0.13163
2.76,-0.08936
2.764,-0.17601
2.768,-0.08806
2.772,-0.12055
2.776,-0.15318
2.78,-0.10133
2.784,-0.02652
2.788,0.04604
2.792,0.01621
2.796,0.0658
2.8,-0.04908
2.804,0.02346
2.808,0.01161
2.812,0.03077
2.816,0.07034
2.82,0.0178
2.824,0.02777
2.828,-0.08705
2.832,0.02687
2.836,-0.01133
2.84,0.06712
2.844,-0.04703
2.848,-0.01451
2.852,0.01618
2.856,-0.01326
2.86,0.09146
2.864,0.02636
2.868,-0.00602
2.872,0.02134
2.876,-0.03714
2.88,0.00765
2.884,-0.05481
2.888,0.02575
2.892,0.0675
2.896,-0.01805
2.9,0.06647
2.904,0.03688
2.908,0.01604
2.912,0.03676
2.916,0.09555
2.92,0.01986
2.924,0.00984
2.928,0.05027
2.932,0.07819
2.936,0.03545
2.94,0.13428
2.944,0.0671
2.948,0.08186
2.952,0.09445
2.956,0.10304
2.96,0.04637
2.964,0.13608
2.968,0.09397
2.972,0.07504
2.976,0.17177
2.98,0.1755
2.984,0.17053
2.988,0.15506
2.992,0.18261
2.996,0.19252
3.0,0.18255
3.004,0.22813
3.008,0.21025
3.012,0.19418
3.016,0.22305
3.02,0.23504
3.024,0.20787
3.028,0.23117
3.032,0.14537
3.036,0.19506
3.04,0.22896
3.044,0.22214
3.048,0.16841
3.052,0.16274
3.056,0.13051
3.06,0.15166
3.064,0.17385
3.068,0.13528
3.072,0.06901
3.076,0.06331
3.08,0.08928
3.084,0.10755
3.088,0.16953
3.092,0.12265
3.096,0.07532
3.1,0.06372
3.104,0.05545
3.108,0.03592
3.112,-0.04151
3.116,0.02206
3.12,0.03014
3.124,0.07149
3.128,0.0679
3.132,0.02517
3.136,-0.02644
3.14,-0.02496
3.144,-0.00238
3.148,0.03146
3.152,0.03707
3.156,0.04187
3.16,-0.10333
3.164,-0.00391
3.168,0.01983
3.172,0.02993
3.176,-0.03032
3.18,0.02148
3.184,-0.01989
3.188,0.04996
3.192,0.01737
3.196,0.05296
3.2,-0.01237
3.204,0.01103
3.208,0.04858
3.212,0.08363
3.216,-0.00418
3.22,0.03683
3.224,0.06062
3.228,0.14092
3.232,0.09676
3.236,0.09108
3.24,0.08059
3.244,0.05932
3.248,0.07173
3.252,0.0651
3.256,0.07899
3.26,0.07487
3.264,0.0857
3.268,0.08268
3.272,0.06864
3.276,0.06484
3.28,0.05802
3.284,0.12277
3.288,0.03593
3.292,0.01291
3.296,-0.00389
3.3,0.01654
3.304,-0.00642
3.308,0.04306
3.312,0.02751
3.316,-0.04234
3.32,-0.0244
3.324,-0.03046
3.328,0.08299
3.332,0.07016
3.336,0.02373
3.34,-0.01844
3.344,0.02866
3.348,0.01157
3.352,0.0002
3.356,-0.00505
3.36,0.01359
3.364,-0.04737
3.368,-0.01138
3.372,-0.02919
3.376,-0.10603
3.38,-0.04848
3.384,0.02995
3.388,0.18023
3.392,0.44024
3.396,0.62879
3.4,0.84353
3.404,1.00075
3.408,1.02715
3.412,0.84621
3.416,0.7374
3.42,0.53079
3.424,0.27028
3.428,0.0807
3.432,-0.03059
3.436,-0.15729
3.44,-0.1905
3.444,-0.22162
3.448,-0.02735
3.452,-0.09839
3.456,-0.01823
3.46,0.01728
3.464,0.00144
3.468,0.04386
3.472,0.00244
3.476,0.00709
3.48,-0.02297
3.484,-0.03369
3.488,-0.0204
3.492,-0.04641
3.496,0.03124
3.5,-0.02729
3.504,0.00037
3.508,-0.0434
3.512,-0.01398
3.516,0.00578
3.52,-0.00797
3.524,-0.00083
3.528,-0.0486
3.532,-0.04261
3.536,-0.03302
3.54,-0.01856
3.544,-0.04265
3.548,-0.02569
3.552,0.02133
3.556,0.05956
3.56,0.0024
3.564,-0.00238
3.568,-0.00443
3.572,-0.04359
3.576,-0.03434
3.58,-0.00151
3.584,-0.02382
3.588,-0.01869
3.592,0.0872
3.596,0.06031
3.6,0.02319
3.604,0.08681
3.608,0.05552
3.612,-0.00333
3.616,0.0614
3.62,0.07363
3.624,0.10751
3.628,0.06578
3.632,0.13448
3.636,0.17076
3.64,0.14478
3.644,0.12741
3.648,0.13371
3.652,0.13934
3.656,0.22219
3.66,0.18642
3.664,0.19346
3.668,0.15656
3.672,0.23038
3.676,0.16355
3.68,0.19691
3.684,0.21843
3.688,0.18277
3.692,0.25321
3.696,0.20026
3.7,0.17599
3.704,0.12345
3.708,0.15781
3.712,0.2101
3.716,0.20535
3.72,0.18893
3.724,0.18132
3.728,0.11977
3.732,0.15038
3.736,0.13184
3.74,0.18197
3.744,0.10407
3.748,0.09087
3.752,0.06095
3.756,0.0086
3.76,0.07151
3.764,0.10057
3.768,0.02429
3.772,0.09081
3.776,0.05024
3.78,-0.02528
3.784,0.02005
3.788,0.01405
3.792,0.01051
3.796,-0.0538
3.8,0.04599
3.804,-0.0364
3.808,0.01275
3.812,0.02016
3.816,0.03512
3.82,-0.06829
3.824,-0.00204
3.828,0.00594
3.832,0.0222
3.836,-0.03192
3.84,-0.0491
3.844,-0.07612
3.848,-0.00369
3.852,0.00149
3.856,0.01809
3.86,-0.03704
3.864,0.04769
3.868,-0.04396
3.872,-0.0496
3.876,0.06738
3.88,0.03169
3.884,0.04967
3.888,0.00107
3.892,0.00212
3.896,-0.08068
3.9,-0.05996
3.904,0.05083
3.908,0.02687
3.912,-0.02793
3.916,-0.01975
3.92,0.00395
3.924,0.01939
3.928,0.00102
3.932,0.02444
3.936,-0.11944
3.94,-0.01122
3.944,0.01824
3.948,0.03868
3.952,-0.02742
3.956,0.06409
3.96,0.04208
3.964,0.0345
3.968,0.06638
3.972,0.02685
3.976,0.11746
3.98,0.04768
3.984,0.11847
3.988,0.02374
3.992,0.11566
3.996,0.09037
4.0,0.03567
4.004,0.05339
4.008,0.06474
4.012,0.00366
4.016,-0.04222
4.02,-0.0169
4.024,0.00335
4.028,-0.01083
4.032,-0.02616
4.036,0.02579
4.04,-0.03349
4.044,-0.028
4.048,-0.00888
4.052,-0.04929
4.056,0.02194
4.06,0.0467
4.064,0.02165
4.068,-0.05003
4.072,0.05741
4.076,-0.00247
4.08,-0.05866
4.084,-0.02136
4.088,-0.04423
4.092,0.02605
4.096,-0.01872
4.1,-0.02719
4.104,-0.01834
4.108,-0.07223
4.112,-0.1738
4.116,-0.12493
4.12,-0.02696
4.124,0.12755
4.128,0.31374
4.132,0.4797
4.136,0.79583
4.14,0.92446
4.144,1.04605
4.148,0.9193
4.152,0.76723
4.156,0.63593
4.16,0.36399
4.164,0.15806
4.168,0.02725
4.172,-0.13138
4.176,-0.22069
4.18,-0.21839
4.184,-0.17899
4.188,-0.14786
4.192,-0.0388
4.196,-0.06179
4.2,0.01573
4.204,-0.05498
4.208,-0.0682
4.212,-0.02443
4.216,-0.10147
4.22,-0.02031
4.224,-0.03863
4.228,0.01665
4.232,-0.01331
4.236,-0.00019
4.24,-0.06348
4.244,-0.07008
4.248,-0.02728
4.252,0.0436
4.256,-0.00906
4.26,-0.01076
4.264,-0.05624
4.268,-0.03344
4.272,0.01777
4.276,-0.02411
4.28,-0.00795
4.284,-0.01629
4.288,-0.08332
4.292,-0.03089
4.296,-0.05439
4.3,-0.0568
4.304,0.00994
4.308,0.0074
4.312,-0.07525
4.316,-0.03921
4.32,-0.00995
4.324,0.01779
4.328,0.04061
4.332,-0.01027
4.336,-0.03896
4.34,0.00465
4.344,-0.01921
4.348,0.02436
4.352,0.00968
4.356,0.08719
4.36,0.08281
4.364,0.07014
4.368,0.04105
4.372,0.11694
4.376,0.09887
4.38,0.08761
4.384,0.16062
4.388,0.13235
4.392,0.08311
4.396,0.1055
4.4,0.15302
4.404,0.21978
4.408,0.20431
4.412,0.28711
4.416,0.20318
4.42,0.19139
4.424,0.17047
4.428,0.27039
4.432,0.15733
4.436,0.20159
4.44,0.20149
4.444,0.21456
4.448,0.17489
4.452,0.19082
4.456,0.08827
4.46,0.13649
4.464,0.18118
4.468,0.139
4.472,0.14323
4.476,0.04738
4.48,0.08853
4.484,0.00255
4.488,0.05751
4.492,0.02865
4.496,0.06308
4.5,0.04525
4.504,0.02647
4.508,-0.0173
4.512,0.0361
4.516,0.06787
4.52,-0.02232
4.524,-0.05011
4.528,-0.06015
4.532,0.01623
4.536,-0.03274
4.54,-0.05659
4.544,-0.01403
4.548,-0.07234
4.552,0.02799
4.556,-0.07625
4.56,0.01626
4.564,-0.04492
4.568,0.05704
4.572,0.02125
4.576,-0.04661
4.58,-0.05747
4.584,-0.07928
4.588,-0.04106
4.592,0.02963
4.596,-0.02915
4.6,-0.01049
4.604,-0.01865
4.608,-0.0417
4.612,-0.00729
4.616,-0.01716
4.62,0.08808
4.624,0.05195
4.628,0.10859
4.632,0.05593
4.636,0.02312
4.64,0.05638
4.644,0.05763
4.648,0.00941
4.652,0.0787
4.656,0.09782
4.66,0.06978
4.664,0.09491
4.668,0.06233
4.672,0.05757
4.676,0.0026
4.68,0.03789
4.684,-0.02963
4.688,0.00695
4.692,-0.00151
4.696,0.04176
4.7,-0.00889
4.704,-0.02188
4.708,0.01146
4.712,-0.01438
4.716,-0.04347
4.72,-0.01287
4.724,-0.07342
4.728,-0.07386
4.732,-0.04122
4.736,-0.03573
4.74,-0.07024
4.744,0.00794
4.748,-0.05725
4.752,-0.04055
4.756,0.00019
4.76,-0.06185
4.764,0.03268
4.768,-0.0339
4.772,-0.03929
4.776,-0.08856
4.78,-0.05929
4.784,-0.10221
4.788,-0.15944
4.792,-0.11851
4.796,0.08436
4.8,0.2585
4.804,0.5015
4.808,0.62821
4.812,0.87019
4.816,0.96145
4.82,0.9642
4.824,0.84724
4.828,0.62417
4.832,0.39238
4.836,0.15638
4.84,0.05029
4.844,-0.12419
4.848,-0.21677
4.852,-0.20626
4.856,-0.1757
4.86,-0.08911
4.864,-0.09513
4.868,-0.09424
4.872,-0.06414
4.876,-0.00771
4.88,-0.05586
4.884,-0.00978
4.888,0.05185
4.892,-0.04613
4.896,-0.02937
4.9,-0.05564
4.904,-0.06984
4.908,-0.10714
4.912,-0.03711
4.916,-0.06528
4.92,0.01204
4.924,-0.04065
4.928,0.01101
4.932,-0.0199
4.936,-0.03018
4.94,-0.08396
4.944,-0.03461
4.948,-0.03517
4.952,-0.04339
4.956,-0.04335
4.96,-0.02372
4.964,-0.04929
4.968,0.01708
4.972,-0.0216
4.976,-0.00853
4.98,9e-05
4.984,-0.01637
4.988,-0.04059
4.992,0.02417
4.996,-0.01299
5.0,-0.05666
5.004,-0.01014
5.008,-0.00537
5.012,0.02605
5.016,-0.00164
5.02,0.00997
5.024,-0.00379
5.028,0.01975
5.032,0.04442
5.036,0.05894
5.04,0.0643
5.044,0.07432
5.048,0.11262
5.052,0.0796
5.056,0.10011
5.06,0.16666
5.064,0.13866
5.068,0.2062
5.072,0.18339
5.076,0.15717
5.08,0.11998
5.084,0.13343
5.088,0.14074
5.092,0.25713
5.096,0.2089
5.1,0.22232
5.104,0.15797
5.108,0.21224
5.112,0.16286
5.116,0.15537
5.12,0.16453
5.124,0.19848
5.128,0.22399
5.132,0.1283
5.136,0.13501
5.14,0.0595
5.144,0.11934
5.148,0.08978
5.152,0.02969
5.156,0.06387
5.16,0.06341
5.164,0.03796
5.168,0.08249
5.172,0.1278
5.176,0.01816
5.18,-0.04945
5.184,0.01355
5.188,-0.0616
5.192,0.00086
5.196,-0.07563
5.2,-0.00889
5.204,-0.0118
5.208,-0.03706
5.212,-0.01851
5.216,0.05231
5.22,-0.0465
5.224,-0.04713
5.228,-0.03121
5.232,-0.04791
5.236,-0.02449
5.24,-0.03237
5.244,0.00852
5.248,-0.00419
5.252,-0.07948
5.256,0.00506
5.26,-0.06064
5.264,-0.05682
5.268,0.00514
5.272,-0.06728
5.276,0.00319
5.28,-0.07261
5.284,-0.0658
5.288,0.01326
5.292,-0.0437
5.296,0.00325
5.3,0.0097
5.304,0.01731
5.308,0.01322
5.312,0.0473
5.316,0.05937
5.32,0.05456
5.324,0.04427
5.328,0.02477
5.332,0.12418
5.336,0.09465
5.34,0.1049
5.344,0.12682
5.348,0.04192
5.352,0.11741
5.356,0.04225
5.36,-0.0194
5.364,-0.00251
5.368,-0.01399
5.372,0.06955
5.376,0.02599
5.38,-0.01376
5.384,-0.0647
5.388,-0.01173
5.392,-0.01104
5.396,-0.03715
5.4,-0.00742
5.404,-0.04449
5.408,-0.07863
5.412,-0.01165
5.416,-0.02616
5.42,0.04601
5.424,-0.04767
5.428,-0.0667
5.432,0.00724
5.436,-0.08325
5.44,-0.05373
5.444,-0.05433
5.448,-0.0627
5.452,-0.01489
5.456,-0.06415
5.46,-0.1718
5.464,-0.12494
5.468,-0.163
5.472,-0.11796
5.476,0.04243
5.48,0.20997
5.484,0.49161
5.488,0.63135
5.492,0.87768
5.496,0.95165
5.5,0.88015
5.504,0.84022
5.508,0.66004
5.512,0.46125
5.516,0.23536
5.52,0.05156
5.524,-0.09252
5.528,-0.20531
5.532,-0.16706
5.536,-0.20023
5.54,-0.13875
5.544,-0.11099
5.548,-0.02318
5.552,0.02641
5.556,-0.08865
5.56,-0.06069
5.564,-0.05035
5.568,-0.03598
5.572,-0.06911
5.576,-0.03992
5.58,-0.02938
5.584,-0.00178
5.588,-0.01678
5.592,-0.04061
5.596,-0.03106
5.6,-0.03376
5.604,-0.10522
5.608,-0.05987
5.612,0.00357
5.616,-0.00164
5.62,-0.02392
5.624,-0.01523
5.628,-0.01236
5.632,-0.04786
5.636,0.00746
5.64,-0.04717
5.644,0.03895
5.648,-0.01685
5.652,-0.0782
5.656,-0.07264
5.66,0.00266
5.664,-0.04138
5.668,-0.00708
5.672,0.03998
5.676,-0.03727
5.68,-0.02394
5.684,0.05067
5.688,-0.00216
5.692,0.03864
5.696,0.02382
5.7,-0.01906
5.704,-0.00633
5.708,0.07658
5.712,0.05545
5.716,0.0917
5.72,0.0298
5.724,0.05663
5.728,0.03932
5.732,0.05523
5.736,0.11014
5.74,0.12565
5.744,0.10982
5.748,0.2049
5.752,0.12285
5.756,0.13782
5.76,0.16371
5.764,0.16361
5.768,0.16945
5.772,0.13605
5.776,0.23134
5.78,0.20905
5.784,0.18922
5.788,0.15401
5.792,0.14681
5.796,0.23819
5.8,0.1625
5.804,0.12993
5.808,0.08987
5.812,0.11032
5.816,0.17664
5.82,0.08354
5.824,0.15792
5.828,0.14664
5.832,0.0784
5.836,0.08956
5.84,0.03958
5.844,0.08477
5.848,0.05226
5.852,0.04003
5.856,0.09438
5.86,0.07593
5.864,-0.05246
5.868,0.01063
5.872,0.0056
5.876,-0.05094
5.88,0.00267
5.884,-0.08101
5.888,-0.05768
5.892,-0.04355
5.896,0.00707
5.9,-0.04263
5.904,0.02605
5.908,-0.05626
5.912,-0.03811
5.916,0.02504
5.92,0.02808
5.924,-0.0537
5.928,-0.00716
5.932,0.01723
5.936,-0.07578
5.94,-0.02583
5.944,0.04199
5.948,-0.02535
5.952,-0.04125
5.956,-0.02855
5.96,-0.0107
5.964,0.03313
5.968,-0.01443
5.972,-0.02183
5.976,-0.09177
5.98,0.00137
5.984,-0.01014
5.988,-0.03156
5.992,-0.03363
5.996,-0.01412
6.0,-0.05554
6.004,0.07245
6.008,-0.00967
6.012,0.05129
6.016,-0.00593
6.02,-0.03269
6.024,0.00358
6.028,-0.04711
6.032,-0.07507
6.036,-0.04527
6.04,-0.01451
6.044,0.07423
6.048,-0.01267
6.052,-0.00766
6.056,-0.03541
6.06,-0.01999
6.064,-0.06359
6.068,-0.09265
6.072,0.0018
6.076,-0.01801
6.08,-0.00255
6.084,-0.01739
6.088,0.00242
6.092,-0.01546
6.096,-0.0295
6.1,-0.00256
6.104,-0.04369
6.108,-0.02075
6.112,-0.06776
6.116,-0.01052
6.12,0.02821
6.124,-0.04697
6.128,0.02312
6.132,0.02125
6.136,-0.01833
6.14,-0.05631
6.144,0.05587
6.148,-0.02569
6.152,0.0327
6.156,0.10358
6.16,0.07653
6.164,0.12597
6.168,0.04898
6.172,0.06332
6.176,0.06399
6.18,0.02134
6.184,0.04543
6.188,0.10748
6.192,0.10013
6.196,0.08145
6.2,0.01856
6.204,0.05316
6.208,0.0536
6.212,-0.01875
6.216,0.00439
6.22,-0.03231
6.224,-0.00129
6.228,-0.03554
6.232,-0.07439
6.236,-0.04587
6.24,0.00738
6.244,0.01708
6.248,-0.03113
6.252,-0.06007
6.256,0.01657
6.26,-0.07122
6.264,0.01484
6.268,-0.01788
6.272,0.041
6.276,0.03823
6.28,0.02059
6.284,0.03892
6.288,-0.04137
6.292,-0.04039
6.296,-0.04505
6.3,-0.0247
6.304,-0.15531
6.308,-0.13011
6.312,-0.09564
6.316,-0.07245
6.32,0.13173
6.324,0.31102
6.328,0.46453
6.332,0.65641
6.336,0.85081
6.34,1.00133
6.344,0.92555
6.348,0.83923
6.352,0.62505
6.356,0.41686
6.36,0.13638
6.364,0.04657
6.368,-0.13467
6.372,-0.19397
6.376,-0.1753
6.38,-0.14743
6.384,-0.08157
6.388,-0.07501
6.392,-0.02172
6.396,-0.05223
6.4,-0.02921
6.404,-0.04044
6.408,-0.02278
6.412,-0.00516
6.416,0.02702
6.42,-0.04106
6.424,-0.07485
6.428,0.05471
6.432,-0.01786
6.436,-0.03144
6.44,-0.04875
6.444,-0.02439
6.448,-0.01544
6.452,0.00191
6.456,-0.01974
6.46,-0.0265
6.464,-0.02703
6.468,-0.05375
6.472,0.08617
6.476,0.00348
6.48,-0.04749
6.484,0.02453
6.488,0.02065
6.492,-0.04969
6.496,0.01555
6.5,0.0281
6.504,0.04644
6.508,-0.03054
6.512,-0.01242
6.516,0.08496
6.52,0.01063
6.524,0.06473
6.528,0.00135
6.532,0.02305
6.536,0.00729
6.54,0.0752
6.544,-0.03583
6.548,0.09974
6.552,0.06432
6.556,0.07063
6.56,0.06551
6.564,0.05833
6.568,0.12954
6.572,0.05813
6.576,0.0622
6.58,0.14464
6.584,0.12448
6.588,0.11111
6.592,0.2186
6.596,0.24195
6.6,0.22247
6.604,0.17498
6.608,0.15414
6.612,0.23181
6.616,0.17029
6.62,0.30415
6.624,0.24097
6.628,0.21142
6.632,0.25402
6.636,0.24382
6.64,0.10902
6.644,0.22849
6.648,0.17531
6.652,0.17307
6.656,0.11872
6.66,0.12757
6.664,0.16849
6.668,0.1268
6.672,0.08857
6.676,0.1065
6.68,0.14373
6.684,0.15899
6.688,0.15612
6.692,0.16131
6.696,0.09541
6.7,0.07483
6.704,0.07685
6.708,0.12062
6.712,0.14894
6.716,0.09724
6.72,0.11836
6.724,0.10628
6.728,0.04756
6.732,0.07379
6.736,0.11702
6.74,0.01449
6.744,0.06338
6.748,-0.00508
6.752,0.00192
6.756,0.02582
6.76,0.06667
6.764,0.01224
6.768,0.03126
6.772,-0.00822
6.776,0.02598
6.78,0.00776
6.784,-0.0274
6.788,-0.02845
6.792,0.03753
6.796,-0.0153
6.8,-0.02925
6.804,-0.00083
6.808,0.06754
6.812,-0.02346
6.816,-0.02326
6.82,0.05128
6.824,0.017
6.828,-0.01795
6.832,-0.05597
6.836,-0.03138
6.84,-0.12036
6.844,-0.11312
6.848,-0.09547
6.852,0.00178
6.856,0.12844
6.86,0.33456
6.864,0.53198
6.868,0.75788
6.872,0.90487
6.876,0.98971
6.88,0.93313
6.884,0.86899
6.888,0.6359
6.892,0.3844
6.896,0.26256
6.9,0.00237
6.904,-0.11142
6.908,-0.06758
6.912,-0.2198
6.916,-0.11465
6.92,-0.03786
6.924,-0.02141
6.928,0.0021
6.932,0.04365
6.936,0.05126
6.94,-0.0361
6.944,-0.02582
6.948,0.00756
6.952,-0.00271
6.956,-0.05312
6.96,0.07731
6.964,-0.04097
6.968,0.04798
6.972,0.06489
6.976,-0.02535
6.98,0.03074
6.984,0.01037
6.988,-0.0366
6.992,0.05579
6.996,0.04813
7.0,-0.06243
7.004,0.00727
7.008,-0.01303
7.012,-0.02344
7.016,0.0566
7.02,-0.02592
7.024,-0.02961
7.028,0.01229
7.032,-0.00825
7.036,0.04154
7.04,0.01756
7.044,-0.02899
7.048,0.00458
7.052,-0.02045
7.056,-0.02326
7.06,0.00181
7.064,-0.01386
7.068,0.08286
7.072,0.11243
7.076,0.02946
7.08,0.06981
7.084,0.08605
7.088,0.08695
7.092,0.07975
7.096,0.01569
7.1,0.09326
7.104,0.1009
7.108,0.08559
7.112,0.1454
7.116,0.09495
7.12,0.18189
7.124,0.16861
7.128,0.14346
7.132,0.20696
7.136,0.17971
7.14,0.20966
7.144,0.22416
7.148,0.10623
7.152,0.25912
7.156,0.20992
7.16,0.24027
7.164,0.24846
7.168,0.20299
7.172,0.23252
7.176,0.21818
7.18,0.16852
7.184,0.16959
7.188,0.20207
7.192,0.17814
7.196,0.11983
7.2,0.1965
7.204,0.10118
7.208,0.10259
7.212,0.10595
7.216,0.1326
7.22,0.11317
7.224,0.06835
7.228,0.13194
7.232,0.1385
7.236,0.07456
7.24,0.06466
7.244,0.03761
7.248,0.0322
7.252,0.07858
7.256,0.06693
7.26,0.08759
7.264,0.09477
7.268,0.07293
7.272,0.10389
7.276,0.14303
7.28,0.07516
7.284,0.13931
7.288,0.10025
7.292,0.06771
7.296,0.10339
7.3,0.0807
7.304,0.0137
7.308,0.07037
7.312,0.00994
7.316,0.04024
7.32,0.00966
7.324,0.06293
7.328,0.08023
7.332,0.02191
7.336,-0.00233
7.34,-0.00945
7.344,0.01327
7.348,-0.05231
7.352,0.02003
7.356,0.02359
7.36,0.02742
7.364,-0.02037
7.368,0.03941
7.372,0.01471
7.376,0.0195
7.38,0.01083
7.384,0.02499
7.388,0.07503
7.392,-0.03168
7.396,-0.06421
7.4,-0.07367
7.404,-0.10273
7.408,-0.11052
7.412,0.03363
7.416,0.1561
7.42,0.3564
7.424,0.60389
7.428,0.73499
7.432,0.96966
7.436,1.06151
7.44,0.96632
7.444,0.86408
7.448,0.61382
7.452,0.35423
7.456,0.20278
7.46,0.00555
7.464,-0.07015
7.468,-0.10657
7.472,-0.08901
7.476,-0.07391
7.48,-0.06044
7.484,-0.09882
7.488,-0.03825
7.492,0.02873
7.496,0.00377
7.5,0.00808
7.504,0.01812
7.508,-0.01149
7.512,0.04169
7.516,0.036
7.52,0.04614
7.524,0.00141
7.528,0.02169
7.532,0.04663
7.536,0.01495
7.54,0.05167
7.544,0.0232
7.548,0.04023
7.552,0.01899
7.556,0.02498
7.56,0.03367
7.564,0.09429
7.568,-0.01925
7.572,0.07035
7.576,0.0552
7.58,0.00096
7.584,0.05473
7.588,0.03602
7.592,-0.01135
7.596,-0.01904
7.6,0.10704
7.604,0.0207
7.608,0.0395
7.612,0.04994
7.616,0.02396
7.62,0.02152
7.624,0.03787
7.628,0.06615
7.632,0.04311
7.636,0.0223
7.64,0.05129
7.644,0.10009
7.648,0.03964
7.652,0.13167
7.656,0.10464
7.66,0.13041
7.664,0.11222
7.668,0.12774
7.672,0.18995
7.676,0.13463
7.68,0.15057
7.684,0.23438
7.688,0.20607
7.692,0.22199
7.696,0.23577
7.7,0.15892
7.704,0.26984
7.708,0.20401
7.712,0.26558
7.716,0.27807
7.72,0.30777
7.724,0.30737
7.728,0.20769
7.732,0.25345
7.736,0.22559
7.74,0.2667
7.744,0.22147
7.748,0.20851
7.752,0.18134
7.756,0.23568
7.76,0.18694
7.764,0.12428
7.768,0.16924
7.772,0.11528
7.776,0.09113
7.78,0.09914
7.784,0.11345
7.788,0.08854
7.792,0.08775
7.796,0.05279
7.8,0.06742
7.804,0.01033
7.808,0.07723
7.812,0.01242
7.816,0.07379
7.82,0.03892
7.824,0.0295
7.828,0.02336
7.832,0.05842
7.836,0.04194
7.84,0.09127
7.844,0.02708
7.848,0.11669
7.852,0.02241
7.856,0.02927
7.86,0.0062
7.864,0.01371
7.868,0.01176
7.872,0.00816
7.876,0.04107
7.88,0.01525
7.884,0.03165
7.888,-0.03185
7.892,0.00813
7.896,0.02352
7.9,0.00733
7.904,0.05667
7.908,0.05378
7.912,0.05112
7.916,0.01956
7.92,0.04575
7.924,0.03136
7.928,0.07902
7.932,0.05156
7.936,0.03267
7.94,-0.00112
7.944,-0.00104
7.948,0.05776
7.952,-0.03739
7.956,0.07096
7.96,0.05563
7.964,-0.01834
7.968,0.07072
7.972,0.03247
7.976,0.05791
7.98,-0.01087
7.984,0.08078
7.988,0.07408
7.992,0.03116
7.996,0.0477
8.0,0.01389
8.004,0.0266
8.008,0.01305
8.012,-0.01084
8.016,-0.03839
8.02,0.04193
8.024,0.06968
8.028,-0.03137
8.032,0.01179
8.036,0.01669
8.04,0.02876
8.044,0.06974
8.048,0.0391
8.052,-0.03999
8.056,0.0642
8.06,-0.01228
8.064,0.08758
8.068,0.04862
8.072,0.05926
8.076,-0.02422
8.08,-0.01686
8.084,0.04618
8.088,-0.02488
8.092,-0.02232
8.096,0.0421
8.1,0.02504
8.104,0.07441
8.108,0.01449
8.112,0.06347
8.116,0.0129
8.12,0.04927
8.124,0.06717
8.128,0.05516
8.132,0.07372
8.136,0.0382
8.14,0.05708
8.144,0.10891
8.148,0.18922
8.152,0.18145
8.156,0.11655
8.16,0.11459
8.164,0.17725
8.168,0.13739
8.172,0.08452
8.176,0.088
8.18,0.14094
8.184,0.08861
8.188,0.07888
8.192,0.09148
8.196,0.07058
8.2,0.04413
8.204,0.06814
8.208,0.03831
8.212,0.02465
8.216,0.05164
8.22,0.00118
8.224,0.02036
8.228,0.09421
8.232,0.03575
8.236,0.04487
8.24,0.00038
8.244,0.03281
8.248,0.01615
8.252,0.0536
8.256,-0.03163
8.26,0.00051
8.264,0.00923
8.268,0.01931
8.272,0.0656
8.276,0.05645
8.28,0.00039
8.284,-0.02328
8.288,-0.04264
8.292,-0.03938
8.296,-0.06045
8.3,0.10211
8.304,0.3173
8.308,0.45169
8.312,0.75365
8.316,0.8433
8.32,1.01471
8.324,1.02001
8.328,0.95829
8.332,0.78528
8.336,0.52362
8.34,0.27451
8.344,0.07164
8.348,-0.07452
8.352,-0.14131
8.356,-0.07072
8.36,-0.10773
8.364,-0.04561
8.368,-0.05337
8.372,0.06284
8.376,-0.0113
8.38,0.09498
8.384,0.03788
8.388,0.05052
8.392,0.04388
8.396,0.07392
8.4,0.11474
8.404,0.12881
8.408,0.11331
8.412,0.13935
8.416,0.13441
8.42,0.11457
8.424,0.12484
8.428,0.05225
8.432,0.1009
8.436,0.06746
8.44,0.12602
8.444,-0.00274
8.448,0.04144
8.452,0.07164
8.456,0.04781
8.46,0.03921
8.464,-0.0166
8.468,0.08053
8.472,0.03409
8.476,0.08661
8.48,0.07155
8.484,-0.00753
8.488,0.06999
8.492,0.03674
8.496,0.04669
8.5,0.06521
8.504,0.07436
8.508,0.05002
8.512,-0.01199
8.516,0.02961
8.52,0.10593
8.524,0.06341
8.528,0.04277
8.532,0.02023
8.536,0.02108
8.54,0.0314
8.544,0.05037
8.548,0.10538
8.552,0.32316
8.556,0.48097
8.56,0.72179
8.564,0.92223
8.568,1.09547
8.572,1.20034
8.576,1.20733
8.58,1.07694
8.584,0.83022
8.588,0.65138
8.592,0.42431
8.596,0.25655
8.6,0.11841
8.604,0.07988
8.608,0.09454
8.612,0.12855
8.616,0.15864
8.62,0.19926
8.624,0.24538
8.628,0.25847
8.632,0.23301
8.636,0.1853
8.64,0.18416
8.644,0.12626
8.648,0.20529
8.652,0.12027
8.656,0.11017
8.66,0.15639
8.664,0.06952
8.668,0.13425
8.672,0.10176
8.676,0.11726
8.68,0.0199
8.684,0.09837
8.688,0.04966
8.692,0.06604
8.696,0.04827
8.7,0.10492
8.704,0.04039
8.708,-0.01857
8.712,0.04517
8.716,0.02236
8.72,-0.03431
8.724,0.00086
8.728,0.05807
8.732,0.00645
8.736,0.03236
8.74,0.00076
8.744,0.09807
8.748,0.00307
8.752,-0.01418
8.756,0.10835
8.76,0.02687
8.764,0.06506
8.768,0.10248
8.772,0.06486
8.776,0.05986
8.78,0.1232
8.784,0.09095
8.788,0.07515
8.792,0.11838
8.796,0.14245
8.8,0.13448
8.804,0.14925
8.808,0.19395
8.812,0.1398
8.816,0.12811
8.82,0.14883
8.824,0.22678
8.828,0.25609
8.832,0.18168
8.836,0.25825
8.84,0.23896
8.844,0.23025
8.848,0.22575
8.852,0.24001
8.856,0.23651
8.86,0.2357
8.864,0.21807
8.868,0.23176
8.872,0.25847
8.876,0.23044
8.88,0.15745
8.884,0.23595
8.888,0.20681
8.892,0.19077
8.896,0.14084
8.9,0.1647
8.904,0.0874
8.908,0.1235
8.912,0.10387
8.916,0.09024
8.92,0.10666
8.924,0.03425
8.928,0.03624
8.932,0.12771
8.936,0.03718
8.94,0.09834
8.944,0.01225
8.948,0.0767
8.952,0.05118
8.956,0.06295
8.96,0.02957
8.964,0.10747
8.968,0.05545
8.972,0.13382
8.976,0.02646
8.98,-0.0203
8.984,0.02676
8.988,-0.00296
8.992,0.01183
8.996,0.03549
9.0,-0.00913
9.004,0.01913
9.008,0.06893
9.012,0.07477
9.016,-0.057
9.02,-0.00774
9.024,0.00288
9.028,0.04326
9.032,0.08118
9.036,0.04322
9.04,0.00063
9.044,0.09572
9.048,-0.0021
9.052,-0.01182
9.056,0.02969
9.06,0.01617
9.064,0.04854
9.068,-0.0281
9.072,0.02532
9.076,0.03135
9.08,0.05775
9.084,0.00905
9.088,0.07729
9.092,0.02679
9.096,0.05295
9.1,0.03203
9.104,0.04206
9.108,-0.02158
9.112,0.00702
9.116,0.07521
9.12,0.01333
9.124,-0.03102
9.128,0.0543
9.132,0.03692
9.136,0.0053
9.14,-0.00938
9.144,0.08182
9.148,-0.01124
9.152,0.08015
9.156,0.00662
9.16,0.04514
9.164,-0.03112
9.168,0.03241
9.172,0.0842
9.176,0.05602
9.18,0.05769
9.184,0.01151
9.188,0.11718
9.192,0.00863
9.196,0.01922
9.2,0.06353
9.204,0.04651
9.208,0.00288
9.212,0.04908
9.216,0.08167
9.22,0.03968
9.224,0.06957
9.228,0.03726
9.232,0.00612
9.236,0.02656
9.24,-0.00414
9.244,-0.01217
9.248,0.04202
9.252,0.01321
9.256,0.00624
9.26,0.06693
9.264,-0.00417
9.268,-0.01776
9.272,-0.00977
9.276,0.02468
9.28,0.0026
9.284,0.01583
9.288,0.03335
9.292,0.01209
9.296,0.00327
9.3,0.02475
9.304,0.03934
9.308,0.09183
9.312,0.05996
9.316,0.03588
9.32,0.06857
9.324,0.06584
9.328,0.13007
9.332,0.15067
9.336,0.15822
9.34,0.09081
9.344,0.13075
9.348,0.11589
9.352,0.13903
9.356,0.06487
9.36,0.09323
9.364,0.0461
9.368,0.0839
9.372,0.07609
9.376,0.03941
9.38,0.12947
9.384,0.04446
9.388,0.01228
9.392,-0.0284
9.396,0.04225
9.4,0.04734
9.404,-0.01972
9.408,0.06259
9.412,0.00777
9.416,-0.01666
9.42,0.03425
9.424,0.0636
9.428,-0.02382
9.432,0.03629
9.436,0.03786
9.44,-0.02046
9.444,0.00586
9.448,0.06277
9.452,-0.0093
9.456,-0.00098
9.46,-0.01886
9.464,-0.02183
9.468,-0.01501
9.472,-0.10146
9.476,-0.12481
9.48,0.07309
9.484,0.13403
9.488,0.28753
9.492,0.53298
9.496,0.73568
9.5,0.93477
9.504,0.98496
9.508,0.97212
9.512,0.90648
9.516,0.6777
9.52,0.47983
9.524,0.23049
9.528,0.02454
9.532,-0.0822
9.536,-0.15535
9.54,-0.14546
9.544,-0.05913
9.548,-0.01082
9.552,-0.04737
9.556,0.0339
9.56,-0.04432
9.564,0.03756
9.568,0.06996
9.572,0.01057
9.576,0.07038
9.58,-0.06386
9.584,0.01119
9.588,-0.03189
9.592,-0.03439
9.596,-0.04309
9.6,0.04741
9.604,0.01845
9.608,0.0476
9.612,0.02832
9.616,0.05159
9.62,-0.02871
9.624,0.00844
9.628,0.01994
9.632,0.06112
9.636,0.06454
9.64,-0.01611
9.644,0.04751
9.648,0.00682
9.652,0.04716
9.656,0.07227
9.66,0.05433
9.664,0.01548
9.668,-0.01755
9.672,0.03382
9.676,-0.01139
9.68,0.00959
9.684,0.07359
9.688,-0.02754
9.692,0.03892
9.696,0.02451
9.7,0.04898
9.704,0.0476
9.708,0.1024
9.712,0.10378
9.716,0.09526
9.72,0.03974
9.724,0.10676
9.728,0.11111
9.732,0.05568
9.736,0.14539
9.74,0.1312
9.744,0.1487
9.748,0.10773
9.752,0.22424
9.756,0.17331
9.76,0.16278
9.764,0.21504
9.768,0.23509
9.772,0.22401
9.776,0.20722
9.78,0.17088
9.784,0.31355
9.788,0.20195
9.792,0.24814
9.796,0.25154
9.8,0.18455
9.804,0.23531
9.808,0.16753
9.812,0.20252
9.816,0.17193
9.82,0.16511
9.824,0.22579
9.828,0.17556
9.832,0.15832
9.836,0.14767
9.84,0.16678
9.844,0.07112
9.848,0.09444
9.852,0.08686
9.856,0.05526
9.86,0.09642
9.864,0.04701
9.868,0.05428
9.872,0.1498
9.876,0.0435
9.88,0.02469
9.884,0.03688
9.888,-0.00579
9.892,0.01589
9.896,0.05189
9.9,0.01267
9.904,0.06367
9.908,-0.0202
9.912,-0.01778
9.916,-0.00457
9.92,0.06209
9.924,0.01444
9.928,-0.0324
9.932,0.00531
9.936,-0.0221
9.94,0.06049
9.944,0.01883
9.948,0.03016
9.952,0.04292
9.956,-0.00467
9.96,-0.07279
9.964,-0.02204
9.968,-0.00354
9.972,0.00072
9.976,0.0341
9.98,-0.00915
9.984,-0.00042
9.988,0.0139
9.992,0.02764
9.996,-0.00092
