t_seg,ecg_mV
0.0,-0.02551
0.004,-0.01614
0.008,-0.03958
0.012,0.0159
0.016,-0.0069
0.02,-0.0366
0.024,-0.04347
0.028,-0.03201
0.032,-0.02526
0.036,-0.03119
0.04,-0.02814
0.044,-0.06158
0.048,-0.05013
0.052,-0.03931
0.056,-0.04069
0.06,-0.04495
0.064,-0.01724
0.068,-0.04565
0.072,-0.03272
0.076,-0.03331
0.08,-0.01509
0.084,-0.03096
0.088,-0.04103
0.092,-0.03894
0.096,-0.00016
0.1,-0.03087
0.104,-0.03374
0.108,-0.02672
0.112,-0.03147
0.116,-0.02552
0.12,0.00545
0.124,-0.02862
0.128,-0.02018
0.132,-0.04254
0.136,-0.02061
0.14,-0.05999
0.144,-0.0111
0.148,-0.03013
0.152,-0.03579
0.156,-0.04503
0.16,-0.03484
0.164,-0.03931
0.168,-0.02117
0.172,-0.0331
0.176,-0.03456
0.18,-0.02546
0.184,-0.04884
0.188,-0.04486
0.192,-0.04832
0.196,-0.03298
0.2,-0.02922
0.204,-0.01974
0.208,-0.02714
0.212,-0.04094
0.216,-0.03267
0.22,-0.02843
0.224,-0.04199
0.228,-0.03578
0.232,-0.03889
0.236,-0.03301
0.24,-0.03469
0.244,-0.03348
0.248,-0.02373
0.252,-0.02313
0.256,-0.01952
0.26,-0.0383
0.264,-0.04619
0.268,-0.01899
0.272,-0.02122
0.276,-0.03418
0.28,-0.0479
0.284,-0.01174
0.288,-0.01486
0.292,-0.02127
0.296,-0.02118
0.3,-0.07295
0.304,-0.03641
0.308,-0.0298
0.312,-0.03206
0.316,-0.02605
0.32,-0.04834
0.324,-0.03776
0.328,-0.0413
0.332,-0.04677
0.336,-0.04785
0.34,-0.03527
0.344,-0.0407
0.348,-0.02784
0.352,-0.03353
0.356,-0.02179
0.36,-0.04239
0.364,-0.03685
0.368,-0.02347
0.372,-0.05092
0.376,-0.04767
0.38,-0.0429
0.384,-0.04128
0.388,-0.00563
0.392,-0.03039
0.396,-0.03672
0.4,-0.04465
0.404,-0.04038
0.408,-0.03793
0.412,-0.04113
0.416,-0.02565
0.42,-0.0348
0.424,-0.03225
0.428,-0.04195
0.432,-0.01716
0.436,-0.04536
0.44,-0.03064
0.444,-0.00218
0.448,-0.02179
0.452,-0.03886
0.456,-0.03529
0.46,-0.02103
0.464,-0.02282
0.468,-0.01641
0.472,-0.03716
0.476,-0.03356
0.48,0.00207
0.484,-0.03949
0.488,-0.01514
0.492,-0.02316
0.496,-0.00583
0.5,0.01182
0.504,-0.00414
0.508,0.02322
0.512,0.00729
0.516,0.03429
0.52,0.07292
0.524,0.04508
0.528,0.0734
0.532,0.05842
0.536,0.08661
0.54,0.08648
0.544,0.05798
0.548,0.0423
0.552,0.04887
0.556,0.02651
0.56,0.03051
0.564,0.02601
0.568,-0.00526
0.572,0.00193
0.576,-0.00801
0.58,-0.00412
0.584,-0.00362
0.588,-0.03776
0.592,-0.0241
0.596,-0.01836
0.6,-0.0038
0.604,-0.04981
0.608,-0.03322
0.612,-0.0176
0.616,-0.02131
0.62,-0.02805
0.624,-0.01595
0.628,0.01422
0.632,0.00057
0.636,-0.02938
0.64,-0.0185
0.644,-0.00701
0.648,-0.03386
0.652,-0.06708
0.656,-0.11848
0.66,-0.12749
0.664,-0.12732
0.668,-0.08506
0.672,0.05258
0.676,0.23424
0.68,0.43338
0.684,0.63609
0.688,0.84546
0.692,0.93981
0.696,0.95519
0.7,0.84836
0.704,0.68441
0.708,0.40587
0.712,0.20037
0.716,0.05041
0.72,-0.10147
0.724,-0.19115
0.728,-0.19188
0.732,-0.15939
0.736,-0.12194
0.74,-0.07901
0.744,-0.06301
0.748,-0.05896
0.752,-0.04319
0.756,-0.05886
0.76,-0.02449
0.764,-0.02221
0.768,-0.02498
0.772,-0.03925
0.776,-0.01446
0.78,-0.02462
0.784,-0.01339
0.788,-0.0187
0.792,-0.03058
0.796,-0.00087
0.8,-0.00353
0.804,-0.00218
0.808,0.01272
0.812,-0.00881
0.816,0.00376
0.82,-0.02552
0.824,-0.01265
0.828,-0.01937
0.832,-0.04461
0.836,-0.04166
0.84,-0.04834
0.844,0.00611
0.848,-0.02385
0.852,-0.03656
0.856,-0.01751
0.86,0.01117
0.864,-0.0107
0.868,-0.00362
0.872,-0.00629
0.876,-0.02441
0.88,0.01743
0.884,0.00984
0.888,0.0339
0.892,0.01151
0.896,0.03604
0.9,0.05723
0.904,0.04264
0.908,0.07689
0.912,0.03866
0.916,0.07902
0.92,0.09238
0.924,0.10866
0.928,0.08685
0.932,0.11038
0.936,0.14531
0.94,0.13623
0.944,0.16355
0.948,0.15535
0.952,0.19476
0.956,0.18397
0.96,0.18518
0.964,0.16019
0.968,0.21573
0.972,0.19534
0.976,0.17521
0.98,0.17863
0.984,0.2025
0.988,0.18656
0.992,0.18573
0.996,0.14974
1.0,0.18167
1.004,0.14785
1.008,0.12077
1.012,0.09984
1.016,0.11311
1.02,0.1245
1.024,0.10719
1.028,0.09018
1.032,0.0663
1.036,0.05293
1.04,0.05433
1.044,0.03975
1.048,0.06634
1.052,0.03097
1.056,0.02184
1.06,0.02167
1.064,0.01419
1.068,-0.00806
1.072,-0.01811
1.076,0.00508
1.08,-0.01598
1.084,-0.01463
1.088,-0.01672
1.092,0.00022
1.096,-0.02363
1.1,-0.04048
1.104,-0.03572
1.108,-0.01887
1.112,0.01009
1.116,-0.0435
1.12,-0.00135
1.124,-0.00442
1.128,-0.02576
1.132,-0.03819
1.136,0.00413
1.14,-0.01522
1.144,-0.01064
1.148,-0.01257
1.152,0.00805
1.156,-0.01165
1.16,-0.01602
1.164,-0.01867
1.168,-0.01787
1.172,-0.0128
1.176,-0.00146
1.18,0.00939
1.184,-0.03115
1.188,-0.01454
1.192,-0.01966
1.196,-0.00815
1.2,-0.00181
1.204,-0.00256
1.208,-0.02854
1.212,0.00162
1.216,-0.01815
1.22,-0.02295
1.224,-0.00083
1.228,-0.00792
1.232,-0.02397
1.236,-0.01613
1.24,-0.00638
1.244,-0.01044
1.248,-0.01109
1.252,0.01642
1.256,-0.00415
1.26,-0.00399
1.264,-0.03674
1.268,0.00245
1.272,-0.02741
1.276,-0.02052
1.28,0.00256
1.284,-0.00727
1.288,0.0034
1.292,-0.00915
1.296,-0.01989
1.3,-0.02883
1.304,-0.02816
1.308,-0.01636
1.312,-0.01221
1.316,-0.00887
1.32,-0.02581
1.324,0.01721
1.328,-0.01747
1.332,-0.0213
1.336,-0.01579
1.34,0.01058
1.344,-0.03202
1.348,-0.02976
1.352,-0.00949
1.356,-0.00738
1.36,-0.00797
1.364,-0.03034
1.368,-0.02015
1.372,0.01924
1.376,-0.01684
1.38,0.00865
1.384,-0.02421
1.388,0.01686
1.392,0.01306
1.396,0.02989
1.4,0.0424
1.404,0.04781
1.408,0.03478
1.412,0.05427
1.416,0.06651
1.42,0.09087
1.424,0.09331
1.428,0.07521
1.432,0.10452
1.436,0.07549
1.44,0.09154
1.444,0.08853
1.448,0.03585
1.452,0.05063
1.456,0.01488
1.46,0.0315
1.464,0.01007
1.468,0.00257
1.472,-0.01711
1.476,-0.01251
1.48,-0.02119
1.484,-0.0148
1.488,-0.00562
1.492,-0.01302
1.496,-0.02057
1.5,0.00542
1.504,0.01886
1.508,-0.01014
1.512,-0.02654
1.516,-0.01213
1.52,-0.00296
1.524,-0.00369
1.528,0.00421
1.532,0.03012
1.536,-0.02641
1.54,-0.022
1.544,-0.02399
1.548,-0.01967
1.552,-0.11643
1.556,-0.11181
1.56,-0.09704
1.564,-0.03602
1.568,0.07881
1.572,0.28855
1.576,0.50975
1.58,0.71749
1.584,0.9018
1.588,0.98916
1.592,0.94999
1.596,0.86192
1.6,0.65072
1.604,0.44279
1.608,0.23205
1.612,0.02096
1.616,-0.09172
1.62,-0.13599
1.624,-0.16803
1.628,-0.14126
1.632,-0.08077
1.636,-0.06894
1.64,-0.02763
1.644,-0.00196
1.648,-0.00801
1.652,0.01857
1.656,-0.00716
1.66,-0.01794
1.664,-0.03969
1.668,-0.00845
1.672,0.00593
1.676,0.00815
1.68,-0.00049
1.684,0.00999
1.688,-0.01163
1.692,-0.01057
1.696,-0.00666
1.7,0.00966
1.704,-0.00989
1.708,0.0365
1.712,-0.02258
1.716,0.03736
1.72,0.01714
1.724,-0.00309
1.728,0.02612
1.732,-0.00742
1.736,0.00013
1.74,-0.02171
1.744,0.01041
1.748,-0.00904
1.752,-0.00486
1.756,0.00173
1.76,-0.00525
1.764,-0.00238
1.768,0.02749
1.772,0.00534
1.776,0.01167
1.78,0.04499
1.784,0.02649
1.788,0.0451
1.792,0.03397
1.796,0.06224
1.8,0.08943
1.804,0.09145
1.808,0.11071
1.812,0.08535
1.816,0.1086
1.82,0.14769
1.824,0.11884
1.828,0.1537
1.832,0.14072
1.836,0.17251
1.84,0.17545
1.844,0.17997
1.848,0.20184
1.852,0.18983
1.856,0.20086
1.86,0.22033
1.864,0.20625
1.868,0.21422
1.872,0.21439
1.876,0.212
1.88,0.24076
1.884,0.21924
1.888,0.21145
1.892,0.17459
1.896,0.19874
1.9,0.14534
1.904,0.16267
1.908,0.16349
1.912,0.14699
1.916,0.12869
1.92,0.13061
1.924,0.09417
1.928,0.08575
1.932,0.09463
1.936,0.06617
1.94,0.06928
1.944,0.05242
1.948,0.07464
1.952,0.06846
1.956,0.03857
1.96,0.04147
1.964,0.04657
1.968,0.03855
1.972,0.00475
1.976,0.01981
1.98,0.04549
1.984,0.0184
1.988,-0.00445
1.992,0.01969
1.996,0.03055
2.0,-0.00685
2.004,0.00348
2.008,0.03714
2.012,0.00082
2.016,0.0001
2.02,-6e-05
2.024,0.01858
2.028,0.00327
2.032,0.00599
2.036,0.00576
2.04,0.01007
2.044,-0.01233
2.048,-0.00018
2.052,-0.00416
2.056,0.01216
2.06,0.03074
2.064,-0.00413
2.068,-0.00169
2.072,0.00427
2.076,0.02455
2.08,0.02009
2.084,0.00417
2.088,0.01871
2.092,0.01168
2.096,0.00803
2.1,0.02628
2.104,0.00793
2.108,0.02053
2.112,0.00541
2.116,-0.0116
2.12,0.00663
2.124,0.01251
2.128,0.01881
2.132,0.02105
2.136,0.00765
2.14,0.00219
2.144,0.01554
2.148,0.00413
2.152,0.01002
2.156,0.01088
2.16,0.01958
2.164,-0.00661
2.168,0.03164
2.172,0.04513
2.176,0.08575
2.18,0.03705
2.184,0.0732
2.188,0.08
2.192,0.0749
2.196,0.10286
2.2,0.09923
2.204,0.08003
2.208,0.10144
2.212,0.12376
2.216,0.088
2.22,0.09523
2.224,0.09755
2.228,0.09277
2.232,0.06336
2.236,0.07327
2.24,0.04545
2.244,0.04429
2.248,0.00716
2.252,0.04319
2.256,0.036
2.26,0.02457
2.264,0.0235
2.268,0.02235
2.272,0.02715
2.276,0.00387
2.28,0.015
2.284,0.03564
2.288,-0.01375
2.292,0.01794
2.296,0.00882
2.3,-0.00174
2.304,0.04064
2.308,0.0077
2.312,-0.0037
2.316,0.01544
2.32,0.00248
2.324,-0.00845
2.328,-0.03785
2.332,-0.07713
2.336,-0.12975
2.34,-0.09624
2.344,0.05453
2.348,0.21154
2.352,0.39182
2.356,0.65431
2.36,0.81884
2.364,0.96585
2.368,0.9933
2.372,0.96303
2.376,0.77908
2.38,0.59064
2.384,0.36441
2.388,0.12822
2.392,0.00201
2.396,-0.09523
2.4,-0.15318
2.404,-0.14935
2.408,-0.09915
2.412,-0.05092
2.416,-0.02705
2.42,0.00524
2.424,0.00113
2.428,0.01813
2.432,0.02895
2.436,0.02464
2.44,0.0296
2.444,0.01606
2.448,0.018
2.452,0.02147
2.456,0.00386
2.46,0.01144
2.464,-0.01115
2.468,0.00104
2.472,-0.01415
2.476,0.05682
2.48,0.03593
2.484,0.02417
2.488,0.04464
2.492,0.01613
2.496,0.02489
2.5,0.04382
2.504,0.02949
2.508,0.01022
2.512,0.03349
2.516,0.02364
2.52,0.0168
2.524,0.02967
2.528,0.00895
2.532,0.02526
2.536,0.01443
2.54,0.01227
2.544,0.03961
2.548,0.06654
2.552,0.00825
2.556,0.04585
2.56,0.04017
2.564,0.06085
2.568,0.04763
2.572,0.06963
2.576,0.09834
2.58,0.08129
2.584,0.11398
2.588,0.1191
2.592,0.1289
2.596,0.14433
2.6,0.16685
2.604,0.15155
2.608,0.1915
2.612,0.22065
2.616,0.19767
2.62,0.22787
2.624,0.20996
2.628,0.19505
2.632,0.23137
2.636,0.22304
2.64,0.23384
2.644,0.26267
2.648,0.23361
2.652,0.24924
2.656,0.25611
2.66,0.22979
2.664,0.2559
2.668,0.21614
2.672,0.19544
2.676,0.20335
2.68,0.19917
2.684,0.18665
2.688,0.16712
2.692,0.16344
2.696,0.13596
2.7,0.1274
2.704,0.114
2.708,0.13615
2.712,0.09413
2.716,0.10027
2.72,0.08379
2.724,0.05805
2.728,0.05596
2.732,0.05527
2.736,0.04769
2.74,0.07048
2.744,0.00013
2.748,0.05892
2.752,0.0106
2.756,0.05689
2.76,0.05183
2.764,0.02273
2.768,0.01919
2.772,0.02151
2.776,0.04948
2.78,0.05205
2.784,0.03516
2.788,0.02949
2.792,0.03566
2.796,0.01597
2.8,0.04298
2.804,0.02156
2.808,-0.00148
2.812,0.02615
2.816,0.02824
2.82,-0.00081
2.824,0.05455
2.828,0.00486
2.832,0.04125
2.836,0.03475
2.84,0.02322
2.844,0.05478
2.848,0.03872
2.852,0.01951
2.856,0.01249
2.86,0.04237
2.864,0.03013
2.868,0.03316
2.872,0.02453
2.876,0.02736
2.88,0.03429
2.884,0.05801
2.888,0.01363
2.892,0.00921
2.896,0.01014
2.9,0.03536
2.904,0.02691
2.908,0.02496
2.912,0.00126
2.916,0.03465
2.92,0.03901
2.924,0.02457
2.928,0.00358
2.932,0.01407
2.936,0.01298
2.94,0.00674
2.944,0.03
2.948,0.02384
2.952,0.06292
2.956,0.02782
2.96,0.01694
2.964,0.03957
2.968,0.02099
2.972,0.00678
2.976,0.04492
2.98,0.02682
2.984,0.0097
2.988,0.02883
2.992,0.03646
2.996,0.06556
3.0,0.03722
3.004,0.04357
3.008,0.03728
3.012,0.05613
3.016,0.05967
3.02,0.07415
3.024,0.08891
3.028,0.12361
3.032,0.11092
3.036,0.11999
3.04,0.10636
3.044,0.14547
3.048,0.12666
3.052,0.13381
3.056,0.10048
3.06,0.05339
3.064,0.09863
3.068,0.07646
3.072,0.07633
3.076,0.05303
3.08,0.03072
3.084,0.01521
3.088,0.03855
3.092,0.06365
3.096,0.02368
3.1,0.00925
3.104,0.04202
3.108,0.02571
3.112,0.01033
3.116,0.02826
3.12,0.03936
3.124,0.02326
3.128,0.02463
3.132,0.02336
3.136,0.03033
3.14,0.03556
3.144,0.05133
3.148,0.0294
3.152,0.0603
3.156,0.0092
3.16,-0.01134
3.164,-0.07095
3.168,-0.11454
3.172,-0.05098
3.176,0.02276
3.18,0.12985
3.184,0.32818
3.188,0.52734
3.192,0.75654
3.196,0.93217
3.2,1.02493
3.204,1.00133
3.208,0.8983
3.212,0.70258
3.216,0.45285
3.22,0.21669
3.224,0.04553
3.228,-0.08264
3.232,-0.12029
3.236,-0.13681
3.24,-0.09781
3.244,-0.0559
3.248,-0.00173
3.252,0.0285
3.256,0.02853
3.26,0.02379
3.264,0.02462
3.268,-0.00403
3.272,0.02515
3.276,0.03051
3.28,0.0297
3.284,0.01681
3.288,0.04313
3.292,0.03482
3.296,0.03545
3.3,0.03691
3.304,0.02009
3.308,0.03565
3.312,0.04965
3.316,0.04338
3.32,0.01007
3.324,0.05847
3.328,0.01871
3.332,0.00652
3.336,0.05072
3.34,0.00954
3.344,0.02258
3.348,0.0475
3.352,0.02465
3.356,0.02446
3.36,0.03929
3.364,0.04182
3.368,0.05192
3.372,0.02906
3.376,0.03536
3.38,0.06331
3.384,0.04404
3.388,0.05172
3.392,0.04448
3.396,0.08455
3.4,0.0777
3.404,0.07182
3.408,0.09114
3.412,0.0711
3.416,0.09075
3.42,0.10867
3.424,0.12894
3.428,0.12517
3.432,0.15267
3.436,0.16704
3.44,0.19448
3.444,0.18779
3.448,0.20923
3.452,0.21901
3.456,0.2125
3.46,0.23067
3.464,0.24402
3.468,0.23761
3.472,0.26467
3.476,0.24198
3.48,0.26454
3.484,0.27067
3.488,0.26185
3.492,0.27392
3.496,0.23483
3.5,0.20788
3.504,0.2165
3.508,0.24245
3.512,0.19397
3.516,0.18706
3.52,0.19346
3.524,0.18307
3.528,0.15777
3.532,0.14423
3.536,0.13243
3.54,0.1154
3.544,0.09672
3.548,0.10354
3.552,0.12124
3.556,0.05714
3.56,0.09209
3.564,0.05208
3.568,0.03177
3.572,0.06584
3.576,0.08716
3.58,0.05053
3.584,0.0476
3.588,0.03025
3.592,0.05789
3.596,0.05982
3.6,0.02856
3.604,0.04846
3.608,0.04423
3.612,0.0503
3.616,0.01799
3.62,0.05434
3.624,0.02041
3.628,0.02515
3.632,0.03829
3.636,0.00531
3.64,0.01368
3.644,0.03251
3.648,0.02096
3.652,0.02316
3.656,-0.00185
3.66,0.01633
3.664,0.01782
3.668,0.03179
3.672,0.01929
3.676,0.04642
3.68,0.01402
3.684,0.0024
3.688,0.07153
3.692,0.04388
3.696,0.04206
3.7,0.03874
3.704,0.02004
3.708,0.02275
3.712,0.02118
3.716,0.00241
3.72,0.02941
3.724,0.00286
3.728,0.01392
3.732,0.02936
3.736,0.02569
3.74,0.00762
3.744,0.06213
3.748,0.02167
3.752,-0.01286
3.756,0.03875
3.76,0.02651
3.764,0.04479
3.768,0.01774
3.772,0.04346
3.776,0.05879
3.78,0.02847
3.784,0.00188
3.788,0.00229
3.792,0.02789
3.796,0.02483
3.8,0.04471
3.804,0.04219
3.808,0.05499
3.812,0.0516
3.816,0.09645
3.82,0.12284
3.824,0.13597
3.828,0.11812
3.832,0.11616
3.836,0.13286
3.84,0.11407
3.844,0.09422
3.848,0.12098
3.852,0.10666
3.856,0.0912
3.86,0.07786
3.864,0.07979
3.868,0.03339
3.872,0.06169
3.876,0.0758
3.88,0.04599
3.884,0.02318
3.888,0.02771
3.892,0.02755
3.896,0.0257
3.9,0.0191
3.904,0.03164
3.908,0.02251
3.912,0.00411
3.916,0.03454
3.92,0.04204
3.924,0.01911
3.928,0.03702
3.932,0.05312
3.936,0.04186
3.94,0.03141
3.944,0.01177
3.948,0.0126
3.952,-0.02404
3.956,-0.03673
3.96,-0.0874
3.964,-0.06834
3.968,-0.08321
3.972,-0.03473
3.976,0.08823
3.98,0.28158
3.984,0.52661
3.988,0.7296
3.992,0.89129
3.996,0.99531
4.0,0.97744
4.004,0.89705
4.008,0.71108
4.012,0.51257
4.016,0.26493
4.02,0.09338
4.024,-0.06092
4.028,-0.12739
4.032,-0.14163
4.036,-0.1336
4.04,-0.07464
4.044,-0.02943
4.048,0.0097
4.052,0.02892
4.056,0.03418
4.06,0.03347
4.064,0.01138
4.068,0.0396
4.072,0.01058
4.076,0.00752
4.08,0.01089
4.084,0.03949
4.088,0.0298
4.092,0.01187
4.096,0.00653
4.1,0.02876
4.104,0.0257
4.108,0.04494
4.112,0.04533
4.116,0.01245
4.12,0.03848
4.124,0.01761
4.128,0.04993
4.132,0.0425
4.136,0.01576
4.14,0.02595
4.144,0.04985
4.148,0.03839
4.152,0.01264
4.156,0.02044
4.16,0.04854
4.164,0.01857
4.168,0.06173
4.172,0.02832
4.176,0.03998
4.18,0.03386
4.184,0.07187
4.188,0.06254
4.192,0.04581
4.196,0.04937
4.2,0.05169
4.204,0.09437
4.208,0.08117
4.212,0.07995
4.216,0.10397
4.22,0.08363
4.224,0.12207
4.228,0.1453
4.232,0.14722
4.236,0.16292
4.24,0.18602
4.244,0.18308
4.248,0.19896
4.252,0.21269
4.256,0.2145
4.26,0.21022
4.264,0.22269
4.268,0.23543
4.272,0.2344
4.276,0.23081
4.28,0.24408
4.284,0.25517
4.288,0.26192
4.292,0.22556
4.296,0.24251
4.3,0.20595
4.304,0.22979
4.308,0.19817
4.312,0.19987
4.316,0.18322
4.32,0.1417
4.324,0.15148
4.328,0.12713
4.332,0.13402
4.336,0.11477
4.34,0.09899
4.344,0.0801
4.348,0.07775
4.352,0.09617
4.356,0.07479
4.36,0.0962
4.364,0.05428
4.368,0.05749
4.372,0.03035
4.376,0.04235
4.38,0.04736
4.384,0.02284
4.388,0.0421
4.392,0.03103
4.396,0.03762
4.4,0.03711
4.404,0.0372
4.408,0.02389
4.412,0.02969
4.416,0.01425
4.42,0.01703
4.424,0.03477
4.428,0.03904
4.432,0.01733
4.436,-0.00594
4.44,0.02616
4.444,-0.0009
4.448,0.01723
4.452,0.03204
4.456,0.04308
4.46,0.00576
4.464,-0.01001
4.468,0.01813
4.472,-0.00348
4.476,0.01215
4.48,0.03277
4.484,0.01752
4.488,0.03767
4.492,-0.00525
4.496,0.03389
4.5,0.02716
4.504,0.01878
4.508,0.00669
4.512,0.02608
4.516,0.04059
4.52,0.02911
4.524,0.00728
4.528,-0.01026
4.532,0.01084
4.536,0.02938
4.54,0.01288
4.544,-0.00366
4.548,0.0367
4.552,0.01624
4.556,0.0018
4.56,0.00562
4.564,0.01715
4.568,0.02832
4.572,0.01482
4.576,0.03066
4.58,0.01692
4.584,0.03175
4.588,0.03544
4.592,0.03471
4.596,0.02279
4.6,0.01603
4.604,0.02039
4.608,0.0038
4.612,0.0102
4.616,0.03309
4.62,0.00999
4.624,0.05143
4.628,0.01867
4.632,-0.01259
4.636,0.00442
4.64,0.03091
4.644,0.0169
4.648,0.00617
4.652,-0.00064
4.656,0.00506
4.66,0.01868
4.664,0.0239
4.668,0.02941
4.672,0.02303
4.676,0.03101
4.68,0.00405
4.684,0.04213
4.688,0.06534
4.692,0.0671
4.696,0.06895
4.7,0.08225
4.704,0.0932
4.708,0.12377
4.712,0.0932
4.716,0.12179
4.72,0.09806
4.724,0.10468
4.728,0.07627
4.732,0.05093
4.736,0.07127
4.74,0.09001
4.744,0.08796
4.748,0.033
4.752,0.03954
4.756,0.017
4.76,-0.01716
4.764,-0.00544
4.768,-0.01558
4.772,0.01802
4.776,-0.00621
4.78,0.0129
4.784,0.0124
4.788,0.00756
4.792,0.00977
4.796,0.03519
4.8,0.01479
4.804,0.0027
4.808,0.02132
4.812,0.02279
4.816,-0.00984
4.82,-0.03527
4.824,0.01671
4.828,-0.00706
4.832,-0.03635
4.836,-0.07633
4.84,-0.11061
4.844,-0.10491
4.848,-0.05829
4.852,0.06253
4.856,0.18183
4.86,0.41367
4.864,0.64975
4.868,0.83875
4.872,0.97351
4.876,1.00398
4.88,0.89334
4.884,0.75808
4.888,0.54295
4.892,0.32723
4.896,0.11527
4.9,-0.0192
4.904,-0.14195
4.908,-0.16736
4.912,-0.15067
4.916,-0.07789
4.92,-0.05397
4.924,-0.04986
4.928,-0.02231
4.932,-0.0088
4.936,0.00778
4.94,0.00111
4.944,0.01881
4.948,0.00772
4.952,-0.01289
4.956,0.02808
4.96,-0.0127
4.964,0.02251
4.968,-0.02094
4.972,-0.01635
4.976,-0.01891
4.98,0.01335
4.984,-0.03495
4.988,0.01714
4.992,-0.01605
4.996,0.02731
5.0,-0.0302
5.004,-0.01586
5.008,0.02202
5.012,0.00186
5.016,-0.02897
5.02,-0.00497
5.024,-0.01581
5.028,-0.0073
5.032,0.00366
5.036,-0.02929
5.04,0.02014
5.044,-0.01595
5.048,0.01869
5.052,0.02912
5.056,0.00028
5.06,0.01645
5.064,0.04658
5.068,0.0281
5.072,0.03173
5.076,0.03423
5.08,0.07299
5.084,0.08017
5.088,0.06338
5.092,0.09162
5.096,0.08414
5.1,0.11471
5.104,0.13093
5.108,0.11825
5.112,0.13155
5.116,0.14006
5.12,0.19337
5.124,0.16662
5.128,0.14962
5.132,0.19175
5.136,0.20537
5.14,0.17096
5.144,0.20442
5.148,0.20489
5.152,0.23151
5.156,0.21219
5.16,0.21414
5.164,0.20808
5.168,0.21338
5.172,0.20055
5.176,0.20507
5.18,0.1912
5.184,0.16811
5.188,0.17105
5.192,0.15244
5.196,0.16871
5.2,0.13389
5.204,0.13192
5.208,0.13954
5.212,0.12045
5.216,0.05246
5.22,0.08045
5.224,0.04243
5.228,0.0944
5.232,0.06514
5.236,0.04256
5.24,0.02644
5.244,0.03551
5.248,0.00792
5.252,0.01511
5.256,0.00529
5.26,-0.01684
5.264,-0.00139
5.268,0.00406
5.272,-0.01373
5.276,-0.01046
5.28,0.00673
5.284,-0.01017
5.288,0.01213
5.292,0.01436
5.296,-0.0079
5.3,-0.02568
5.304,0.01593
5.308,0.00871
5.312,-0.01949
5.316,0.00361
5.32,-0.02667
5.324,-0.00488
5.328,-0.0065
5.332,-0.00318
5.336,-0.01692
5.34,-0.01515
5.344,0.00635
5.348,-0.00496
5.352,-0.01604
5.356,-0.00406
5.36,-0.01121
5.364,-0.01113
5.368,-0.01851
5.372,-0.01453
5.376,-0.00043
5.38,0.01065
5.384,0.00099
5.388,0.03325
5.392,0.00542
5.396,0.0233
5.4,0.01421
5.404,0.03093
5.408,0.01125
5.412,0.03483
5.416,0.06303
5.42,0.05438
5.424,0.06844
5.428,0.07231
5.432,0.09418
5.436,0.09032
5.44,0.09867
5.444,0.06345
5.448,0.0737
5.452,0.04975
5.456,0.07031
5.46,0.05523
5.464,0.02994
5.468,0.02547
5.472,-0.00384
5.476,-0.01235
5.48,0.01397
5.484,0.00767
5.488,-0.00793
5.492,-0.02726
5.496,-0.01483
5.5,-0.01729
5.504,-0.03049
5.508,-0.00129
5.512,0.00797
5.516,-0.01055
5.52,-0.01548
5.524,0.01001
5.528,-0.02198
5.532,0.00534
5.536,-0.00436
5.54,-0.01796
5.544,-0.00863
5.548,-0.06408
5.552,-0.04072
5.556,-0.09198
5.56,-0.13092
5.564,-0.11769
5.568,-0.08958
5.572,0.02771
5.576,0.18012
5.58,0.36371
5.584,0.59886
5.588,0.795
5.592,0.93705
5.596,0.98041
5.6,0.94333
5.604,0.75198
5.608,0.54155
5.612,0.29924
5.616,0.12948
5.62,-0.06645
5.624,-0.14092
5.628,-0.18565
5.632,-0.18506
5.636,-0.10019
5.64,-0.09927
5.644,-0.07115
5.648,-0.00591
5.652,-0.02588
5.656,-0.01817
5.66,-0.02932
5.664,-0.02039
5.668,-0.02762
5.672,-0.01279
5.676,-0.01646
5.68,-0.0141
5.684,-0.02253
5.688,-0.01662
5.692,-0.02556
5.696,-0.03275
5.7,-0.00194
5.704,-0.01128
5.708,-0.01643
5.712,-0.0413
5.716,-0.00924
5.72,-0.0349
5.724,-0.02212
5.728,-0.01939
5.732,-0.01089
5.736,-0.01892
5.74,-0.00993
5.744,-0.02543
5.748,-0.0435
5.752,-0.0334
5.756,-0.00848
5.76,-0.01207
5.764,-0.00982
5.768,-0.01979
5.772,-0.00751
5.776,-0.00154
5.78,0.00935
5.784,0.01962
5.788,0.01025
5.792,0.01106
5.796,0.01811
5.8,0.05552
5.804,0.02883
5.808,0.04889
5.812,0.08222
5.816,0.04518
5.82,0.08672
5.824,0.10463
5.828,0.1051
5.832,0.13127
5.836,0.12256
5.84,0.1448
5.844,0.14908
5.848,0.13538
5.852,0.17069
5.856,0.15779
5.86,0.19744
5.864,0.21528
5.868,0.19001
5.872,0.2088
5.876,0.18305
5.88,0.21667
5.884,0.21062
5.888,0.17261
5.892,0.21975
5.896,0.17474
5.9,0.17484
5.904,0.20242
5.908,0.11639
5.912,0.15118
5.916,0.12605
5.92,0.10661
5.924,0.08166
5.928,0.07415
5.932,0.10714
5.936,0.06748
5.94,0.07175
5.944,0.05465
5.948,0.03865
5.952,0.02471
5.956,0.04618
5.96,0.03691
5.964,0.00402
5.968,0.01839
5.972,0.01025
5.976,-0.02705
5.98,-0.0127
5.984,-0.01012
5.988,-0.02493
5.992,-0.01192
5.996,-0.01329
6.0,-0.01568
6.004,-0.02174
6.008,0.01946
6.012,-0.02775
6.016,-0.00411
6.02,-0.0266
6.024,-0.04524
6.028,-0.02364
6.032,-0.01763
6.036,-0.03347
6.04,-0.03843
6.044,-0.02336
6.048,-0.05013
6.052,-0.02738
6.056,0.00592
6.06,-0.01995
6.064,-0.01961
6.068,-0.03986
6.072,-0.01145
6.076,-0.03247
6.08,-0.02914
6.084,0.00459
6.088,-0.04343
6.092,-0.04163
6.096,-0.02101
6.1,0.00114
6.104,-0.03288
6.108,-0.01504
6.112,-0.03419
6.116,-0.01785
6.12,-0.04309
6.124,-0.00415
6.128,-0.03586
6.132,-0.05024
6.136,-0.02709
6.14,-0.00758
6.144,-0.03727
6.148,-0.03316
6.152,-0.00261
6.156,-0.01068
6.16,-0.05377
6.164,-0.0107
6.168,-0.03431
6.172,-0.04732
6.176,-0.02345
6.18,0.00048
6.184,-0.02846
6.188,-0.02212
6.192,-0.01945
6.196,-0.02554
6.2,-0.00988
6.204,-0.0415
6.208,-0.02236
6.212,-0.01012
6.216,-0.02024
6.22,-0.00406
6.224,-0.00603
6.228,-0.00559
6.232,0.02414
6.236,-0.02278
6.24,-0.03344
6.244,0.03333
6.248,0.00464
6.252,0.02686
6.256,0.03196
6.26,0.04641
6.264,0.0512
6.268,0.06477
6.272,0.06867
6.276,0.04658
6.28,0.07333
6.284,0.04452
6.288,0.06672
6.292,0.05507
6.296,0.00708
6.3,0.04759
6.304,0.01528
6.308,0.00809
6.312,0.02499
6.316,-0.01652
6.32,-0.00123
6.324,-0.00948
6.328,-0.01413
6.332,-0.03422
6.336,-0.02132
6.34,-0.02177
6.344,-0.00584
6.348,-0.0134
6.352,-0.02147
6.356,-0.03164
6.36,-0.01506
6.364,-0.0277
6.368,-0.00341
6.372,-0.01653
6.376,-0.01238
6.38,-0.04755
6.384,-0.01717
6.388,-0.05231
6.392,-0.06184
6.396,-0.12114
6.4,-0.12012
6.404,-0.13551
6.408,-0.10385
6.412,0.01042
6.416,0.1927
6.42,0.36756
6.424,0.61227
6.428,0.79985
6.432,0.90125
6.436,0.98169
6.44,0.88132
6.444,0.72323
6.448,0.52296
6.452,0.2845
6.456,0.08643
6.46,-0.07041
6.464,-0.1486
6.468,-0.19256
6.472,-0.16174
6.476,-0.10173
6.48,-0.08844
6.484,-0.09492
6.488,-0.03716
6.492,-0.03444
6.496,-0.03061
6.5,-0.04514
6.504,-0.04186
6.508,-0.03778
6.512,-0.02199
6.516,-0.03308
6.52,-0.02139
6.524,-0.04829
6.528,-0.01178
6.532,-0.0269
6.536,-0.04194
6.54,-0.05126
6.544,-0.04387
6.548,-0.02122
6.552,-0.01365
6.556,-0.02916
6.56,-0.03374
6.564,-0.06012
6.568,-0.03378
6.572,-0.01583
6.576,-0.04261
6.58,-0.00794
6.584,-0.0365
6.588,-0.02448
6.592,-0.04878
6.596,0.00263
6.6,-0.03093
6.604,-0.01936
6.608,0.0019
6.612,-0.02651
6.616,0.00338
6.62,0.00558
6.624,0.01734
6.628,0.02574
6.632,0.00178
6.636,-0.00542
6.64,0.00824
6.644,0.04691
6.648,0.02853
6.652,0.06787
6.656,0.03868
6.66,0.05887
6.664,0.10926
6.668,0.0902
6.672,0.108
6.676,0.16145
6.68,0.14097
6.684,0.12423
6.688,0.1617
6.692,0.15315
6.696,0.17983
6.7,0.17788
6.704,0.19986
6.708,0.18996
6.712,0.19407
6.716,0.20533
6.72,0.1968
6.724,0.1952
6.728,0.17989
6.732,0.17605
6.736,0.18944
6.74,0.17093
6.744,0.15278
6.748,0.15462
6.752,0.12442
6.756,0.13158
6.76,0.10819
6.764,0.06632
6.768,0.09103
6.772,0.074
6.776,0.05562
6.78,0.02966
6.784,0.04306
6.788,0.04076
6.792,0.00798
6.796,-0.00382
6.8,0.00165
6.804,-0.00634
6.808,-0.01331
6.812,0.00347
6.816,-0.02302
6.82,-0.02974
6.824,0.00174
6.828,-0.02708
6.832,-0.02373
6.836,-0.00661
6.84,-0.0258
6.844,-0.02287
6.848,-0.03613
6.852,-0.05536
6.856,-0.03424
6.86,-0.04348
6.864,-0.00423
6.868,-0.04795
6.872,-0.00022
6.876,-0.02859
6.88,-0.03095
6.884,-0.05065
6.888,-0.03301
6.892,-0.02937
6.896,-0.01215
6.9,-0.00555
6.904,-0.00188
6.908,-0.02546
6.912,-0.00924
6.916,-0.03434
6.92,-0.02538
6.924,-0.01571
6.928,-0.02246
6.932,-0.03259
6.936,-0.01528
6.94,-0.01599
6.944,-0.0278
6.948,-0.04134
6.952,-0.02024
6.956,-0.01071
6.96,-0.03697
6.964,-0.02809
6.968,-0.00259
6.972,-0.01178
6.976,-0.00043
6.98,0.0102
6.984,-0.00261
6.988,0.03331
6.992,0.06468
6.996,0.05359
7.0,0.05327
7.004,0.06362
7.008,0.06245
7.012,0.04576
7.016,0.06321
7.02,0.04335
7.024,0.02991
7.028,0.02276
7.032,-0.00628
7.036,0.02055
7.04,-0.01161
7.044,-0.03178
7.048,-0.03165
7.052,-0.00567
7.056,-0.03244
7.06,-0.0344
7.064,-0.06924
7.068,-0.01412
7.072,-0.02459
7.076,-0.02051
7.08,-0.03862
7.084,-0.03105
7.088,-0.00594
7.092,-0.02904
7.096,0.00534
7.1,-0.06073
7.104,-0.03234
7.108,-0.02084
7.112,-0.04367
7.116,-0.02992
7.12,-0.03545
7.124,-0.05676
7.128,-0.12071
7.132,-0.13455
7.136,-0.127
7.14,-0.04082
7.144,0.08053
7.148,0.31398
7.152,0.49422
7.156,0.72536
7.16,0.861
7.164,0.97997
7.168,0.93973
7.172,0.79544
7.176,0.606
7.18,0.3609
7.184,0.15094
7.188,-0.05278
7.192,-0.15212
7.196,-0.18446
7.2,-0.19858
7.204,-0.14429
7.208,-0.10129
7.212,-0.05986
7.216,-0.0463
7.22,-0.03983
7.224,-0.018
7.228,-0.04006
7.232,-0.0179
7.236,-0.01335
7.24,-0.01658
7.244,-0.03049
7.248,-0.03905
7.252,-0.02408
7.256,-0.02933
7.26,-0.02763
7.264,-0.01298
7.268,-0.0408
7.272,-0.03953
7.276,-0.03175
7.28,-0.04625
7.284,-0.04194
7.288,-0.01371
7.292,-0.0366
7.296,-0.02814
7.3,-0.04093
7.304,-0.01017
7.308,-0.0334
7.312,-0.03927
7.316,-0.02615
7.32,-0.03779
7.324,-0.01408
7.328,-0.00385
7.332,4e-05
7.336,0.00084
7.34,-0.00934
7.344,-0.02197
7.348,-0.0207
7.352,0.01959
7.356,-0.01502
7.36,-0.03798
7.364,0.00889
7.368,0.04347
7.372,0.05299
7.376,0.04919
7.38,0.0406
7.384,0.07825
7.388,0.09369
7.392,0.06343
7.396,0.11859
7.4,0.09716
7.404,0.12612
7.408,0.13875
7.412,0.14607
7.416,0.15606
7.42,0.16626
7.424,0.16158
7.428,0.20219
7.432,0.20355
7.436,0.17923
7.44,0.18495
7.444,0.16365
7.448,0.20904
7.452,0.17274
7.456,0.16945
7.46,0.17872
7.464,0.16631
7.468,0.20553
7.472,0.14905
7.476,0.16619
7.48,0.12002
7.484,0.1144
7.488,0.11296
7.492,0.10201
7.496,0.07915
7.5,0.07936
7.504,0.10428
7.508,0.06812
7.512,0.07075
7.516,0.04034
7.52,0.02953
7.524,0.02495
7.528,0.03514
7.532,0.02512
7.536,0.00539
7.54,0.01589
7.544,0.01508
7.548,0.02192
7.552,0.00997
7.556,-0.02233
7.56,-0.0209
7.564,-0.00132
7.568,0.00074
7.572,0.01265
7.576,-0.02431
7.58,-0.02991
7.584,-0.03938
7.588,-0.01455
7.592,-0.016
7.596,-0.02426
7.6,-0.01834
7.604,-0.03037
7.608,-0.04164
7.612,-0.01838
7.616,-0.03782
7.62,-0.03988
7.624,-0.02978
7.628,-0.0159
7.632,-0.02559
7.636,-0.03094
7.64,-0.0126
7.644,-0.03675
7.648,-0.00606
7.652,-0.00864
7.656,0.01442
7.66,-0.00303
7.664,-0.03556
7.668,-0.03201
7.672,-0.02808
7.676,-0.0281
7.68,-0.02156
7.684,-0.04231
7.688,-0.01195
7.692,-0.05782
7.696,-0.00259
7.7,-0.00486
7.704,-0.02761
7.708,-0.00434
7.712,-0.00149
7.716,-0.03106
7.72,-0.02419
7.724,0.03625
7.728,0.05146
7.732,0.02056
7.736,0.02907
7.74,0.02722
7.744,0.07586
7.748,0.10841
7.752,0.05621
7.756,0.06786
7.76,0.05468
7.764,0.08735
7.768,0.0767
7.772,0.06537
7.776,0.0496
7.78,0.02854
7.784,0.00025
7.788,0.01982
7.792,-0.00282
7.796,-0.00314
7.8,-0.02205
7.804,-0.00153
7.808,-0.0184
7.812,-0.01305
7.816,-0.00825
7.82,-0.02209
7.824,-0.02177
7.828,0.01488
7.832,-0.02956
7.836,0.00225
7.84,-0.01398
7.844,-0.02258
7.848,-0.01284
7.852,-0.01191
7.856,-0.03957
7.86,-0.01513
7.864,-0.00753
7.868,-0.03786
7.872,-0.06245
7.876,-0.07791
7.88,-0.15336
7.884,-0.12787
7.888,-0.0743
7.892,0.02888
7.896,0.1942
7.9,0.4138
7.904,0.62015
7.908,0.83222
7.912,0.94222
7.916,0.95959
7.92,0.90571
7.924,0.70501
7.928,0.50878
7.932,0.28043
7.936,0.05792
7.94,-0.06915
7.944,-0.15193
7.948,-0.18009
7.952,-0.17793
7.956,-0.09424
7.96,-0.09517
7.964,-0.03534
7.968,-0.03701
7.972,-0.00726
7.976,-0.01476
7.98,-0.01909
7.984,-0.02644
7.988,-0.01468
7.992,0.00642
7.996,-0.01974
8.0,-0.01479
8.004,-0.03173
8.008,-0.01665
8.012,-0.02337
8.016,-0.01739
8.02,-0.02762
8.024,-0.00564
8.028,-0.00045
8.032,0.01596
8.036,-0.0016
8.04,-0.00453
8.044,-0.00603
8.048,0.02126
8.052,-0.0077
8.056,-0.03653
8.06,-0.00905
8.064,-0.03106
8.068,-0.00195
8.072,-0.01062
8.076,-0.00781
8.08,-0.00201
8.084,0.02837
8.088,0.026
8.092,0.00145
8.096,0.02998
8.1,0.00925
8.104,0.04084
8.108,0.01687
8.112,0.01475
8.116,0.02262
8.12,0.02788
8.124,0.05101
8.128,0.05994
8.132,0.09793
8.136,0.07693
8.14,0.0853
8.144,0.12518
8.148,0.1352
8.152,0.13402
8.156,0.14002
8.16,0.1767
8.164,0.13985
8.168,0.18834
8.172,0.15275
8.176,0.1994
8.18,0.19672
8.184,0.16906
8.188,0.20165
8.192,0.20983
8.196,0.21081
8.2,0.22608
8.204,0.20476
8.208,0.1854
8.212,0.18759
8.216,0.19579
8.22,0.18379
8.224,0.16398
8.228,0.17625
8.232,0.16844
8.236,0.14762
8.24,0.13448
8.244,0.1252
8.248,0.13253
8.252,0.09342
8.256,0.07671
8.26,0.06858
8.264,0.05212
8.268,0.05525
8.272,0.05029
8.276,0.04503
8.28,0.03098
8.284,0.02013
8.288,0.01881
8.292,-0.00229
8.296,0.02408
8.3,0.00319
8.304,-0.00215
8.308,0.01874
8.312,0.00798
8.316,0.00991
8.32,-0.01015
8.324,0.02464
8.328,-0.01834
8.332,-0.00762
8.336,-0.00858
8.34,-0.00881
8.344,-0.02132
8.348,-0.00209
8.352,0.00793
8.356,0.01037
8.36,0.02112
8.364,0.01801
8.368,-0.01714
8.372,0.00383
8.376,0.0292
8.38,-0.01491
8.384,0.00765
8.388,0.01599
8.392,0.02104
8.396,-0.00261
8.4,-0.00267
8.404,0.02061
8.408,-0.01071
8.412,0.02911
8.416,0.01456
8.42,-0.00408
8.424,0.00711
8.428,-0.03944
8.432,0.00385
8.436,0.00967
8.44,-0.0023
8.444,0.01502
8.448,0.02001
8.452,-0.01472
8.456,0.02782
8.46,0.01519
8.464,0.00656
8.468,-0.00843
8.472,-0.00798
8.476,-0.02007
8.48,0.0103
8.484,0.01596
8.488,0.02533
8.492,0.03045
8.496,0.01894
8.5,0.04416
8.504,0.03983
8.508,0.08952
8.512,0.0652
8.516,0.08808
8.52,0.13291
8.524,0.10099
8.528,0.07949
8.532,0.10092
8.536,0.09302
8.54,0.07188
8.544,0.06712
8.548,0.04345
8.552,0.06052
8.556,0.02497
8.56,0.01795
8.564,0.01119
8.568,0.01299
8.572,0.033
8.576,0.01239
8.58,-0.00105
8.584,0.00194
8.588,0.0021
8.592,-0.01691
8.596,0.00693
8.6,0.00513
8.604,0.00137
8.608,0.01365
8.612,-0.01677
8.616,0.00787
8.62,0.01026
8.624,0.0023
8.628,-0.02563
8.632,-0.00549
8.636,0.01772
8.64,-0.01421
8.644,-0.03796
8.648,-0.11123
8.652,-0.11916
8.656,-0.09446
8.66,0.02743
8.664,0.18618
8.668,0.37099
8.672,0.59556
8.676,0.81578
8.68,0.92591
8.684,0.98661
8.688,0.95597
8.692,0.80023
8.696,0.61824
8.7,0.37202
8.704,0.12615
8.708,0.00232
8.712,-0.12088
8.716,-0.15693
8.72,-0.15228
8.724,-0.09488
8.728,-0.07955
8.732,-0.0518
8.736,-0.01448
8.74,0.0244
8.744,0.02595
8.748,-0.0117
8.752,0.01363
8.756,9e-05
8.76,0.00974
8.764,0.00959
8.768,0.01063
8.772,-0.01045
8.776,0.01436
8.78,0.0076
8.784,0.00564
8.788,-0.00803
8.792,0.01392
8.796,-0.01657
8.8,0.01585
8.804,0.03469
8.808,0.00336
8.812,-0.00185
8.816,0.01317
8.82,0.03276
8.824,-0.00032
8.828,0.03518
8.832,0.00858
8.836,0.01814
8.84,0.02044
8.844,0.01307
8.848,0.02141
8.852,0.01884
8.856,0.01525
8.86,0.03707
8.864,0.02132
8.868,0.02534
8.872,0.06368
8.876,0.05096
8.88,0.05177
8.884,0.0714
8.888,0.04749
8.892,0.08302
8.896,0.07711
8.9,0.0771
8.904,0.09455
8.908,0.12351
8.912,0.10883
8.916,0.11723
8.92,0.14868
8.924,0.16762
8.928,0.17376
8.932,0.16233
8.936,0.18
8.94,0.21043
8.944,0.24866
8.948,0.19877
8.952,0.20869
8.956,0.22496
8.96,0.23754
8.964,0.22483
8.968,0.25025
8.972,0.20899
8.976,0.2197
8.98,0.21101
8.984,0.21547
8.988,0.19895
8.992,0.20056
8.996,0.19982
9.0,0.19302
9.004,0.17702
9.008,0.15111
9.012,0.13023
9.016,0.12433
9.02,0.1008
9.024,0.11115
9.028,0.09239
9.032,0.09303
9.036,0.05763
9.04,0.05476
9.044,0.07237
9.048,0.05211
9.052,0.06584
9.056,0.02554
9.06,0.05797
9.064,0.02758
9.068,0.03127
9.072,0.02943
9.076,0.06541
9.08,0.03695
9.084,0.03263
9.088,0.03671
9.092,0.00034
9.096,0.01671
9.1,0.01985
9.104,0.03814
9.108,0.02403
9.112,0.00951
9.116,0.01576
9.12,0.01197
9.124,0.00568
9.128,0.00759
9.132,0.0064
9.136,0.03607
9.14,0.02918
9.144,0.02698
9.148,0.04165
9.152,0.01458
9.156,0.05542
9.16,0.04056
9.164,0.03782
9.168,0.03153
9.172,0.03335
9.176,0.03255
9.18,-0.017
9.184,0.04771
9.188,0.03807
9.192,0.01953
9.196,0.05264
9.2,0.01152
9.204,0.00758
9.208,0.03766
9.212,0.02122
9.216,0.01629
9.22,0.00877
9.224,0.00751
9.228,0.01808
9.232,-0.00358
9.236,0.01061
9.24,0.01774
9.244,0.03688
9.248,0.01308
9.252,0.01841
9.256,0.05498
9.26,0.02708
9.264,0.02642
9.268,0.03481
9.272,0.00416
9.276,0.01316
9.28,0.02111
9.284,0.02608
9.288,0.04717
9.292,0.00886
9.296,0.02458
9.3,0.04483
9.304,0.05913
9.308,0.06275
9.312,0.06863
9.316,0.06973
9.32,0.06036
9.324,0.08276
9.328,0.13738
9.332,0.11853
9.336,0.12419
9.34,0.13886
9.344,0.11932
9.348,0.12709
9.352,0.12091
9.356,0.09109
9.36,0.05612
9.364,0.07113
9.368,0.05672
9.372,0.02553
9.376,0.03818
9.38,0.02544
9.384,0.05013
9.388,0.02
9.392,0.0219
9.396,0.02336
9.4,0.02632
9.404,0.02946
9.408,0.01609
9.412,0.02323
9.416,0.01498
9.42,0.02502
9.424,0.03725
9.428,0.05801
9.432,0.0044
9.436,0.0214
9.44,0.03393
9.444,0.05199
9.448,0.03539
9.452,0.00319
9.456,0.00887
9.46,-0.04126
9.464,-0.09405
9.468,-0.10316
9.472,-0.05569
9.476,0.06532
9.48,0.21164
9.484,0.45091
9.488,0.6458
9.492,0.83413
9.496,0.97665
9.5,1.02928
9.504,0.94509
9.508,0.77935
9.512,0.57347
9.516,0.32409
9.52,0.15121
9.524,-0.00706
9.528,-0.12981
9.532,-0.15481
9.536,-0.14101
9.54,-0.12426
9.544,-0.0368
9.548,-0.02626
9.552,0.00414
9.556,0.03745
9.56,-0.00531
9.564,0.03841
9.568,-0.00487
9.572,0.01105
9.576,0.03248
9.58,0.03802
9.584,0.03304
9.588,0.04702
9.592,0.01959
9.596,0.00664
9.6,0.0378
9.604,0.03023
9.608,0.04964
9.612,0.01894
9.616,0.03383
9.62,0.03783
9.624,0.04202
9.628,0.05756
9.632,0.04719
9.636,0.04885
9.64,0.00147
9.644,0.0472
9.648,0.01465
9.652,0.03445
9.656,0.03888
9.66,0.03957
9.664,0.02239
9.668,0.01996
9.672,0.05892
9.676,0.05553
9.68,0.02495
9.684,0.03294
9.688,0.0608
9.692,0.075
9.696,0.08311
9.7,0.06567
9.704,0.08159
9.708,0.112
9.712,0.08512
9.716,0.10981
9.72,0.12997
9.724,0.13657
9.728,0.13803
9.732,0.15764
9.736,0.15562
9.74,0.16036
9.744,0.16297
9.748,0.1806
9.752,0.18651
9.756,0.19861
9.76,0.21877
9.764,0.22389
9.768,0.22984
9.772,0.23859
9.776,0.27123
9.78,0.24257
9.784,0.25922
9.788,0.23674
9.792,0.24808
9.796,0.20762
9.8,0.24981
9.804,0.23893
9.808,0.20756
9.812,0.21472
9.816,0.19529
9.82,0.17914
9.824,0.1643
9.828,0.14118
9.832,0.11959
9.836,0.14761
9.84,0.10933
9.844,0.08686
9.848,0.0785
9.852,0.10445
9.856,0.05464
9.86,0.06393
9.864,0.06532
9.868,0.07551
9.872,0.07108
9.876,0.05994
9.88,0.06974
9.884,0.03219
9.888,0.03894
9.892,0.0184
9.896,0.0304
9.9,0.02189
9.904,0.02497
9.908,0.02238
9.912,0.06483
9.916,0.04433
9.92,0.04461
9.924,0.07787
9.928,0.02766
9.932,0.02236
9.936,0.02317
9.94,0.0337
9.944,0.03358
9.948,0.02646
9.952,0.04508
9.956,0.04704
9.96,0.01598
9.964,0.02077
9.968,0.03281
9.972,0.03517
9.976,0.03284
9.98,0.001
9.984,0.01661
9.988,0.05843
9.992,0.04205
9.996,0.03234
