t_seg,ecg_mV
0.0,-0.01219
0.004,0.0155
0.008,-0.03383
0.012,0.01957
0.016,-0.01206
0.02,-0.01418
0.024,-0.00224
0.028,0.0297
0.032,0.03549
0.036,0.02962
0.04,0.04616
0.044,0.04347
0.048,0.06378
0.052,0.07
0.056,0.0772
0.06,0.09348
0.064,0.073
0.068,0.06721
0.072,0.07676
0.076,0.08078
0.08,0.05759
0.084,0.04284
0.088,0.0265
0.092,0.04334
0.096,0.01749
0.1,-0.00328
0.104,-0.00905
0.108,-0.00262
0.112,-0.01648
0.116,0.01125
0.12,0.00086
0.124,-0.00132
0.128,-0.02524
0.132,-0.02208
0.136,-0.01268
0.14,-0.01108
0.144,0.00118
0.148,-0.00697
0.152,0.00721
0.156,0.02506
0.16,-0.00354
0.164,0.0063
0.168,0.00728
0.172,-0.03098
0.176,-0.0073
0.18,-0.0299
0.184,-0.10917
0.188,-0.12571
0.192,-0.0974
0.196,-0.04458
0.2,0.08905
0.204,0.32352
0.208,0.51304
0.212,0.71671
0.216,0.86651
0.22,0.99963
0.224,0.95962
0.228,0.84552
0.232,0.65502
0.236,0.45291
0.24,0.20452
0.244,0.00768
0.248,-0.12959
0.252,-0.17068
0.256,-0.15859
0.26,-0.12143
0.264,-0.11993
0.268,-0.04581
0.272,-0.01433
0.276,0.00721
0.28,-0.03063
0.284,0.00769
0.288,-0.01022
0.292,0.01794
0.296,0.01863
0.3,-0.00737
0.304,0.0086
0.308,-0.0018
0.312,0.00215
0.316,-0.0046
0.32,-0.00118
0.324,0.00502
0.328,0.00156
0.332,0.00038
0.336,-0.03087
0.34,-0.00245
0.344,0.0113
0.348,-0.00383
0.352,-0.02091
0.356,0.02576
0.36,0.001
0.364,-0.01321
0.368,-0.02617
0.372,0.01332
0.376,-0.00015
0.38,0.01895
0.384,0.02116
0.388,0.01008
0.392,-0.00217
0.396,0.01518
0.4,0.02344
0.404,0.02811
0.408,-0.01071
0.412,0.04536
0.416,0.0562
0.42,0.04463
0.424,0.03035
0.428,0.05657
0.432,0.07621
0.436,0.06766
0.44,0.09623
0.444,0.10877
0.448,0.09346
0.452,0.1037
0.456,0.15516
0.46,0.15324
0.464,0.13691
0.468,0.15417
0.472,0.18913
0.476,0.20024
0.48,0.20357
0.484,0.21104
0.488,0.24988
0.492,0.21432
0.496,0.24323
0.5,0.20947
0.504,0.23589
0.508,0.21836
0.512,0.20495
0.516,0.20729
0.52,0.18542
0.524,0.19817
0.528,0.17519
0.532,0.17642
0.536,0.16384
0.54,0.13013
0.544,0.1345
0.548,0.14095
0.552,0.11223
0.556,0.1097
0.56,0.06402
0.564,0.10326
0.568,0.08917
0.572,0.051
0.576,0.03359
0.58,0.04018
0.584,0.02315
0.588,0.06028
0.592,0.04956
0.596,0.00766
0.6,0.02762
0.604,0.01965
0.608,0.01967
0.612,0.01304
0.616,0.03817
0.62,0.03358
0.624,0.02925
0.628,-0.00101
0.632,0.00555
0.636,0.0244
0.64,0.00714
0.644,0.04864
0.648,0.02924
0.652,0.0528
0.656,0.08199
0.66,0.11723
0.664,0.06778
0.668,0.09545
0.672,0.11786
0.676,0.10441
0.68,0.10952
0.684,0.1109
0.688,0.0977
0.692,0.10065
0.696,0.06757
0.7,0.0608
0.704,0.04122
0.708,0.04071
0.712,0.0257
0.716,0.01349
0.72,0.02669
0.724,0.00559
0.728,0.01012
0.732,0.02601
0.736,0.01639
0.74,-0.01858
0.744,0.04639
0.748,0.00537
0.752,0.01136
0.756,-0.00534
0.76,0.00522
0.764,0.02572
0.768,0.01021
0.772,0.02777
0.776,0.00136
0.78,-0.00041
0.784,0.00105
0.788,0.00829
0.792,0.00834
0.796,-0.06303
0.8,-0.07521
0.804,-0.07637
0.808,-0.06732
0.812,0.04991
0.816,0.19154
0.82,0.39078
0.824,0.60477
0.828,0.79795
0.832,0.95297
0.836,1.00279
0.84,0.97454
0.844,0.81761
0.848,0.60532
0.852,0.33641
0.856,0.16178
0.86,-0.01963
0.864,-0.12686
0.868,-0.143
0.872,-0.12811
0.876,-0.1373
0.88,-0.04169
0.884,-0.04709
0.888,0.00776
0.892,-0.00013
0.896,0.01223
0.9,0.01336
0.904,0.01158
0.908,0.01938
0.912,0.03635
0.916,0.00676
0.92,0.01094
0.924,0.00208
0.928,0.03096
0.932,0.04287
0.936,0.02416
0.94,-0.00345
0.944,0.01037
0.948,0.02289
0.952,0.00822
0.956,0.02757
0.96,0.03342
0.964,0.00221
0.968,0.00556
0.972,0.04282
0.976,0.00369
0.98,0.01759
0.984,0.01188
0.988,0.01976
0.992,0.01041
0.996,0.04267
1.0,0.00412
1.004,0.01031
1.008,0.03406
1.012,0.01215
1.016,0.03923
1.02,0.06808
1.024,0.0454
1.028,0.04831
1.032,0.03486
1.036,0.0634
1.04,0.05879
1.044,0.08249
1.048,0.08827
1.052,0.09467
1.056,0.1075
1.06,0.13774
1.064,0.13978
1.068,0.13152
1.072,0.13776
1.076,0.16812
1.08,0.15999
1.084,0.16827
1.088,0.18712
1.092,0.18783
1.096,0.2053
1.1,0.2296
1.104,0.2283
1.108,0.21331
1.112,0.19329
1.116,0.28842
1.12,0.24028
1.124,0.21973
1.128,0.20849
1.132,0.25692
1.136,0.21321
1.14,0.21215
1.144,0.19585
1.148,0.18554
1.152,0.17251
1.156,0.16113
1.16,0.17754
1.164,0.13728
1.168,0.16787
1.172,0.12126
1.176,0.11856
1.18,0.09309
1.184,0.11594
1.188,0.09379
1.192,0.04034
1.196,0.08559
1.2,0.07356
1.204,0.04213
1.208,0.03946
1.212,0.04135
1.216,-0.01179
1.22,0.02401
1.224,0.07384
1.228,0.03049
1.232,0.03037
1.236,0.03809
1.24,0.04158
1.244,0.01485
1.248,0.03175
1.252,0.00388
1.256,0.0463
1.26,0.02342
1.264,0.01732
1.268,-0.01155
1.272,0.04804
1.276,0.02905
1.28,0.00487
1.284,0.02257
1.288,-0.00891
1.292,0.02527
1.296,-0.01652
1.3,0.01378
1.304,0.01751
1.308,0.03461
1.312,0.02236
1.316,0.04551
1.32,0.02801
1.324,0.01761
1.328,0.03372
1.332,0.04996
1.336,0.03187
1.34,0.01157
1.344,0.0254
1.348,0.05114
1.352,0.0353
1.356,0.03232
1.36,0.04145
1.364,-0.00011
1.368,0.02121
1.372,0.0265
1.376,0.06277
1.38,0.07726
1.384,0.05013
1.388,0.07461
1.392,0.11806
1.396,0.12143
1.4,0.13047
1.404,0.11364
1.408,0.10586
1.412,0.13516
1.416,0.12147
1.42,0.08712
1.424,0.10179
1.428,0.08493
1.432,0.05736
1.436,0.05998
1.44,0.07702
1.444,0.05631
1.448,0.04924
1.452,0.04365
1.456,0.00721
1.46,0.03471
1.464,0.03272
1.468,0.01066
1.472,0.02527
1.476,0.02904
1.48,0.05053
1.484,0.0149
1.488,0.01353
1.492,0.02345
1.496,0.05141
1.5,0.0387
1.504,0.03308
1.508,0.03091
1.512,-0.00063
1.516,0.01942
1.52,0.03135
1.524,0.00114
1.528,-0.03642
1.532,-0.06391
1.536,-0.09399
1.54,-0.05506
1.544,0.0189
1.548,0.09127
1.552,0.31729
1.556,0.49991
1.56,0.70993
1.564,0.9331
1.568,1.01767
1.572,1.02633
1.576,0.91863
1.58,0.68976
1.584,0.44789
1.588,0.2417
1.592,0.0628
1.596,-0.05988
1.6,-0.12565
1.604,-0.1542
1.608,-0.09328
1.612,-0.04468
1.616,-0.02002
1.62,-0.00752
1.624,0.01185
1.628,0.01446
1.632,0.04154
1.636,0.03389
1.64,0.04217
1.644,0.02901
1.648,0.0027
1.652,-0.00844
1.656,0.00851
1.66,0.04538
1.664,0.00758
1.668,0.01772
1.672,0.05382
1.676,0.03386
1.68,0.0208
1.684,0.05714
1.688,0.05998
1.692,0.03446
1.696,0.03374
1.7,0.03772
1.704,0.01724
1.708,0.02714
1.712,0.02784
1.716,0.00177
1.72,0.04092
1.724,0.02136
1.728,0.02106
1.732,0.02464
1.736,0.03801
1.74,0.03144
1.744,0.05878
1.748,0.0577
1.752,0.05048
1.756,0.05108
1.76,0.0452
1.764,0.0588
1.768,0.07897
1.772,0.07133
1.776,0.05782
1.78,0.08984
1.784,0.07388
1.788,0.10761
1.792,0.10241
1.796,0.13827
1.8,0.1287
1.804,0.1413
1.808,0.174
1.812,0.20134
1.816,0.17834
1.82,0.20261
1.824,0.22136
1.828,0.23513
1.832,0.24156
1.836,0.23679
1.84,0.23942
1.844,0.26632
1.848,0.24768
1.852,0.23185
1.856,0.26321
1.86,0.24176
1.864,0.25025
1.868,0.20725
1.872,0.21316
1.876,0.21943
1.88,0.19199
1.884,0.21503
1.888,0.19043
1.892,0.20559
1.896,0.17143
1.9,0.12749
1.904,0.13364
1.908,0.11196
1.912,0.12941
1.916,0.10707
1.92,0.10446
1.924,0.09711
1.928,0.08796
1.932,0.04876
1.936,0.0428
1.94,0.04785
1.944,0.0404
1.948,0.05003
1.952,0.04934
1.956,0.02366
1.96,0.01979
1.964,0.04451
1.968,0.02919
1.972,0.02382
1.976,0.0338
1.98,0.03841
1.984,0.02994
1.988,0.03253
1.992,0.04478
1.996,0.01318
2.0,0.02327
2.004,0.03419
2.008,0.04496
2.012,0.0179
2.016,0.02981
2.02,0.05274
2.024,0.03724
2.028,0.02342
2.032,0.02048
2.036,0.0324
2.04,0.0447
2.044,0.01415
2.048,0.02314
2.052,0.034
2.056,0.01852
2.06,0.05116
2.064,0.04627
2.068,0.05578
2.072,0.08747
2.076,0.08752
2.08,0.08817
2.084,0.09179
2.088,0.10938
2.092,0.09143
2.096,0.12117
2.1,0.12385
2.104,0.11411
2.108,0.11293
2.112,0.12799
2.116,0.09405
2.12,0.10159
2.124,0.10648
2.128,0.06902
2.132,0.03892
2.136,0.06827
2.14,0.03243
2.144,0.03045
2.148,0.05682
2.152,0.02359
2.156,0.02136
2.16,0.02834
2.164,0.02971
2.168,0.04419
2.172,0.02048
2.176,0.00277
2.18,0.02658
2.184,0.035
2.188,0.03532
2.192,0.00402
2.196,0.01699
2.2,0.02392
2.204,0.04668
2.208,0.01084
2.212,0.01811
2.216,0.00489
2.22,-0.01768
2.224,-0.0606
2.228,-0.07426
2.232,-0.09046
2.236,-0.00932
2.24,0.09187
2.244,0.28173
2.248,0.4921
2.252,0.69546
2.256,0.91636
2.26,1.0278
2.264,1.02671
2.268,0.92569
2.272,0.70576
2.276,0.48264
2.28,0.26929
2.284,0.07394
2.288,-0.05211
2.292,-0.12339
2.296,-0.12881
2.3,-0.09382
2.304,-0.07713
2.308,-0.04666
2.312,-0.02336
2.316,0.00741
2.32,0.02373
2.324,0.01301
2.328,0.01216
2.332,0.0257
2.336,0.03338
2.34,0.02948
2.344,0.02477
2.348,0.02235
2.352,0.05088
2.356,0.02589
2.36,0.03163
2.364,0.03358
2.368,0.05
2.372,0.0134
2.376,0.0292
2.38,0.01466
2.384,0.00961
2.388,0.03285
2.392,0.02601
2.396,0.02488
2.4,0.04875
2.404,0.00919
2.408,0.02819
2.412,0.05523
2.416,0.05149
2.42,0.04746
2.424,0.0428
2.428,0.04918
2.432,0.04982
2.436,0.03572
2.44,0.06327
2.444,0.05186
2.448,0.03441
2.452,0.06793
2.456,0.09069
2.46,0.05384
2.464,0.06987
2.468,0.08445
2.472,0.09211
2.476,0.09812
2.48,0.11323
2.484,0.10977
2.488,0.12148
2.492,0.12426
2.496,0.16469
2.5,0.16183
2.504,0.18619
2.508,0.20172
2.512,0.17408
2.516,0.21419
2.52,0.21792
2.524,0.20848
2.528,0.22622
2.532,0.26173
2.536,0.23514
2.54,0.25212
2.544,0.2454
2.548,0.23594
2.552,0.24698
2.556,0.25864
2.56,0.23593
2.564,0.2103
2.568,0.21471
2.572,0.21756
2.576,0.19509
2.58,0.18852
2.584,0.14934
2.588,0.15747
2.592,0.15489
2.596,0.11226
2.6,0.13504
2.604,0.07281
2.608,0.10041
2.612,0.07639
2.616,0.07076
2.62,0.10124
2.624,0.07793
2.628,0.08259
2.632,0.06127
2.636,0.03925
2.64,0.04725
2.644,0.05129
2.648,0.02371
2.652,0.0379
2.656,0.03725
2.66,0.05983
2.664,0.0193
2.668,-0.0038
2.672,0.03295
2.676,0.01362
2.68,0.05472
2.684,0.0296
2.688,0.02715
2.692,0.04301
2.696,0.03979
2.7,0.01931
2.704,0.01866
2.708,0.01664
2.712,0.03922
2.716,0.01557
2.72,0.01038
2.724,0.00551
2.728,0.025
2.732,0.03076
2.736,0.02378
2.74,0.01829
2.744,0.04934
2.748,0.00471
2.752,0.03407
2.756,-0.0204
2.76,0.066
2.764,0.02464
2.768,0.00568
2.772,0.04229
2.776,0.03775
2.78,0.03932
2.784,0.00629
2.788,0.03403
2.792,0.0316
2.796,0.03177
2.8,0.02646
2.804,0.01066
2.808,0.0502
2.812,0.00837
2.816,0.02811
2.82,0.01711
2.824,0.02068
2.828,0.05049
2.832,0.01104
2.836,0.03817
2.84,0.03105
2.844,-0.00403
2.848,0.00395
2.852,0.04546
2.856,0.01243
2.86,0.04329
2.864,0.02992
2.868,0.01939
2.872,0.04307
2.876,0.04574
2.88,0.0816
2.884,0.07757
2.888,0.06285
2.892,0.09003
2.896,0.11419
2.9,0.13289
2.904,0.12209
2.908,0.11542
2.912,0.1128
2.916,0.11656
2.92,0.07193
2.924,0.09342
2.928,0.0885
2.932,0.05818
2.936,0.05498
2.94,0.05335
2.944,0.03217
2.948,0.03755
2.952,0.0227
2.956,0.05454
2.96,0.01146
2.964,0.01243
2.968,0.02879
2.972,0.02622
2.976,0.04061
2.98,0.02753
2.984,0.00277
2.988,0.03739
2.992,0.03149
2.996,0.05092
3.0,0.04419
3.004,-0.0001
3.008,0.03253
3.012,0.03111
3.016,0.03516
3.02,0.01336
3.024,-0.03371
3.028,-0.05741
3.032,-0.07227
3.036,-0.11803
3.04,-0.02548
3.044,0.05144
3.048,0.20718
3.052,0.42596
3.056,0.64919
3.06,0.82311
3.064,0.97269
3.068,1.02229
3.072,0.95587
3.076,0.78436
3.08,0.54567
3.084,0.35118
3.088,0.15219
3.092,-0.00138
3.096,-0.11815
3.1,-0.13379
3.104,-0.12868
3.108,-0.07545
3.112,-0.05668
3.116,-0.00242
3.12,0.01663
3.124,0.03065
3.128,0.01226
3.132,0.00622
3.136,0.01837
3.14,0.0382
3.144,0.0116
3.148,0.00735
3.152,0.0079
3.156,0.0189
3.16,0.03569
3.164,0.00834
3.168,0.01929
3.172,0.02789
3.176,0.00372
3.18,0.02932
3.184,0.00409
3.188,0.04842
3.192,-0.00935
3.196,-0.00374
3.2,0.02195
3.204,0.02768
3.208,0.02692
3.212,0.01026
3.216,-0.01061
3.22,0.02752
3.224,-0.00098
3.228,0.04201
3.232,0.0321
3.236,0.00838
3.24,0.05373
3.244,0.01932
3.248,0.03069
3.252,0.00682
3.256,0.05716
3.26,0.04996
3.264,0.03745
3.268,0.05484
3.272,0.06754
3.276,0.0779
3.28,0.06369
3.284,0.09534
3.288,0.10784
3.292,0.11228
3.296,0.10271
3.3,0.1301
3.304,0.14646
3.308,0.15205
3.312,0.19356
3.316,0.17584
3.32,0.18114
3.324,0.20211
3.328,0.20515
3.332,0.21979
3.336,0.22473
3.34,0.25297
3.344,0.22879
3.348,0.23343
3.352,0.23556
3.356,0.23027
3.36,0.22007
3.364,0.23733
3.368,0.23848
3.372,0.21769
3.376,0.19564
3.38,0.17458
3.384,0.17389
3.388,0.15662
3.392,0.14466
3.396,0.09624
3.4,0.13016
3.404,0.08739
3.408,0.09283
3.412,0.08701
3.416,0.07123
3.42,0.08121
3.424,0.0798
3.428,0.05225
3.432,0.04053
3.436,0.02496
3.44,0.03899
3.444,0.05424
3.448,0.01377
3.452,0.01951
3.456,0.04161
3.46,-0.00769
3.464,0.0462
3.468,-0.00065
3.472,0.00982
3.476,0.00369
3.48,0.0165
3.484,-0.00119
3.488,0.00656
3.492,-0.00594
3.496,0.01924
3.5,0.03161
3.504,0.01124
3.508,0.0219
3.512,-0.00282
3.516,0.0194
3.52,0.02954
3.524,-0.02597
3.528,0.01004
3.532,0.02889
3.536,-0.01335
3.54,-0.01772
3.544,0.02899
3.548,0.0029
3.552,2e-05
3.556,-0.01256
3.56,0.0025
3.564,0.01075
3.568,0.01633
3.572,0.01294
3.576,-0.00787
3.58,0.00615
3.584,0.00129
3.588,-0.01265
3.592,0.00808
3.596,0.00468
3.6,0.00324
3.604,-0.00484
3.608,0.025
3.612,-0.00328
3.616,0.02494
3.62,0.01543
3.624,0.01703
3.628,-0.0143
3.632,0.00195
3.636,-0.01515
3.64,0.00135
3.644,-0.00774
3.648,-0.01987
3.652,0.0067
3.656,-0.0052
3.66,0.01986
3.664,-0.00143
3.668,0.00822
3.672,0.03095
3.676,-0.02138
3.68,0.04191
3.684,-0.00093
3.688,0.03934
3.692,0.05754
3.696,0.0628
3.7,0.03462
3.704,0.07173
3.708,0.11357
3.712,0.10512
3.716,0.11178
3.72,0.09931
3.724,0.10406
3.728,0.11272
3.732,0.10216
3.736,0.04795
3.74,0.07782
3.744,0.02527
3.748,0.0686
3.752,0.00551
3.756,0.0073
3.76,-0.01014
3.764,0.03068
3.768,0.01516
3.772,-0.00307
3.776,-0.01224
3.78,0.01848
3.784,0.00778
3.788,-0.00441
3.792,-0.0099
3.796,0.01842
3.8,-0.02353
3.804,0.0006
3.808,0.01504
3.812,0.02105
3.816,-0.01417
3.82,0.00483
3.824,-0.00533
3.828,-0.00957
3.832,-0.03365
3.836,-0.05874
3.84,-0.07753
3.844,-0.10918
3.848,-0.11546
3.852,-0.03668
3.856,0.07247
3.86,0.23946
3.864,0.46081
3.868,0.67949
3.872,0.88923
3.876,0.96398
3.88,0.99509
3.884,0.86705
3.888,0.73424
3.892,0.46036
3.896,0.23644
3.9,0.03981
3.904,-0.11043
3.908,-0.14857
3.912,-0.16055
3.916,-0.15707
3.92,-0.11604
3.924,-0.07109
3.928,-0.01155
3.932,-0.0235
3.936,-0.02338
3.94,-0.01644
3.944,0.0071
3.948,0.00136
3.952,0.01534
3.956,-0.00957
3.96,-0.03122
3.964,-0.01416
3.968,-0.00857
3.972,0.00376
3.976,-0.04198
3.98,-0.04123
3.984,-0.02433
3.988,-0.00837
3.992,-0.02486
3.996,-0.01534
4.0,0.03766
4.004,-0.01969
4.008,-0.02987
4.012,-0.01408
4.016,-0.00973
4.02,0.00187
4.024,-0.01177
4.028,-0.00707
4.032,0.00891
4.036,0.0024
4.04,-0.00055
4.044,0.00786
4.048,0.00662
4.052,0.00161
4.056,0.03111
4.06,0.03825
4.064,-0.00667
4.068,0.03077
4.072,0.03926
4.076,0.0279
4.08,0.03767
4.084,0.05755
4.088,0.03629
4.092,0.03959
4.096,0.06368
4.1,0.08859
4.104,0.07114
4.108,0.07982
4.112,0.13291
4.116,0.11303
4.12,0.15084
4.124,0.15072
4.128,0.14582
4.132,0.19414
4.136,0.17857
4.14,0.1976
4.144,0.20038
4.148,0.19386
4.152,0.19815
4.156,0.2138
4.16,0.2167
4.164,0.21332
4.168,0.22718
4.172,0.18297
4.176,0.18793
4.18,0.17449
4.184,0.18765
4.188,0.17629
4.192,0.16738
4.196,0.14784
4.2,0.13521
4.204,0.10857
4.208,0.10718
4.212,0.10603
4.216,0.07754
4.22,0.06964
4.224,0.08585
4.228,0.05889
4.232,0.05995
4.236,0.04679
4.24,0.00894
4.244,0.02019
4.248,0.04317
4.252,0.00879
4.256,0.02184
4.26,-0.00017
4.264,-0.00984
4.268,-0.0272
4.272,-0.0267
4.276,0.00356
4.28,-0.00117
4.284,-0.02013
4.288,0.00806
4.292,-0.00414
4.296,0.01402
4.3,0.0056
4.304,0.00357
4.308,-0.01627
4.312,0.00066
4.316,-0.0151
4.32,0.0036
4.324,-0.02159
4.328,0.00122
4.332,-0.03084
4.336,-0.02649
4.34,-0.02147
4.344,-0.01088
4.348,-0.03519
4.352,0.00887
4.356,0.00759
4.36,-0.01654
4.364,-0.03518
4.368,-0.00576
4.372,0.01489
4.376,-0.02072
4.38,-0.00979
4.384,-0.02273
4.388,-0.03806
4.392,-0.03624
4.396,-0.01635
4.4,-0.01237
4.404,-0.03037
4.408,-0.01314
4.412,-0.01571
4.416,-0.01837
4.42,-0.03779
4.424,-0.00879
4.428,0.00825
4.432,0.05914
4.436,0.0248
4.44,0.05539
4.444,0.07523
4.448,0.08593
4.452,0.09145
4.456,0.08758
4.46,0.09336
4.464,0.09902
4.468,0.05324
4.472,0.09664
4.476,0.04903
4.48,0.04585
4.484,0.01289
4.488,0.00327
4.492,0.0158
4.496,-0.0204
4.5,-0.0095
4.504,-0.0016
4.508,-0.00154
4.512,-0.00685
4.516,-0.0085
4.52,-0.03995
4.524,-0.03668
4.528,-0.01852
4.532,-0.01911
4.536,-0.00274
4.54,-0.00866
4.544,0.00803
4.548,-0.01226
4.552,-0.04277
4.556,-0.00425
4.56,-0.02477
4.564,-0.02968
4.568,-0.04081
4.572,-0.03458
4.576,-0.07341
4.58,-0.0978
4.584,-0.11509
4.588,-0.13642
4.592,-0.06302
4.596,0.05852
4.6,0.24912
4.604,0.46699
4.608,0.66634
4.612,0.81666
4.616,0.95728
4.62,0.9858
4.624,0.87693
4.628,0.65326
4.632,0.45611
4.636,0.23131
4.64,0.02659
4.644,-0.11117
4.648,-0.18494
4.652,-0.20331
4.656,-0.16922
4.66,-0.11383
4.664,-0.09023
4.668,-0.06317
4.672,-0.04606
4.676,-0.02584
4.68,-0.01443
4.684,-0.03245
4.688,-0.03385
4.692,-0.03212
4.696,-0.01197
4.7,-0.02674
4.704,-0.02052
4.708,-0.00598
4.712,-0.01912
4.716,-0.0214
4.72,-0.03917
4.724,-0.03453
4.728,-0.00391
4.732,-0.00801
4.736,-0.0177
4.74,-0.03564
4.744,0.00226
4.748,-0.02202
4.752,-0.00959
4.756,-0.034
4.76,-0.04674
4.764,-0.02479
4.768,-0.01885
4.772,-0.02324
4.776,-0.01069
4.78,-0.02934
4.784,-0.01153
4.788,-0.0131
4.792,-0.04195
4.796,-0.00024
4.8,-0.02756
4.804,0.00976
4.808,-0.00472
4.812,0.0123
4.816,0.02755
4.82,0.0422
4.824,0.02658
4.828,0.03236
4.832,0.03037
4.836,0.05923
4.84,0.06529
4.844,0.10232
4.848,0.0826
4.852,0.12903
4.856,0.11913
4.86,0.13351
4.864,0.13194
4.868,0.1463
4.872,0.1503
4.876,0.1383
4.88,0.16114
4.884,0.18352
4.888,0.18553
4.892,0.17236
4.896,0.20538
4.9,0.20815
4.904,0.16552
4.908,0.17782
4.912,0.18257
4.916,0.17805
4.92,0.16906
4.924,0.18222
4.928,0.12029
4.932,0.14941
4.936,0.13986
4.94,0.11535
4.944,0.09282
4.948,0.11075
4.952,0.09153
4.956,0.04637
4.96,0.06425
4.964,0.03372
4.968,0.0374
4.972,0.01156
4.976,0.01478
4.98,0.01223
4.984,-0.01788
4.988,-0.01949
4.992,-0.00431
4.996,-0.01211
5.0,-0.01083
5.004,-0.01835
5.008,-0.02206
5.012,-0.03844
5.016,-0.00343
5.02,-0.04589
5.024,-0.04085
5.028,-0.02365
5.032,-0.00795
5.036,-0.04605
5.04,-0.02238
5.044,-0.04317
5.048,-0.02734
5.052,-0.01717
5.056,-0.03446
5.06,-0.02732
5.064,-0.02223
5.068,-0.02365
5.072,-0.00967
5.076,0.00251
5.08,-0.02849
5.084,-0.02921
5.088,-0.01676
5.092,-0.01955
5.096,-0.00996
5.1,-0.03847
5.104,-0.01153
5.108,-0.04114
5.112,-0.02492
5.116,-0.05276
5.12,-0.03115
5.124,-0.02456
5.128,-0.01525
5.132,-0.01865
5.136,0.01734
5.14,-0.02198
5.144,-0.03605
5.148,-0.01761
5.152,-0.02704
5.156,-0.04198
5.16,-0.02956
5.164,-0.02636
5.168,-0.03354
5.172,-0.01585
5.176,-0.03524
5.18,0.00547
5.184,-0.05307
5.188,-0.02742
5.192,-0.04547
5.196,-0.00386
5.2,-0.03952
5.204,-0.00845
5.208,-0.02002
5.212,-0.01471
5.216,-0.00627
5.22,0.00155
5.224,-0.03383
5.228,-0.03077
5.232,-0.00106
5.236,0.01674
5.24,-0.00328
5.244,0.03192
5.248,0.01785
5.252,0.04569
5.256,0.053
5.26,0.06471
5.264,0.05849
5.268,0.05846
5.272,0.04196
5.276,0.04411
5.28,0.05591
5.284,0.01963
5.288,0.0306
5.292,0.00579
5.296,-0.00576
5.3,-0.03726
5.304,-0.01609
5.308,-0.00097
5.312,-0.02437
5.316,-0.04103
5.32,-0.02473
5.324,-0.0363
5.328,-0.05631
5.332,-0.02226
5.336,-0.03349
5.34,-0.01154
5.344,-0.01417
5.348,-0.0328
5.352,-0.03105
5.356,-0.03329
5.36,-0.05888
5.364,-0.01354
5.368,-0.03268
5.372,-0.02791
5.376,-0.02344
5.38,-0.05275
5.384,-0.08625
5.388,-0.12183
5.392,-0.13105
5.396,-0.1313
5.4,-0.06928
5.404,0.09427
5.408,0.25302
5.412,0.48567
5.416,0.69155
5.42,0.86709
5.424,0.95412
5.428,0.92571
5.432,0.85507
5.436,0.619
5.44,0.41443
5.444,0.16981
5.448,0.01851
5.452,-0.10378
5.456,-0.1919
5.46,-0.19417
5.464,-0.15672
5.468,-0.09109
5.472,-0.08591
5.476,-0.06265
5.48,-0.04473
5.484,-0.01377
5.488,-0.0395
5.492,-0.00939
5.496,-0.01918
5.5,-0.02487
5.504,-0.03082
5.508,-0.02116
5.512,-0.03225
5.516,-0.03926
5.52,-0.00962
5.524,-0.01143
5.528,-0.01758
5.532,0.02458
5.536,-0.00505
5.54,-0.02372
5.544,-0.04286
5.548,-0.01608
5.552,0.00522
5.556,-0.02584
5.56,-0.04945
5.564,-0.04638
5.568,-0.01179
5.572,-0.05552
5.576,-0.03299
5.58,-0.03661
5.584,-0.00021
5.588,-0.02202
5.592,-0.00387
5.596,-0.02562
5.6,-0.01846
5.604,0.0079
5.608,-0.0465
5.612,0.00127
5.616,0.01393
5.62,-0.01843
5.624,0.03837
5.628,0.00293
5.632,0.02919
5.636,0.04775
5.64,0.0372
5.644,0.08432
5.648,0.07564
5.652,0.08479
5.656,0.11497
5.66,0.08682
5.664,0.07866
5.668,0.11713
5.672,0.12333
5.676,0.13857
5.68,0.13018
5.684,0.19046
5.688,0.17066
5.692,0.17828
5.696,0.17313
5.7,0.22207
5.704,0.19167
5.708,0.19827
5.712,0.18957
5.716,0.19433
5.72,0.18577
5.724,0.16894
5.728,0.17518
5.732,0.16026
5.736,0.14298
5.74,0.10132
5.744,0.11669
5.748,0.11261
5.752,0.13018
5.756,0.0877
5.76,0.07235
5.764,0.05608
5.768,0.04991
5.772,0.00775
5.776,0.05655
5.78,0.03114
5.784,0.0177
5.788,0.02871
5.792,-0.00374
5.796,-0.01235
5.8,0.00483
5.804,0.00461
5.808,-0.00541
5.812,-0.00926
5.816,-0.01997
5.82,-0.02586
5.824,-0.02879
5.828,-0.00998
5.832,-0.02419
5.836,-0.00196
5.84,-0.01836
5.844,-0.05259
5.848,-0.01844
5.852,-0.05939
5.856,-0.01713
5.86,-0.03893
5.864,0.01564
5.868,-0.03464
5.872,-0.03316
5.876,-0.04591
5.88,-0.0269
5.884,-0.01062
5.888,-0.04575
5.892,-0.03391
5.896,-0.01588
5.9,-0.02249
5.904,-0.03857
5.908,-0.01475
5.912,-0.03452
5.916,-0.01115
5.92,-0.02142
5.924,-0.01739
5.928,-0.01935
5.932,-0.01012
5.936,0.02057
5.94,0.00441
5.944,0.00435
5.948,0.02767
5.952,0.04686
5.956,0.0216
5.96,0.06619
5.964,0.04596
5.968,0.0646
5.972,0.06272
5.976,0.04433
5.98,0.04703
5.984,0.04466
5.988,0.05741
5.992,0.0261
5.996,0.01654
6.0,0.00588
6.004,-0.02545
6.008,0.00289
6.012,-0.02091
6.016,-0.03184
6.02,-0.03083
6.024,-0.01333
6.028,-0.00742
6.032,-0.02521
6.036,-0.05231
6.04,-0.03575
6.044,-0.00773
6.048,-0.01386
6.052,-0.04827
6.056,0.00424
6.06,-0.02432
6.064,-0.02262
6.068,-0.0524
6.072,-0.02209
6.076,0.00105
6.08,-0.045
6.084,-0.04253
6.088,-0.08333
6.092,-0.14593
6.096,-0.15582
6.1,-0.10424
6.104,-0.00295
6.108,0.16603
6.112,0.34344
6.116,0.536
6.12,0.75668
6.124,0.90598
6.128,0.98468
6.132,0.91106
6.136,0.76862
6.14,0.5697
6.144,0.34093
6.148,0.11199
6.152,-0.03434
6.156,-0.1395
6.16,-0.20421
6.164,-0.17707
6.168,-0.15775
6.172,-0.09287
6.176,-0.08111
6.18,-0.03227
6.184,-0.04994
6.188,-0.00795
6.192,-0.02288
6.196,-0.01766
6.2,-0.0081
6.204,0.00369
6.208,-0.01503
6.212,-0.01634
6.216,-0.02392
6.22,-0.02008
6.224,-0.02724
6.228,-0.01596
6.232,-0.02103
6.236,-0.01645
6.24,-0.02556
6.244,-0.01891
6.248,-0.03142
6.252,-0.03219
6.256,-0.01368
6.26,-0.04051
6.264,-0.00751
6.268,0.0072
6.272,-0.01737
6.276,0.01466
6.28,-0.00799
6.284,-0.00419
6.288,0.01427
6.292,-0.0118
6.296,0.01012
6.3,-0.02473
6.304,-0.00011
6.308,0.01832
6.312,0.00048
6.316,-0.00052
6.32,-0.01339
6.324,0.0121
6.328,0.00713
6.332,0.03189
6.336,0.05777
6.34,0.05517
6.344,0.05974
6.348,0.0701
6.352,0.10779
6.356,0.1074
6.36,0.0993
6.364,0.1035
6.368,0.12101
6.372,0.12959
6.376,0.15281
6.38,0.1765
6.384,0.17066
6.388,0.18603
6.392,0.19709
6.396,0.18903
6.4,0.19451
6.404,0.20639
6.408,0.18851
6.412,0.21992
6.416,0.21039
6.42,0.18318
6.424,0.19135
6.428,0.18172
6.432,0.16176
6.436,0.17386
6.44,0.16654
6.444,0.12501
6.448,0.14299
6.452,0.10413
6.456,0.0981
6.46,0.10877
6.464,0.08492
6.468,0.07314
6.472,0.06328
6.476,0.05113
6.48,0.06179
6.484,0.03057
6.488,0.02687
6.492,0.04322
6.496,0.03681
6.5,0.00341
6.504,-0.01704
6.508,0.01009
6.512,0.03162
6.516,0.0184
6.52,-0.00388
6.524,-0.01442
6.528,-0.01376
6.532,0.02277
6.536,0.00882
6.54,-0.02712
6.544,-0.02249
6.548,-0.02347
6.552,-0.00187
6.556,-0.02893
6.56,-0.01291
6.564,-0.00174
6.568,-0.02267
6.572,-0.00888
6.576,-0.01923
6.58,-0.01767
6.584,-0.0144
6.588,-0.00437
6.592,-0.01752
6.596,-0.0281
6.6,0.00553
6.604,-0.00387
6.608,-0.02039
6.612,0.0001
6.616,-0.02004
6.62,-0.02024
6.624,-0.00549
6.628,0.00348
6.632,-0.02612
6.636,0.00114
6.64,-0.01834
6.644,-0.00019
6.648,0.01077
6.652,-0.02589
6.656,-0.00476
6.66,-0.01671
6.664,-0.03361
6.668,-0.00922
6.672,-0.0052
6.676,0.0164
6.68,-0.00878
6.684,-0.013
6.688,-0.00968
6.692,-0.02289
6.696,-0.03628
6.7,-0.01919
6.704,0.00352
6.708,3e-05
6.712,-0.01065
6.716,-0.00103
6.72,-0.03526
6.724,-0.00105
6.728,0.00962
6.732,-0.02811
6.736,-0.01344
6.74,-0.00468
6.744,-0.02195
6.748,-0.01708
6.752,0.01539
6.756,-0.01796
6.76,-0.02789
6.764,-0.0233
6.768,0.01439
6.772,-0.00042
6.776,0.001
6.78,-0.01887
6.784,-0.00672
6.788,-0.01645
6.792,-0.00989
6.796,0.00209
6.8,-0.02448
6.804,-0.00112
6.808,-0.00628
6.812,-0.00033
6.816,0.01316
6.82,-0.01027
6.824,0.0051
6.828,-0.00304
6.832,-0.0179
6.836,0.01425
6.84,-0.00977
6.844,-0.02187
6.848,-0.01285
6.852,-0.0175
6.856,0.00537
6.86,-0.02081
6.864,-0.00378
6.868,0.00104
6.872,0.0242
6.876,-0.03597
6.88,0.01874
6.884,-0.01501
6.888,-0.0143
6.892,0.00838
6.896,0.03092
6.9,0.04755
6.904,0.0628
6.908,0.08039
6.912,0.0447
6.916,0.07286
6.92,0.07416
6.924,0.08775
6.928,0.11183
6.932,0.09362
6.936,0.06806
6.94,0.0992
6.944,0.07574
6.948,0.05252
6.952,0.0458
6.956,0.0344
6.96,0.02662
6.964,0.00562
6.968,-0.00263
6.972,-0.00139
6.976,0.0185
6.98,-0.04528
6.984,0.01003
6.988,0.0131
6.992,0.00257
6.996,-0.02337
7.0,-0.00338
7.004,-0.01903
7.008,-0.00502
7.012,0.0113
7.016,0.00851
7.02,0.00734
7.024,0.00596
7.028,-0.00483
7.032,-0.02318
7.036,-0.00262
7.04,-0.01135
7.044,-0.05052
7.048,-0.06398
7.052,-0.10266
7.056,-0.09842
7.06,-0.06161
7.064,0.02248
7.068,0.15841
7.072,0.37721
7.076,0.5975
7.08,0.81265
7.084,0.9311
7.088,1.00256
7.092,0.93315
7.096,0.75152
7.1,0.53377
7.104,0.34646
7.108,0.11829
7.112,-0.02668
7.116,-0.1297
7.12,-0.17242
7.124,-0.15281
7.128,-0.10808
7.132,-0.07587
7.136,-0.0545
7.14,-0.02585
7.144,0.00118
7.148,-0.01638
7.152,-0.00565
7.156,0.01639
7.16,0.02072
7.164,-0.01514
7.168,0.01271
7.172,-0.0129
7.176,-0.02844
7.18,-0.01803
7.184,0.00033
7.188,0.01914
7.192,0.00814
7.196,0.00656
7.2,-0.00509
7.204,0.0225
7.208,-0.00745
7.212,-0.01216
7.216,0.00526
7.22,0.01421
7.224,0.02224
7.228,-0.00255
7.232,-0.02141
7.236,0.00961
7.24,0.00208
7.244,-0.00934
7.248,-0.01709
7.252,0.04013
7.256,0.02367
7.26,0.01923
7.264,0.00266
7.268,0.04485
7.272,0.02193
7.276,0.02587
7.28,0.04702
7.284,0.03639
7.288,0.03883
7.292,0.0607
7.296,0.077
7.3,0.05156
7.304,0.08333
7.308,0.10345
7.312,0.10147
7.316,0.12025
7.32,0.10865
7.324,0.12045
7.328,0.16725
7.332,0.17083
7.336,0.18001
7.34,0.19378
7.344,0.18915
7.348,0.22395
7.352,0.21219
7.356,0.20501
7.36,0.2336
7.364,0.24201
7.368,0.21145
7.372,0.23396
7.376,0.21344
7.38,0.21428
7.384,0.1879
7.388,0.21585
7.392,0.19879
7.396,0.21254
7.4,0.16932
7.404,0.18257
7.408,0.14274
7.412,0.15468
7.416,0.12235
7.42,0.1067
7.424,0.08817
7.428,0.09457
7.432,0.05781
7.436,0.07489
7.44,0.06872
7.444,0.0631
7.448,0.04043
7.452,0.05678
7.456,0.02771
7.46,0.03328
7.464,0.07783
7.468,0.02451
7.472,0.01657
7.476,0.04588
7.48,0.00409
7.484,0.02365
7.488,0.02228
7.492,-0.00502
7.496,-0.00035
7.5,0.00882
7.504,0.01886
7.508,0.009
7.512,0.0232
7.516,0.00066
7.52,0.02233
7.524,0.02484
7.528,0.00703
7.532,0.00687
7.536,0.01215
7.54,-0.01429
7.544,0.01532
7.548,0.02011
7.552,0.03925
7.556,0.02636
7.56,0.02184
7.564,-0.00485
7.568,-0.00583
7.572,0.02856
7.576,0.01503
7.58,-0.00754
7.584,0.01738
7.588,0.04115
7.592,-0.01493
7.596,0.00547
7.6,0.005
7.604,0.02223
7.608,0.01609
7.612,0.00769
7.616,0.01454
7.62,0.01258
7.624,0.01674
7.628,-0.00017
7.632,0.01061
7.636,0.01708
7.64,0.00108
7.644,0.03267
7.648,0.00351
7.652,0.00443
7.656,0.02776
7.66,0.00511
7.664,0.04545
7.668,0.00536
7.672,0.01499
7.676,0.03095
7.68,-0.00153
7.684,0.01328
7.688,0.01465
7.692,0.00735
7.696,-0.0115
7.7,0.01017
7.704,0.02043
7.708,0.00961
7.712,0.02638
7.716,0.0284
7.72,0.0161
7.724,0.01949
7.728,0.02448
7.732,0.01551
7.736,0.0255
7.74,0.01158
7.744,0.00306
7.748,0.0161
7.752,0.04875
7.756,0.01456
7.76,0.05342
7.764,0.04138
7.768,0.04271
7.772,0.03733
7.776,0.08042
7.78,0.07186
7.784,0.10919
7.788,0.0914
7.792,0.09129
7.796,0.11073
7.8,0.11739
7.804,0.10666
7.808,0.08281
7.812,0.086
7.816,0.085
7.82,0.07174
7.824,0.03968
7.828,0.05143
7.832,0.01912
7.836,0.05615
7.84,0.01336
7.844,0.05254
7.848,0.03273
7.852,0.01072
7.856,-0.00027
7.86,0.01631
7.864,0.00912
7.868,-0.01303
7.872,0.03426
7.876,0.0211
7.88,0.03054
7.884,0.04938
7.888,0.0382
7.892,0.05384
7.896,0.05036
7.9,0.011
7.904,0.01227
7.908,0.01018
7.912,0.00122
7.916,-0.07624
7.92,-0.12195
7.924,-0.09399
7.928,-0.01576
7.932,0.09502
7.936,0.28257
7.94,0.49065
7.944,0.6908
7.948,0.89559
7.952,1.01008
7.956,1.0031
7.96,0.88238
7.964,0.73576
7.968,0.5114
7.972,0.26769
7.976,0.09946
7.98,-0.06057
7.984,-0.15534
7.988,-0.12335
7.992,-0.12591
7.996,-0.07507
8.0,-0.08676
8.004,-0.01236
8.008,0.02282
8.012,0.02848
8.016,0.03036
8.02,0.03893
8.024,0.02155
8.028,0.0116
8.032,0.03888
8.036,0.02379
8.04,0.02367
8.044,0.0394
8.048,0.01804
8.052,0.0306
8.056,0.02992
8.06,0.01715
8.064,0.04171
8.068,0.02814
8.072,0.0135
8.076,0.01575
8.08,0.0244
8.084,0.0029
8.088,0.02546
8.092,0.04946
8.096,0.02002
8.1,0.01848
8.104,0.04583
8.108,0.02709
8.112,0.04253
8.116,0.04586
8.12,0.00861
8.124,0.05794
8.128,0.02759
8.132,0.04227
8.136,0.03203
8.14,0.04432
8.144,0.06652
8.148,0.06266
8.152,0.05923
8.156,0.08946
8.16,0.0784
8.164,0.07197
8.168,0.09279
8.172,0.14745
8.176,0.12601
8.18,0.14002
8.184,0.14145
8.188,0.16648
8.192,0.16955
8.196,0.18618
8.2,0.2038
8.204,0.20131
8.208,0.22238
8.212,0.22249
8.216,0.24277
8.22,0.20946
8.224,0.2536
8.228,0.23724
8.232,0.23591
8.236,0.27486
8.24,0.22877
8.244,0.24237
8.248,0.22942
8.252,0.25973
8.256,0.19907
8.26,0.22357
8.264,0.21008
8.268,0.18907
8.272,0.19614
8.276,0.19125
8.28,0.15766
8.284,0.15355
8.288,0.15336
8.292,0.09387
8.296,0.10721
8.3,0.12228
8.304,0.06179
8.308,0.09135
8.312,0.08145
8.316,0.06354
8.32,0.08182
8.324,0.0907
8.328,0.06106
8.332,0.04338
8.336,0.07121
8.34,0.05067
8.344,0.04225
8.348,0.04352
8.352,0.01857
8.356,0.01863
8.36,0.01842
8.364,0.04256
8.368,0.03612
8.372,0.01387
8.376,0.01441
8.38,0.00974
8.384,0.02904
8.388,0.01402
8.392,0.02825
8.396,0.03966
8.4,0.0522
8.404,-0.00865
8.408,0.04456
8.412,0.02287
8.416,0.04181
8.42,0.06029
8.424,0.02633
8.428,0.04069
8.432,0.02665
8.436,0.0038
8.44,0.03666
8.444,0.04459
8.448,0.01783
8.452,0.02147
8.456,0.03088
8.46,0.02125
8.464,0.01286
8.468,0.04521
8.472,0.02474
8.476,0.04168
8.48,0.04552
8.484,0.02707
8.488,0.05034
8.492,0.04183
8.496,0.03677
8.5,0.04323
8.504,0.03959
8.508,0.0299
8.512,0.05648
8.516,0.07597
8.52,0.07302
8.524,0.07335
8.528,0.10052
8.532,0.09261
8.536,0.13541
8.54,0.13794
8.544,0.15792
8.548,0.1197
8.552,0.11338
8.556,0.08168
8.56,0.07008
8.564,0.09092
8.568,0.06909
8.572,0.06773
8.576,0.0491
8.58,0.05341
8.584,0.04946
8.588,0.02569
8.592,0.04428
8.596,0.01935
8.6,-0.00768
8.604,0.01016
8.608,0.04063
8.612,0.02534
8.616,0.00221
8.62,-0.00877
8.624,0.01471
8.628,0.00961
8.632,0.02009
8.636,0.03065
8.64,0.03638
8.644,0.02469
8.648,0.03899
8.652,0.04764
8.656,0.01034
8.66,-0.02268
8.664,-0.03038
8.668,-0.08891
8.672,-0.11095
8.676,-0.02149
8.68,0.05322
8.684,0.22874
8.688,0.45127
8.692,0.63357
8.696,0.84699
8.7,0.98083
8.704,1.01718
8.708,0.93351
8.712,0.78263
8.716,0.57219
8.72,0.31123
8.724,0.09147
8.728,-0.00452
8.732,-0.11031
8.736,-0.12387
8.74,-0.10974
8.744,-0.07325
8.748,-0.04519
8.752,0.00138
8.756,0.02098
8.76,0.02552
8.764,0.00726
8.768,-0.00312
8.772,0.03273
8.776,0.0229
8.78,0.02198
8.784,0.05176
8.788,0.02365
8.792,0.00946
8.796,0.00555
8.8,0.01669
8.804,0.02538
8.808,0.04375
8.812,0.05519
8.816,0.02094
8.82,0.04424
8.824,-0.01843
8.828,0.01332
8.832,0.04439
8.836,0.02418
8.84,0.0154
8.844,0.0248
8.848,0.04195
8.852,0.01002
8.856,0.04844
8.86,0.03682
8.864,0.0253
8.868,0.06196
8.872,0.03194
8.876,0.03291
8.88,0.06928
8.884,0.04207
8.888,0.05608
8.892,0.046
8.896,0.05427
8.9,0.0669
8.904,0.0491
8.908,0.09653
8.912,0.10746
8.916,0.09354
8.92,0.12134
8.924,0.13829
8.928,0.15499
8.932,0.15235
8.936,0.19674
8.94,0.22714
8.944,0.22853
8.948,0.28671
8.952,0.28997
8.956,0.32194
8.96,0.31882
8.964,0.32808
8.968,0.31686
8.972,0.35014
8.976,0.36351
8.98,0.31628
8.984,0.32269
8.988,0.32431
8.992,0.29769
8.996,0.25448
9.0,0.26647
9.004,0.23567
9.008,0.21406
9.012,0.23742
9.016,0.2101
9.02,0.18124
9.024,0.1905
9.028,0.18082
9.032,0.17721
9.036,0.1449
9.04,0.12652
9.044,0.12348
9.048,0.11914
9.052,0.0939
9.056,0.10317
9.06,0.10156
9.064,0.05427
9.068,0.06084
9.072,0.07515
9.076,0.04124
9.08,0.0361
9.084,-0.02417
9.088,-0.07052
9.092,-0.07214
9.096,-0.05181
9.1,0.0217
9.104,0.14809
9.108,0.30477
9.112,0.54178
9.116,0.76009
9.12,0.94488
9.124,1.01319
9.128,1.0277
9.132,0.91587
9.136,0.68241
9.14,0.45072
9.144,0.24563
9.148,0.05271
9.152,-0.0751
9.156,-0.12933
9.16,-0.11794
9.164,-0.09962
9.168,-0.07651
9.172,-0.02961
9.176,0.0452
9.18,0.0233
9.184,0.03803
9.188,0.03322
9.192,0.05855
9.196,0.02639
9.2,0.04852
9.204,0.04062
9.208,0.0106
9.212,0.03379
9.216,0.02222
9.22,0.03847
9.224,0.05607
9.228,0.04649
9.232,0.02681
9.236,0.0447
9.24,0.04773
9.244,0.01424
9.248,0.02541
9.252,0.0249
9.256,0.02908
9.26,0.01389
9.264,0.0347
9.268,0.04773
9.272,0.02676
9.276,0.05049
9.28,0.02791
9.284,0.01969
9.288,0.02634
9.292,0.04227
9.296,0.04173
9.3,0.03924
9.304,0.0527
9.308,0.0461
9.312,0.01789
9.316,0.02877
9.32,0.06967
9.324,0.05157
9.328,0.07111
9.332,0.06369
9.336,0.06383
9.34,0.1276
9.344,0.11267
9.348,0.13135
9.352,0.11683
9.356,0.11991
9.36,0.15456
9.364,0.14877
9.368,0.22651
9.372,0.19166
9.376,0.20512
9.38,0.20988
9.384,0.21715
9.388,0.24311
9.392,0.22402
9.396,0.24082
9.4,0.24239
9.404,0.25261
9.408,0.24038
9.412,0.27744
9.416,0.22746
9.42,0.22224
9.424,0.21354
9.428,0.23843
9.432,0.2179
9.436,0.20671
9.44,0.17485
9.444,0.20852
9.448,0.16831
9.452,0.1541
9.456,0.14626
9.46,0.14305
9.464,0.13067
9.468,0.12626
9.472,0.09369
9.476,0.08094
9.48,0.07449
9.484,0.08348
9.488,0.06952
9.492,0.04753
9.496,0.0924
9.5,0.01016
9.504,0.04516
9.508,0.03819
9.512,0.01995
9.516,0.04195
9.52,0.03076
9.524,0.01381
9.528,0.02194
9.532,0.03293
9.536,0.01258
9.54,0.02765
9.544,0.02274
9.548,-0.00726
9.552,0.01939
9.556,0.00434
9.56,0.02717
9.564,0.01752
9.568,0.02444
9.572,0.01383
9.576,0.00543
9.58,0.01411
9.584,0.03898
9.588,0.03328
9.592,0.01887
9.596,0.02087
9.6,0.02679
9.604,-0.00027
9.608,0.05358
9.612,0.00827
9.616,0.0022
9.62,0.01453
9.624,0.02349
9.628,0.00396
9.632,0.01213
9.636,0.03709
9.64,0.02095
9.644,0.0301
9.648,0.01632
9.652,0.04741
9.656,0.01373
9.66,0.02903
9.664,0.03985
9.668,0.0395
9.672,0.06266
9.676,0.04365
9.68,0.08055
9.684,0.07082
9.688,0.09537
9.692,0.08604
9.696,0.10127
9.7,0.11091
9.704,0.12753
9.708,0.10908
9.712,0.12775
9.716,0.1231
9.72,0.10386
9.724,0.08421
9.728,0.06521
9.732,0.05342
9.736,0.05365
9.74,0.03424
9.744,0.06144
9.748,0.0351
9.752,0.02852
9.756,0.0105
9.76,0.02188
9.764,0.0277
9.768,0.03399
9.772,0.01878
9.776,0.02438
9.78,0.02754
9.784,0.01248
9.788,0.0081
9.792,0.02402
9.796,0.01523
9.8,0.02346
9.804,-0.00721
9.808,0.01625
9.812,0.0196
9.816,0.02228
9.82,-0.04224
9.824,-0.01746
9.828,-0.07186
9.832,-0.07726
9.836,-0.0928
9.84,-0.05458
9.844,0.07888
9.848,0.23951
9.852,0.44662
9.856,0.64782
9.86,0.86664
9.864,0.97392
9.868,0.99663
9.872,0.91853
9.876,0.71994
9.88,0.51773
9.884,0.31473
9.888,0.07677
9.892,-0.04821
9.896,-0.14605
9.9,-0.14393
9.904,-0.11993
9.908,-0.07849
9.912,-0.04657
9.916,0.00852
9.92,0.0292
9.924,-0.01696
9.928,0.0317
9.932,0.02471
9.936,-0.01217
9.94,-0.0347
9.944,0.02398
9.948,0.01822
9.952,0.00013
9.956,-0.00206
9.96,0.01241
9.964,-0.00021
9.968,0.01027
9.972,-0.01106
9.976,-0.03575
9.98,-0.00269
9.984,-0.0
9.988,0.0126
9.992,0.01639
9.996,-0.0256
