t_seg,ecg_mV
0.0,0.562
0.004,0.78192
0.008,0.91305
0.012,0.97471
0.016,0.94094
0.02,0.74767
0.024,0.55925
0.028,0.31008
0.032,0.12353
0.036,-0.05522
0.04,-0.15949
0.044,-0.19174
0.048,-0.19957
0.052,-0.13561
0.056,-0.10179
0.06,-0.03851
0.064,-0.01613
0.068,-0.02573
0.072,-0.01259
0.076,-0.0427
0.08,-0.0443
0.084,-0.03603
0.088,-0.02501
0.092,-0.04059
0.096,-0.02365
0.1,-0.00717
0.104,-0.01967
0.108,-0.01709
0.112,-0.01682
0.116,-0.01579
0.12,-0.02406
0.124,0.00511
0.128,-0.01583
0.132,-0.02964
0.136,-0.0517
0.14,-0.00147
0.144,-0.01872
0.148,-0.0161
0.152,0.00603
0.156,-0.0126
0.16,-0.02292
0.164,-0.04204
0.168,-0.03148
0.172,-0.01251
0.176,-0.03253
0.18,-0.0151
0.184,-0.02075
0.188,0.01344
0.192,-0.04932
0.196,0.00112
0.2,0.01475
0.204,0.03042
0.208,0.06059
0.212,0.04822
0.216,-0.00045
0.22,0.04356
0.224,0.04442
0.228,0.07826
0.232,0.07726
0.236,0.07402
0.24,0.0848
0.244,0.10938
0.248,0.12946
0.252,0.13072
0.256,0.13688
0.26,0.13847
0.264,0.14042
0.268,0.15611
0.272,0.14502
0.276,0.15642
0.28,0.19491
0.284,0.19538
0.288,0.21713
0.292,0.22181
0.296,0.19919
0.3,0.21151
0.304,0.18971
0.308,0.2113
0.312,0.17859
0.316,0.16433
0.32,0.15507
0.324,0.16092
0.328,0.11424
0.332,0.14591
0.336,0.12168
0.34,0.09518
0.344,0.06326
0.348,0.08042
0.352,0.08434
0.356,0.08787
0.36,0.05207
0.364,0.0219
0.368,0.03431
0.372,0.02783
0.376,0.0137
0.38,0.00642
0.384,-0.00995
0.388,-0.01387
0.392,0.01924
0.396,-0.0099
0.4,-0.04598
0.404,-0.00149
0.408,-0.04003
0.412,-0.04398
0.416,0.00167
0.42,0.00485
0.424,0.01732
0.428,-0.00866
0.432,-0.01279
0.436,-0.02278
0.44,-0.0289
0.444,0.00277
0.448,-0.01494
0.452,0.00077
0.456,-0.00299
0.46,-0.03324
0.464,-0.02648
0.468,0.00674
0.472,-0.01818
0.476,-0.01416
0.48,-0.00603
0.484,-0.00332
0.488,-0.0157
0.492,-0.00113
0.496,0.00331
0.5,-0.02206
0.504,-0.02002
0.508,-0.02177
0.512,-0.03274
0.516,-0.01705
0.52,-0.00979
0.524,-0.02855
0.528,-0.00541
0.532,-0.0157
0.536,-0.04814
0.54,-0.01078
0.544,-0.01578
0.548,-0.03123
0.552,-0.02829
0.556,-0.01823
0.56,-0.01617
0.564,0.0044
0.568,-0.0487
0.572,-0.0073
0.576,-0.02786
0.58,-0.00607
0.584,-0.01347
0.588,-0.02755
0.592,-0.00302
0.596,-0.01919
0.6,-0.00905
0.604,0.00108
0.608,-0.0362
0.612,-0.00515
0.616,-0.00405
0.62,-0.01592
0.624,-0.02223
0.628,-0.02049
0.632,-0.02299
0.636,-0.0291
0.64,-0.03293
0.644,0.00347
0.648,-0.01924
0.652,-0.01769
0.656,-0.03236
0.66,-0.0435
0.664,-0.00866
0.668,-0.02421
0.672,-0.01778
0.676,-0.03069
0.68,-0.00991
0.684,-0.01816
0.688,-0.01364
0.692,0.00493
0.696,-0.00252
0.7,0.01596
0.704,-0.00193
0.708,-0.00841
0.712,0.00195
0.716,0.01681
0.72,0.02276
0.724,0.02957
0.728,0.0436
0.732,0.06516
0.736,0.0659
0.74,0.07075
0.744,0.09196
0.748,0.07749
0.752,0.08478
0.756,0.07937
0.76,0.04064
0.764,0.06342
0.768,0.03299
0.772,0.04959
0.776,0.03957
0.78,0.03922
0.784,0.00817
0.788,0.00167
0.792,0.01994
0.796,-0.00125
0.8,-0.01198
0.804,0.02191
0.808,-0.01854
0.812,0.01484
0.816,0.00821
0.82,-0.03813
0.824,-0.04353
0.828,0.01855
0.832,0.00773
0.836,-0.01284
0.84,0.00225
0.844,-0.00866
0.848,0.01349
0.852,-0.00775
0.856,-0.02146
0.86,-0.02663
0.864,-0.03846
0.868,-0.07409
0.872,-0.10855
0.876,-0.14376
0.88,-0.09071
0.884,0.01044
0.888,0.15549
0.892,0.38702
0.896,0.58041
0.9,0.78469
0.904,0.94798
0.908,0.98856
0.912,0.93002
0.916,0.80912
0.92,0.58756
0.924,0.35048
0.928,0.13416
0.932,-0.05175
0.936,-0.1267
0.94,-0.18284
0.944,-0.15975
0.948,-0.1565
0.952,-0.0624
0.956,-0.0484
0.96,-0.00957
0.964,-0.01523
0.968,0.00796
0.972,0.00513
0.976,0.02723
0.98,-0.0051
0.984,-0.01535
0.988,0.01134
0.992,0.00246
0.996,0.0005
1.0,-0.00066
1.004,0.0107
1.008,-0.00714
1.012,0.00424
1.016,0.00314
1.02,-0.01298
1.024,-0.02776
1.028,0.0082
1.032,0.00368
1.036,0.00443
1.04,0.01056
1.044,0.01881
1.048,-0.01875
1.052,0.00772
1.056,0.00796
1.06,0.01778
1.064,-0.01788
1.068,0.02916
1.072,0.0107
1.076,0.02006
1.08,-0.01096
1.084,0.00422
1.088,0.04044
1.092,0.03078
1.096,0.01487
1.1,0.01685
1.104,0.01924
1.108,0.0534
1.112,0.0585
1.116,0.05817
1.12,0.07659
1.124,0.07665
1.128,0.06314
1.132,0.08088
1.136,0.1451
1.14,0.15432
1.144,0.13206
1.148,0.14263
1.152,0.15727
1.156,0.15869
1.16,0.17566
1.164,0.18084
1.168,0.21407
1.172,0.21801
1.176,0.18822
1.18,0.21033
1.184,0.24523
1.188,0.21361
1.192,0.23715
1.196,0.23203
1.2,0.24136
1.204,0.19634
1.208,0.22436
1.212,0.17904
1.216,0.17919
1.22,0.16997
1.224,0.15172
1.228,0.14487
1.232,0.15001
1.236,0.12648
1.24,0.11169
1.244,0.07993
1.248,0.09123
1.252,0.10387
1.256,0.07872
1.26,0.07736
1.264,0.04242
1.268,0.07444
1.272,0.04053
1.276,0.03286
1.28,0.01055
1.284,0.02766
1.288,0.02204
1.292,0.03098
1.296,0.00218
1.3,0.01062
1.304,0.01659
1.308,0.009
1.312,-0.0026
1.316,0.00057
1.32,-0.00374
1.324,0.0129
1.328,0.02214
1.332,-0.00035
1.336,-0.00244
1.34,0.01104
1.344,0.00074
1.348,0.00373
1.352,0.00075
1.356,0.02086
1.36,0.00642
1.364,-0.00077
1.368,-0.0068
1.372,0.00478
1.376,0.01309
1.38,0.02506
1.384,-0.0019
1.388,-0.02893
1.392,0.03938
1.396,-0.00221
1.4,0.02996
1.404,0.03766
1.408,0.00245
1.412,0.00529
1.416,0.00124
1.42,0.02457
1.424,0.00095
1.428,0.01318
1.432,0.00678
1.436,0.01108
1.44,0.01962
1.444,-0.00083
1.448,-0.02306
1.452,0.00327
1.456,0.00335
1.46,0.03413
1.464,0.01142
1.468,0.00652
1.472,0.00599
1.476,0.00118
1.48,-0.00138
1.484,0.00242
1.488,-0.00114
1.492,0.01626
1.496,0.01067
1.5,0.00424
1.504,0.02865
1.508,0.02908
1.512,0.00476
1.516,0.04265
1.52,0.02432
1.524,0.00309
1.528,0.01111
1.532,0.02009
1.536,0.0209
1.54,0.01141
1.544,0.012
1.548,-0.02121
1.552,0.01951
1.556,-0.00032
1.56,-0.02021
1.564,0.03354
1.568,0.01033
1.572,0.02732
1.576,0.04043
1.58,0.00108
1.584,0.01671
1.588,0.03096
1.592,0.018
1.596,0.00787
1.6,0.00173
1.604,0.02356
1.608,0.03704
1.612,0.02674
1.616,0.04891
1.62,0.06802
1.624,0.06862
1.628,0.05476
1.632,0.06253
1.636,0.09968
1.64,0.08383
1.644,0.10406
1.648,0.13032
1.652,0.09443
1.656,0.12113
1.66,0.11409
1.664,0.09336
1.668,0.09215
1.672,0.07114
1.676,0.06788
1.68,0.04085
1.684,0.04152
1.688,0.04546
1.692,0.03317
1.696,0.01326
1.7,0.02189
1.704,0.01818
1.708,0.035
1.712,0.03434
1.716,-0.00964
1.72,0.03378
1.724,0.0237
1.728,0.03834
1.732,0.00883
1.736,0.01706
1.74,0.0113
1.744,-0.00027
1.748,0.02952
1.752,0.02394
1.756,0.01804
1.76,-0.0018
1.764,0.02802
1.768,-0.0054
1.772,-0.06061
1.776,-0.12484
1.78,-0.05001
1.784,-0.01711
1.788,0.13251
1.792,0.31684
1.796,0.55524
1.8,0.74451
1.804,0.924
1.808,1.0247
1.812,0.97747
1.816,0.8785
1.82,0.65792
1.824,0.43132
1.828,0.22041
1.832,0.0232
1.836,-0.09581
1.84,-0.14222
1.844,-0.14581
1.848,-0.0965
1.852,-0.07088
1.856,-0.02846
1.86,-0.01081
1.864,0.02327
1.868,0.04453
1.872,-0.01062
1.876,0.01545
1.88,0.04232
1.884,0.01472
1.888,0.02822
1.892,0.02135
1.896,-0.00395
1.9,0.0137
1.904,0.01944
1.908,0.02799
1.912,0.04137
1.916,0.02249
1.92,0.02395
1.924,0.00985
1.928,0.03172
1.932,0.02763
1.936,-0.00037
1.94,0.01709
1.944,0.01174
1.948,0.03896
1.952,0.00563
1.956,0.03298
1.96,0.00261
1.964,0.03558
1.968,0.0294
1.972,0.06026
1.976,0.04469
1.98,0.03805
1.984,0.01224
1.988,0.04158
1.992,0.04165
1.996,0.04757
2.0,0.06548
2.004,0.06131
2.008,0.09962
2.012,0.07338
2.016,0.09267
2.02,0.07674
2.024,0.12008
2.028,0.12091
2.032,0.11218
2.036,0.14126
2.04,0.14014
2.044,0.17512
2.048,0.16163
2.052,0.20011
2.056,0.19723
2.06,0.17046
2.064,0.20454
2.068,0.21252
2.072,0.24319
2.076,0.21773
2.08,0.24826
2.084,0.2229
2.088,0.23262
2.092,0.26792
2.096,0.23911
2.1,0.23041
2.104,0.21037
2.108,0.23234
2.112,0.23338
2.116,0.21113
2.12,0.18342
2.124,0.19012
2.128,0.18484
2.132,0.16166
2.136,0.15165
2.14,0.13514
2.144,0.14818
2.148,0.15737
2.152,0.11702
2.156,0.11727
2.16,0.10402
2.164,0.04868
2.168,0.07674
2.172,0.0548
2.176,0.06624
2.18,0.06039
2.184,0.06308
2.188,0.05419
2.192,0.05599
2.196,0.06826
2.2,0.02654
2.204,0.01737
2.208,0.05016
2.212,0.04308
2.216,0.03655
2.22,0.03769
2.224,0.03043
2.228,0.00847
2.232,0.00775
2.236,0.04563
2.24,0.01369
2.244,0.03187
2.248,0.03279
2.252,0.02393
2.256,0.01429
2.26,0.03749
2.264,0.03593
2.268,0.04806
2.272,0.03966
2.276,0.01931
2.28,0.02276
2.284,0.00473
2.288,0.03695
2.292,0.02137
2.296,0.0249
2.3,0.01994
2.304,0.0155
2.308,0.0545
2.312,0.02274
2.316,0.06649
2.32,0.05318
2.324,0.03601
2.328,0.02493
2.332,0.03076
2.336,-0.01813
2.34,0.05145
2.344,0.02819
2.348,0.00532
2.352,0.03941
2.356,0.03536
2.36,0.03089
2.364,0.00579
2.368,0.01448
2.372,0.01889
2.376,0.01452
2.38,0.01156
2.384,0.02515
2.388,0.02807
2.392,0.0144
2.396,0.00562
2.4,0.04331
2.404,0.05343
2.408,0.02706
2.412,0.00642
2.416,0.02928
2.42,0.00752
2.424,0.04185
2.428,0.07451
2.432,0.04284
2.436,-0.00538
2.44,-0.00275
2.444,0.02924
2.448,0.02643
2.452,0.02918
2.456,0.0215
2.46,0.03957
2.464,0.01415
2.468,0.03987
2.472,0.0324
2.476,0.0312
2.48,0.03096
2.484,0.01399
2.488,0.01835
2.492,0.04348
2.496,-0.00662
2.5,0.04684
2.504,0.02734
2.508,0.0323
2.512,0.0041
2.516,0.01813
2.52,-0.01076
2.524,0.02755
2.528,0.02757
2.532,0.01224
2.536,0.02803
2.54,0.03272
2.544,0.01948
2.548,0.02019
2.552,0.01185
2.556,0.02953
2.56,0.03135
2.564,0.04068
2.568,0.0185
2.572,0.01456
2.576,0.03118
2.58,0.05063
2.584,0.01977
2.588,0.04874
2.592,0.03631
2.596,0.04578
2.6,0.03897
2.604,0.0195
2.608,0.03178
2.612,0.05323
2.616,0.04868
2.62,0.04846
2.624,0.0129
2.628,0.0339
2.632,0.06712
2.636,0.02116
2.64,0.0106
2.644,0.01336
2.648,0.02717
2.652,0.023
2.656,0.02448
2.66,0.01283
2.664,-0.00968
2.668,0.03108
2.672,0.04231
2.676,0.02951
2.68,0.04732
2.684,0.06131
2.688,0.04334
2.692,0.1062
2.696,0.08843
2.7,0.08778
2.704,0.06885
2.708,0.11502
2.712,0.10338
2.716,0.14788
2.72,0.11068
2.724,0.13207
2.728,0.10742
2.732,0.12598
2.736,0.11201
2.74,0.0898
2.744,0.07251
2.748,0.07345
2.752,0.04041
2.756,0.04509
2.76,0.04238
2.764,0.03618
2.768,0.01025
2.772,0.03701
2.776,0.01381
2.78,0.05014
2.784,0.03965
2.788,0.0242
2.792,0.03393
2.796,0.0126
2.8,0.06494
2.804,0.0372
2.808,-0.00917
2.812,0.00394
2.816,0.02647
2.82,0.04749
2.824,0.00689
2.828,0.02934
2.832,0.0271
2.836,-0.00853
2.84,-0.01836
2.844,-0.06872
2.848,-0.09757
2.852,-0.06221
2.856,0.07749
2.86,0.19738
2.864,0.38994
2.868,0.63397
2.872,0.84154
2.876,0.9791
2.88,1.02764
2.884,0.97349
2.888,0.79962
2.892,0.60431
2.896,0.37902
2.9,0.19932
2.904,0.01012
2.908,-0.10547
2.912,-0.1179
2.916,-0.12874
2.92,-0.0909
2.924,-0.05876
2.928,0.00148
2.932,-0.00271
2.936,0.00797
2.94,0.0039
2.944,0.00753
2.948,0.02424
2.952,0.02335
2.956,0.04102
2.96,0.01942
2.964,-0.00411
2.968,0.02669
2.972,0.05058
2.976,0.02444
2.98,0.03856
2.984,0.01164
2.988,0.04654
2.992,0.01072
2.996,0.04778
3.0,0.03019
3.004,0.01592
3.008,0.08132
3.012,0.01741
3.016,0.03759
3.02,0.0043
3.024,0.03747
3.028,0.03563
3.032,0.04527
3.036,0.0421
3.04,0.02766
3.044,0.05754
3.048,0.04694
3.052,0.02194
3.056,0.03354
3.06,0.04729
3.064,0.05417
3.068,0.02666
3.072,0.04274
3.076,0.06257
3.08,0.08709
3.084,0.07216
3.088,0.09625
3.092,0.10099
3.096,0.07817
3.1,0.1128
3.104,0.12774
3.108,0.14625
3.112,0.17903
3.116,0.17026
3.12,0.16219
3.124,0.19377
3.128,0.20295
3.132,0.20712
3.136,0.23098
3.14,0.23136
3.144,0.24221
3.148,0.22653
3.152,0.25226
3.156,0.25644
3.16,0.26342
3.164,0.23606
3.168,0.26799
3.172,0.26217
3.176,0.23733
3.18,0.22906
3.184,0.19489
3.188,0.20731
3.192,0.18479
3.196,0.17216
3.2,0.17178
3.204,0.17866
3.208,0.14248
3.212,0.13352
3.216,0.13031
3.22,0.11571
3.224,0.14095
3.228,0.11799
3.232,0.07665
3.236,0.04617
3.24,0.07576
3.244,0.07247
3.248,0.04542
3.252,0.03038
3.256,0.0358
3.26,0.04701
3.264,0.03467
3.268,0.03499
3.272,0.05
3.276,0.05107
3.28,0.04323
3.284,0.03562
3.288,0.01653
3.292,0.00553
3.296,0.03001
3.3,0.01894
3.304,0.01674
3.308,0.05137
3.312,0.01554
3.316,0.05701
3.32,0.0232
3.324,0.02395
3.328,0.0263
3.332,0.0378
3.336,0.06816
3.34,0.03152
3.344,0.02924
3.348,0.04849
3.352,0.00547
3.356,0.01266
3.36,0.01731
3.364,0.0318
3.368,0.0195
3.372,0.02059
3.376,0.00312
3.38,0.00597
3.384,0.04149
3.388,0.00622
3.392,0.00831
3.396,0.02219
3.4,0.051
3.404,0.01459
3.408,0.05181
3.412,0.06133
3.416,0.06674
3.42,0.04185
3.424,0.07889
3.428,0.07393
3.432,0.08791
3.436,0.09544
3.44,0.098
3.444,0.12062
3.448,0.10596
3.452,0.08369
3.456,0.11737
3.46,0.09592
3.464,0.07722
3.468,0.07495
3.472,0.05063
3.476,0.05208
3.48,0.06103
3.484,0.04313
3.488,0.03136
3.492,0.06848
3.496,-0.02463
3.5,0.0446
3.504,0.0264
3.508,0.03142
3.512,0.02951
3.516,0.01661
3.52,0.02205
3.524,0.03309
3.528,0.02528
3.532,0.0213
3.536,0.03728
3.54,-0.00979
3.544,-0.00971
3.548,0.00874
3.552,0.03513
3.556,0.00605
3.56,0.01715
3.564,-0.01389
3.568,-0.05636
3.572,-0.10918
3.576,-0.10055
3.58,-0.04385
3.584,0.0611
3.588,0.20964
3.592,0.40472
3.596,0.63609
3.6,0.80124
3.604,0.95466
3.608,1.00824
3.612,0.95023
3.616,0.78373
3.62,0.57373
3.624,0.32921
3.628,0.14045
3.632,-0.02626
3.636,-0.10457
3.64,-0.13349
3.644,-0.11724
3.648,-0.09613
3.652,-0.03739
3.656,0.00745
3.66,-0.02417
3.664,-0.00388
3.668,0.01538
3.672,0.04146
3.676,0.0166
3.68,0.01294
3.684,-0.01131
3.688,0.02491
3.692,-0.00148
3.696,0.01997
3.7,0.02612
3.704,0.06301
3.708,0.00646
3.712,-0.00412
3.716,0.02642
3.72,0.03463
3.724,0.01237
3.728,0.01266
3.732,0.02387
3.736,0.03855
3.74,0.02218
3.744,0.00317
3.748,0.02061
3.752,0.03035
3.756,0.02151
3.76,0.03015
3.764,0.01941
3.768,0.02461
3.772,0.02197
3.776,-0.00743
3.78,0.02506
3.784,0.02653
3.788,0.04585
3.792,0.02813
3.796,0.04953
3.8,0.05932
3.804,0.04585
3.808,0.05422
3.812,0.06313
3.816,0.07191
3.82,0.08844
3.824,0.07792
3.828,0.07514
3.832,0.12198
3.836,0.12879
3.84,0.14268
3.844,0.16416
3.848,0.18829
3.852,0.16978
3.856,0.20665
3.86,0.21306
3.864,0.18291
3.868,0.24615
3.872,0.22259
3.876,0.21979
3.88,0.2289
3.884,0.23484
3.888,0.24348
3.892,0.18388
3.896,0.20827
3.9,0.20995
3.904,0.23456
3.908,0.20754
3.912,0.20565
3.916,0.20191
3.92,0.16579
3.924,0.15833
3.928,0.18986
3.932,0.16445
3.936,0.11752
3.94,0.10104
3.944,0.13222
3.948,0.10692
3.952,0.07597
3.956,0.10452
3.96,0.0871
3.964,0.04124
3.968,0.05141
3.972,0.04832
3.976,0.04208
3.98,0.01613
3.984,0.03418
3.988,0.02576
3.992,0.04997
3.996,-0.00152
4.0,0.00533
4.004,0.0379
4.008,0.03381
4.012,0.02033
4.016,0.02395
4.02,0.00356
4.024,-0.00554
4.028,0.04381
4.032,0.02879
4.036,-0.00282
4.04,0.0102
4.044,0.00441
4.048,0.01125
4.052,0.02359
4.056,0.03116
4.06,0.02568
4.064,0.04186
4.068,-0.00049
4.072,0.01301
4.076,0.02062
4.08,0.03322
4.084,0.01728
4.088,-0.00802
4.092,-0.00772
4.096,0.01871
4.1,0.04152
4.104,0.02847
4.108,0.00592
4.112,0.00735
4.116,-0.01304
4.12,-0.0005
4.124,0.03298
4.128,-0.01557
4.132,-0.00975
4.136,0.00363
4.14,0.00077
4.144,0.01304
4.148,0.0012
4.152,-0.0066
4.156,0.01771
4.16,0.01718
4.164,0.03216
4.168,0.00214
4.172,-0.00377
4.176,0.03137
4.18,-0.01761
4.184,0.00353
4.188,0.0055
4.192,0.00431
4.196,0.02463
4.2,-0.02734
4.204,0.01612
4.208,-0.01029
4.212,-0.00139
4.216,0.01899
4.22,-0.00261
4.224,0.01117
4.228,0.00682
4.232,0.01033
4.236,0.01431
4.24,-0.00151
4.244,-0.0078
4.248,0.0027
4.252,0.00418
4.256,0.01053
4.26,-0.02269
4.264,0.00251
4.268,-0.00947
4.272,0.00575
4.276,0.00617
4.28,0.01409
4.284,-0.00496
4.288,0.01601
4.292,0.01765
4.296,-0.01692
4.3,0.02522
4.304,0.00543
4.308,0.02515
4.312,0.02891
4.316,0.01004
4.32,0.03609
4.324,0.02735
4.328,0.06485
4.332,0.08275
4.336,0.10712
4.34,0.06333
4.344,0.06748
4.348,0.07719
4.352,0.1141
4.356,0.10256
4.36,0.0916
4.364,0.07723
4.368,0.05601
4.372,0.05589
4.376,0.04437
4.38,0.03633
4.384,0.00482
4.388,0.01363
4.392,0.01829
4.396,-0.0149
4.4,0.02376
4.404,0.00594
4.408,0.01057
4.412,0.0091
4.416,0.02231
4.42,-0.02507
4.424,-0.01091
4.428,0.01517
4.432,-0.01614
4.436,0.01737
4.44,0.03429
4.444,-0.00591
4.448,0.02026
4.452,-0.0041
4.456,0.00121
4.46,0.00305
4.464,-0.02082
4.468,-0.05961
4.472,-0.06842
4.476,-0.11585
4.48,-0.10858
4.484,-0.04311
4.488,0.06797
4.492,0.2902
4.496,0.50139
4.5,0.69805
4.504,0.87387
4.508,0.96892
4.512,0.98541
4.516,0.88838
4.52,0.64694
4.524,0.44124
4.528,0.21587
4.532,0.04104
4.536,-0.09724
4.54,-0.15557
4.544,-0.1894
4.548,-0.14803
4.552,-0.08328
4.556,-0.05506
4.56,-0.01061
4.564,-0.02898
4.568,-0.0119
4.572,0.03033
4.576,0.01253
4.58,0.02402
4.584,-0.01712
4.588,0.00433
4.592,-0.01201
4.596,-0.00707
4.6,-0.00649
4.604,-0.02867
4.608,-0.01609
4.612,0.00994
4.616,-0.01425
4.62,-0.02989
4.624,-0.02009
4.628,-0.00572
4.632,-0.01232
4.636,-0.01328
4.64,-0.03234
4.644,-0.00741
4.648,-0.01186
4.652,-0.02245
4.656,-0.00613
4.66,0.00558
4.664,-0.01452
4.668,-0.02511
4.672,0.00058
4.676,0.02071
4.68,-0.01078
4.684,0.0067
4.688,0.01667
4.692,0.00903
4.696,0.0249
4.7,0.03162
4.704,0.00349
4.708,0.03703
4.712,0.05865
4.716,0.05911
4.72,0.04249
4.724,0.06471
4.728,0.06694
4.732,0.09892
4.736,0.07747
4.74,0.12381
4.744,0.08253
4.748,0.14109
4.752,0.13644
4.756,0.13303
4.76,0.18236
4.764,0.19107
4.768,0.17276
4.772,0.21613
4.776,0.17925
4.78,0.20631
4.784,0.18709
4.788,0.19842
4.792,0.2149
4.796,0.19892
4.8,0.20628
4.804,0.18361
4.808,0.16316
4.812,0.17978
4.816,0.18588
4.82,0.13008
4.824,0.16335
4.828,0.16497
4.832,0.13476
4.836,0.10663
4.84,0.08796
4.844,0.09784
4.848,0.10008
4.852,0.063
4.856,0.05981
4.86,0.01777
4.864,0.05968
4.868,0.03959
4.872,0.01906
4.876,0.01752
4.88,0.03337
4.884,0.03463
4.888,-0.00427
4.892,2e-05
4.896,0.00496
4.9,0.00763
4.904,-0.00795
4.908,0.0014
4.912,-0.01244
4.916,-0.00459
4.92,-0.01933
4.924,-0.01979
4.928,-0.01114
4.932,-0.02748
4.936,-0.0319
4.94,-0.01152
4.944,0.01122
4.948,0.01298
4.952,-0.01524
4.956,-0.0031
4.96,-0.01094
4.964,-0.00763
4.968,-0.0332
4.972,-0.02288
4.976,-0.01334
4.98,-0.01318
4.984,0.00127
4.988,-0.00362
4.992,-0.01761
4.996,-0.02828
5.0,-0.00226
5.004,-0.0148
5.008,-0.03155
5.012,-0.00635
5.016,-0.02628
5.02,0.00749
5.024,-0.00331
5.028,-0.04519
5.032,-0.04766
5.036,-0.00185
5.04,-0.01894
5.044,-0.00424
5.048,-0.02803
5.052,-0.03038
5.056,-0.00113
5.06,-0.00605
5.064,-0.025
5.068,-0.04936
5.072,-0.01876
5.076,-0.00651
5.08,-0.0354
5.084,-0.00696
5.088,-0.00708
5.092,-0.04585
5.096,-0.03806
5.1,-0.03675
5.104,-0.01074
5.108,-0.05501
5.112,-0.01668
5.116,-0.01723
5.12,-0.01827
5.124,-0.02955
5.128,-0.00655
5.132,-0.00443
5.136,-0.02049
5.14,-0.02574
5.144,-0.01887
5.148,-0.00963
5.152,-0.00732
5.156,0.01253
5.16,-0.02505
5.164,0.00592
5.168,-0.01072
5.172,-0.03071
5.176,-0.0384
5.18,-0.01777
5.184,-0.04388
5.188,-0.03689
5.192,-0.05492
5.196,-0.01422
5.2,-0.0238
5.204,-0.01373
5.208,-0.02392
5.212,-0.0404
5.216,-0.03681
5.22,-0.01701
5.224,-0.02363
5.228,-0.01689
5.232,-0.04128
5.236,0.00586
5.24,-0.02452
5.244,-0.01011
5.248,-0.01164
5.252,-0.01454
5.256,-0.02308
5.26,-0.04104
5.264,-0.02762
5.268,-0.02928
5.272,-0.01153
5.276,-0.04308
5.28,-0.03108
5.284,-0.01705
5.288,-0.04007
5.292,-0.00328
5.296,-0.0197
5.3,-0.03241
5.304,-0.00336
5.308,-0.05662
5.312,-0.01668
5.316,0.00137
5.32,-0.02813
5.324,-0.02758
5.328,-0.0073
5.332,-0.02082
5.336,-0.00946
5.34,-0.03515
5.344,-0.0164
5.348,-0.0259
5.352,0.01418
5.356,0.02929
5.36,0.00695
5.364,0.01679
5.368,0.03937
5.372,0.03278
5.376,0.07289
5.38,0.05503
5.384,0.0734
5.388,0.08907
5.392,0.0822
5.396,0.04429
5.4,0.0555
5.404,0.0384
5.408,0.02759
5.412,0.02942
5.416,0.04138
5.42,0.01083
5.424,-0.00815
5.428,0.01756
5.432,-0.02941
5.436,-0.01754
5.44,-0.02453
5.444,-0.03975
5.448,-0.04257
5.452,-0.01418
5.456,-0.03952
5.46,-0.05011
5.464,-0.017
5.468,-0.03376
5.472,-0.01602
5.476,-0.00658
5.48,-0.0449
5.484,-0.04252
5.488,-0.0126
5.492,-0.00314
5.496,-0.0305
5.5,-0.05318
5.504,-0.05482
5.508,-0.04571
5.512,-0.10655
5.516,-0.12848
5.52,-0.13388
5.524,-0.1058
5.528,0.01225
5.532,0.17336
5.536,0.38053
5.54,0.62704
5.544,0.79265
5.548,0.88407
5.552,0.95154
5.556,0.89205
5.56,0.71941
5.564,0.51469
5.568,0.29676
5.572,0.07556
5.576,-0.07207
5.58,-0.13213
5.584,-0.16176
5.588,-0.18317
5.592,-0.11713
5.596,-0.10378
5.6,-0.05998
5.604,-0.05028
5.608,-0.02589
5.612,-0.03785
5.616,-0.02941
5.62,-0.03803
5.624,-0.04068
5.628,-0.02956
5.632,-0.03621
5.636,-0.04266
5.64,-0.02601
5.644,-0.01322
5.648,-0.02629
5.652,-0.03883
5.656,-0.02593
5.66,-0.02328
5.664,-0.03595
5.668,0.00036
5.672,-0.02307
5.676,-0.01669
5.68,-0.03149
5.684,-0.04347
5.688,-0.02483
5.692,0.00848
5.696,-0.03661
5.7,-0.02864
5.704,-0.00972
5.708,-0.0307
5.712,-0.03187
5.716,-0.0204
5.72,-0.00893
5.724,-0.03352
5.728,-0.01743
5.732,-0.00703
5.736,-0.03431
5.74,-0.00543
5.744,0.03011
5.748,0.03008
5.752,0.02002
5.756,0.0447
5.76,0.0169
5.764,0.03359
5.768,0.05782
5.772,0.03913
5.776,0.05954
5.78,0.082
5.784,0.10367
5.788,0.10001
5.792,0.12112
5.796,0.1216
5.8,0.14109
5.804,0.1615
5.808,0.1531
5.812,0.15243
5.816,0.17725
5.82,0.19401
5.824,0.19741
5.828,0.20204
5.832,0.19859
5.836,0.17767
5.84,0.20495
5.844,0.22614
5.848,0.17799
5.852,0.17387
5.856,0.1368
5.86,0.17096
5.864,0.1401
5.868,0.13419
5.872,0.14202
5.876,0.10966
5.88,0.10878
5.884,0.0907
5.888,0.05011
5.892,0.0686
5.896,0.04172
5.9,0.03024
5.904,0.03403
5.908,0.02691
5.912,0.00746
5.916,0.01834
5.92,0.00465
5.924,0.0148
5.928,0.01065
5.932,-0.02078
5.936,-0.0271
5.94,-0.00109
5.944,-0.01783
5.948,-0.0132
5.952,-0.03222
5.956,-0.04025
5.96,-0.01623
5.964,-0.03012
5.968,-0.03105
5.972,-0.05495
5.976,-0.03391
5.98,-0.05097
5.984,-0.04696
5.988,-0.01091
5.992,-0.01733
5.996,-0.02248
6.0,-0.00446
6.004,-0.01092
6.008,-0.03768
6.012,-0.01856
6.016,-0.07383
6.02,-0.0309
6.024,-0.04184
6.028,-0.00757
6.032,-0.01343
6.036,-0.02081
6.04,-0.02107
6.044,-0.00733
6.048,-0.0372
6.052,-0.02277
6.056,-0.01929
6.06,-0.0506
6.064,-0.02525
6.068,-0.05543
6.072,-0.0085
6.076,-0.02289
6.08,-0.04847
6.084,-0.02221
6.088,-0.03104
6.092,-0.04558
6.096,-0.04944
6.1,-0.01917
6.104,-0.0317
6.108,-0.00091
6.112,-0.00633
6.116,-0.02506
6.12,-0.03217
6.124,-0.02814
6.128,-0.01345
6.132,-0.03207
6.136,-0.02965
6.14,-0.02123
6.144,-0.02203
6.148,-0.00322
6.152,0.0177
6.156,-0.01476
6.16,0.00784
6.164,0.01658
6.168,0.02382
6.172,0.05195
6.176,0.04551
6.18,0.06232
6.184,0.05683
6.188,0.06973
6.192,0.06272
6.196,0.04386
6.2,0.03824
6.204,0.05049
6.208,0.01853
6.212,0.01928
6.216,0.01387
6.22,0.00148
6.224,-0.02126
6.228,-0.03992
6.232,-0.05931
6.236,-0.04118
6.24,-0.01934
6.244,-0.02463
6.248,-0.01027
6.252,-0.00967
6.256,-0.05128
6.26,-0.03075
6.264,-0.01382
6.268,-0.03321
6.272,-0.02289
6.276,-0.04657
6.28,-0.01345
6.284,-0.05048
6.288,0.00552
6.292,-0.03455
6.296,-0.02125
6.3,-0.09834
6.304,-0.08278
6.308,-0.13009
6.312,-0.13482
6.316,-0.10327
6.32,0.01271
6.324,0.1782
6.328,0.37246
6.332,0.56254
6.336,0.76843
6.34,0.90209
6.344,0.97443
6.348,0.90533
6.352,0.73079
6.356,0.51386
6.36,0.28832
6.364,0.08688
6.368,-0.05279
6.372,-0.13421
6.376,-0.22718
6.38,-0.175
6.384,-0.13203
6.388,-0.09773
6.392,-0.02006
6.396,-0.06218
6.4,-0.01675
6.404,-0.03742
6.408,-0.01103
6.412,-0.05335
6.416,-0.00269
6.42,-0.02544
6.424,0.00283
6.428,-0.02944
6.432,-0.02507
6.436,-0.00309
6.44,-0.04677
6.444,-0.03866
6.448,-0.02758
6.452,-0.04894
6.456,-0.02177
6.46,-0.03571
6.464,-0.04699
6.468,-0.02697
6.472,-0.01834
6.476,-0.01299
6.48,-0.04188
6.484,-0.01379
6.488,-0.06285
6.492,-0.01193
6.496,-0.00133
6.5,-0.01662
6.504,-0.04646
6.508,-0.03838
6.512,-0.04751
6.516,-0.02009
6.52,-0.03313
6.524,-0.02761
6.528,0.01114
6.532,-0.0001
6.536,-0.00848
6.54,-0.00023
6.544,0.04904
6.548,0.02374
6.552,0.02077
6.556,0.0352
6.56,0.06832
6.564,0.06414
6.568,0.06696
6.572,0.06149
6.576,0.11332
6.58,0.12437
6.584,0.13685
6.588,0.15275
6.592,0.11488
6.596,0.15515
6.6,0.18168
6.604,0.19312
6.608,0.19379
6.612,0.22123
6.616,0.19242
6.62,0.19532
6.624,0.1884
6.628,0.18313
6.632,0.20214
6.636,0.19968
6.64,0.18854
6.644,0.17348
6.648,0.16578
6.652,0.15217
6.656,0.1469
6.66,0.14337
6.664,0.10322
6.668,0.1051
6.672,0.12146
6.676,0.08914
6.68,0.07346
6.684,0.06204
6.688,0.06899
6.692,0.06554
6.696,0.01095
6.7,0.03787
6.704,0.04362
6.708,0.01059
6.712,0.0191
6.716,0.01244
6.72,0.01489
6.724,-0.02306
6.728,-0.00435
6.732,-0.02142
6.736,-0.01127
6.74,-0.00863
6.744,-0.02142
6.748,-0.00411
6.752,-0.01315
6.756,-0.01096
6.76,-0.04043
6.764,-0.01347
6.768,-0.01843
6.772,-0.03525
6.776,-0.01564
6.78,-0.00065
6.784,-0.02683
6.788,-0.02181
6.792,-0.0545
6.796,-0.03328
6.8,-0.01144
6.804,-0.03703
6.808,-0.01414
6.812,-0.03051
6.816,-0.00731
6.82,-0.01727
6.824,-0.05386
6.828,-0.0236
6.832,-0.03889
6.836,-0.03817
6.84,-0.01737
6.844,-0.00768
6.848,-0.03168
6.852,-0.07437
6.856,-0.04165
6.86,-0.01214
6.864,0.00641
6.868,-0.02164
6.872,0.00597
6.876,-0.02316
6.88,-0.01279
6.884,-0.00482
6.888,-0.02559
6.892,-0.03298
6.896,-0.01452
6.9,-0.03413
6.904,-0.02102
6.908,-0.03437
6.912,0.00911
6.916,-0.01791
6.92,-0.02349
6.924,-0.00604
6.928,-0.06186
6.932,-0.00397
6.936,-0.04593
6.94,-0.02515
6.944,-0.02808
6.948,-0.02591
6.952,0.01615
6.956,-0.01157
6.96,-0.03082
6.964,-0.01469
6.968,-0.04106
6.972,-0.05221
6.976,-0.02009
6.98,-0.0185
6.984,-0.00683
6.988,-0.02102
6.992,-0.01202
6.996,-0.00141
7.0,-0.04559
7.004,-0.02077
7.008,-0.00915
7.012,-0.03326
7.016,-0.00869
7.02,-0.01957
7.024,-0.00278
7.028,-0.01982
7.032,-0.03857
7.036,-0.01622
7.04,0.00767
7.044,-0.0368
7.048,-0.01908
7.052,-0.02199
7.056,-0.01471
7.06,0.00116
7.064,-0.04569
7.068,-0.02918
7.072,-0.00417
7.076,-0.00576
7.08,-0.0181
7.084,-0.01168
7.088,-0.03861
7.092,-0.014
7.096,-0.01794
7.1,0.00403
7.104,-0.00607
7.108,-0.01435
7.112,-0.01616
7.116,0.01394
7.12,-0.01288
7.124,0.02424
7.128,0.03148
7.132,0.00604
7.136,0.05727
7.14,0.0366
7.144,0.07288
7.148,0.07571
7.152,0.07419
7.156,0.09397
7.16,0.10566
7.164,0.08622
7.168,0.07283
7.172,0.06543
7.176,0.07842
7.18,0.06083
7.184,0.02648
7.188,0.05423
7.192,0.01695
7.196,-0.0138
7.2,0.00974
7.204,-0.00155
7.208,0.00623
7.212,0.00551
7.216,0.00214
7.22,-0.01238
7.224,-0.00136
7.228,-0.00638
7.232,-0.01476
7.236,-0.03113
7.24,-0.02024
7.244,0.01052
7.248,-0.03897
7.252,-0.02496
7.256,-0.0089
7.26,-0.01663
7.264,-0.00862
7.268,-0.03115
7.272,-0.00383
7.276,-0.03907
7.28,-0.06035
7.284,-0.09302
7.288,-0.13182
7.292,-0.15314
7.296,-0.07007
7.3,0.04534
7.304,0.22534
7.308,0.41471
7.312,0.63478
7.316,0.83241
7.32,0.93492
7.324,1.00941
7.328,0.89922
7.332,0.72454
7.336,0.52338
7.34,0.26735
7.344,0.07079
7.348,-0.04847
7.352,-0.14996
7.356,-0.16209
7.36,-0.21009
7.364,-0.12423
7.368,-0.06789
7.372,-0.0542
7.376,-0.02405
7.38,-0.02478
7.384,-0.01245
7.388,-0.02812
7.392,-0.02137
7.396,-0.02298
7.4,0.01611
7.404,-0.0314
7.408,0.00926
7.412,-0.00787
7.416,-0.00356
7.42,0.02466
7.424,0.0064
7.428,0.02131
7.432,-0.01856
7.436,-0.0231
7.44,0.00025
7.444,0.00455
7.448,-0.02713
7.452,0.01836
7.456,-0.00992
7.46,0.00047
7.464,0.00297
7.468,-0.04982
7.472,-0.00358
7.476,-0.03907
7.48,-0.00551
7.484,0.01292
7.488,0.02222
7.492,-0.01635
7.496,0.00271
7.5,0.00628
7.504,0.01867
7.508,0.04378
7.512,0.02636
7.516,0.05542
7.52,0.02825
7.524,0.02553
7.528,0.04018
7.532,0.05231
7.536,0.07265
7.54,0.08662
7.544,0.0801
7.548,0.09943
7.552,0.09189
7.556,0.12026
7.56,0.127
7.564,0.13934
7.568,0.17437
7.572,0.16985
7.576,0.19344
7.58,0.17852
7.584,0.17126
7.588,0.20317
7.592,0.22167
7.596,0.19739
7.6,0.2013
7.604,0.2267
7.608,0.22254
7.612,0.18887
7.616,0.21511
7.62,0.21386
7.624,0.18553
7.628,0.18258
7.632,0.17807
7.636,0.17415
7.64,0.14518
7.644,0.16959
7.648,0.13462
7.652,0.11584
7.656,0.1106
7.66,0.09894
7.664,0.08851
7.668,0.09307
7.672,0.06558
7.676,0.03214
7.68,0.0599
7.684,0.0446
7.688,0.04163
7.692,0.02691
7.696,0.01972
7.7,0.03605
7.704,0.02682
7.708,0.01994
7.712,-0.00153
7.716,-0.01336
7.72,0.00971
7.724,0.00433
7.728,-0.00428
7.732,-0.00588
7.736,0.01556
7.74,0.00035
7.744,-0.03593
7.748,0.00162
7.752,0.0214
7.756,-0.0035
7.76,0.01957
7.764,0.03625
7.768,0.01481
7.772,0.00821
7.776,-0.02165
7.78,0.01106
7.784,0.0321
7.788,-0.012
7.792,-0.01044
7.796,0.03396
7.8,0.03204
7.804,0.01596
7.808,-0.01389
7.812,0.02235
7.816,0.01498
7.82,-0.00092
7.824,0.00842
7.828,-0.00848
7.832,0.00548
7.836,-0.0047
7.84,-0.00438
7.844,-0.01166
7.848,0.00797
7.852,-0.00676
7.856,-0.00032
7.86,-0.01184
7.864,0.01431
7.868,0.00945
7.872,-0.00883
7.876,0.00145
7.88,-0.01749
7.884,0.00741
7.888,0.00399
7.892,-0.00484
7.896,0.02958
7.9,0.00189
7.904,0.00582
7.908,0.03014
7.912,-0.01585
7.916,0.03234
7.92,-0.01589
7.924,-0.00489
7.928,0.02104
7.932,0.01197
7.936,-0.01109
7.94,0.00413
7.944,-0.0115
7.948,-0.01475
7.952,0.00097
7.956,0.0185
7.96,0.00778
7.964,0.01911
7.968,0.00606
7.972,-0.00746
7.976,0.02764
7.98,0.00603
7.984,-0.00074
7.988,0.02259
7.992,0.02453
7.996,0.00245
8.0,-0.0009
8.004,-0.00018
8.008,0.0199
8.012,-0.01694
8.016,0.02246
8.02,0.01426
8.024,0.00585
8.028,0.02615
8.032,0.02678
8.036,0.02561
8.04,0.01759
8.044,0.01097
8.048,-0.0014
8.052,0.04076
8.056,-0.01762
8.06,0.03153
8.064,0.00011
8.068,0.01584
8.072,-0.00235
8.076,-0.00626
8.08,-0.01652
8.084,0.01072
8.088,0.02452
8.092,0.02506
8.096,0.02503
8.1,0.00775
8.104,0.01973
8.108,0.00613
8.112,0.04839
8.116,0.0202
8.12,0.01017
8.124,0.01318
8.128,0.02036
8.132,-0.00376
8.136,0.0056
8.14,0.03104
8.144,0.00325
8.148,0.01731
8.152,0.05008
8.156,0.04113
8.16,0.03214
8.164,0.04668
8.168,0.03917
8.172,0.10908
8.176,0.09211
8.18,0.07404
8.184,0.1199
8.188,0.10508
8.192,0.12505
8.196,0.10657
8.2,0.08842
8.204,0.09447
8.208,0.10987
8.212,0.03908
8.216,0.06685
8.22,0.03461
8.224,0.02313
8.228,0.03359
8.232,-0.00815
8.236,0.01093
8.24,0.01674
8.244,0.01866
8.248,-0.00547
8.252,0.0089
8.256,0.03763
8.26,-0.00233
8.264,0.0296
8.268,0.02812
8.272,0.01318
8.276,0.00174
8.28,0.03239
8.284,0.02506
8.288,0.02574
8.292,0.02437
8.296,0.03445
8.3,-0.00144
8.304,0.00063
8.308,-0.02688
8.312,-0.07432
8.316,-0.09211
8.32,-0.10426
8.324,-0.04631
8.328,0.09693
8.332,0.25531
8.336,0.4858
8.34,0.66448
8.344,0.86072
8.348,0.98071
8.352,1.00532
8.356,0.89782
8.36,0.72735
8.364,0.52827
8.368,0.28169
8.372,0.08072
8.376,-0.05192
8.38,-0.08582
8.384,-0.14589
8.388,-0.12201
8.392,-0.08282
8.396,-0.01093
8.4,-0.00798
8.404,0.03145
8.408,0.02009
8.412,0.01408
8.416,0.00241
8.42,0.01946
8.424,-0.01667
8.428,0.03976
8.432,0.02264
8.436,0.02065
8.44,0.02843
8.444,0.00894
8.448,0.01652
8.452,0.01875
8.456,0.0221
8.46,0.01343
8.464,0.0291
8.468,-0.00886
8.472,0.04064
8.476,0.01193
8.48,0.02442
8.484,0.0036
8.488,0.03675
8.492,0.02193
8.496,0.02624
8.5,0.01693
8.504,0.01471
8.508,0.05635
8.512,0.01636
8.516,0.03387
8.52,0.00908
8.524,0.02462
8.528,0.01864
8.532,0.02505
8.536,0.06037
8.54,0.08009
8.544,0.0544
8.548,0.05724
8.552,0.08728
8.556,0.04788
8.56,0.07299
8.564,0.11015
8.568,0.08197
8.572,0.10383
8.576,0.13532
8.58,0.13937
8.584,0.14788
8.588,0.17647
8.592,0.18417
8.596,0.17454
8.6,0.19275
8.604,0.20372
8.608,0.21502
8.612,0.23357
8.616,0.21564
8.62,0.23783
8.624,0.24018
8.628,0.24395
8.632,0.25973
8.636,0.24438
8.64,0.22392
8.644,0.23096
8.648,0.19651
8.652,0.22061
8.656,0.21702
8.66,0.18717
8.664,0.17524
8.668,0.17157
8.672,0.16954
8.676,0.1416
8.68,0.16478
8.684,0.12974
8.688,0.14481
8.692,0.1168
8.696,0.10725
8.7,0.07317
8.704,0.09198
8.708,0.09378
8.712,0.07046
8.716,0.06518
8.72,0.04518
8.724,0.06052
8.728,0.04075
8.732,0.01712
8.736,0.07281
8.74,0.05842
8.744,0.03606
8.748,0.02799
8.752,0.02795
8.756,0.03176
8.76,0.00973
8.764,0.03748
8.768,0.01534
8.772,0.01089
8.776,0.04241
8.78,0.0567
8.784,-0.00259
8.788,0.02966
8.792,0.035
8.796,0.03799
8.8,0.02937
8.804,0.01107
8.808,0.01359
8.812,0.03519
8.816,0.03039
8.82,0.04475
8.824,0.02737
8.828,0.06372
8.832,0.02395
8.836,0.01625
8.84,0.04156
8.844,0.0096
8.848,0.04332
8.852,0.05547
8.856,0.02314
8.86,0.02239
8.864,0.01914
8.868,0.03141
8.872,-0.00087
8.876,0.00594
8.88,0.01751
8.884,0.03044
8.888,0.03314
8.892,0.03805
8.896,0.02109
8.9,0.04225
8.904,0.0461
8.908,0.03048
8.912,0.0315
8.916,0.00927
8.92,0.0378
8.924,0.03899
8.928,0.05264
8.932,0.01862
8.936,0.04929
8.94,0.01035
8.944,0.02447
8.948,0.06462
8.952,0.03727
8.956,0.01597
8.96,0.01553
8.964,0.01046
8.968,0.0793
8.972,0.02206
8.976,0.06304
8.98,0.02488
8.984,0.02822
8.988,0.00911
8.992,0.03168
8.996,0.03114
9.0,0.02903
9.004,0.01522
9.008,0.04084
9.012,0.04278
9.016,0.04166
9.02,0.05155
9.024,0.0765
9.028,0.07372
9.032,0.09246
9.036,0.12982
9.04,0.11211
9.044,0.10902
9.048,0.1291
9.052,0.11458
9.056,0.11567
9.06,0.09824
9.064,0.12122
9.068,0.08937
9.072,0.08732
9.076,0.09728
9.08,0.03913
9.084,0.05303
9.088,0.02816
9.092,0.04272
9.096,0.04739
9.1,0.01918
9.104,0.02448
9.108,0.04402
9.112,0.03786
9.116,0.03546
9.12,0.0258
9.124,0.02876
9.128,0.03223
9.132,0.03228
9.136,0.03272
9.14,0.04362
9.144,0.02318
9.148,0.0433
9.152,0.04191
9.156,0.02986
9.16,0.02882
9.164,0.04503
9.168,0.01095
9.172,-0.07116
9.176,-0.0804
9.18,-0.08237
9.184,-0.01544
9.188,0.1024
9.192,0.23067
9.196,0.46886
9.2,0.64761
9.204,0.85991
9.208,1.01192
9.212,1.0291
9.216,0.93546
9.22,0.71859
9.224,0.52355
9.228,0.29034
9.232,0.08785
9.236,-0.04743
9.24,-0.13111
9.244,-0.13933
9.248,-0.12923
9.252,-0.06902
9.256,-0.0391
9.26,-0.00088
9.264,0.03542
9.268,0.01905
9.272,0.0438
9.276,0.05347
9.28,0.01871
9.284,0.03813
9.288,0.02775
9.292,0.01159
9.296,0.02499
9.3,0.04435
9.304,0.03774
9.308,0.0343
9.312,0.04741
9.316,0.03908
9.32,0.00737
9.324,0.01321
9.328,0.06415
9.332,0.03655
9.336,0.03948
9.34,0.00129
9.344,0.01901
9.348,0.0081
9.352,0.05466
9.356,0.04615
9.36,0.03292
9.364,0.01531
9.368,0.03614
9.372,0.02224
9.376,0.06215
9.38,0.03575
9.384,0.07083
9.388,0.05585
9.392,0.00857
9.396,0.0607
9.4,0.04823
9.404,0.06793
9.408,0.08424
9.412,0.09487
9.416,0.08674
9.42,0.08851
9.424,0.07477
9.428,0.12601
9.432,0.10117
9.436,0.13315
9.44,0.16157
9.444,0.1255
9.448,0.16957
9.452,0.17602
9.456,0.19261
9.46,0.20899
9.464,0.2109
9.468,0.23045
9.472,0.2289
9.476,0.23179
9.48,0.27743
9.484,0.25778
9.488,0.25727
9.492,0.2517
9.496,0.23453
9.5,0.23729
9.504,0.22565
9.508,0.23075
9.512,0.22642
9.516,0.23548
9.52,0.19554
9.524,0.19776
9.528,0.18759
9.532,0.14155
9.536,0.16773
9.54,0.12877
9.544,0.1187
9.548,0.11256
9.552,0.11071
9.556,0.11485
9.56,0.07759
9.564,0.08121
9.568,0.1027
9.572,0.08631
9.576,0.06944
9.58,0.05165
9.584,0.07096
9.588,0.07894
9.592,0.03727
9.596,0.07366
9.6,0.03167
9.604,0.02554
9.608,0.0309
9.612,0.02348
9.616,0.04846
9.62,0.03249
9.624,-0.00073
9.628,0.02806
9.632,0.03545
9.636,0.0046
9.64,0.05604
9.644,0.02676
9.648,0.01811
9.652,0.03809
9.656,0.02667
9.66,0.05014
9.664,0.0414
9.668,0.0674
9.672,1e-05
9.676,0.00823
9.68,0.03203
9.684,0.04051
9.688,0.03607
9.692,0.00853
9.696,0.03896
9.7,0.03923
9.704,0.02534
9.708,0.01079
9.712,0.01889
9.716,0.03228
9.72,0.03956
9.724,0.04846
9.728,0.0191
9.732,0.02158
9.736,0.02347
9.74,0.00084
9.744,0.02428
9.748,-0.00518
9.752,0.02226
9.756,0.03044
9.76,0.02171
9.764,0.02991
9.768,0.02166
9.772,0.00013
9.776,-0.00122
9.78,0.02596
9.784,0.02305
9.788,0.01339
9.792,0.01761
9.796,0.00637
9.8,0.03763
9.804,0.04693
9.808,0.04275
9.812,0.0266
9.816,0.03706
9.82,0.02736
9.824,0.04171
9.828,0.01075
9.832,0.0507
9.836,0.03113
9.84,0.01559
9.844,0.02926
9.848,0.03578
9.852,0.03166
9.856,0.02657
9.86,0.03978
9.864,0.05923
9.868,0.03475
9.872,0.02779
9.876,0.05591
9.88,-0.00477
9.884,0.0261
9.888,0.02562
9.892,-0.00988
9.896,0.02184
9.9,0.00936
9.904,0.02686
9.908,0.01427
9.912,0.01085
9.916,0.02425
9.92,0.02632
9.924,0.02955
9.928,0.02973
9.932,0.02336
9.936,0.02824
9.94,0.02748
9.944,0.01151
9.948,0.00512
9.952,0.0263
9.956,0.04028
9.96,0.00392
9.964,0.03485
9.968,0.02424
9.972,0.02427
9.976,0.00594
9.98,0.04827
9.984,0.04844
9.988,0.00838
9.992,0.01006
9.996,0.02813
