t_seg,ecg_mV
0.0,0.02658
0.004,0.04447
0.008,0.02949
0.012,0.03314
0.016,0.02177
0.02,0.04869
0.024,0.02996
0.028,0.05385
0.032,0.04461
0.036,0.02862
0.04,0.05925
0.044,0.03678
0.048,0.00609
0.052,0.00926
0.056,0.03223
0.06,0.05446
0.064,0.02119
0.068,0.02245
0.072,0.03839
0.076,0.01368
0.08,0.01795
0.084,0.04908
0.088,0.0364
0.092,0.04163
0.096,0.03861
0.1,0.03455
0.104,0.03252
0.108,0.03642
0.112,0.04351
0.116,0.03459
0.12,0.0222
0.124,0.03739
0.128,0.05003
0.132,0.03012
0.136,0.05809
0.14,0.00851
0.144,0.02984
0.148,0.02535
0.152,0.0408
0.156,0.02512
0.16,0.01798
0.164,0.03754
0.168,0.01751
0.172,0.03565
0.176,0.02552
0.18,0.02279
0.184,0.04634
0.188,0.05179
0.192,0.05712
0.196,0.03365
0.2,0.04759
0.204,0.01241
0.208,0.02345
0.212,0.01841
0.216,0.01779
0.22,0.01596
0.224,-0.01178
0.228,0.00645
0.232,0.03428
0.236,0.04603
0.24,0.03179
0.244,0.02795
0.248,0.04229
0.252,0.04151
0.256,0.00581
0.26,0.02406
0.264,0.03537
0.268,0.05264
0.272,0.03418
0.276,0.06029
0.28,0.04395
0.284,0.02198
0.288,0.02296
0.292,0.03698
0.296,0.02045
0.3,0.05117
0.304,0.03641
0.308,0.04528
0.312,0.03082
0.316,0.04186
0.32,0.03787
0.324,0.0327
0.328,0.05014
0.332,0.06203
0.336,0.0394
0.34,0.01911
0.344,0.03246
0.348,0.00255
0.352,0.05234
0.356,0.04672
0.36,0.03871
0.364,0.00274
0.368,0.03621
0.372,0.03847
0.376,0.06749
0.38,0.04362
0.384,0.01268
0.388,0.03482
0.392,0.01122
0.396,0.03713
0.4,0.03887
0.404,0.02078
0.408,0.0394
0.412,0.04214
0.416,0.02563
0.42,0.04259
0.424,0.02256
0.428,0.03053
0.432,0.03563
0.436,0.0346
0.44,0.01332
0.444,0.04484
0.448,-0.01354
0.452,0.02964
0.456,0.04477
0.46,0.01553
0.464,0.06224
0.468,0.02895
0.472,0.02201
0.476,0.01163
0.48,0.02275
0.484,0.04004
0.488,0.0521
0.492,0.04629
0.496,0.04819
0.5,0.06831
0.504,0.09003
0.508,0.0919
0.512,0.13604
0.516,0.12404
0.52,0.12545
0.524,0.15291
0.528,0.12078
0.532,0.13486
0.536,0.1217
0.54,0.12744
0.544,0.08629
0.548,0.09047
0.552,0.05674
0.556,0.0869
0.56,0.0868
0.564,0.07013
0.568,0.01898
0.572,0.04383
0.576,0.0443
0.58,0.04631
0.584,0.02498
0.588,0.01073
0.592,0.00775
0.596,0.03372
0.6,0.01111
0.604,0.01669
0.608,0.00077
0.612,0.0329
0.616,0.02713
0.62,0.03078
0.624,0.03508
0.628,0.05044
0.632,0.00766
0.636,0.05198
0.64,0.01879
0.644,-0.03009
0.648,-0.05178
0.652,-0.09393
0.656,-0.06705
0.66,-0.02227
0.664,0.05056
0.668,0.25159
0.672,0.4461
0.676,0.66221
0.68,0.84672
0.684,0.99699
0.688,1.02528
0.692,0.94153
0.696,0.77725
0.7,0.5589
0.704,0.31817
0.708,0.10017
0.712,-0.0435
0.716,-0.09947
0.72,-0.13076
0.724,-0.1563
0.728,-0.06886
0.732,-0.04986
0.736,0.00604
0.74,0.03118
0.744,0.04218
0.748,0.00691
0.752,-0.01397
0.756,0.03644
0.76,0.05169
0.764,0.02176
0.768,0.03474
0.772,-0.00265
0.776,0.00735
0.78,0.04848
0.784,0.05804
0.788,0.01591
0.792,0.0407
0.796,0.00714
0.8,0.00116
0.804,0.02114
0.808,0.00763
0.812,-0.00107
0.816,0.02005
0.82,0.03103
0.824,0.02115
0.828,0.04522
0.832,0.04527
0.836,0.02823
0.84,0.01372
0.844,0.02525
0.848,0.05085
0.852,0.0163
0.856,-0.00017
0.86,0.01508
0.864,0.02076
0.868,0.02361
0.872,0.05969
0.876,0.01537
0.88,0.05712
0.884,0.07491
0.888,0.08998
0.892,0.08962
0.896,0.07288
0.9,0.06127
0.904,0.10739
0.908,0.10909
0.912,0.13843
0.916,0.13336
0.92,0.14461
0.924,0.15341
0.928,0.18022
0.932,0.18924
0.936,0.20702
0.94,0.21182
0.944,0.22552
0.948,0.23891
0.952,0.22424
0.956,0.22641
0.96,0.23127
0.964,0.23714
0.968,0.21565
0.972,0.24331
0.976,0.23643
0.98,0.25458
0.984,0.21678
0.988,0.21972
0.992,0.20467
0.996,0.19685
1.0,0.18331
1.004,0.18089
1.008,0.15819
1.012,0.13953
1.016,0.13962
1.02,0.13726
1.024,0.10978
1.028,0.10391
1.032,0.11969
1.036,0.0915
1.04,0.0912
1.044,0.07977
1.048,0.03049
1.052,0.04718
1.056,0.05018
1.06,0.05265
1.064,0.00764
1.068,0.00974
1.072,0.03344
1.076,0.03402
1.08,0.03529
1.084,0.01082
1.088,0.03524
1.092,0.02937
1.096,0.01195
1.1,0.00662
1.104,0.03161
1.108,0.01847
1.112,0.02093
1.116,0.02636
1.12,0.03143
1.124,0.01819
1.128,0.00779
1.132,0.00979
1.136,0.03481
1.14,0.01683
1.144,0.04413
1.148,0.00518
1.152,0.04417
1.156,0.03247
1.16,0.05848
1.164,0.05741
1.168,0.07821
1.172,0.09916
1.176,0.09036
1.18,0.07991
1.184,0.0923
1.188,0.13659
1.192,0.10925
1.196,0.08753
1.2,0.07556
1.204,0.0827
1.208,0.06287
1.212,0.07686
1.216,0.02691
1.22,0.07177
1.224,0.018
1.228,0.02777
1.232,0.03121
1.236,0.00195
1.24,0.03633
1.244,0.03295
1.248,0.01303
1.252,-0.01877
1.256,0.00868
1.26,0.03744
1.264,0.00618
1.268,0.02336
1.272,-0.01963
1.276,0.01601
1.28,0.01621
1.284,0.01994
1.288,0.02095
1.292,0.00284
1.296,-0.00344
1.3,0.01897
1.304,-0.01125
1.308,-0.06694
1.312,-0.12724
1.316,-0.10266
1.32,-0.03364
1.324,0.07248
1.328,0.22532
1.332,0.44022
1.336,0.64825
1.34,0.84182
1.344,0.9702
1.348,1.03752
1.352,0.94175
1.356,0.74699
1.36,0.52853
1.364,0.29695
1.368,0.09486
1.372,-0.06361
1.376,-0.11397
1.38,-0.15522
1.384,-0.08505
1.388,-0.12214
1.392,-0.04664
1.396,-0.03963
1.4,0.01207
1.404,-0.0251
1.408,0.00254
1.412,0.02651
1.416,-0.00036
1.42,-0.01351
1.424,0.0033
1.428,-0.02641
1.432,0.00928
1.436,-0.00437
1.44,0.01971
1.444,-0.01408
1.448,-0.0073
1.452,0.02616
1.456,0.02021
1.46,-0.00922
1.464,-0.00238
1.468,-0.0127
1.472,-0.0015
1.476,-0.00067
1.48,-0.01178
1.484,0.02338
1.488,0.01792
1.492,-0.00594
1.496,0.00753
1.5,0.01562
1.504,0.00242
1.508,-0.0013
1.512,0.02764
1.516,0.02415
1.52,0.01898
1.524,0.02061
1.528,0.02329
1.532,0.0306
1.536,0.0412
1.54,0.04604
1.544,0.03899
1.548,0.04503
1.552,0.06366
1.556,0.06648
1.56,0.08962
1.564,0.10306
1.568,0.12102
1.572,0.12767
1.576,0.10944
1.58,0.13671
1.584,0.15266
1.588,0.15072
1.592,0.16602
1.596,0.14914
1.6,0.20646
1.604,0.20943
1.608,0.18872
1.612,0.21668
1.616,0.23431
1.62,0.20964
1.624,0.2098
1.628,0.22635
1.632,0.20748
1.636,0.23056
1.64,0.20768
1.644,0.22978
1.648,0.20325
1.652,0.19378
1.656,0.17886
1.66,0.19017
1.664,0.15347
1.668,0.12695
1.672,0.15466
1.676,0.11268
1.68,0.11173
1.684,0.08258
1.688,0.07363
1.692,0.08568
1.696,0.04687
1.7,0.04581
1.704,0.0727
1.708,0.06451
1.712,0.02087
1.716,0.01345
1.72,0.0145
1.724,0.00711
1.728,0.03395
1.732,-0.00375
1.736,-0.00633
1.74,-0.00741
1.744,0.03273
1.748,-0.00263
1.752,0.01176
1.756,-0.00997
1.76,0.01599
1.764,0.03035
1.768,0.01101
1.772,-0.00153
1.776,-0.01304
1.78,-0.00644
1.784,0.00159
1.788,-0.01386
1.792,-0.00667
1.796,-0.03148
1.8,-0.0178
1.804,0.01022
1.808,-0.01622
1.812,-0.02299
1.816,-0.01843
1.82,0.02457
1.824,-0.02081
1.828,0.00349
1.832,-0.02877
1.836,0.0056
1.84,-0.01703
1.844,-0.01655
1.848,-0.00301
1.852,0.01291
1.856,0.00205
1.86,-0.01588
1.864,-0.00227
1.868,-0.01855
1.872,0.00186
1.876,-0.00578
1.88,-0.02738
1.884,-0.00122
1.888,-0.01207
1.892,0.00294
1.896,-0.00593
1.9,-0.00161
1.904,0.00267
1.908,-0.01762
1.912,0.00783
1.916,-0.02951
1.92,0.00502
1.924,-0.01056
1.928,-0.00902
1.932,-0.01842
1.936,-0.01786
1.94,-0.01639
1.944,0.02625
1.948,-0.01618
1.952,0.00423
1.956,0.00509
1.96,-0.00468
1.964,0.02867
1.968,-0.01178
1.972,-0.02958
1.976,-0.02478
1.98,-0.0019
1.984,-0.02355
1.988,-0.00402
1.992,-0.01758
1.996,-0.02454
2.0,-0.01944
2.004,0.00021
2.008,-0.00542
2.012,-0.0052
2.016,-0.01042
2.02,0.00628
2.024,0.02054
2.028,-0.00583
2.032,-0.02866
2.036,-0.03584
2.04,-0.03567
2.044,0.00439
2.048,-0.02524
2.052,0.01024
2.056,0.00106
2.06,0.01913
2.064,0.02488
2.068,0.04183
2.072,0.03787
2.076,0.0543
2.08,0.08329
2.084,0.10108
2.088,0.12172
2.092,0.10644
2.096,0.10466
2.1,0.05626
2.104,0.06942
2.108,0.06025
2.112,0.05893
2.116,0.02542
2.12,0.02608
2.124,0.03176
2.128,0.00276
2.132,0.02269
2.136,0.02005
2.14,-0.00321
2.144,-0.03727
2.148,0.0097
2.152,-0.0051
2.156,-0.03282
2.16,-0.03572
2.164,-0.01477
2.168,-0.02515
2.172,-0.01691
2.176,0.0014
2.18,-0.01546
2.184,0.0048
2.188,-0.02416
2.192,-0.03187
2.196,-0.01159
2.2,0.00199
2.204,-0.02003
2.208,-0.04703
2.212,-0.07223
2.216,-0.11717
2.22,-0.1316
2.224,-0.10634
2.228,-0.01023
2.232,0.16867
2.236,0.37898
2.24,0.58732
2.244,0.77301
2.248,0.93689
2.252,0.98256
2.256,0.95563
2.26,0.73979
2.264,0.55367
2.268,0.33681
2.272,0.12492
2.276,-0.06051
2.28,-0.14621
2.284,-0.1839
2.288,-0.18062
2.292,-0.12444
2.296,-0.09546
2.3,-0.05731
2.304,-0.0242
2.308,-0.02345
2.312,-0.01649
2.316,-0.02957
2.32,-0.03284
2.324,0.02444
2.328,-0.01784
2.332,-0.01794
2.336,-0.06061
2.34,-0.05118
2.344,-0.01046
2.348,-0.00379
2.352,-0.01992
2.356,-0.00241
2.36,-0.01909
2.364,-0.02709
2.368,-0.01751
2.372,-0.00551
2.376,-0.0114
2.38,-0.02324
2.384,-0.02644
2.388,0.00957
2.392,-0.04096
2.396,0.01226
2.4,-0.01904
2.404,-0.01162
2.408,-0.01641
2.412,0.00713
2.416,-0.00967
2.42,-0.02645
2.424,-0.03393
2.428,-0.01258
2.432,-0.00255
2.436,-0.0031
2.44,0.0211
2.444,0.02053
2.448,0.00702
2.452,0.02684
2.456,0.01593
2.46,0.02872
2.464,0.05424
2.468,0.08527
2.472,0.05262
2.476,0.0747
2.48,0.11488
2.484,0.1117
2.488,0.1327
2.492,0.13632
2.496,0.13865
2.5,0.15097
2.504,0.162
2.508,0.15501
2.512,0.18668
2.516,0.16667
2.52,0.16458
2.524,0.19705
2.528,0.20566
2.532,0.16368
2.536,0.18959
2.54,0.18864
2.544,0.20412
2.548,0.19052
2.552,0.18749
2.556,0.16507
2.56,0.16058
2.564,0.15713
2.568,0.17615
2.572,0.10424
2.576,0.10014
2.58,0.11755
2.584,0.08972
2.588,0.0671
2.592,0.07231
2.596,0.03986
2.6,0.04597
2.604,0.04301
2.608,0.02776
2.612,0.03229
2.616,0.01521
2.62,0.01568
2.624,-0.01143
2.628,-0.01597
2.632,0.0158
2.636,0.01505
2.64,0.00175
2.644,-0.01723
2.648,-0.02538
2.652,-0.01714
2.656,-0.03597
2.66,0.00848
2.664,-0.00096
2.668,-0.03145
2.672,-0.0382
2.676,-0.02765
2.68,-0.01976
2.684,-0.03233
2.688,-0.02916
2.692,-0.03414
2.696,-0.00628
2.7,-0.01166
2.704,-0.00804
2.708,-0.04347
2.712,-0.02218
2.716,-0.02512
2.72,-0.03564
2.724,-0.03753
2.728,-0.04293
2.732,-0.02501
2.736,-0.00972
2.74,-0.02429
2.744,-0.05887
2.748,-0.04863
2.752,-0.03416
2.756,-0.04021
2.76,-0.0278
2.764,-0.01267
2.768,-0.03057
2.772,-0.05091
2.776,-0.03716
2.78,-0.02221
2.784,-0.02023
2.788,0.0103
2.792,-0.01695
2.796,-0.0434
2.8,-0.03205
2.804,-0.01208
2.808,-0.01194
2.812,-0.02518
2.816,-0.00216
2.82,-0.02963
2.824,-0.01846
2.828,-0.03337
2.832,0.01092
2.836,0.01235
2.84,-0.0418
2.844,-0.01825
2.848,-0.0118
2.852,-0.03721
2.856,-0.03724
2.86,-0.02913
2.864,-0.02986
2.868,-0.02346
2.872,-0.02722
2.876,-0.01816
2.88,-0.01116
2.884,-0.01267
2.888,-0.00181
2.892,0.01753
2.896,0.00846
2.9,-0.00981
2.904,0.00885
2.908,0.04043
2.912,0.03688
2.916,0.04262
2.92,0.07429
2.924,0.07658
2.928,0.07433
2.932,0.08885
2.936,0.1053
2.94,0.0323
2.944,0.04579
2.948,0.04554
2.952,0.02605
2.956,0.00049
2.96,-0.00891
2.964,-0.00132
2.968,-0.02108
2.972,-0.02481
2.976,-0.04122
2.98,-0.02841
2.984,-0.03608
2.988,-0.02072
2.992,-0.04547
2.996,-0.05667
3.0,-0.00193
3.004,-0.02976
3.008,-0.0446
3.012,-0.04083
3.016,-0.01411
3.02,-0.02691
3.024,-0.04725
3.028,-0.01156
3.032,-0.02343
3.036,-0.03327
3.04,-0.02378
3.044,-0.03729
3.048,-0.08337
3.052,-0.12496
3.056,-0.14203
3.06,-0.10306
3.064,-0.03789
3.068,0.11793
3.072,0.29286
3.076,0.52681
3.08,0.73212
3.084,0.89761
3.088,0.96134
3.092,0.93161
3.096,0.77881
3.1,0.59154
3.104,0.32112
3.108,0.14457
3.112,-0.05528
3.116,-0.13773
3.12,-0.19264
3.124,-0.17958
3.128,-0.16471
3.132,-0.12363
3.136,-0.07943
3.14,-0.03736
3.144,-0.04067
3.148,-0.02315
3.152,-0.03959
3.156,-0.01429
3.16,-0.03531
3.164,-0.03359
3.168,-0.04319
3.172,-0.02544
3.176,-0.03446
3.18,-0.02098
3.184,-0.01678
3.188,-0.03092
3.192,-0.04295
3.196,-0.03122
3.2,-0.04338
3.204,-0.04473
3.208,-0.03583
3.212,-0.05357
3.216,-0.02731
3.22,-0.05788
3.224,-0.05153
3.228,-0.02195
3.232,-0.03394
3.236,-0.05005
3.24,-0.01721
3.244,-0.01579
3.248,-0.00618
3.252,-0.0051
3.256,-0.02384
3.26,-0.0325
3.264,-0.05379
3.268,-0.02271
3.272,-0.01129
3.276,-0.03061
3.28,-0.02039
3.284,-0.01405
3.288,0.02743
3.292,0.04574
3.296,0.04075
3.3,0.05375
3.304,0.04448
3.308,0.0678
3.312,0.09016
3.316,0.09124
3.32,0.11519
3.324,0.12631
3.328,0.10763
3.332,0.08655
3.336,0.14392
3.34,0.15993
3.344,0.14785
3.348,0.16342
3.352,0.1838
3.356,0.19434
3.36,0.18747
3.364,0.19191
3.368,0.19129
3.372,0.18817
3.376,0.20866
3.38,0.18971
3.384,0.20156
3.388,0.18689
3.392,0.1639
3.396,0.15192
3.4,0.14158
3.404,0.14217
3.408,0.10735
3.412,0.10981
3.416,0.10018
3.42,0.08106
3.424,0.06994
3.428,0.06922
3.432,0.03764
3.436,0.04033
3.44,0.03516
3.444,0.03188
3.448,0.02627
3.452,0.02462
3.456,0.01018
3.46,-0.02005
3.464,-0.00761
3.468,-0.01027
3.472,-0.01633
3.476,0.01391
3.48,-0.03154
3.484,-0.02632
3.488,-0.01148
3.492,-0.01325
3.496,-0.03381
3.5,-0.02925
3.504,-0.02646
3.508,-0.01349
3.512,-0.02599
3.516,-0.0531
3.52,-0.05162
3.524,-0.03542
3.528,-0.04158
3.532,-0.02319
3.536,-0.03161
3.54,-0.03276
3.544,-0.03865
3.548,-0.01313
3.552,-0.01451
3.556,-0.05018
3.56,-0.04539
3.564,-0.02441
3.568,-0.01691
3.572,-0.05006
3.576,-0.02591
3.58,-0.03486
3.584,-0.02526
3.588,-0.04437
3.592,-0.0209
3.596,0.00251
3.6,-0.01149
3.604,-0.05714
3.608,-0.02525
3.612,-0.02413
3.616,-0.02972
3.62,-0.0655
3.624,-0.04156
3.628,-0.02098
3.632,-0.03877
3.636,-0.03343
3.64,-0.06268
3.644,-0.05352
3.648,-0.02241
3.652,-0.04307
3.656,-0.03542
3.66,-0.01789
3.664,-0.01381
3.668,-0.033
3.672,-0.04139
3.676,-0.03172
3.68,-0.06061
3.684,-0.02509
3.688,-0.04098
3.692,-0.00825
3.696,-0.01211
3.7,-0.05112
3.704,-0.05028
3.708,-0.03511
3.712,-0.04445
3.716,-0.0135
3.72,0.00457
3.724,-0.02442
3.728,-0.04902
3.732,-0.03836
3.736,-0.02279
3.74,-0.02544
3.744,-0.02853
3.748,-0.04113
3.752,-0.04855
3.756,-0.0306
3.76,-0.03089
3.764,-0.03922
3.768,-0.05347
3.772,-0.04909
3.776,-0.02351
3.78,-0.02525
3.784,-0.05404
3.788,-0.03015
3.792,-0.02323
3.796,-0.00644
3.8,0.00068
3.804,-0.00487
3.808,0.00299
3.812,-0.00075
3.816,0.00944
3.82,0.01859
3.824,0.06059
3.828,0.05258
3.832,0.07325
3.836,0.06493
3.84,0.08195
3.844,0.07896
3.848,0.04757
3.852,0.03249
3.856,0.04716
3.86,0.04932
3.864,0.01546
3.868,-0.01752
3.872,0.01002
3.876,-0.04569
3.88,-0.00717
3.884,-0.03556
3.888,-0.01438
3.892,-0.00888
3.896,-0.02185
3.9,-0.02174
3.904,-0.024
3.908,0.00081
3.912,-0.0285
3.916,-0.0194
3.92,-0.01162
3.924,-0.05879
3.928,-0.00928
3.932,-0.00638
3.936,-0.03824
3.94,-0.00993
3.944,-0.01548
3.948,-0.0114
3.952,-0.04559
3.956,-0.06183
3.96,-0.08451
3.964,-0.1363
3.968,-0.15165
3.972,-0.09235
3.976,-0.00195
3.98,0.1517
3.984,0.35236
3.988,0.58841
3.992,0.74269
3.996,0.94569
4.0,0.94269
4.004,0.90079
4.008,0.75576
4.012,0.53415
4.016,0.30358
4.02,0.10032
4.024,-0.05237
4.028,-0.17513
4.032,-0.16188
4.036,-0.16965
4.04,-0.12199
4.044,-0.08481
4.048,-0.06998
4.052,-0.03427
4.056,-0.03368
4.06,-0.02758
4.064,0.00167
4.068,-0.00727
4.072,-0.0428
4.076,-0.01153
4.08,-0.00695
4.084,-0.03036
4.088,0.00103
4.092,-0.00337
4.096,-0.01517
4.1,-0.01159
4.104,-0.03309
4.108,0.00812
4.112,-0.01819
4.116,-0.02478
4.12,-0.00557
4.124,-0.03145
4.128,-0.01351
4.132,0.0114
4.136,-0.01667
4.14,0.01578
4.144,-0.01584
4.148,-0.03208
4.152,-0.05008
4.156,-0.01185
4.16,0.00845
4.164,-0.01772
4.168,-0.02962
4.172,-0.00838
4.176,-0.00858
4.18,0.01858
4.184,0.0139
4.188,0.00485
4.192,0.00494
4.196,0.01509
4.2,0.03147
4.204,0.03002
4.208,0.02273
4.212,0.04308
4.216,0.05239
4.22,0.07043
4.224,0.09042
4.228,0.10212
4.232,0.09319
4.236,0.12836
4.24,0.13227
4.244,0.15625
4.248,0.1382
4.252,0.17215
4.256,0.15729
4.26,0.16665
4.264,0.19068
4.268,0.19289
4.272,0.20518
4.276,0.21788
4.28,0.22336
4.284,0.20012
4.288,0.21433
4.292,0.21843
4.296,0.19024
4.3,0.17823
4.304,0.20075
4.308,0.16828
4.312,0.1687
4.316,0.12881
4.32,0.13124
4.324,0.12348
4.328,0.10226
4.332,0.09588
4.336,0.05382
4.34,0.08228
4.344,0.05008
4.348,0.04268
4.352,0.04763
4.356,0.01666
4.36,0.02947
4.364,-0.00845
4.368,0.00351
4.372,0.00936
4.376,0.00488
4.38,0.00606
4.384,0.02601
4.388,0.02887
4.392,0.00401
4.396,-0.01207
4.4,0.01951
4.404,-0.00507
4.408,-0.01988
4.412,-0.02438
4.416,-0.00135
4.42,-0.02293
4.424,-0.00787
4.428,-0.00253
4.432,-0.01777
4.436,-0.02692
4.44,-0.00196
4.444,0.00506
4.448,-0.02119
4.452,-0.01448
4.456,-0.02704
4.46,-0.01427
4.464,-0.02394
4.468,-0.01859
4.472,-0.01264
4.476,-0.03397
4.48,0.0112
4.484,-0.00329
4.488,0.00687
4.492,-0.01164
4.496,-0.00525
4.5,-0.02143
4.504,-0.0276
4.508,-0.01237
4.512,-0.01999
4.516,0.00279
4.52,0.02758
4.524,-0.01007
4.528,-0.03091
4.532,-0.00531
4.536,-0.00259
4.54,-0.01575
4.544,-0.01691
4.548,-0.01401
4.552,-0.02175
4.556,-0.02914
4.56,-0.00442
4.564,-0.00284
4.568,-0.00379
4.572,-0.02198
4.576,-0.02376
4.58,-0.02219
4.584,-0.01302
4.588,-0.01095
4.592,0.00022
4.596,-0.00384
4.6,0.01323
4.604,-0.01637
4.608,-0.01899
4.612,-0.01511
4.616,-0.03042
4.62,-0.00954
4.624,-0.03608
4.628,-0.01245
4.632,0.00158
4.636,-0.02532
4.64,0.01009
4.644,-0.02622
4.648,0.00586
4.652,-0.02533
4.656,-0.00012
4.66,-0.02063
4.664,-0.01609
4.668,-0.00344
4.672,-0.00849
4.676,-0.03752
4.68,-0.01421
4.684,-0.00116
4.688,-0.00626
4.692,0.0389
4.696,0.00399
4.7,0.04357
4.704,0.04704
4.708,0.04661
4.712,0.06787
4.716,0.10482
4.72,0.10139
4.724,0.12368
4.728,0.05814
4.732,0.12465
4.736,0.08072
4.74,0.07168
4.744,0.06143
4.748,0.04206
4.752,0.01267
4.756,0.02708
4.76,0.01899
4.764,0.00167
4.768,0.00938
4.772,0.00452
4.776,-0.01305
4.78,-0.0377
4.784,0.00812
4.788,0.03097
4.792,-0.04238
4.796,0.01991
4.8,-0.0014
4.804,-0.01353
4.808,-0.0055
4.812,0.00691
4.816,0.00471
4.82,0.00223
4.824,-0.01268
4.828,-0.02008
4.832,-0.01668
4.836,-0.01994
4.84,-0.05015
4.844,-0.0464
4.848,-0.06964
4.852,-0.16184
4.856,-0.11513
4.86,-0.06635
4.864,0.07929
4.868,0.2135
4.872,0.45192
4.876,0.64759
4.88,0.8519
4.884,0.97688
4.888,0.98057
4.892,0.90165
4.896,0.69261
4.9,0.48342
4.904,0.25002
4.908,0.09452
4.912,-0.06428
4.916,-0.1428
4.92,-0.17656
4.924,-0.13285
4.928,-0.13814
4.932,-0.0656
4.936,-0.04237
4.94,-0.04384
4.944,-0.0087
4.948,-0.01043
4.952,0.01718
4.956,-0.00075
4.96,0.00172
4.964,-0.01489
4.968,0.00382
4.972,-0.00265
4.976,0.02426
4.98,-0.00908
4.984,-0.02827
4.988,-0.00328
4.992,0.00361
4.996,0.0236
5.0,0.02863
5.004,0.00957
5.008,0.00233
5.012,-0.01108
5.016,0.01019
5.02,0.00781
5.024,-0.00766
5.028,0.01596
5.032,0.02524
5.036,-0.0127
5.04,-0.00084
5.044,9e-05
5.048,-0.00621
5.052,0.01266
5.056,0.01097
5.06,0.01352
5.064,-0.00663
5.068,0.01853
5.072,0.01937
5.076,0.01516
5.08,0.04411
5.084,0.04052
5.088,0.04503
5.092,0.06341
5.096,0.0624
5.1,0.08501
5.104,0.09021
5.108,0.10714
5.112,0.09909
5.116,0.11623
5.12,0.1127
5.124,0.14802
5.128,0.14246
5.132,0.18142
5.136,0.17254
5.14,0.19261
5.144,0.20382
5.148,0.21125
5.152,0.21621
5.156,0.21978
5.16,0.22891
5.164,0.20404
5.168,0.22205
5.172,0.21581
5.176,0.2342
5.18,0.203
5.184,0.21431
5.188,0.20776
5.192,0.18265
5.196,0.19392
5.2,0.18256
5.204,0.15559
5.208,0.18269
5.212,0.13903
5.216,0.12988
5.22,0.09842
5.224,0.11644
5.228,0.10044
5.232,0.0885
5.236,0.08172
5.24,0.05431
5.244,0.03827
5.248,0.04913
5.252,0.03428
5.256,0.02255
5.26,0.03313
5.264,0.03543
5.268,0.01647
5.272,0.01445
5.276,0.03219
5.28,-0.00338
5.284,0.01551
5.288,0.00489
5.292,0.00374
5.296,0.01681
5.3,0.01668
5.304,0.02707
5.308,-0.001
5.312,0.00048
5.316,0.01833
5.32,0.02303
5.324,0.02687
5.328,-0.00116
5.332,0.0142
5.336,-0.01766
5.34,0.0035
5.344,-0.01649
5.348,0.0079
5.352,0.00176
5.356,0.00065
5.36,-0.01718
5.364,-0.01309
5.368,0.01754
5.372,0.01147
5.376,0.01519
5.38,0.00954
5.384,0.04633
5.388,0.00542
5.392,0.00084
5.396,0.00779
5.4,0.03816
5.404,-0.00068
5.408,0.02261
5.412,-0.01301
5.416,0.00807
5.42,-0.00666
5.424,0.01433
5.428,0.01233
5.432,0.01865
5.436,0.02843
5.44,0.0251
5.444,0.05261
5.448,0.04635
5.452,0.06197
5.456,0.08166
5.46,0.09166
5.464,0.10342
5.468,0.06847
5.472,0.10756
5.476,0.11223
5.48,0.11481
5.484,0.12139
5.488,0.10525
5.492,0.08455
5.496,0.06933
5.5,0.06899
5.504,0.05831
5.508,0.01677
5.512,0.04323
5.516,0.04872
5.52,0.00784
5.524,0.03233
5.528,0.00545
5.532,0.01506
5.536,0.01898
5.54,0.00914
5.544,0.01816
5.548,0.01963
5.552,0.0348
5.556,0.004
5.56,-0.01949
5.564,0.01976
5.568,-0.00251
5.572,0.04902
5.576,0.01291
5.58,0.00341
5.584,-0.0027
5.588,0.01216
5.592,-0.00139
5.596,-0.0085
5.6,-0.08553
5.604,-0.08372
5.608,-0.11269
5.612,-0.02619
5.616,0.13911
5.62,0.31886
5.624,0.51592
5.628,0.73225
5.632,0.90412
5.636,1.01326
5.64,0.983
5.644,0.86596
5.648,0.68033
5.652,0.44268
5.656,0.2587
5.66,0.06787
5.664,-0.07374
5.668,-0.14729
5.672,-0.17118
5.676,-0.11073
5.68,-0.07834
5.684,-0.01
5.688,-0.01293
5.692,0.03144
5.696,0.02154
5.7,0.04985
5.704,0.00436
5.708,0.01374
5.712,0.00969
5.716,0.00873
5.72,0.00505
5.724,0.01422
5.728,0.02343
5.732,0.01294
5.736,0.03785
5.74,0.01744
5.744,0.02279
5.748,0.02964
5.752,0.04625
5.756,0.02
5.76,0.01324
5.764,0.01544
5.768,0.00342
5.772,0.00627
5.776,0.01008
5.78,0.03223
5.784,0.04971
5.788,0.01555
5.792,0.0129
5.796,0.02115
5.8,0.03237
5.804,0.04223
5.808,0.01337
5.812,0.05726
5.816,0.02032
5.82,0.03743
5.824,0.00449
5.828,0.08166
5.832,0.03798
5.836,0.06221
5.84,0.06712
5.844,0.07238
5.848,0.07737
5.852,0.10107
5.856,0.10314
5.86,0.1214
5.864,0.16394
5.868,0.14174
5.872,0.15183
5.876,0.15805
5.88,0.18621
5.884,0.18599
5.888,0.20059
5.892,0.19912
5.896,0.21945
5.9,0.24764
5.904,0.22188
5.908,0.23173
5.912,0.25185
5.916,0.23514
5.92,0.2515
5.924,0.21025
5.928,0.22437
5.932,0.24295
5.936,0.22165
5.94,0.24683
5.944,0.20998
5.948,0.19665
5.952,0.17452
5.956,0.19063
5.96,0.18427
5.964,0.14892
5.968,0.15681
5.972,0.12673
5.976,0.11007
5.98,0.09438
5.984,0.09426
5.988,0.11348
5.992,0.06873
5.996,0.08416
6.0,0.07163
6.004,0.05164
6.008,0.06356
6.012,0.05512
6.016,0.07654
6.02,0.0416
6.024,0.06249
6.028,0.02531
6.032,0.02851
6.036,0.01328
6.04,0.04365
6.044,0.00694
6.048,0.02924
6.052,0.01327
6.056,0.02555
6.06,0.02698
6.064,0.04557
6.068,0.01135
6.072,0.01721
6.076,0.01378
6.08,0.02359
6.084,0.0273
6.088,0.03471
6.092,0.04619
6.096,0.01239
6.1,0.0318
6.104,0.02643
6.108,0.03801
6.112,0.02678
6.116,0.02947
6.12,0.02743
6.124,0.05629
6.128,-0.00606
6.132,0.01725
6.136,0.01035
6.14,0.03192
6.144,0.05434
6.148,0.0423
6.152,0.02602
6.156,0.03136
6.16,0.00943
6.164,0.02801
6.168,0.01251
6.172,0.03485
6.176,0.01618
6.18,0.03935
6.184,0.01531
6.188,0.01196
6.192,0.0234
6.196,0.03791
6.2,0.02333
6.204,0.03991
6.208,0.04678
6.212,0.0165
6.216,0.00283
6.22,0.01486
6.224,0.02568
6.228,0.03847
6.232,0.03403
6.236,-0.00174
6.24,0.04533
6.244,0.03604
6.248,0.01729
6.252,0.03451
6.256,0.02078
6.26,0.01836
6.264,0.0385
6.268,0.03008
6.272,0.02965
6.276,0.06598
6.28,0.06684
6.284,0.06438
6.288,0.05539
6.292,0.0828
6.296,0.11038
6.3,0.12238
6.304,0.0814
6.308,0.12135
6.312,0.12593
6.316,0.11696
6.32,0.1192
6.324,0.11362
6.328,0.10634
6.332,0.05987
6.336,0.05734
6.34,0.06858
6.344,0.03973
6.348,0.04234
6.352,0.07009
6.356,0.03327
6.36,0.05108
6.364,-0.00357
6.368,0.03418
6.372,0.04261
6.376,0.04753
6.38,0.05004
6.384,0.01924
6.388,0.02164
6.392,0.04065
6.396,0.02697
6.4,0.03623
6.404,0.00944
6.408,0.03915
6.412,0.02379
6.416,0.03415
6.42,0.02181
6.424,-0.00578
6.428,0.0111
6.432,-0.04301
6.436,-0.10242
6.44,-0.08929
6.444,-0.02664
6.448,0.05125
6.452,0.18742
6.456,0.38994
6.46,0.63938
6.464,0.81768
6.468,0.95355
6.472,1.01971
6.476,0.95851
6.48,0.8205
6.484,0.6051
6.488,0.36485
6.492,0.16928
6.496,-0.01047
6.5,-0.11257
6.504,-0.14306
6.508,-0.10944
6.512,-0.08333
6.516,-0.0383
6.52,-0.00332
6.524,0.00475
6.528,0.04388
6.532,0.00621
6.536,0.05375
6.54,0.01782
6.544,0.03689
6.548,0.05296
6.552,0.02096
6.556,0.05686
6.56,0.02367
6.564,0.00707
6.568,0.01864
6.572,0.02817
6.576,0.02398
6.58,0.02731
6.584,0.04516
6.588,0.01614
6.592,0.04207
6.596,0.05087
6.6,0.01573
6.604,0.01407
6.608,0.04264
6.612,0.05746
6.616,0.03184
6.62,0.04621
6.624,0.01749
6.628,0.01983
6.632,0.01154
6.636,0.01844
6.64,0.01747
6.644,0.05912
6.648,0.02068
6.652,0.06882
6.656,0.0494
6.66,0.05984
6.664,0.06455
6.668,0.08242
6.672,0.08872
6.676,0.10427
6.68,0.08403
6.684,0.09928
6.688,0.11135
6.692,0.11798
6.696,0.14012
6.7,0.1637
6.704,0.1371
6.708,0.15842
6.712,0.16795
6.716,0.18034
6.72,0.19398
6.724,0.17663
6.728,0.23045
6.732,0.23327
6.736,0.22026
6.74,0.23165
6.744,0.23578
6.748,0.21434
6.752,0.24671
6.756,0.2766
6.76,0.26934
6.764,0.22927
6.768,0.2295
6.772,0.2233
6.776,0.21069
6.78,0.19565
6.784,0.23008
6.788,0.17406
6.792,0.20354
6.796,0.16474
6.8,0.16615
6.804,0.13161
6.808,0.12421
6.812,0.10905
6.816,0.10948
6.82,0.10828
6.824,0.10249
6.828,0.07587
6.832,0.08342
6.836,0.07566
6.84,0.06267
6.844,0.04777
6.848,0.0491
6.852,0.06936
6.856,0.03584
6.86,0.05751
6.864,0.05622
6.868,0.01566
6.872,0.02921
6.876,0.04758
6.88,0.0359
6.884,0.03992
6.888,0.04192
6.892,0.00945
6.896,0.0484
6.9,0.02896
6.904,0.03205
6.908,0.03549
6.912,0.04137
6.916,0.02632
6.92,0.05121
6.924,0.03231
6.928,0.03116
6.932,0.01116
6.936,0.0466
6.94,0.04313
6.944,0.01526
6.948,0.04304
6.952,0.03818
6.956,0.0428
6.96,0.00689
6.964,0.02831
6.968,0.01223
6.972,0.06101
6.976,0.04517
6.98,0.02905
6.984,0.033
6.988,0.01918
6.992,0.01753
6.996,0.02361
7.0,0.01679
7.004,0.041
7.008,0.00905
7.012,0.01118
7.016,0.01895
7.02,0.03183
7.024,0.0076
7.028,0.05064
7.032,0.00167
7.036,0.02623
7.04,0.0202
7.044,0.0477
7.048,0.03181
7.052,0.03204
7.056,0.02272
7.06,0.03218
7.064,0.04407
7.068,0.04741
7.072,0.02622
7.076,0.00298
7.08,0.04394
7.084,0.03891
7.088,0.02976
7.092,0.02138
7.096,0.02601
7.1,0.0458
7.104,0.06202
7.108,0.00572
7.112,0.02945
7.116,0.05177
7.12,0.02885
7.124,0.01893
7.128,0.02902
7.132,0.04173
7.136,0.00491
7.14,0.03461
7.144,0.01034
7.148,0.02092
7.152,0.0167
7.156,0.04258
7.16,0.03113
7.164,0.03373
7.168,0.07053
7.172,0.05644
7.176,0.07031
7.18,0.08025
7.184,0.0862
7.188,0.12015
7.192,0.09571
7.196,0.10219
7.2,0.12278
7.204,0.11809
7.208,0.10878
7.212,0.11669
7.216,0.14145
7.22,0.06996
7.224,0.11182
7.228,0.09893
7.232,0.0544
7.236,0.03806
7.24,0.08259
7.244,0.07993
7.248,0.01239
7.252,0.04547
7.256,2e-05
7.26,0.01126
7.264,0.02146
7.268,0.00857
7.272,0.04279
7.276,0.03303
7.28,0.03863
7.284,0.03353
7.288,0.01786
7.292,0.00859
7.296,0.02064
7.3,0.0221
7.304,0.04035
7.308,0.01065
7.312,0.00798
7.316,-0.00415
7.32,-0.02386
7.324,-0.08463
7.328,-0.07557
7.332,-0.07665
7.336,-0.05206
7.34,0.08443
7.344,0.24104
7.348,0.43341
7.352,0.60695
7.356,0.86181
7.36,0.98541
7.364,1.04844
7.368,0.91924
7.372,0.7915
7.376,0.56413
7.38,0.34235
7.384,0.13695
7.388,-0.01683
7.392,-0.10284
7.396,-0.13514
7.4,-0.10177
7.404,-0.07863
7.408,-0.03132
7.412,-0.02047
7.416,0.01158
7.42,0.01689
7.424,0.03706
7.428,0.03297
7.432,0.01468
7.436,0.02471
7.44,0.06835
7.444,0.02877
7.448,0.00441
7.452,0.01327
7.456,0.04676
7.46,0.01679
7.464,0.01219
7.468,0.04676
7.472,0.05668
7.476,0.02877
7.48,0.02244
7.484,0.01939
7.488,0.00638
7.492,0.0142
7.496,0.02389
7.5,0.02304
7.504,0.04725
7.508,0.00386
7.512,0.02236
7.516,0.03242
7.52,0.04578
7.524,0.0126
7.528,0.00854
7.532,0.03658
7.536,0.02616
7.54,0.04584
7.544,0.05149
7.548,0.02835
7.552,0.03877
7.556,0.02642
7.56,0.06213
7.564,0.0601
7.568,0.08226
7.572,0.04606
7.576,0.10471
7.58,0.1081
7.584,0.10655
7.588,0.12634
7.592,0.1379
7.596,0.15299
7.6,0.14171
7.604,0.17757
7.608,0.17339
7.612,0.20447
7.616,0.22064
7.62,0.23356
7.624,0.2274
7.628,0.23709
7.632,0.22047
7.636,0.21719
7.64,0.2341
7.644,0.23579
7.648,0.23765
7.652,0.22006
7.656,0.24243
7.66,0.22995
7.664,0.17409
7.668,0.19505
7.672,0.21214
7.676,0.18862
7.68,0.15965
7.684,0.16916
7.688,0.15441
7.692,0.12104
7.696,0.12768
7.7,0.11951
7.704,0.10247
7.708,0.09555
7.712,0.1
7.716,0.07353
7.72,0.04761
7.724,0.05523
7.728,0.05467
7.732,0.06733
7.736,0.0362
7.74,0.01736
7.744,0.01641
7.748,0.03219
7.752,0.02965
7.756,0.02997
7.76,0.02302
7.764,0.03391
7.768,0.00187
7.772,0.00716
7.776,0.00766
7.78,0.02348
7.784,0.01864
7.788,0.02918
7.792,0.0282
7.796,0.02247
7.8,-0.00074
7.804,0.01076
7.808,0.03505
7.812,-0.00289
7.816,0.0102
7.82,0.03341
7.824,0.01997
7.828,0.01598
7.832,-0.00809
7.836,0.04775
7.84,0.03316
7.844,0.07728
7.848,0.043
7.852,0.04178
7.856,0.10325
7.86,0.06692
7.864,0.1267
7.868,0.11909
7.872,0.10861
7.876,0.11646
7.88,0.10554
7.884,0.06679
7.888,0.0727
7.892,0.06918
7.896,0.07453
7.9,0.03545
7.904,0.03997
7.908,0.02517
7.912,0.02216
7.916,0.03627
7.92,-0.00395
7.924,0.00617
7.928,0.02364
7.932,-0.00364
7.936,0.02894
7.94,0.00899
7.944,0.01105
7.948,0.01237
7.952,0.01508
7.956,-0.00515
7.96,0.0128
7.964,0.01135
7.968,0.04421
7.972,0.01321
7.976,0.00986
7.98,-0.00163
7.984,0.0086
7.988,-0.01741
7.992,-0.07944
7.996,-0.10155
8.0,-0.1039
8.004,-0.05536
8.008,0.0297
8.012,0.19208
8.016,0.41986
8.02,0.62073
8.024,0.82393
8.028,0.93766
8.032,1.01893
8.036,0.94135
8.04,0.78453
8.044,0.5687
8.048,0.33994
8.052,0.12202
8.056,-0.0106
8.06,-0.12303
8.064,-0.19038
8.068,-0.13334
8.072,-0.10966
8.076,-0.05757
8.08,-0.03362
8.084,-0.00084
8.088,0.00336
8.092,0.01008
8.096,0.01942
8.1,0.00516
8.104,0.01225
8.108,0.03071
8.112,0.00043
8.116,0.0061
8.12,0.00849
8.124,0.04052
8.128,0.01687
8.132,-0.00497
8.136,0.02055
8.14,-0.00289
8.144,-0.00066
8.148,0.00932
8.152,0.00259
8.156,0.00448
8.16,0.00941
8.164,-0.0021
8.168,0.02477
8.172,-0.00336
8.176,-0.00221
8.18,0.02057
8.184,0.02506
8.188,0.01885
8.192,0.01327
8.196,-0.01082
8.2,0.02613
8.204,0.04766
8.208,0.0042
8.212,0.03019
8.216,0.00842
8.22,0.02246
8.224,0.03262
8.228,0.05339
8.232,0.03793
8.236,0.07329
8.24,0.05021
8.244,0.07545
8.248,0.07893
8.252,0.08631
8.256,0.10196
8.26,0.10757
8.264,0.12885
8.268,0.13602
8.272,0.16396
8.276,0.13837
8.28,0.17819
8.284,0.22686
8.288,0.20183
8.292,0.21523
8.296,0.20947
8.3,0.2245
8.304,0.21694
8.308,0.21937
8.312,0.20715
8.316,0.20389
8.32,0.19922
8.324,0.22922
8.328,0.21146
8.332,0.19467
8.336,0.19809
8.34,0.18548
8.344,0.16633
8.348,0.14712
8.352,0.14509
8.356,0.13727
8.36,0.13462
8.364,0.10552
8.368,0.12012
8.372,0.09419
8.376,0.08494
8.38,0.07188
8.384,0.03886
8.388,0.05474
8.392,0.04725
8.396,0.04059
8.4,0.02232
8.404,0.03047
8.408,0.02456
8.412,0.01627
8.416,0.02851
8.42,0.02134
8.424,-0.00057
8.428,0.00221
8.432,-0.01302
8.436,0.03792
8.44,-0.01934
8.444,0.00243
8.448,0.01144
8.452,-0.02036
8.456,0.00176
8.46,-0.0004
8.464,0.02212
8.468,0.00119
8.472,0.03069
8.476,0.01783
8.48,-0.0037
8.484,-0.02342
8.488,-0.02832
8.492,0.01199
8.496,-0.0221
8.5,0.01422
8.504,0.02448
8.508,-0.01303
8.512,-0.01617
8.516,-0.01418
8.52,0.00387
8.524,0.00883
8.528,0.00772
8.532,-0.02029
8.536,0.00184
8.54,0.02305
8.544,-0.01567
8.548,0.0061
8.552,-0.00545
8.556,0.03531
8.56,-0.01632
8.564,-0.01193
8.568,-0.01556
8.572,0.01608
8.576,-0.00723
8.58,0.01089
8.584,0.01912
8.588,-0.0194
8.592,-0.01733
8.596,-0.02142
8.6,0.00819
8.604,-0.01856
8.608,0.00848
8.612,0.01791
8.616,0.00602
8.62,-0.0118
8.624,-0.00946
8.628,-0.02159
8.632,0.01584
8.636,0.02805
8.64,-0.01545
8.644,0.02436
8.648,0.03899
8.652,0.04894
8.656,0.05575
8.66,0.08267
8.664,0.0668
8.668,0.12013
8.672,0.10731
8.676,0.10004
8.68,0.06292
8.684,0.09771
8.688,0.06165
8.692,0.041
8.696,0.03302
8.7,0.03666
8.704,-0.00976
8.708,0.03491
8.712,-0.01441
8.716,0.0187
8.72,0.02928
8.724,-0.01429
8.728,-0.02956
8.732,-0.02924
8.736,-0.00192
8.74,-0.01109
8.744,-0.00103
8.748,-0.01202
8.752,-0.0033
8.756,0.00979
8.76,0.00641
8.764,-0.02197
8.768,-0.03089
8.772,0.01421
8.776,0.00186
8.78,-0.02987
8.784,-0.01769
8.788,-0.04905
8.792,-0.06535
8.796,-0.09204
8.8,-0.14293
8.804,-0.11798
8.808,-0.01521
8.812,0.13973
8.816,0.31364
8.82,0.51136
8.824,0.7347
8.828,0.89676
8.832,0.9848
8.836,0.96494
8.84,0.83006
8.844,0.61701
8.848,0.3859
8.852,0.14909
8.856,-0.03461
8.86,-0.15188
8.864,-0.17153
8.868,-0.19091
8.872,-0.1614
8.876,-0.10621
8.88,-0.0754
8.884,-0.04359
8.888,-0.02602
8.892,0.00368
8.896,-0.00743
8.9,-0.01084
8.904,0.01018
8.908,-0.01083
8.912,0.00464
8.916,-0.02773
8.92,-0.02416
8.924,-0.03299
8.928,-0.00529
8.932,-0.02282
8.936,-0.03023
8.94,-0.0361
8.944,-0.0258
8.948,-0.01641
8.952,-0.02607
8.956,-0.01191
8.96,-0.01232
8.964,-0.0149
8.968,0.01085
8.972,-0.02406
8.976,-0.01405
8.98,-0.01407
8.984,-0.01861
8.988,-0.0326
8.992,-0.01337
8.996,0.0116
9.0,-0.00836
9.004,-0.03918
9.008,0.01428
9.012,-0.00023
9.016,0.01558
9.02,0.00817
9.024,0.02146
9.028,0.02136
9.032,0.02062
9.036,0.03786
9.04,0.02004
9.044,0.04477
9.048,0.06148
9.052,0.04517
9.056,0.08468
9.06,0.07165
9.064,0.09649
9.068,0.09521
9.072,0.12536
9.076,0.1273
9.08,0.16068
9.084,0.15114
9.088,0.19151
9.092,0.18581
9.096,0.18682
9.1,0.19241
9.104,0.21855
9.108,0.19796
9.112,0.19373
9.116,0.20593
9.12,0.20093
9.124,0.2015
9.128,0.23191
9.132,0.1891
9.136,0.16968
9.14,0.16253
9.144,0.16041
9.148,0.14294
9.152,0.13926
9.156,0.14552
9.16,0.11541
9.164,0.07806
9.168,0.07207
9.172,0.06683
9.176,0.0637
9.18,0.06337
9.184,0.05915
9.188,0.05164
9.192,0.02997
9.196,0.0334
9.2,0.0087
9.204,0.0117
9.208,-0.00686
9.212,-0.02021
9.216,-0.03394
9.22,-0.00959
9.224,-0.00054
9.228,-0.02495
9.232,-0.01816
9.236,-0.01735
9.24,0.00205
9.244,-0.0116
9.248,-0.02037
9.252,-0.029
9.256,0.00623
9.26,-0.01224
9.264,-0.01708
9.268,-0.02154
9.272,-0.02804
9.276,-0.03505
9.28,-0.02517
9.284,-0.03648
9.288,-0.0352
9.292,-0.04513
9.296,-0.043
9.3,-0.01556
9.304,-0.02381
9.308,-0.02075
9.312,-0.03593
9.316,-0.03986
9.32,-0.02331
9.324,-0.01737
9.328,0.01033
9.332,-0.04225
9.336,-0.01422
9.34,-0.04053
9.344,-0.01644
9.348,-0.03766
9.352,-0.02263
9.356,-0.03037
9.36,-0.02624
9.364,0.0007
9.368,-0.0277
9.372,-0.01927
9.376,-0.02203
9.38,-0.00969
9.384,-0.01691
9.388,-0.01322
9.392,0.00766
9.396,0.01907
9.4,0.04176
9.404,0.06348
9.408,0.07919
9.412,0.06032
9.416,0.0519
9.42,0.08658
9.424,0.08141
9.428,0.08438
9.432,0.07089
9.436,0.09426
9.44,0.03686
9.444,0.00166
9.448,-0.00213
9.452,-0.01002
9.456,0.00129
9.46,-0.04076
9.464,-0.03481
9.468,-0.01729
9.472,-0.01129
9.476,0.00223
9.48,-0.04231
9.484,-0.03933
9.488,-0.04232
9.492,-0.05355
9.496,0.00887
9.5,-0.01459
9.504,-0.01897
9.508,-0.02389
9.512,-0.0272
9.516,-0.03948
9.52,-0.03901
9.524,-0.04481
9.528,-0.0282
9.532,-0.04935
9.536,-0.05808
9.54,-0.10457
9.544,-0.12289
9.548,-0.14557
9.552,-0.11796
9.556,-0.01188
9.56,0.16967
9.564,0.38004
9.568,0.57483
9.572,0.77493
9.576,0.92141
9.58,0.98183
9.584,0.90126
9.588,0.72927
9.592,0.52638
9.596,0.2914
9.6,0.05994
9.604,-0.05851
9.608,-0.17259
9.612,-0.23282
9.616,-0.18548
9.62,-0.13414
9.624,-0.08155
9.628,-0.05483
9.632,-0.05652
9.636,-0.03702
9.64,-0.02308
9.644,-0.02285
9.648,-0.02865
9.652,-0.01957
9.656,-0.02796
9.66,-0.01801
9.664,-0.04221
9.668,-0.03835
9.672,-0.05342
9.676,-0.04602
9.68,-0.01511
9.684,-0.00481
9.688,-0.0346
9.692,-0.01173
9.696,-0.05225
9.7,-0.02926
9.704,-0.00458
9.708,-0.03321
9.712,0.01271
9.716,-0.05731
9.72,-0.03176
9.724,-0.02615
9.728,-0.04118
9.732,-0.01868
9.736,-0.03471
9.74,-0.03884
9.744,-0.00881
9.748,0.00091
9.752,-0.00034
9.756,0.00836
9.76,-0.02974
9.764,-0.00479
9.768,-0.00272
9.772,-0.01482
9.776,-0.01112
9.78,0.00491
9.784,0.02273
9.788,0.05599
9.792,0.07886
9.796,0.04853
9.8,0.07863
9.804,0.05491
9.808,0.08243
9.812,0.07733
9.816,0.07215
9.82,0.13083
9.824,0.12654
9.828,0.12567
9.832,0.15721
9.836,0.14501
9.84,0.18024
9.844,0.16603
9.848,0.18812
9.852,0.18512
9.856,0.19265
9.86,0.18881
9.864,0.19388
9.868,0.16477
9.872,0.15818
9.876,0.15999
9.88,0.17645
9.884,0.1653
9.888,0.14764
9.892,0.11033
9.896,0.12063
9.9,0.11781
9.904,0.11413
9.908,0.10574
9.912,0.09512
9.916,0.08056
9.92,0.06995
9.924,0.02063
9.928,0.01251
9.932,0.01838
9.936,0.0297
9.94,0.03148
9.944,0.00559
9.948,0.02986
9.952,-0.01856
9.956,-0.004
9.96,-0.01348
9.964,-0.02479
9.968,0.00892
9.972,-0.02939
9.976,-0.05091
9.98,-0.06178
9.984,-0.01359
9.988,-0.03201
9.992,-0.02271
9.996,-0.04826
