t_seg,ecg_mV
0.0,-0.01066
0.004,-0.0334
0.008,-0.02369
0.012,-0.00135
0.016,-0.05613
0.02,-0.03134
0.024,-0.02719
0.028,-0.01148
0.032,-0.02235
0.036,-0.02671
0.04,-0.02638
0.044,-0.02558
0.048,-0.02157
0.052,-0.00595
0.056,-0.03873
0.06,-0.03623
0.064,-0.02437
0.068,-0.03646
0.072,-0.03092
0.076,-0.05362
0.08,-0.03882
0.084,-0.02556
0.088,-0.01089
0.092,-0.03925
0.096,-0.00559
0.1,-0.02071
0.104,-0.04586
0.108,-0.03695
0.112,-0.03937
0.116,-0.05937
0.12,-0.03469
0.124,-0.01608
0.128,-0.01503
0.132,-0.0356
0.136,-0.01931
0.14,-0.01789
0.144,-0.02022
0.148,-0.02553
0.152,-0.05385
0.156,-0.04331
0.16,-0.02952
0.164,-0.03491
0.168,-0.04189
0.172,-0.05185
0.176,-0.02272
0.18,-0.01041
0.184,-0.00319
0.188,-0.02262
0.192,-0.03341
0.196,-0.02564
0.2,-0.00466
0.204,0.03404
0.208,-0.03643
0.212,-0.02122
0.216,0.0063
0.22,-0.01816
0.224,-0.03467
0.228,-0.02151
0.232,-0.04479
0.236,-0.02165
0.24,-0.01907
0.244,-0.03665
0.248,-0.03247
0.252,-0.02983
0.256,-0.04088
0.26,-0.03678
0.264,-0.03632
0.268,-0.02915
0.272,-0.03385
0.276,-0.02231
0.28,-0.02371
0.284,0.00141
0.288,-0.01885
0.292,0.00595
0.296,-0.01692
0.3,-0.01645
0.304,-0.01829
0.308,-0.03309
0.312,-0.01515
0.316,-0.02456
0.32,-0.02064
0.324,-0.00678
0.328,-0.01086
0.332,-0.0128
0.336,0.01108
0.34,0.02997
0.344,0.04224
0.348,0.02916
0.352,0.06612
0.356,0.03227
0.36,0.03991
0.364,0.06138
0.368,0.06
0.372,0.08647
0.376,0.08855
0.38,0.05135
0.384,0.04059
0.388,0.023
0.392,0.01472
0.396,-0.00657
0.4,0.02145
0.404,-0.00543
0.408,0.01143
0.412,-0.03108
0.416,-0.01028
0.42,-0.01018
0.424,-0.02433
0.428,0.00596
0.432,-0.02092
0.436,-0.01906
0.44,0.00765
0.444,-0.02171
0.448,-0.03281
0.452,-0.0572
0.456,-0.01183
0.46,-0.04178
0.464,-0.04343
0.468,-0.01037
0.472,0.01015
0.476,-0.01574
0.48,-0.03902
0.484,-0.05279
0.488,-0.08012
0.492,-0.11438
0.496,-0.14942
0.5,-0.11376
0.504,-0.00175
0.508,0.08485
0.512,0.27366
0.516,0.51752
0.52,0.69916
0.524,0.8798
0.528,0.97901
0.532,0.94874
0.536,0.80884
0.54,0.60799
0.544,0.38114
0.548,0.17368
0.552,-0.00573
0.556,-0.14903
0.56,-0.20803
0.564,-0.16596
0.568,-0.14405
0.572,-0.07613
0.576,-0.08055
0.58,-0.04077
0.584,-0.02537
0.588,0.00434
0.592,-0.02481
0.596,-0.02335
0.6,-0.01906
0.604,-0.01353
0.608,-0.01643
0.612,-0.01163
0.616,-0.03097
0.62,-0.00396
0.624,-0.02745
0.628,-0.03431
0.632,0.00557
0.636,-0.01943
0.64,-0.03371
0.644,-0.0205
0.648,0.00312
0.652,-0.02021
0.656,-0.03071
0.66,-0.03483
0.664,-0.00424
0.668,-0.02555
0.672,0.001
0.676,-0.01481
0.68,-0.01646
0.684,-0.00255
0.688,-0.00541
0.692,-0.02051
0.696,-0.00319
0.7,-0.0191
0.704,-0.00736
0.708,0.01006
0.712,-0.01088
0.716,0.01639
0.72,0.0151
0.724,0.06696
0.728,0.01801
0.732,0.02156
0.736,0.03682
0.74,0.0558
0.744,0.04918
0.748,0.06974
0.752,0.06783
0.756,0.10444
0.76,0.10439
0.764,0.1194
0.768,0.13942
0.772,0.14616
0.776,0.13826
0.78,0.16949
0.784,0.15545
0.788,0.14012
0.792,0.1815
0.796,0.2021
0.8,0.22382
0.804,0.19732
0.808,0.199
0.812,0.21686
0.816,0.20629
0.82,0.18431
0.824,0.20799
0.828,0.19099
0.832,0.19514
0.836,0.15263
0.84,0.17372
0.844,0.16616
0.848,0.14115
0.852,0.11799
0.856,0.09822
0.86,0.09606
0.864,0.09236
0.868,0.08874
0.872,0.07954
0.876,0.04287
0.88,0.06992
0.884,0.0596
0.888,0.04553
0.892,0.03114
0.896,0.05363
0.9,0.02797
0.904,0.00391
0.908,-0.00518
0.912,-0.01204
0.916,-0.01511
0.92,0.00685
0.924,0.02405
0.928,-0.04774
0.932,-0.00036
0.936,0.00198
0.94,-0.00846
0.944,0.00955
0.948,-0.00995
0.952,-0.0335
0.956,0.00384
0.96,0.01132
0.964,-0.02193
0.968,-0.01114
0.972,-0.01143
0.976,-0.01144
0.98,-0.03526
0.984,0.00769
0.988,-0.01672
0.992,0.00395
0.996,-0.01436
1.0,0.00106
1.004,-0.01703
1.008,-0.02697
1.012,-0.01801
1.016,-0.01716
1.02,-0.01306
1.024,-0.01405
1.028,0.00292
1.032,-0.02217
1.036,-0.01535
1.04,0.02406
1.044,0.00017
1.048,-0.01277
1.052,0.00308
1.056,-0.02867
1.06,-0.01163
1.064,-0.01815
1.068,-0.01578
1.072,-0.00855
1.076,-0.02015
1.08,-0.00017
1.084,0.00824
1.088,-0.01446
1.092,0.01755
1.096,-0.01555
1.1,-0.02003
1.104,-0.02501
1.108,-0.00981
1.112,0.00258
1.116,-0.0132
1.12,-0.00965
1.124,-0.01929
1.128,-0.0584
1.132,0.00103
1.136,-0.03504
1.14,-0.01087
1.144,0.00258
1.148,-0.00689
1.152,-0.00321
1.156,0.01571
1.16,-0.01918
1.164,-0.00133
1.168,0.00482
1.172,-0.02863
1.176,-0.00987
1.18,-0.0142
1.184,-0.01445
1.188,0.0097
1.192,-0.01269
1.196,0.0031
1.2,-0.00115
1.204,-0.01128
1.208,0.00043
1.212,0.0164
1.216,0.0004
1.22,0.01031
1.224,-0.03246
1.228,-0.00461
1.232,0.00998
1.236,0.01149
1.24,0.00947
1.244,0.00503
1.248,0.00044
1.252,0.01594
1.256,-0.01474
1.26,-0.01668
1.264,0.01554
1.268,0.01629
1.272,-0.0025
1.276,-0.02712
1.28,0.00338
1.284,0.01156
1.288,-0.00257
1.292,-0.01238
1.296,-0.00512
1.3,-0.01685
1.304,-0.03571
1.308,0.00426
1.312,0.01363
1.316,0.02169
1.32,0.00581
1.324,0.03524
1.328,0.0301
1.332,0.03689
1.336,0.06233
1.34,0.05619
1.344,0.08993
1.348,0.08452
1.352,0.0761
1.356,0.07656
1.36,0.08442
1.364,0.10039
1.368,0.06737
1.372,0.06743
1.376,0.06929
1.38,0.03987
1.384,0.03621
1.388,0.00523
1.392,0.02513
1.396,0.00567
1.4,0.01336
1.404,0.02447
1.408,0.00976
1.412,8e-05
1.416,0.00769
1.42,-0.00742
1.424,0.00045
1.428,-0.04323
1.432,0.01113
1.436,-0.0282
1.44,-0.00609
1.444,-0.00147
1.448,0.02367
1.452,-0.00201
1.456,-0.02469
1.46,0.00512
1.464,-0.00576
1.468,-0.00585
1.472,-0.00555
1.476,-0.03681
1.48,-0.09772
1.484,-0.13043
1.488,-0.09096
1.492,0.01888
1.496,0.14295
1.5,0.3463
1.504,0.58438
1.508,0.78244
1.512,0.93906
1.516,0.98104
1.52,0.94365
1.524,0.79937
1.528,0.60602
1.532,0.35835
1.536,0.14728
1.54,-0.01497
1.544,-0.09928
1.548,-0.15255
1.552,-0.13641
1.556,-0.13264
1.56,-0.06483
1.564,-0.04047
1.568,0.02491
1.572,0.00655
1.576,0.00444
1.58,0.00919
1.584,0.00458
1.588,0.00748
1.592,0.01746
1.596,0.00988
1.6,0.00372
1.604,-0.01627
1.608,0.01722
1.612,0.02236
1.616,0.01294
1.62,0.00563
1.624,0.0065
1.628,0.0247
1.632,0.00289
1.636,0.00977
1.64,0.01025
1.644,0.01062
1.648,-0.00063
1.652,0.02514
1.656,0.00434
1.66,0.01336
1.664,0.00762
1.668,0.01971
1.672,0.01364
1.676,-0.00784
1.68,0.01565
1.684,0.00744
1.688,0.01305
1.692,-0.00507
1.696,0.04089
1.7,0.02036
1.704,0.02463
1.708,0.05273
1.712,-0.00102
1.716,0.04899
1.72,0.07818
1.724,0.08054
1.728,0.07842
1.732,0.09305
1.736,0.08416
1.74,0.09042
1.744,0.1093
1.748,0.14072
1.752,0.1261
1.756,0.19129
1.76,0.1853
1.764,0.16321
1.768,0.19504
1.772,0.20326
1.776,0.18986
1.78,0.2269
1.784,0.22568
1.788,0.2338
1.792,0.20081
1.796,0.24933
1.8,0.23173
1.804,0.19741
1.808,0.23643
1.812,0.19956
1.816,0.23726
1.82,0.18276
1.824,0.17626
1.828,0.18654
1.832,0.18715
1.836,0.17182
1.84,0.15455
1.844,0.12653
1.848,0.10658
1.852,0.14165
1.856,0.13824
1.86,0.07221
1.864,0.08689
1.868,0.06098
1.872,0.05774
1.876,0.06328
1.88,0.08188
1.884,0.03034
1.888,0.06151
1.892,0.04305
1.896,0.04051
1.9,0.03406
1.904,0.03966
1.908,0.02601
1.912,0.00488
1.916,0.01452
1.92,0.0371
1.924,0.00092
1.928,0.01152
1.932,-0.00063
1.936,0.01965
1.94,0.00644
1.944,0.02401
1.948,0.03792
1.952,0.03413
1.956,0.03403
1.96,0.02625
1.964,0.02824
1.968,0.03336
1.972,0.00076
1.976,0.00731
1.98,0.00305
1.984,0.0268
1.988,0.00421
1.992,0.04712
1.996,0.03535
2.0,0.01124
2.004,-0.01907
2.008,0.03813
2.012,0.03142
2.016,-0.02654
2.02,-0.01068
2.024,0.01302
2.028,0.03076
2.032,0.02273
2.036,0.02454
2.04,0.01045
2.044,0.01105
2.048,0.02051
2.052,0.0002
2.056,0.02821
2.06,0.0325
2.064,0.01789
2.068,-0.01794
2.072,0.02201
2.076,0.03205
2.08,-0.01608
2.084,0.0027
2.088,0.00572
2.092,0.02693
2.096,0.01514
2.1,0.02837
2.104,0.02749
2.108,0.0175
2.112,0.01068
2.116,0.02424
2.12,-0.00866
2.124,0.02981
2.128,0.02244
2.132,0.05305
2.136,0.03064
2.14,0.00465
2.144,0.03084
2.148,0.0133
2.152,0.0158
2.156,0.04937
2.16,0.01128
2.164,0.01879
2.168,0.03221
2.172,0.0149
2.176,0.01695
2.18,0.04535
2.184,0.01334
2.188,0.01036
2.192,0.02029
2.196,0.01279
2.2,0.00061
2.204,0.01075
2.208,0.03015
2.212,0.058
2.216,0.0435
2.22,0.01435
2.224,0.01105
2.228,0.02597
2.232,0.04299
2.236,0.02449
2.24,0.00228
2.244,0.00013
2.248,0.02073
2.252,0.03476
2.256,0.02284
2.26,0.01368
2.264,0.04384
2.268,0.02835
2.272,0.01962
2.276,0.00975
2.28,0.01495
2.284,0.00659
2.288,0.04718
2.292,-0.00058
2.296,-0.00827
2.3,0.03725
2.304,0.01372
2.308,0.0256
2.312,0.03751
2.316,0.0492
2.32,0.03812
2.324,0.02179
2.328,0.02083
2.332,0.0461
2.336,0.02835
2.34,0.02486
2.344,0.01935
2.348,0.05096
2.352,0.02212
2.356,0.03062
2.36,0.02111
2.364,0.0078
2.368,0.00623
2.372,0.02333
2.376,0.00425
2.38,0.02551
2.384,0.0167
2.388,0.04281
2.392,0.04369
2.396,0.06837
2.4,0.07294
2.404,0.0883
2.408,0.11389
2.412,0.06222
2.416,0.10473
2.42,0.11944
2.424,0.11781
2.428,0.12501
2.432,0.13802
2.436,0.12222
2.44,0.11851
2.444,0.09217
2.448,0.09813
2.452,0.08013
2.456,0.07689
2.46,0.03666
2.464,0.03674
2.468,0.01678
2.472,0.05102
2.476,0.03099
2.48,0.00575
2.484,0.0296
2.488,0.02232
2.492,0.03814
2.496,0.04212
2.5,0.03031
2.504,0.02612
2.508,0.0044
2.512,0.02412
2.516,0.02539
2.52,0.03536
2.524,0.0231
2.528,0.04058
2.532,0.0271
2.536,0.01018
2.54,0.02021
2.544,0.0176
2.548,0.00968
2.552,-0.07396
2.556,-0.10261
2.56,-0.06079
2.564,-0.00177
2.568,0.17331
2.572,0.3454
2.576,0.58323
2.58,0.7753
2.584,0.96127
2.588,1.01516
2.592,0.97921
2.596,0.86575
2.6,0.64569
2.604,0.39732
2.608,0.20038
2.612,0.01134
2.616,-0.08512
2.62,-0.14428
2.624,-0.13201
2.628,-0.0978
2.632,-0.05926
2.636,-0.01255
2.64,-0.00429
2.644,0.01491
2.648,0.01236
2.652,0.05408
2.656,0.00707
2.66,0.01898
2.664,0.00737
2.668,-0.00061
2.672,0.05705
2.676,0.03883
2.68,0.03933
2.684,0.06545
2.688,0.0382
2.692,0.03471
2.696,0.04622
2.7,0.03269
2.704,0.02943
2.708,0.03707
2.712,0.01788
2.716,0.03414
2.72,0.03273
2.724,0.01567
2.728,0.03029
2.732,0.02944
2.736,0.02189
2.74,0.03549
2.744,0.0422
2.748,0.03316
2.752,0.03334
2.756,0.04843
2.76,0.04502
2.764,0.05541
2.768,0.03606
2.772,0.05257
2.776,0.05618
2.78,0.06179
2.784,0.06807
2.788,0.0605
2.792,0.0906
2.796,0.07953
2.8,0.10281
2.804,0.09267
2.808,0.09622
2.812,0.1157
2.816,0.13758
2.82,0.1765
2.824,0.16499
2.828,0.21524
2.832,0.17076
2.836,0.16902
2.84,0.19576
2.844,0.20203
2.848,0.19239
2.852,0.24352
2.856,0.25146
2.86,0.23249
2.864,0.25605
2.868,0.23314
2.872,0.25412
2.876,0.2617
2.88,0.25528
2.884,0.24516
2.888,0.23749
2.892,0.2193
2.896,0.22488
2.9,0.18683
2.904,0.16948
2.908,0.16739
2.912,0.18708
2.916,0.15995
2.92,0.17112
2.924,0.15581
2.928,0.1355
2.932,0.11454
2.936,0.11584
2.94,0.08818
2.944,0.06185
2.948,0.0674
2.952,0.06564
2.956,0.07824
2.96,0.05824
2.964,0.04479
2.968,0.04739
2.972,0.05013
2.976,0.04415
2.98,0.0336
2.984,0.05233
2.988,0.04985
2.992,0.02186
2.996,0.03542
3.0,0.02255
3.004,0.03057
3.008,0.03679
3.012,0.00675
3.016,0.0403
3.02,0.02292
3.024,0.0201
3.028,0.01665
3.032,0.0399
3.036,0.03233
3.04,0.01866
3.044,0.01193
3.048,0.03032
3.052,0.0316
3.056,0.04865
3.06,0.02294
3.064,0.02914
3.068,0.04931
3.072,0.02443
3.076,0.04301
3.08,0.0335
3.084,0.03332
3.088,0.03904
3.092,0.04867
3.096,0.01779
3.1,0.0233
3.104,0.03816
3.108,0.02999
3.112,0.05064
3.116,0.02522
3.12,0.01773
3.124,0.02742
3.128,0.03516
3.132,0.01069
3.136,0.03057
3.14,0.02236
3.144,0.02455
3.148,0.04426
3.152,0.03558
3.156,0.02054
3.16,0.03021
3.164,0.03803
3.168,0.02267
3.172,0.04577
3.176,0.03428
3.18,0.03378
3.184,0.02569
3.188,-0.00077
3.192,0.0301
3.196,0.01505
3.2,0.03907
3.204,0.04749
3.208,0.03409
3.212,0.04148
3.216,0.03131
3.22,0.01091
3.224,0.0632
3.228,0.03576
3.232,0.05571
3.236,0.02517
3.24,0.02093
3.244,0.03091
3.248,0.03278
3.252,0.04149
3.256,0.00051
3.26,0.05268
3.264,0.016
3.268,0.03405
3.272,0.00528
3.276,0.04913
3.28,0.02159
3.284,0.03799
3.288,0.0367
3.292,0.04302
3.296,0.00485
3.3,0.0021
3.304,0.06044
3.308,0.03282
3.312,0.02585
3.316,0.05453
3.32,0.03205
3.324,0.03113
3.328,0.02354
3.332,0.02468
3.336,0.02364
3.34,0.02352
3.344,0.03941
3.348,0.00784
3.352,0.03418
3.356,0.00264
3.36,0.03214
3.364,0.01931
3.368,0.0316
3.372,0.01237
3.376,0.03572
3.38,0.02854
3.384,0.03996
3.388,0.03314
3.392,0.03529
3.396,0.02439
3.4,0.01498
3.404,0.06677
3.408,0.09898
3.412,0.08859
3.416,0.08652
3.42,0.11142
3.424,0.13923
3.428,0.11651
3.432,0.12339
3.436,0.12566
3.44,0.14081
3.444,0.08391
3.448,0.10626
3.452,0.11452
3.456,0.09523
3.46,0.10445
3.464,0.07329
3.468,0.0523
3.472,0.04867
3.476,0.02587
3.48,0.03797
3.484,0.02849
3.488,0.03215
3.492,0.00754
3.496,0.04475
3.5,0.02856
3.504,0.01109
3.508,0.02476
3.512,0.02308
3.516,0.03917
3.52,0.04768
3.524,0.05602
3.528,0.02818
3.532,0.03435
3.536,0.02043
3.54,0.05617
3.544,0.01642
3.548,0.01091
3.552,0.00416
3.556,-0.03764
3.56,-0.08066
3.564,-0.10312
3.568,-0.04891
3.572,0.08675
3.576,0.24587
3.58,0.48574
3.584,0.69863
3.588,0.87657
3.592,0.98593
3.596,1.03413
3.6,0.91543
3.604,0.76066
3.608,0.53375
3.612,0.30072
3.616,0.08886
3.62,-0.04179
3.624,-0.14157
3.628,-0.13013
3.632,-0.11281
3.636,-0.09424
3.64,-0.02039
3.644,-0.01296
3.648,0.02316
3.652,0.00376
3.656,0.02232
3.66,0.01479
3.664,0.04112
3.668,0.01819
3.672,0.03538
3.676,0.03583
3.68,0.02525
3.684,0.05927
3.688,0.03335
3.692,0.02396
3.696,0.04479
3.7,0.03011
3.704,0.01998
3.708,0.00563
3.712,0.01608
3.716,0.00773
3.72,0.01891
3.724,0.03256
3.728,-0.01639
3.732,0.04046
3.736,0.01507
3.74,0.01849
3.744,0.05275
3.748,0.02361
3.752,0.05203
3.756,0.02546
3.76,0.03897
3.764,0.05073
3.768,0.03056
3.772,0.02132
3.776,0.05401
3.78,0.04425
3.784,0.06436
3.788,0.06137
3.792,0.0739
3.796,0.08119
3.8,0.0677
3.804,0.06956
3.808,0.10156
3.812,0.12878
3.816,0.11374
3.82,0.13224
3.824,0.1225
3.828,0.1422
3.832,0.14561
3.836,0.18056
3.84,0.19048
3.844,0.19419
3.848,0.22737
3.852,0.22476
3.856,0.18248
3.86,0.24695
3.864,0.26135
3.868,0.26349
3.872,0.24719
3.876,0.24298
3.88,0.2489
3.884,0.22079
3.888,0.25807
3.892,0.22897
3.896,0.21646
3.9,0.24765
3.904,0.19567
3.908,0.16728
3.912,0.18156
3.916,0.14734
3.92,0.14147
3.924,0.14193
3.928,0.12889
3.932,0.11593
3.936,0.12947
3.94,0.06515
3.944,0.08557
3.948,0.08675
3.952,0.06593
3.956,0.07086
3.96,0.05254
3.964,0.0447
3.968,0.05554
3.972,0.03497
3.976,0.03539
3.98,0.0545
3.984,0.04242
3.988,0.04061
3.992,0.0058
3.996,0.03034
4.0,0.0091
4.004,0.04669
4.008,0.03972
4.012,0.0213
4.016,0.02607
4.02,0.01265
4.024,0.00743
4.028,0.05261
4.032,0.0361
4.036,0.01285
4.04,0.01441
4.044,-0.01506
4.048,0.00855
4.052,0.00974
4.056,-0.00369
4.06,0.02825
4.064,0.01885
4.068,0.03707
4.072,0.00812
4.076,-0.00538
4.08,0.00239
4.084,0.01463
4.088,0.00146
4.092,-0.00688
4.096,0.01904
4.1,0.01898
4.104,0.01637
4.108,0.02859
4.112,0.01506
4.116,0.00431
4.12,0.01479
4.124,0.00024
4.128,0.0168
4.132,0.03018
4.136,-0.0022
4.14,0.02871
4.144,0.00701
4.148,0.03509
4.152,-0.00541
4.156,0.01439
4.16,0.03141
4.164,0.01882
4.168,0.01531
4.172,0.02987
4.176,0.00947
4.18,0.03505
4.184,0.00021
4.188,0.03292
4.192,0.02094
4.196,0.01375
4.2,0.0151
4.204,0.01426
4.208,0.04692
4.212,0.01255
4.216,-0.01764
4.22,0.0145
4.224,0.00377
4.228,0.00623
4.232,0.02434
4.236,-0.00286
4.24,-0.00138
4.244,0.00892
4.248,0.02228
4.252,0.00253
4.256,-0.02
4.26,0.00947
4.264,-0.00724
4.268,-0.00731
4.272,0.00108
4.276,0.00375
4.28,0.01763
4.284,-0.00065
4.288,-0.00133
4.292,0.00528
4.296,0.02455
4.3,0.03141
4.304,0.01386
4.308,0.01469
4.312,-0.00616
4.316,0.03977
4.32,-0.00539
4.324,-0.00251
4.328,0.01673
4.332,0.01589
4.336,0.02234
4.34,0.00432
4.344,-0.02287
4.348,0.00785
4.352,0.04633
4.356,0.00287
4.36,0.00512
4.364,0.01814
4.368,0.0436
4.372,-0.00553
4.376,0.01276
4.38,-0.00173
4.384,-0.00358
4.388,0.01098
4.392,0.00154
4.396,0.02551
4.4,0.0331
4.404,0.03515
4.408,0.02315
4.412,0.0091
4.416,-0.00017
4.42,0.02563
4.424,0.00401
4.428,0.02048
4.432,0.03498
4.436,0.0416
4.44,0.04772
4.444,0.05736
4.448,0.09329
4.452,0.07456
4.456,0.1073
4.46,0.10808
4.464,0.11455
4.468,0.09831
4.472,0.0766
4.476,0.07698
4.48,0.05927
4.484,0.03715
4.488,0.05863
4.492,0.05185
4.496,0.01709
4.5,0.03436
4.504,0.02227
4.508,0.01823
4.512,0.01295
4.516,0.02944
4.52,0.03188
4.524,-0.01364
4.528,-0.00688
4.532,5e-05
4.536,0.02702
4.54,0.0328
4.544,0.01814
4.548,-0.0122
4.552,-0.01283
4.556,0.02091
4.56,-0.02229
4.564,0.00906
4.568,0.0112
4.572,0.01045
4.576,-0.05397
4.58,-0.05287
4.584,-0.09334
4.588,-0.15748
4.592,-0.10556
4.596,0.00184
4.6,0.12032
4.604,0.33279
4.608,0.55599
4.612,0.75447
4.616,0.92602
4.62,1.02112
4.624,0.95497
4.628,0.83055
4.632,0.62454
4.636,0.39174
4.64,0.18097
4.644,0.01264
4.648,-0.09107
4.652,-0.14714
4.656,-0.1851
4.66,-0.11993
4.664,-0.11625
4.668,-0.08273
4.672,-0.02601
4.676,-0.00453
4.68,-0.00709
4.684,-0.01633
4.688,0.02214
4.692,0.00943
4.696,-0.00867
4.7,0.01013
4.704,0.01401
4.708,0.01155
4.712,-0.02172
4.716,0.02266
4.72,-0.00693
4.724,0.02261
4.728,-0.02499
4.732,-0.01098
4.736,0.01088
4.74,0.01775
4.744,-0.03388
4.748,-0.00119
4.752,-0.0161
4.756,-0.00738
4.76,0.01703
4.764,-0.02976
4.768,0.00768
4.772,0.0038
4.776,0.03767
4.78,0.03081
4.784,0.03231
4.788,0.00408
4.792,-0.0138
4.796,0.00465
4.8,0.01093
4.804,0.02911
4.808,0.01721
4.812,0.04474
4.816,0.03774
4.82,0.01864
4.824,0.04293
4.828,0.07023
4.832,0.04139
4.836,0.05742
4.84,0.08243
4.844,0.06949
4.848,0.10057
4.852,0.14108
4.856,0.1363
4.86,0.12296
4.864,0.1403
4.868,0.14174
4.872,0.17123
4.876,0.1951
4.88,0.21225
4.884,0.19788
4.888,0.19415
4.892,0.20398
4.896,0.22002
4.9,0.19528
4.904,0.22676
4.908,0.21074
4.912,0.21884
4.916,0.21613
4.92,0.195
4.924,0.20008
4.928,0.15672
4.932,0.1433
4.936,0.15924
4.94,0.1433
4.944,0.13073
4.948,0.13251
4.952,0.10359
4.956,0.09384
4.96,0.09212
4.964,0.0711
4.968,0.05984
4.972,0.09058
4.976,0.0586
4.98,0.05581
4.984,0.01956
4.988,0.0444
4.992,-0.00266
4.996,0.02563
5.0,-0.01224
5.004,0.02572
5.008,0.00483
5.012,0.00474
5.016,-0.00627
5.02,-0.0205
5.024,0.00611
5.028,-0.0168
5.032,-0.00733
5.036,-0.00243
5.04,0.02335
5.044,-0.00436
5.048,-0.00937
5.052,0.00815
5.056,-0.0168
5.06,-0.00545
5.064,-0.01992
5.068,-0.01134
5.072,-0.02869
5.076,-0.01711
5.08,0.00116
5.084,0.01182
5.088,0.01544
5.092,0.00384
5.096,0.01607
5.1,-0.02508
5.104,-0.03655
5.108,-0.02927
5.112,-0.0014
5.116,-0.04041
5.12,-0.00012
5.124,-0.01346
5.128,-0.00956
5.132,0.01308
5.136,-0.02639
5.14,0.00878
5.144,-0.01816
5.148,0.00812
5.152,-0.01832
5.156,-0.03368
5.16,-0.00651
5.164,0.01026
5.168,-0.00143
5.172,-0.00356
5.176,-0.00921
5.18,-0.00174
5.184,-0.03913
5.188,-0.0155
5.192,-0.0361
5.196,-0.03371
5.2,-0.01787
5.204,0.00766
5.208,-0.00672
5.212,0.00289
5.216,-0.01277
5.22,0.00881
5.224,-0.03866
5.228,-0.03306
5.232,-0.03136
5.236,-0.00201
5.24,-0.04141
5.244,-0.02881
5.248,-0.0079
5.252,-0.01745
5.256,0.01449
5.26,-0.01349
5.264,-0.01083
5.268,-0.04264
5.272,-0.00724
5.276,-0.01705
5.28,-0.00334
5.284,-0.01488
5.288,-0.03346
5.292,-0.00449
5.296,-0.00204
5.3,-0.00652
5.304,-0.00618
5.308,-0.01482
5.312,-0.01313
5.316,-0.05387
5.32,-0.01702
5.324,-0.02407
5.328,-0.01053
5.332,-0.03034
5.336,-0.02801
5.34,-0.00483
5.344,-0.01595
5.348,-0.01598
5.352,-0.0254
5.356,-0.00454
5.36,-0.04153
5.364,-0.00967
5.368,-0.03211
5.372,0.00354
5.376,0.00431
5.38,-0.00497
5.384,0.01026
5.388,-0.01836
5.392,-0.05734
5.396,-0.00935
5.4,-0.04804
5.404,-0.00268
5.408,-0.02137
5.412,-0.01342
5.416,-0.01444
5.42,-0.0336
5.424,-0.01113
5.428,-0.03075
5.432,0.02228
5.436,0.00491
5.44,0.03843
5.444,0.04608
5.448,0.04989
5.452,0.05684
5.456,0.08793
5.46,0.0698
5.464,0.07766
5.468,0.0821
5.472,0.07762
5.476,0.05263
5.48,0.06043
5.484,0.02759
5.488,0.03954
5.492,0.03184
5.496,0.00393
5.5,-0.00044
5.504,-0.00118
5.508,-0.02108
5.512,-0.02141
5.516,-0.00944
5.52,-0.00505
5.524,-0.00249
5.528,-0.0119
5.532,-0.02353
5.536,-0.01527
5.54,-0.0275
5.544,-0.0187
5.548,-0.00694
5.552,-0.02924
5.556,-0.00379
5.56,-0.03048
5.564,-0.0156
5.568,-0.03023
5.572,-0.0151
5.576,-0.04912
5.58,-0.02834
5.584,-0.0509
5.588,-0.09391
5.592,-0.14568
5.596,-0.13495
5.6,-0.07832
5.604,0.02948
5.608,0.24605
5.612,0.46029
5.616,0.62721
5.62,0.84287
5.624,0.95917
5.628,0.95918
5.632,0.85109
5.636,0.6906
5.64,0.46894
5.644,0.2558
5.648,0.0475
5.652,-0.11089
5.656,-0.13277
5.66,-0.17206
5.664,-0.17366
5.668,-0.12158
5.672,-0.10047
5.676,-0.04219
5.68,-0.03292
5.684,-0.02276
5.688,-0.0256
5.692,-0.0429
5.696,-0.01684
5.7,-0.00181
5.704,-0.02641
5.708,-0.02741
5.712,-0.00812
5.716,-0.02692
5.72,-0.02303
5.724,-0.03003
5.728,-0.0299
5.732,-0.03216
5.736,-0.01379
5.74,-0.02032
5.744,-0.01439
5.748,-0.01689
5.752,-0.03736
5.756,-0.01606
5.76,-0.02678
5.764,-0.04079
5.768,-0.02148
5.772,-0.01823
5.776,-0.03809
5.78,-0.02127
5.784,-0.01894
5.788,0.00384
5.792,0.01594
5.796,-0.01564
5.8,-0.01617
5.804,-0.00237
5.808,-0.01959
5.812,-0.00624
5.816,-0.00707
5.82,-0.01077
5.824,0.03489
5.828,0.00739
5.832,0.02525
5.836,0.02217
5.84,0.04751
5.844,0.04958
5.848,0.0481
5.852,0.09014
5.856,0.06635
5.86,0.06631
5.864,0.11659
5.868,0.10316
5.872,0.12171
5.876,0.14621
5.88,0.15843
5.884,0.16381
5.888,0.16215
5.892,0.17822
5.896,0.167
5.9,0.17076
5.904,0.21833
5.908,0.22449
5.912,0.19988
5.916,0.17381
5.92,0.19111
5.924,0.16095
5.928,0.15879
5.932,0.16281
5.936,0.13709
5.94,0.15859
5.944,0.13338
5.948,0.11374
5.952,0.10441
5.956,0.10644
5.96,0.07757
5.964,0.08217
5.968,0.05765
5.972,0.04912
5.976,0.03943
5.98,0.00547
5.984,0.03537
5.988,0.00983
5.992,0.00274
5.996,-0.00159
6.0,-0.00273
6.004,-0.00771
6.008,-0.02321
6.012,-0.02307
6.016,-0.02726
6.02,0.00578
6.024,-0.02761
6.028,-0.00579
6.032,0.01533
6.036,-0.00285
6.04,-0.04319
6.044,-0.01635
6.048,-0.02195
6.052,-0.02478
6.056,-0.00504
6.06,-0.02737
6.064,-0.03777
6.068,-0.02623
6.072,-0.03426
6.076,-0.03062
6.08,-0.05115
6.084,-0.05891
6.088,-0.02643
6.092,-0.04118
6.096,-0.04445
6.1,-0.0337
6.104,-0.02401
6.108,-0.02623
6.112,-0.01903
6.116,-0.04495
6.12,-0.03734
6.124,-0.04256
6.128,-0.0313
6.132,-0.01173
6.136,-0.04327
6.14,-0.02443
6.144,-0.02014
6.148,-0.02298
6.152,-0.02435
6.156,-0.01853
6.16,-0.00788
6.164,-0.02273
6.168,-0.01165
6.172,-0.05191
6.176,-0.0318
6.18,0.00122
6.184,-0.0212
6.188,-0.0397
6.192,-0.0513
6.196,-0.04092
6.2,-0.04462
6.204,-0.02711
6.208,-0.02106
6.212,-0.01999
6.216,-0.01895
6.22,-0.07688
6.224,-0.01958
6.228,-0.02101
6.232,-0.00978
6.236,-0.02766
6.24,-0.03246
6.244,-0.04105
6.248,-0.02151
6.252,-0.04447
6.256,-0.01242
6.26,-0.0414
6.264,-0.06126
6.268,-0.02262
6.272,-0.05269
6.276,-0.0078
6.28,-0.04694
6.284,-0.0296
6.288,-0.01748
6.292,-0.02027
6.296,-0.02595
6.3,-0.04037
6.304,-0.03942
6.308,-0.04076
6.312,-0.02612
6.316,-0.02634
6.32,-0.0194
6.324,-0.0174
6.328,-0.02043
6.332,-0.03723
6.336,-0.00874
6.34,-0.0709
6.344,-0.03547
6.348,-0.04352
6.352,-0.00592
6.356,-0.04246
6.36,-0.02
6.364,-0.0141
6.368,0.01515
6.372,0.01063
6.376,0.04374
6.38,0.02748
6.384,0.06944
6.388,0.06491
6.392,0.07357
6.396,0.07138
6.4,0.07629
6.404,0.07175
6.408,0.07287
6.412,0.05584
6.416,0.03859
6.42,0.02434
6.424,0.03537
6.428,0.00658
6.432,0.00842
6.436,-0.00791
6.44,-0.01037
6.444,-0.03222
6.448,-0.02912
6.452,-0.00252
6.456,-0.02765
6.46,-0.03558
6.464,-0.03124
6.468,-0.02649
6.472,-0.02506
6.476,-0.0256
6.48,-0.06999
6.484,-0.02022
6.488,-0.02878
6.492,-0.04233
6.496,-0.00611
6.5,-0.03647
6.504,0.01648
6.508,-0.04483
6.512,-0.05101
6.516,-0.06913
6.52,-0.11525
6.524,-0.12244
6.528,-0.10486
6.532,-0.06081
6.536,0.07149
6.54,0.23908
6.544,0.42902
6.548,0.65083
6.552,0.84399
6.556,0.94133
6.56,1.00294
6.564,0.85789
6.568,0.66594
6.572,0.45434
6.576,0.20319
6.58,0.033
6.584,-0.09839
6.588,-0.2167
6.592,-0.2361
6.596,-0.13936
6.6,-0.12191
6.604,-0.07605
6.608,-0.02854
6.612,-0.03547
6.616,-0.03647
6.62,-0.03094
6.624,-0.02714
6.628,-0.03715
6.632,-0.02769
6.636,-0.03834
6.64,-0.01028
6.644,-0.04217
6.648,-0.02307
6.652,-0.03102
6.656,-0.02638
6.66,-0.05629
6.664,-0.00938
6.668,-0.01561
6.672,-0.04047
6.676,-0.01982
6.68,-0.02672
6.684,-0.03388
6.688,-0.03617
6.692,-0.02265
6.696,-0.03767
6.7,-0.00669
6.704,-0.02022
6.708,-0.01708
6.712,-0.00388
6.716,-0.02549
6.72,-0.03093
6.724,-0.01104
6.728,-0.00365
6.732,-0.03842
6.736,-0.00879
6.74,0.00221
6.744,-0.00689
6.748,-0.00486
6.752,-0.00346
6.756,-0.00452
6.76,0.01988
6.764,0.02988
6.768,0.06268
6.772,0.05032
6.776,0.05151
6.78,0.06967
6.784,0.07439
6.788,0.10648
6.792,0.10082
6.796,0.09013
6.8,0.1365
6.804,0.13717
6.808,0.13116
6.812,0.13014
6.816,0.17325
6.82,0.18712
6.824,0.18614
6.828,0.20126
6.832,0.20221
6.836,0.21332
6.84,0.18899
6.844,0.18373
6.848,0.18593
6.852,0.20902
6.856,0.15911
6.86,0.15862
6.864,0.14548
6.868,0.13025
6.872,0.12671
6.876,0.12177
6.88,0.10817
6.884,0.09508
6.888,0.08366
6.892,0.06835
6.896,0.04114
6.9,0.07901
6.904,0.03912
6.908,0.03147
6.912,0.04553
6.916,0.0121
6.92,0.01273
6.924,0.01888
6.928,0.00936
6.932,-0.00571
6.936,-0.00718
6.94,-0.02569
6.944,-0.00279
6.948,-0.01876
6.952,0.01883
6.956,-0.01069
6.96,-0.02286
6.964,-0.00658
6.968,-0.00803
6.972,-0.00221
6.976,-0.01713
6.98,-0.0244
6.984,-0.02343
6.988,-0.0001
6.992,-0.06484
6.996,0.00208
7.0,-0.02014
7.004,-0.01615
7.008,-0.023
7.012,-0.01712
7.016,-0.05389
7.02,-0.01451
7.024,0.00383
7.028,-0.04071
7.032,-0.02028
7.036,-0.02794
7.04,-0.01881
7.044,-0.0227
7.048,-0.07169
7.052,-0.01849
7.056,-0.03985
7.06,-0.01722
7.064,-0.02969
7.068,-0.02581
7.072,-0.02976
7.076,-0.02358
7.08,-0.03101
7.084,-0.02724
7.088,-0.01757
7.092,0.01126
7.096,-0.04202
7.1,-0.02197
7.104,-0.04401
7.108,-0.01917
7.112,-0.05176
7.116,-0.02672
7.12,0.00701
7.124,-0.00323
7.128,-0.03348
7.132,-0.02598
7.136,-0.02921
7.14,-0.02819
7.144,-0.03046
7.148,-0.01641
7.152,-0.01408
7.156,-0.01546
7.16,-0.01144
7.164,-0.0343
7.168,-0.02579
7.172,-0.04761
7.176,-0.05024
7.18,-0.0415
7.184,-0.00718
7.188,-0.01935
7.192,-0.05106
7.196,-0.01854
7.2,-0.01062
7.204,-0.01096
7.208,-0.03029
7.212,0.00837
7.216,-0.00032
7.22,-0.03406
7.224,0.00601
7.228,0.0162
7.232,-0.00903
7.236,-0.00178
7.24,0.02873
7.244,0.03189
7.248,0.03261
7.252,0.06485
7.256,0.05239
7.26,0.08413
7.264,0.06897
7.268,0.11153
7.272,0.07462
7.276,0.06713
7.28,0.06058
7.284,0.07212
7.288,0.04255
7.292,-0.02201
7.296,0.0199
7.3,0.00529
7.304,-0.03562
7.308,-0.01764
7.312,-0.01809
7.316,-0.04775
7.32,-0.01558
7.324,-0.00329
7.328,-0.03482
7.332,-0.01184
7.336,-0.00477
7.34,-0.01446
7.344,-0.00632
7.348,-0.04344
7.352,-0.02111
7.356,-0.03681
7.36,-0.02537
7.364,-0.03659
7.368,0.00536
7.372,-0.01521
7.376,-0.01003
7.38,-0.02915
7.384,-0.04465
7.388,-0.10884
7.392,-0.12894
7.396,-0.13125
7.4,-0.07432
7.404,0.04278
7.408,0.21326
7.412,0.42801
7.416,0.65844
7.42,0.84373
7.424,0.94113
7.428,0.9684
7.432,0.87002
7.436,0.71685
7.44,0.47901
7.444,0.23615
7.448,0.04302
7.452,-0.08627
7.456,-0.16323
7.46,-0.16566
7.464,-0.15396
7.468,-0.14343
7.472,-0.11614
7.476,-0.0379
7.48,-0.01555
7.484,-0.01659
7.488,-0.0332
7.492,-0.0293
7.496,-0.01552
7.5,0.01267
7.504,0.00523
7.508,-0.021
7.512,-0.02996
7.516,-0.00511
7.52,-0.03863
7.524,-0.04657
7.528,-0.03981
7.532,-0.01899
7.536,-0.03285
7.54,-0.00544
7.544,-0.03144
7.548,-0.02108
7.552,0.01656
7.556,0.00543
7.56,-0.01402
7.564,-0.02911
7.568,0.00759
7.572,-0.01337
7.576,-0.0117
7.58,0.00789
7.584,-0.00274
7.588,0.00354
7.592,0.01548
7.596,0.01642
7.6,0.02571
7.604,0.01398
7.608,-0.00119
7.612,-0.00533
7.616,0.03938
7.62,0.04108
7.624,0.02883
7.628,0.03178
7.632,0.06557
7.636,0.04535
7.64,0.07463
7.644,0.06426
7.648,0.07528
7.652,0.09374
7.656,0.0813
7.66,0.11685
7.664,0.12686
7.668,0.15848
7.672,0.17888
7.676,0.15271
7.68,0.20315
7.684,0.19442
7.688,0.20597
7.692,0.18196
7.696,0.20669
7.7,0.20892
7.704,0.21314
7.708,0.20468
7.712,0.20022
7.716,0.2153
7.72,0.16779
7.724,0.20245
7.728,0.20735
7.732,0.15142
7.736,0.17563
7.74,0.15227
7.744,0.14859
7.748,0.16324
7.752,0.12039
7.756,0.12614
7.76,0.11241
7.764,0.11506
7.768,0.08237
7.772,0.06927
7.776,0.07315
7.78,0.05799
7.784,0.01918
7.788,0.03094
7.792,0.02327
7.796,0.03895
7.8,0.0264
7.804,0.00944
7.808,0.00322
7.812,0.00119
7.816,-0.01186
7.82,0.01001
7.824,-0.00096
7.828,-0.00928
7.832,-0.0107
7.836,-0.02364
7.84,0.00578
7.844,0.00947
7.848,-0.01487
7.852,0.00535
7.856,-0.02693
7.86,-0.02215
7.864,-0.01991
7.868,-0.01892
7.872,-0.02093
7.876,0.00459
7.88,0.00671
7.884,0.01596
7.888,0.03344
7.892,0.00572
7.896,-0.00492
7.9,0.00193
7.904,0.02148
7.908,0.00908
7.912,0.00872
7.916,-0.02253
7.92,0.00172
7.924,0.00171
7.928,0.00183
7.932,0.0101
7.936,0.0262
7.94,-0.00156
7.944,-0.01904
7.948,0.01733
7.952,-0.00626
7.956,0.00887
7.96,0.00753
7.964,0.01577
7.968,-0.01017
7.972,0.00142
7.976,-0.00665
7.98,-0.03798
7.984,-0.01301
7.988,-0.02165
7.992,0.00136
7.996,-0.01504
8.0,-0.02598
8.004,0.00654
8.008,-0.03432
8.012,0.00483
8.016,-0.01405
8.02,-0.00709
8.024,-0.00231
8.028,0.00076
8.032,0.01765
8.036,-0.0027
8.04,0.00512
8.044,-0.02606
8.048,0.00671
8.052,0.02186
8.056,0.0161
8.06,0.02918
8.064,0.05474
8.068,0.05864
8.072,0.07431
8.076,0.08511
8.08,0.08801
8.084,0.10808
8.088,0.12152
8.092,0.08574
8.096,0.07919
8.1,0.08586
8.104,0.09043
8.108,0.0527
8.112,0.06776
8.116,0.02458
8.12,-0.02059
8.124,0.01008
8.128,0.0201
8.132,0.00318
8.136,0.00598
8.14,-0.01729
8.144,-0.0039
8.148,0.00986
8.152,-0.02218
8.156,0.00402
8.16,-0.00376
8.164,-0.00013
8.168,0.00398
8.172,-0.00522
8.176,-0.00566
8.18,0.01965
8.184,-0.00391
8.188,0.00808
8.192,-0.00541
8.196,0.01294
8.2,0.00747
8.204,-0.04471
8.208,-0.05612
8.212,-0.14418
8.216,-0.09832
8.22,-0.0168
8.224,0.03867
8.228,0.21719
8.232,0.38782
8.236,0.61968
8.24,0.79057
8.244,0.94662
8.248,1.02001
8.252,0.91339
8.256,0.76329
8.26,0.5422
8.264,0.30027
8.268,0.10733
8.272,-0.06282
8.276,-0.13232
8.28,-0.17546
8.284,-0.12759
8.288,-0.13731
8.292,-0.07131
8.296,-0.042
8.3,0.00885
8.304,0.01216
8.308,0.00149
8.312,-0.01992
8.316,0.02442
8.32,0.00463
8.324,-0.01354
8.328,0.00266
8.332,0.00257
8.336,-0.03629
8.34,-0.0048
8.344,-0.00885
8.348,0.03602
8.352,0.00094
8.356,-0.01171
8.36,0.00964
8.364,0.0021
8.368,0.02974
8.372,0.00718
8.376,-0.00722
8.38,0.01265
8.384,-0.02429
8.388,-0.00231
8.392,0.01134
8.396,0.02874
8.4,0.0143
8.404,-0.00037
8.408,0.01276
8.412,0.00463
8.416,0.04853
8.42,0.0508
8.424,0.01488
8.428,0.02544
8.432,0.01087
8.436,0.06101
8.44,0.05327
8.444,0.0592
8.448,0.05054
8.452,0.07453
8.456,0.07572
8.46,0.11734
8.464,0.06351
8.468,0.10502
8.472,0.1162
8.476,0.1234
8.48,0.12189
8.484,0.1505
8.488,0.17146
8.492,0.16947
8.496,0.19882
8.5,0.188
8.504,0.19367
8.508,0.2124
8.512,0.2254
8.516,0.20278
8.52,0.24961
8.524,0.22699
8.528,0.21676
8.532,0.24234
8.536,0.24073
8.54,0.19666
8.544,0.20844
8.548,0.19708
8.552,0.18106
8.556,0.21109
8.56,0.16822
8.564,0.19101
8.568,0.16227
8.572,0.15783
8.576,0.15871
8.58,0.1178
8.584,0.10245
8.588,0.07758
8.592,0.10608
8.596,0.09261
8.6,0.08244
8.604,0.06013
8.608,0.04396
8.612,0.06369
8.616,0.04851
8.62,0.03743
8.624,0.01302
8.628,-0.00067
8.632,0.04805
8.636,0.05233
8.64,0.00601
8.644,0.02373
8.648,0.01747
8.652,0.0268
8.656,0.0093
8.66,0.01209
8.664,0.03243
8.668,0.00525
8.672,0.0381
8.676,0.00716
8.68,0.00399
8.684,-0.01159
8.688,-0.00562
8.692,0.02552
8.696,0.01713
8.7,0.03517
8.704,-0.00051
8.708,0.00763
8.712,0.02205
8.716,0.03503
8.72,0.0137
8.724,0.01618
8.728,0.02129
8.732,0.00827
8.736,0.01951
8.74,0.02402
8.744,0.01496
8.748,0.02229
8.752,0.03878
8.756,0.01005
8.76,0.01955
8.764,0.01781
8.768,0.01419
8.772,0.00483
8.776,0.03075
8.78,0.00654
8.784,0.01482
8.788,0.01899
8.792,-0.00035
8.796,0.01081
8.8,0.01339
8.804,0.03393
8.808,0.03361
8.812,0.02196
8.816,0.01892
8.82,0.02651
8.824,0.00018
8.828,0.01829
8.832,0.00903
8.836,0.00885
8.84,0.0117
8.844,0.03088
8.848,0.00595
8.852,0.00617
8.856,-0.01606
8.86,-0.00519
8.864,0.00201
8.868,0.00085
8.872,0.01973
8.876,0.01558
8.88,0.01861
8.884,0.02303
8.888,0.03308
8.892,-0.0061
8.896,0.03277
8.9,0.01811
8.904,0.03486
8.908,0.02186
8.912,0.02777
8.916,-0.00836
8.92,0.03291
8.924,0.01641
8.928,-0.01216
8.932,0.02956
8.936,0.01002
8.94,-0.00012
8.944,0.02162
8.948,0.03611
8.952,0.0137
8.956,0.0102
8.96,0.01699
8.964,0.04244
8.968,0.00727
8.972,0.03352
8.976,0.05298
8.98,0.03013
8.984,0.01413
8.988,0.03586
8.992,0.02567
8.996,0.02538
9.0,0.01012
9.004,0.03502
9.008,0.01639
9.012,0.01968
9.016,-0.01054
9.02,0.03015
9.024,0.01367
9.028,0.00564
9.032,0.02756
9.036,0.02245
9.04,0.03055
9.044,0.02481
9.048,0.01916
9.052,0.02979
9.056,0.03247
9.06,-0.00484
9.064,0.02794
9.068,0.02269
9.072,0.02575
9.076,0.01978
9.08,0.01369
9.084,0.02191
9.088,0.03256
9.092,0.02608
9.096,0.03423
9.1,0.02933
9.104,0.04182
9.108,0.00226
9.112,0.01298
9.116,0.04773
9.12,0.02614
9.124,0.01113
9.128,0.02112
9.132,0.01954
9.136,0.0221
9.14,-0.00989
9.144,0.02877
9.148,0.01672
9.152,0.03686
9.156,0.04632
9.16,0.01346
9.164,0.01588
9.168,0.029
9.172,0.04408
9.176,0.05752
9.18,0.08854
9.184,0.08314
9.188,0.07835
9.192,0.07037
9.196,0.12619
9.2,0.09888
9.204,0.11915
9.208,0.11297
9.212,0.11476
9.216,0.11505
9.22,0.13271
9.224,0.11981
9.228,0.08926
9.232,0.07636
9.236,0.07254
9.24,0.05592
9.244,0.06455
9.248,0.02306
9.252,0.0364
9.256,0.02304
9.26,0.05511
9.264,0.03332
9.268,0.00053
9.272,0.03712
9.276,-0.00314
9.28,-0.00403
9.284,0.0374
9.288,0.03362
9.292,0.02962
9.296,0.01938
9.3,0.02249
9.304,0.03312
9.308,0.01839
9.312,0.02339
9.316,0.012
9.32,-0.00391
9.324,-0.00693
9.328,-0.04932
9.332,-0.11153
9.336,-0.06504
9.34,-0.03216
9.344,0.09621
9.348,0.29166
9.352,0.48642
9.356,0.67951
9.36,0.90021
9.364,0.99555
9.368,1.04715
9.372,0.92431
9.376,0.76123
9.38,0.50374
9.384,0.31745
9.388,0.10484
9.392,-0.08018
9.396,-0.13304
9.4,-0.12387
9.404,-0.12614
9.408,-0.08018
9.412,-0.03436
9.416,-0.00626
9.42,0.02653
9.424,0.00573
9.428,0.03938
9.432,0.02308
9.436,0.08226
9.44,0.04983
9.444,0.01686
9.448,0.00477
9.452,-0.00108
9.456,0.0291
9.46,0.01596
9.464,0.0427
9.468,0.02008
9.472,0.04897
9.476,0.03617
9.48,0.01957
9.484,0.02753
9.488,0.01918
9.492,0.04062
9.496,0.03124
9.5,0.05039
9.504,0.02225
9.508,0.01179
9.512,0.01899
9.516,0.04272
9.52,0.04985
9.524,0.02403
9.528,0.03354
9.532,0.0462
9.536,0.05051
9.54,0.05078
9.544,0.03617
9.548,0.0425
9.552,0.06883
9.556,0.04971
9.56,0.05609
9.564,0.05855
9.568,0.06434
9.572,0.1086
9.576,0.09667
9.58,0.11132
9.584,0.12457
9.588,0.11095
9.592,0.13523
9.596,0.13596
9.6,0.16223
9.604,0.16943
9.608,0.20035
9.612,0.17686
9.616,0.17961
9.62,0.22308
9.624,0.20985
9.628,0.20925
9.632,0.25159
9.636,0.25875
9.64,0.22096
9.644,0.26892
9.648,0.23309
9.652,0.25557
9.656,0.23361
9.66,0.22812
9.664,0.18347
9.668,0.24719
9.672,0.22708
9.676,0.20958
9.68,0.20516
9.684,0.19562
9.688,0.17231
9.692,0.14954
9.696,0.15647
9.7,0.13672
9.704,0.13148
9.708,0.12476
9.712,0.08815
9.716,0.08918
9.72,0.08713
9.724,0.07211
9.728,0.06136
9.732,0.07214
9.736,0.06279
9.74,0.06779
9.744,0.04028
9.748,0.04315
9.752,0.014
9.756,0.04156
9.76,0.03585
9.764,0.07073
9.768,0.04943
9.772,0.05639
9.776,0.02917
9.78,0.0432
9.784,0.02573
9.788,0.0298
9.792,0.05819
9.796,0.03884
9.8,0.01196
9.804,0.05611
9.808,0.03975
9.812,0.02353
9.816,0.00024
9.82,0.02829
9.824,0.04327
9.828,0.01695
9.832,0.04103
9.836,0.03471
9.84,0.02454
9.844,0.06833
9.848,0.05156
9.852,-0.00336
9.856,0.02276
9.86,0.03428
9.864,0.03503
9.868,0.02143
9.872,0.04299
9.876,0.02348
9.88,0.05393
9.884,0.04418
9.888,0.01877
9.892,0.02484
9.896,0.05455
9.9,0.03503
9.904,0.02332
9.908,0.03373
9.912,0.02022
9.916,0.01916
9.92,0.04682
9.924,0.01333
9.928,0.03545
9.932,0.01718
9.936,0.03415
9.94,0.04062
9.944,0.03176
9.948,0.01589
9.952,0.01034
9.956,0.02035
9.96,0.03571
9.964,0.04351
9.968,0.04591
9.972,0.05037
9.976,0.03848
9.98,0.00628
9.984,0.04325
9.988,0.049
9.992,0.02739
9.996,-0.01781
