t_seg,ecg_mV
0.0,0.00139
0.004,-0.01975
0.008,-0.02459
0.012,-0.00794
0.016,-0.02992
0.02,-0.01734
0.024,-0.02565
0.028,-0.00907
0.032,-0.02523
0.036,-0.00142
0.04,-0.042
0.044,-0.00738
0.048,-0.06956
0.052,-0.09156
0.056,-0.12602
0.06,-0.1124
0.064,-0.04752
0.068,0.05772
0.072,0.23391
0.076,0.44691
0.08,0.66655
0.084,0.83818
0.088,0.97458
0.092,0.9502
0.096,0.87373
0.1,0.68166
0.104,0.42971
0.108,0.20809
0.112,0.05163
0.116,-0.08174
0.12,-0.17449
0.124,-0.18346
0.128,-0.14167
0.132,-0.13085
0.136,-0.07633
0.14,-0.04698
0.144,-0.03578
0.148,-0.01527
0.152,-0.03494
0.156,-0.01314
0.16,-0.00218
0.164,-0.01296
0.168,-0.00561
0.172,-0.02946
0.176,-0.03221
0.18,-0.02159
0.184,-0.00935
0.188,-0.02175
0.192,-0.00827
0.196,0.01567
0.2,-0.01765
0.204,-0.01755
0.208,-0.0294
0.212,-0.02228
0.216,-0.01974
0.22,-0.03065
0.224,0.00976
0.228,0.01061
0.232,0.02817
0.236,-0.00889
0.24,0.04908
0.244,0.00878
0.248,-0.01684
0.252,-0.01942
0.256,0.02834
0.26,0.00074
0.264,0.00942
0.268,-0.00628
0.272,0.00869
0.276,0.02241
0.28,0.03255
0.284,0.0315
0.288,0.01666
0.292,0.01739
0.296,0.0708
0.3,0.05254
0.304,0.07299
0.308,0.09037
0.312,0.0701
0.316,0.09448
0.32,0.10969
0.324,0.09001
0.328,0.11278
0.332,0.13605
0.336,0.15627
0.34,0.17178
0.344,0.19778
0.348,0.18934
0.352,0.1875
0.356,0.20341
0.36,0.20279
0.364,0.20855
0.368,0.19154
0.372,0.21773
0.376,0.18719
0.38,0.20566
0.384,0.20131
0.388,0.17318
0.392,0.20799
0.396,0.18582
0.4,0.15782
0.404,0.1678
0.408,0.1542
0.412,0.15854
0.416,0.12943
0.42,0.10647
0.424,0.11867
0.428,0.10101
0.432,0.072
0.436,0.05774
0.44,0.06819
0.444,0.03461
0.448,0.03217
0.452,0.02371
0.456,0.05461
0.46,0.0117
0.464,0.04171
0.468,-0.00126
0.472,-0.00978
0.476,-0.00447
0.48,0.00053
0.484,0.00185
0.488,0.01086
0.492,-0.00707
0.496,-0.00975
0.5,0.01214
0.504,-0.01888
0.508,0.00585
0.512,0.01073
0.516,0.00403
0.52,-0.0037
0.524,-0.01935
0.528,-0.02027
0.532,0.00549
0.536,-0.04225
0.54,0.0015
0.544,-0.014
0.548,-0.03308
0.552,-0.0021
0.556,-0.02503
0.56,-0.01299
0.564,0.00058
0.568,-0.02409
0.572,0.00054
0.576,-0.01054
0.58,-0.01538
0.584,0.00963
0.588,0.00427
0.592,-0.02109
0.596,0.00145
0.6,0.0103
0.604,0.00538
0.608,-0.00229
0.612,-0.00749
0.616,-0.00201
0.62,-0.02662
0.624,0.00366
0.628,0.01211
0.632,-0.00374
0.636,-0.01541
0.64,-0.0139
0.644,-0.01059
0.648,0.00105
0.652,0.02168
0.656,-0.02478
0.66,2e-05
0.664,-0.01539
0.668,-0.01525
0.672,-0.00992
0.676,-0.01406
0.68,-0.01398
0.684,-0.00335
0.688,0.01479
0.692,0.01609
0.696,-0.01412
0.7,-0.01579
0.704,-0.03071
0.708,-0.00497
0.712,-0.02607
0.716,-0.00064
0.72,-0.01044
0.724,-0.00176
0.728,0.01166
0.732,0.00198
0.736,-0.02012
0.74,-0.01432
0.744,-0.00992
0.748,-0.0234
0.752,0.00656
0.756,0.0129
0.76,-0.00887
0.764,-0.03777
0.768,-0.00234
0.772,0.00771
0.776,0.03765
0.78,0.01129
0.784,0.0099
0.788,-0.0041
0.792,-0.00674
0.796,0.00256
0.8,0.01142
0.804,-0.00323
0.808,0.01502
0.812,0.0125
0.816,0.00136
0.82,0.01226
0.824,0.00445
0.828,0.01744
0.832,0.00443
0.836,0.00026
0.84,0.07479
0.844,0.06089
0.848,0.0625
0.852,0.08525
0.856,0.08057
0.86,0.08518
0.864,0.08454
0.868,0.09069
0.872,0.09409
0.876,0.09476
0.88,0.08789
0.884,0.07914
0.888,0.0615
0.892,0.03819
0.896,0.04934
0.9,0.03499
0.904,0.06031
0.908,0.0001
0.912,0.01083
0.916,0.02784
0.92,-0.01157
0.924,0.02466
0.928,0.01228
0.932,-0.02453
0.936,0.01741
0.94,0.03669
0.944,0.0199
0.948,0.00848
0.952,0.02995
0.956,0.01179
0.96,0.00845
0.964,-0.00052
0.968,0.02557
0.972,-0.00674
0.976,0.00888
0.98,-0.00949
0.984,-0.0427
0.988,-0.05094
0.992,-0.05863
0.996,-0.12497
1.0,-0.06494
1.004,-0.00814
1.008,0.15295
1.012,0.32856
1.016,0.53278
1.02,0.76711
1.024,0.89958
1.028,1.00738
1.032,0.95584
1.036,0.84688
1.04,0.6213
1.044,0.41433
1.048,0.17826
1.052,-0.00816
1.056,-0.11878
1.06,-0.13602
1.064,-0.15141
1.068,-0.11684
1.072,-0.07327
1.076,-0.03531
1.08,0.0036
1.084,-0.01069
1.088,0.00228
1.092,-0.01253
1.096,0.00871
1.1,0.00149
1.104,0.00858
1.108,-0.00542
1.112,0.00928
1.116,0.00621
1.12,0.0224
1.124,0.0038
1.128,0.01145
1.132,0.02157
1.136,0.01307
1.14,0.00478
1.144,0.00156
1.148,0.01711
1.152,0.00084
1.156,-0.00112
1.16,0.01996
1.164,0.01534
1.168,0.01297
1.172,0.0233
1.176,0.02273
1.18,0.01841
1.184,0.00675
1.188,0.019
1.192,0.00386
1.196,0.02086
1.2,0.04159
1.204,0.05236
1.208,0.00588
1.212,0.02637
1.216,0.04086
1.22,0.04549
1.224,0.05628
1.228,0.05616
1.232,0.06346
1.236,0.09657
1.24,0.07848
1.244,0.10136
1.248,0.10994
1.252,0.12371
1.256,0.12964
1.26,0.11401
1.264,0.14736
1.268,0.16516
1.272,0.16869
1.276,0.17998
1.28,0.20779
1.284,0.21393
1.288,0.21117
1.292,0.23169
1.296,0.21619
1.3,0.21723
1.304,0.2416
1.308,0.23274
1.312,0.23195
1.316,0.22933
1.32,0.22643
1.324,0.22475
1.328,0.20929
1.332,0.21024
1.336,0.19265
1.34,0.18117
1.344,0.164
1.348,0.17674
1.352,0.1853
1.356,0.13378
1.36,0.12737
1.364,0.10672
1.368,0.13003
1.372,0.10516
1.376,0.12679
1.38,0.08431
1.384,0.07642
1.388,0.07844
1.392,0.06239
1.396,0.05048
1.4,0.0467
1.404,0.05134
1.408,0.04994
1.412,0.056
1.416,0.01042
1.42,0.02109
1.424,0.01517
1.428,0.05198
1.432,0.03881
1.436,0.01051
1.44,0.01567
1.444,0.00869
1.448,0.03022
1.452,0.0118
1.456,0.04114
1.46,0.02428
1.464,0.01244
1.468,0.02068
1.472,-0.01385
1.476,0.02066
1.48,0.01085
1.484,0.00018
1.488,0.02118
1.492,0.00943
1.496,0.02162
1.5,0.03266
1.504,0.01401
1.508,0.02591
1.512,-0.00158
1.516,0.02851
1.52,0.02445
1.524,0.00383
1.528,0.01562
1.532,0.00827
1.536,0.0329
1.54,0.04123
1.544,0.05212
1.548,0.01697
1.552,0.00951
1.556,0.01433
1.56,0.01806
1.564,0.00316
1.568,0.0152
1.572,0.04557
1.576,0.01656
1.58,0.01431
1.584,0.01627
1.588,0.02599
1.592,0.02745
1.596,0.02046
1.6,0.03037
1.604,0.01807
1.608,0.01139
1.612,0.04448
1.616,0.01658
1.62,0.01433
1.624,0.00934
1.628,-0.00759
1.632,0.0418
1.636,0.02525
1.64,0.04712
1.644,0.04275
1.648,0.01261
1.652,0.03659
1.656,0.00444
1.66,0.00148
1.664,0.02605
1.668,0.02721
1.672,0.03438
1.676,0.00057
1.68,-0.00365
1.684,0.02257
1.688,0.03704
1.692,0.02479
1.696,0.03141
1.7,0.02644
1.704,0.04151
1.708,0.0191
1.712,0.01719
1.716,0.02444
1.72,0.03791
1.724,0.04184
1.728,0.02418
1.732,0.03483
1.736,0.06611
1.74,0.03887
1.744,0.04386
1.748,0.07769
1.752,0.08149
1.756,0.09795
1.76,0.09847
1.764,0.09634
1.768,0.10907
1.772,0.10115
1.776,0.12982
1.78,0.13165
1.784,0.11084
1.788,0.13888
1.792,0.09683
1.796,0.10129
1.8,0.07705
1.804,0.06058
1.808,0.06698
1.812,0.04935
1.816,0.04757
1.82,0.03232
1.824,0.0499
1.828,0.03148
1.832,0.03175
1.836,0.04145
1.84,0.04388
1.844,0.05474
1.848,0.03401
1.852,0.02942
1.856,0.05467
1.86,0.04595
1.864,0.02742
1.868,0.04963
1.872,0.03281
1.876,0.04165
1.88,0.01462
1.884,0.02414
1.888,0.02471
1.892,-0.00252
1.896,-0.03381
1.9,-0.08467
1.904,-0.08245
1.908,-0.02608
1.912,0.06698
1.916,0.23171
1.92,0.42424
1.924,0.63832
1.928,0.85997
1.932,0.99675
1.936,1.01849
1.94,0.92357
1.944,0.78401
1.948,0.57269
1.952,0.32402
1.956,0.14965
1.96,-0.01901
1.964,-0.09616
1.968,-0.13846
1.972,-0.095
1.976,-0.09736
1.98,-0.05519
1.984,-0.00943
1.988,0.02924
1.992,0.01311
1.996,0.01515
2.0,0.01784
2.004,0.05028
2.008,0.04902
2.012,0.04198
2.016,0.02056
2.02,-0.00497
2.024,-0.00409
2.028,-0.0024
2.032,0.02834
2.036,0.03625
2.04,0.00638
2.044,0.01655
2.048,0.01757
2.052,0.0294
2.056,0.01915
2.06,0.05917
2.064,0.00966
2.068,-0.00824
2.072,0.03361
2.076,-0.00109
2.08,0.02932
2.084,0.01738
2.088,0.02655
2.092,0.05124
2.096,0.01317
2.1,0.05067
2.104,0.03787
2.108,0.04774
2.112,0.04066
2.116,0.01934
2.12,0.03444
2.124,0.0298
2.128,0.04657
2.132,0.09523
2.136,0.06033
2.14,0.08758
2.144,0.09097
2.148,0.09074
2.152,0.11477
2.156,0.11825
2.16,0.13732
2.164,0.16315
2.168,0.17386
2.172,0.16321
2.176,0.17396
2.18,0.18866
2.184,0.22938
2.188,0.21216
2.192,0.23238
2.196,0.22395
2.2,0.22104
2.204,0.24342
2.208,0.20542
2.212,0.28226
2.216,0.23395
2.22,0.24534
2.224,0.24714
2.228,0.25853
2.232,0.2119
2.236,0.2359
2.24,0.21325
2.244,0.23417
2.248,0.20995
2.252,0.18627
2.256,0.17356
2.26,0.13601
2.264,0.17334
2.268,0.13725
2.272,0.13633
2.276,0.10622
2.28,0.11164
2.284,0.09706
2.288,0.10395
2.292,0.0849
2.296,0.06976
2.3,0.07936
2.304,0.0729
2.308,0.10116
2.312,0.07674
2.316,0.07663
2.32,0.10986
2.324,0.08115
2.328,0.11097
2.332,0.12806
2.336,0.13537
2.34,0.1529
2.344,0.13927
2.348,0.11305
2.352,0.12085
2.356,0.10863
2.36,0.11893
2.364,0.06243
2.368,0.04752
2.372,0.06738
2.376,0.08252
2.38,0.05313
2.384,0.05112
2.388,0.0239
2.392,0.05688
2.396,0.05136
2.4,0.04682
2.404,0.04296
2.408,0.01985
2.412,0.02874
2.416,0.0308
2.42,0.03319
2.424,0.01312
2.428,0.00937
2.432,0.02325
2.436,0.01005
2.44,0.02255
2.444,0.02751
2.448,0.00996
2.452,0.02714
2.456,0.00225
2.46,-0.02984
2.464,-0.05363
2.468,-0.08783
2.472,-0.05425
2.476,0.02319
2.48,0.15241
2.484,0.35222
2.488,0.5946
2.492,0.75876
2.496,0.93109
2.5,1.0103
2.504,0.98401
2.508,0.87068
2.512,0.66095
2.516,0.41579
2.52,0.22528
2.524,0.02134
2.528,-0.06425
2.532,-0.11939
2.536,-0.13129
2.54,-0.09529
2.544,-0.03825
2.548,-0.03552
2.552,0.0257
2.556,0.00818
2.56,0.03452
2.564,0.0463
2.568,0.03071
2.572,0.02437
2.576,0.02633
2.58,0.05286
2.584,0.01468
2.588,0.04552
2.592,0.05029
2.596,0.02483
2.6,0.02127
2.604,0.02579
2.608,0.03912
2.612,0.06476
2.616,0.03064
2.62,0.03975
2.624,0.04036
2.628,0.03528
2.632,0.03116
2.636,-0.00741
2.64,0.03824
2.644,0.03536
2.648,0.02563
2.652,0.05965
2.656,0.04531
2.66,0.04303
2.664,0.09003
2.668,0.05131
2.672,0.05179
2.676,0.04848
2.68,0.02688
2.684,0.03021
2.688,0.0837
2.692,0.0663
2.696,0.08149
2.7,0.04047
2.704,0.0815
2.708,0.09193
2.712,0.13291
2.716,0.0938
2.72,0.12507
2.724,0.1435
2.728,0.1086
2.732,0.15233
2.736,0.16711
2.74,0.16254
2.744,0.19874
2.748,0.18897
2.752,0.20248
2.756,0.19342
2.76,0.24332
2.764,0.23264
2.768,0.24734
2.772,0.25257
2.776,0.22726
2.78,0.25492
2.784,0.25464
2.788,0.24373
2.792,0.22237
2.796,0.20737
2.8,0.24703
2.804,0.21103
2.808,0.20453
2.812,0.20317
2.816,0.19975
2.82,0.17588
2.824,0.16602
2.828,0.15212
2.832,0.13868
2.836,0.12843
2.84,0.11239
2.844,0.10619
2.848,0.07877
2.852,0.07125
2.856,0.1102
2.86,0.08449
2.864,0.0709
2.868,0.06438
2.872,0.05652
2.876,0.05685
2.88,0.06271
2.884,0.03839
2.888,0.06188
2.892,0.03191
2.896,0.02475
2.9,0.04083
2.904,0.01203
2.908,0.01072
2.912,0.05264
2.916,0.01761
2.92,0.03168
2.924,0.05674
2.928,0.01462
2.932,0.01858
2.936,0.02169
2.94,0.00987
2.944,0.02249
2.948,0.02448
2.952,0.03111
2.956,0.01399
2.96,0.01928
2.964,0.05205
2.968,0.02074
2.972,0.05552
2.976,0.02111
2.98,0.03634
2.984,0.0075
2.988,0.007
2.992,0.04397
2.996,0.00509
3.0,0.04708
3.004,0.0351
3.008,0.03528
3.012,0.02387
3.016,0.03454
3.02,0.02886
3.024,0.05763
3.028,0.03832
3.032,0.03567
3.036,0.06622
3.04,0.06866
3.044,0.1101
3.048,0.08982
3.052,0.11097
3.056,0.11726
3.06,0.11914
3.064,0.13832
3.068,0.10701
3.072,0.12109
3.076,0.09161
3.08,0.12521
3.084,0.10426
3.088,0.09624
3.092,0.07139
3.096,0.02403
3.1,0.03769
3.104,0.03314
3.108,0.02704
3.112,0.05303
3.116,0.01987
3.12,-0.00442
3.124,0.03185
3.128,0.02067
3.132,0.0041
3.136,-0.01131
3.14,0.02761
3.144,0.03602
3.148,0.02439
3.152,0.02982
3.156,0.05075
3.16,0.02205
3.164,0.02216
3.168,0.01246
3.172,0.02007
3.176,0.02206
3.18,-0.02326
3.184,-0.0181
3.188,-0.06267
3.192,-0.08127
3.196,-0.07886
3.2,0.01874
3.204,0.17049
3.208,0.39965
3.212,0.62274
3.216,0.80529
3.22,0.96538
3.224,1.02721
3.228,0.98779
3.232,0.83355
3.236,0.60644
3.24,0.39345
3.244,0.19545
3.248,0.00035
3.252,-0.09001
3.256,-0.14071
3.26,-0.15524
3.264,-0.11199
3.268,-0.07435
3.272,-0.00744
3.276,-0.00395
3.28,0.01625
3.284,0.00365
3.288,0.01871
3.292,0.02731
3.296,0.0139
3.3,0.04499
3.304,0.01581
3.308,0.0106
3.312,0.01686
3.316,0.01009
3.32,0.00564
3.324,0.02562
3.328,0.02018
3.332,0.02222
3.336,0.02011
3.34,0.03413
3.344,0.03453
3.348,0.04533
3.352,0.04275
3.356,0.05235
3.36,0.06103
3.364,0.00203
3.368,0.02249
3.372,-0.00453
3.376,0.04505
3.38,-0.00527
3.384,0.03353
3.388,0.02476
3.392,0.0401
3.396,0.0382
3.4,0.00627
3.404,0.00574
3.408,0.06176
3.412,0.04208
3.416,0.05687
3.42,0.06147
3.424,0.07032
3.428,0.07697
3.432,0.08043
3.436,0.09688
3.44,0.09525
3.444,0.10037
3.448,0.11343
3.452,0.13142
3.456,0.1445
3.46,0.14873
3.464,0.16287
3.468,0.18241
3.472,0.16581
3.476,0.21309
3.48,0.22503
3.484,0.19888
3.488,0.22103
3.492,0.23195
3.496,0.2406
3.5,0.23515
3.504,0.22296
3.508,0.23899
3.512,0.21913
3.516,0.22854
3.52,0.22244
3.524,0.23121
3.528,0.21592
3.532,0.20927
3.536,0.16352
3.54,0.18421
3.544,0.14718
3.548,0.13656
3.552,0.15604
3.556,0.13741
3.56,0.12155
3.564,0.09887
3.568,0.06159
3.572,0.06133
3.576,0.08757
3.58,0.0777
3.584,0.06296
3.588,0.0287
3.592,0.03513
3.596,0.0701
3.6,0.02561
3.604,0.04384
3.608,0.051
3.612,0.04518
3.616,0.00787
3.62,0.00726
3.624,0.00662
3.628,0.01778
3.632,0.01498
3.636,0.03503
3.64,0.02739
3.644,0.00249
3.648,0.01912
3.652,0.0162
3.656,-0.0014
3.66,0.00698
3.664,0.02709
3.668,0.01051
3.672,0.03664
3.676,-0.01512
3.68,-0.00429
3.684,0.00189
3.688,0.0147
3.692,-0.00496
3.696,0.01844
3.7,0.00725
3.704,0.02889
3.708,0.0198
3.712,0.02205
3.716,0.04706
3.72,0.03633
3.724,0.03741
3.728,0.05446
3.732,0.06778
3.736,0.08545
3.74,0.10257
3.744,0.14765
3.748,0.09768
3.752,0.09083
3.756,0.11336
3.76,0.09636
3.764,0.07168
3.768,0.07466
3.772,0.06928
3.776,0.04987
3.78,0.06201
3.784,0.0391
3.788,0.01208
3.792,0.00507
3.796,-0.0071
3.8,0.01277
3.804,-0.00415
3.808,-0.00528
3.812,0.00226
3.816,-0.01649
3.82,0.03624
3.824,0.01351
3.828,-0.00876
3.832,-0.00361
3.836,-0.01738
3.84,-0.00577
3.844,-0.00141
3.848,0.00896
3.852,-0.00323
3.856,0.01984
3.86,-0.00183
3.864,-0.01921
3.868,-0.05807
3.872,-0.08774
3.876,-0.12927
3.88,-0.07752
3.884,-0.00449
3.888,0.17956
3.892,0.29281
3.896,0.52524
3.9,0.77242
3.904,0.92729
3.908,0.99716
3.912,0.96618
3.916,0.85064
3.92,0.64059
3.924,0.38542
3.928,0.19173
3.932,0.00752
3.936,-0.13293
3.94,-0.15823
3.944,-0.15203
3.948,-0.11907
3.952,-0.08123
3.956,-0.03362
3.96,-0.00818
3.964,0.00355
3.968,-0.01112
3.972,-0.01619
3.976,0.00273
3.98,-0.00521
3.984,0.00407
3.988,0.02445
3.992,-0.00245
3.996,0.0161
4.0,0.00673
4.004,-0.00462
4.008,-0.00935
4.012,0.01048
4.016,0.01465
4.02,0.0195
4.024,0.01296
4.028,0.01447
4.032,-0.00431
4.036,-0.00667
4.04,-0.01403
4.044,0.00265
4.048,0.02048
4.052,-0.00533
4.056,-0.00358
4.06,0.012
4.064,0.03177
4.068,0.01061
4.072,0.00378
4.076,0.00612
4.08,0.01707
4.084,0.02923
4.088,0.02026
4.092,0.00724
4.096,-0.00666
4.1,0.03151
4.104,0.01284
4.108,0.02094
4.112,0.05398
4.116,0.08177
4.12,0.05397
4.124,0.07694
4.128,0.08876
4.132,0.09409
4.136,0.11826
4.14,0.14274
4.144,0.15185
4.148,0.16199
4.152,0.13724
4.156,0.15781
4.16,0.17315
4.164,0.18551
4.168,0.18895
4.172,0.21552
4.176,0.22552
4.18,0.2275
4.184,0.20893
4.188,0.20324
4.192,0.23504
4.196,0.22572
4.2,0.17131
4.204,0.19018
4.208,0.17489
4.212,0.19898
4.216,0.14945
4.22,0.15439
4.224,0.15688
4.228,0.15033
4.232,0.15746
4.236,0.10183
4.24,0.11623
4.244,0.1089
4.248,0.06415
4.252,0.09441
4.256,0.08873
4.26,0.05449
4.264,0.0478
4.268,0.01783
4.272,0.02496
4.276,0.00605
4.28,0.02956
4.284,-0.00423
4.288,-0.00426
4.292,-0.00154
4.296,0.00441
4.3,0.02076
4.304,0.03922
4.308,0.00623
4.312,-0.02104
4.316,-0.00502
4.32,0.01557
4.324,0.018
4.328,0.02582
4.332,-0.00652
4.336,0.00145
4.34,-0.02223
4.344,0.00276
4.348,-0.02727
4.352,-0.01898
4.356,-0.00723
4.36,-0.00958
4.364,-0.01718
4.368,-0.01669
4.372,-0.00795
4.376,-0.0263
4.38,0.00672
4.384,-0.0009
4.388,0.00674
4.392,0.00744
4.396,-0.02237
4.4,-0.00461
4.404,-0.00224
4.408,-0.00283
4.412,-0.01834
4.416,0.00256
4.42,-0.00394
4.424,0.0065
4.428,-0.02205
4.432,-0.00567
4.436,-0.00789
4.44,-0.01903
4.444,0.00258
4.448,-0.03135
4.452,-0.01376
4.456,-0.03083
4.46,-0.00987
4.464,-0.02151
4.468,-0.01731
4.472,-0.04598
4.476,-0.01261
4.48,-0.00238
4.484,-0.03068
4.488,-0.00468
4.492,-0.03075
4.496,-0.0195
4.5,-0.01094
4.504,0.01191
4.508,-0.00343
4.512,0.01087
4.516,0.00918
4.52,0.05647
4.524,0.05341
4.528,0.06335
4.532,0.08386
4.536,0.06686
4.54,0.06678
4.544,0.07874
4.548,0.08635
4.552,0.09268
4.556,0.05577
4.56,0.04037
4.564,0.04982
4.568,0.0581
4.572,0.01384
4.576,0.00852
4.58,0.01413
4.584,0.01327
4.588,0.02547
4.592,-0.03144
4.596,-0.02631
4.6,-0.02525
4.604,0.00293
4.608,-0.01082
4.612,-0.01181
4.616,-0.03385
4.62,-0.00889
4.624,-0.00445
4.628,-0.01581
4.632,-0.02634
4.636,0.00755
4.64,-0.00978
4.644,-0.00429
4.648,-0.01915
4.652,-0.01488
4.656,-0.03573
4.66,-0.02102
4.664,-0.10434
4.668,-0.11456
4.672,-0.15068
4.676,-0.12694
4.68,-0.02244
4.684,0.1022
4.688,0.29468
4.692,0.51819
4.696,0.74018
4.7,0.86589
4.704,0.97769
4.708,0.94335
4.712,0.80965
4.716,0.60951
4.72,0.37496
4.724,0.16501
4.728,-0.02959
4.732,-0.11707
4.736,-0.18204
4.74,-0.18
4.744,-0.15047
4.748,-0.11384
4.752,-0.07621
4.756,-0.02975
4.76,-0.02396
4.764,-0.04338
4.768,-0.01574
4.772,0.01078
4.776,0.0145
4.78,-0.01834
4.784,-0.02101
4.788,-0.03125
4.792,-0.02066
4.796,-0.02094
4.8,-0.0427
4.804,-0.02238
4.808,-0.03553
4.812,-0.01849
4.816,-0.0072
4.82,-0.03312
4.824,-0.0033
4.828,-0.02472
4.832,0.00291
4.836,0.00178
4.84,-0.03101
4.844,-0.03987
4.848,-0.04017
4.852,-0.01553
4.856,-0.02145
4.86,-0.03712
4.864,-0.00246
4.868,-0.0124
4.872,-0.00647
4.876,-0.01168
4.88,0.00283
4.884,-0.00834
4.888,-0.00734
4.892,-0.00818
4.896,0.00505
4.9,0.00373
4.904,0.00267
4.908,0.04147
4.912,0.03612
4.916,0.05885
4.92,0.02676
4.924,0.05809
4.928,0.08246
4.932,0.10284
4.936,0.13259
4.94,0.11961
4.944,0.12824
4.948,0.10775
4.952,0.15276
4.956,0.15275
4.96,0.18403
4.964,0.16213
4.968,0.20029
4.972,0.17149
4.976,0.17862
4.98,0.20408
4.984,0.19033
4.988,0.19722
4.992,0.22092
4.996,0.19507
5.0,0.15004
5.004,0.17484
5.008,0.16493
5.012,0.1197
5.016,0.13559
5.02,0.12418
5.024,0.12474
5.028,0.10285
5.032,0.08396
5.036,0.10109
5.04,0.07889
5.044,0.08873
5.048,0.0507
5.052,0.0666
5.056,0.04398
5.06,0.00802
5.064,0.05195
5.068,0.0184
5.072,0.01033
5.076,0.00978
5.08,0.00639
5.084,0.00515
5.088,0.0063
5.092,-0.00129
5.096,-0.0036
5.1,-0.05373
5.104,-0.02007
5.108,-0.01968
5.112,-0.03848
5.116,-0.03709
5.12,-0.02992
5.124,-0.00858
5.128,-0.045
5.132,-0.00836
5.136,-0.00532
5.14,-0.0576
5.144,-0.03179
5.148,-0.05709
5.152,-0.0323
5.156,-0.02942
5.16,-0.0204
5.164,-0.01085
5.168,-0.01838
5.172,-0.03755
5.176,-0.02503
5.18,-0.03183
5.184,-0.01695
5.188,-0.01494
5.192,-0.01473
5.196,-0.04008
5.2,-0.02947
5.204,-0.02837
5.208,-0.03905
5.212,-0.01714
5.216,-0.04652
5.22,-0.01458
5.224,-0.02172
5.228,-0.02215
5.232,-0.02885
5.236,-0.05126
5.24,-0.02562
5.244,-0.02132
5.248,-0.01526
5.252,-0.06752
5.256,-0.02653
5.26,-0.03617
5.264,-0.0332
5.268,-0.02517
5.272,-0.00358
5.276,0.00198
5.28,-0.01476
5.284,-0.03547
5.288,-0.01373
5.292,-0.02907
5.296,-0.03372
5.3,-0.02589
5.304,0.00735
5.308,-0.01037
5.312,0.02555
5.316,-0.01667
5.32,0.03108
5.324,0.05001
5.328,0.047
5.332,0.07243
5.336,0.06109
5.34,0.0416
5.344,0.07974
5.348,0.07069
5.352,0.0646
5.356,0.05013
5.36,0.02743
5.364,0.04672
5.368,0.03636
5.372,0.01461
5.376,0.00691
5.38,-0.0118
5.384,-0.03586
5.388,-0.01923
5.392,0.00156
5.396,-0.02364
5.4,-0.02917
5.404,-0.00782
5.408,-0.02172
5.412,-0.03264
5.416,-0.04983
5.42,-0.01238
5.424,-0.04405
5.428,-0.02135
5.432,-0.00299
5.436,-0.04476
5.44,-0.04605
5.444,-0.01748
5.448,-0.03565
5.452,-0.02681
5.456,-0.06539
5.46,-0.05905
5.464,-0.11623
5.468,-0.1545
5.472,-0.16157
5.476,-0.07239
5.48,0.08449
5.484,0.26142
5.488,0.47758
5.492,0.65116
5.496,0.86908
5.5,0.98386
5.504,0.96421
5.508,0.84647
5.512,0.62651
5.516,0.4175
5.52,0.19213
5.524,0.01863
5.528,-0.1387
5.532,-0.20741
5.536,-0.18763
5.54,-0.1497
5.544,-0.13201
5.548,-0.05146
5.552,-0.04816
5.556,-0.05121
5.56,-0.00734
5.564,-0.02225
5.568,-0.03574
5.572,-0.04669
5.576,-0.01485
5.58,-0.023
5.584,-0.05768
5.588,-0.0494
5.592,-0.02966
5.596,-0.03919
5.6,-0.01078
5.604,-0.0349
5.608,-0.0186
5.612,-0.01192
5.616,-0.04484
5.62,-0.00901
5.624,-0.02605
5.628,-0.03308
5.632,-0.01849
5.636,-0.05526
5.64,-0.02813
5.644,-0.05022
5.648,-0.02823
5.652,-0.00867
5.656,-0.04066
5.66,-0.01932
5.664,-0.01663
5.668,-0.01961
5.672,-0.03426
5.676,-0.02096
5.68,-0.02725
5.684,0.00762
5.688,0.00916
5.692,-0.01798
5.696,0.02019
5.7,0.01492
5.704,0.01998
5.708,0.04635
5.712,0.03808
5.716,0.0502
5.72,0.07921
5.724,0.05238
5.728,0.06423
5.732,0.08657
5.736,0.10506
5.74,0.14112
5.744,0.14892
5.748,0.13177
5.752,0.152
5.756,0.16772
5.76,0.16195
5.764,0.15463
5.768,0.19562
5.772,0.19548
5.776,0.2146
5.78,0.2097
5.784,0.19882
5.788,0.19914
5.792,0.20946
5.796,0.17789
5.8,0.18176
5.804,0.15487
5.808,0.14368
5.812,0.16692
5.816,0.14775
5.82,0.13975
5.824,0.10814
5.828,0.11265
5.832,0.11342
5.836,0.0605
5.84,0.05478
5.844,0.05096
5.848,0.01832
5.852,0.02795
5.856,0.02362
5.86,0.03519
5.864,0.00033
5.868,0.00768
5.872,0.02056
5.876,-0.01441
5.88,-0.00907
5.884,-0.0017
5.888,0.00025
5.892,-0.00357
5.896,-0.04697
5.9,-0.03693
5.904,-0.02428
5.908,-0.02781
5.912,-0.0092
5.916,-0.04172
5.92,-0.00949
5.924,-0.03414
5.928,-0.01962
5.932,-0.0496
5.936,-0.04381
5.94,-0.0288
5.944,-0.01662
5.948,0.00866
5.952,-0.04079
5.956,-0.01481
5.96,-0.02212
5.964,-0.05817
5.968,-0.03416
5.972,-0.01727
5.976,-0.01881
5.98,-0.00772
5.984,-0.03787
5.988,-0.0155
5.992,-0.02871
5.996,-0.00421
6.0,-0.04527
6.004,-0.03222
6.008,-0.00589
6.012,-0.03938
6.016,-0.04117
6.02,-0.0357
6.024,-0.01707
6.028,-0.03156
6.032,-0.01407
6.036,-0.03411
6.04,-0.0299
6.044,-0.06656
6.048,-0.05593
6.052,-0.03046
6.056,-0.02159
6.06,-0.02377
6.064,-0.01985
6.068,-0.04511
6.072,-0.02538
6.076,-0.01521
6.08,-0.01742
6.084,-0.02042
6.088,-0.0405
6.092,-0.02356
6.096,-0.03799
6.1,-0.01973
6.104,-0.02618
6.108,-0.03585
6.112,-0.03479
6.116,-0.00932
6.12,-0.03654
6.124,-0.01387
6.128,-0.03443
6.132,-0.03696
6.136,-0.00279
6.14,-0.03006
6.144,-0.0286
6.148,-0.05992
6.152,-0.00271
6.156,-0.02268
6.16,-0.04501
6.164,-0.02711
6.168,-0.03907
6.172,-0.01428
6.176,-0.05138
6.18,0.00073
6.184,-0.04981
6.188,-0.03619
6.192,-0.01596
6.196,-0.02127
6.2,-0.03465
6.204,-0.03176
6.208,-0.01805
6.212,-0.05198
6.216,-0.0032
6.22,-0.03323
6.224,-0.00215
6.228,0.01069
6.232,0.02074
6.236,-0.01624
6.24,0.02461
6.244,0.02665
6.248,0.05309
6.252,0.06175
6.256,0.07456
6.26,0.05545
6.264,0.0702
6.268,0.07033
6.272,0.08554
6.276,0.05138
6.28,0.02514
6.284,0.00433
6.288,0.0341
6.292,0.01375
6.296,0.00049
6.3,0.00637
6.304,-0.02482
6.308,-0.02729
6.312,-0.05988
6.316,-0.02787
6.32,-0.01247
6.324,-0.02445
6.328,-0.01724
6.332,-0.04091
6.336,-0.04038
6.34,-0.05159
6.344,-0.0371
6.348,-0.0241
6.352,-0.03078
6.356,-0.00496
6.36,-0.01279
6.364,-0.03247
6.368,0.002
6.372,-0.03871
6.376,-0.05917
6.38,-0.05594
6.384,-0.14234
6.388,-0.16949
6.392,-0.09237
6.396,-0.01942
6.4,0.13144
6.404,0.31355
6.408,0.54471
6.412,0.7322
6.416,0.9112
6.42,0.9754
6.424,0.92623
6.428,0.80064
6.432,0.55514
6.436,0.38192
6.44,0.13668
6.444,-0.03502
6.448,-0.1168
6.452,-0.19144
6.456,-0.19366
6.46,-0.14328
6.464,-0.09993
6.468,-0.05628
6.472,-0.05877
6.476,-0.0322
6.48,-0.05112
6.484,-0.0633
6.488,-0.03114
6.492,-0.00926
6.496,-0.02747
6.5,-0.00686
6.504,0.0021
6.508,-0.0437
6.512,-0.03257
6.516,-0.04342
6.52,-0.03957
6.524,-0.00755
6.528,-0.01748
6.532,-0.01909
6.536,-0.00253
6.54,-0.04808
6.544,-0.01037
6.548,-0.0002
6.552,-0.00999
6.556,0.0032
6.56,-0.04184
6.564,-0.01394
6.568,-0.03484
6.572,-0.02286
6.576,-0.00604
6.58,-0.0345
6.584,0.00453
6.588,0.00635
6.592,-0.01298
6.596,-0.01451
6.6,0.00631
6.604,0.00279
6.608,0.02377
6.612,-0.00021
6.616,0.02822
6.62,0.028
6.624,0.03905
6.628,0.05369
6.632,0.07085
6.636,0.02472
6.64,0.08147
6.644,0.09639
6.648,0.07212
6.652,0.10144
6.656,0.11816
6.66,0.14662
6.664,0.13875
6.668,0.16427
6.672,0.16673
6.676,0.157
6.68,0.18758
6.684,0.1956
6.688,0.16172
6.692,0.21584
6.696,0.14394
6.7,0.18668
6.704,0.18308
6.708,0.2101
6.712,0.21018
6.716,0.18904
6.72,0.1794
6.724,0.21039
6.728,0.15636
6.732,0.15108
6.736,0.13611
6.74,0.1528
6.744,0.14719
6.748,0.10526
6.752,0.09368
6.756,0.09559
6.76,0.06902
6.764,0.04413
6.768,0.08158
6.772,0.05303
6.776,0.03442
6.78,0.04164
6.784,0.02978
6.788,0.03622
6.792,0.00402
6.796,-0.00225
6.8,-0.01201
6.804,0.0151
6.808,-0.00166
6.812,-0.01105
6.816,-0.00053
6.82,0.02028
6.824,-0.01671
6.828,0.00174
6.832,0.01334
6.836,-0.02014
6.84,-0.00698
6.844,0.01227
6.848,-0.03402
6.852,-0.01638
6.856,-0.01291
6.86,-0.04219
6.864,-0.01568
6.868,-0.00545
6.872,-0.00229
6.876,-0.00197
6.88,0.00514
6.884,-0.00977
6.888,-0.01994
6.892,-0.02662
6.896,-0.03108
6.9,-0.03033
6.904,-0.00053
6.908,-0.02
6.912,-0.00556
6.916,-0.02149
6.92,-0.03139
6.924,-0.01573
6.928,-0.01918
6.932,-0.0398
6.936,-0.01224
6.94,-0.00123
6.944,-0.01665
6.948,-0.00266
6.952,-0.00322
6.956,-0.02523
6.96,-0.03043
6.964,0.00651
6.968,-0.01116
6.972,-0.00714
6.976,0.01318
6.98,-0.00609
6.984,-0.02133
6.988,-0.01535
6.992,-0.0165
6.996,-0.00611
7.0,-0.01211
7.004,-0.02147
7.008,-0.01791
7.012,0.0064
7.016,-0.01155
7.02,0.00514
7.024,-0.01842
7.028,-0.01197
7.032,-0.03227
7.036,-0.01187
7.04,-0.00311
7.044,0.00617
7.048,0.0263
7.052,0.0181
7.056,0.05681
7.06,0.03984
7.064,0.0698
7.068,0.09294
7.072,0.08981
7.076,0.05546
7.08,0.10115
7.084,0.09528
7.088,0.08151
7.092,0.07003
7.096,0.06673
7.1,0.04011
7.104,0.03337
7.108,0.03849
7.112,-0.00931
7.116,-0.01193
7.12,0.01124
7.124,0.00223
7.128,-0.00109
7.132,-0.00367
7.136,-0.01696
7.14,-0.00166
7.144,-0.02328
7.148,-0.01117
7.152,-0.0151
7.156,-0.00873
7.16,0.02467
7.164,-0.0106
7.168,-0.00476
7.172,-0.01049
7.176,-0.00582
7.18,0.01065
7.184,-0.03037
7.188,-0.01082
7.192,-0.00457
7.196,-0.02809
7.2,-0.083
7.204,-0.11269
7.208,-0.1403
7.212,-0.04266
7.216,0.05557
7.22,0.2427
7.224,0.43733
7.228,0.68477
7.232,0.85907
7.236,0.97953
7.24,1.00356
7.244,0.89579
7.248,0.70421
7.252,0.50525
7.256,0.24657
7.26,0.05834
7.264,-0.0881
7.268,-0.13048
7.272,-0.15816
7.276,-0.14633
7.28,-0.10392
7.284,-0.04392
7.288,-0.04443
7.292,-0.01715
7.296,-0.00019
7.3,-0.03269
7.304,0.02168
7.308,-0.01683
7.312,-0.01419
7.316,-0.01782
7.32,0.0013
7.324,0.01902
7.328,-0.00263
7.332,-0.00017
7.336,-0.00885
7.34,0.00457
7.344,-0.00756
7.348,0.00753
7.352,0.0235
7.356,-0.00382
7.36,2e-05
7.364,-0.01602
7.368,0.01848
7.372,-0.02927
7.376,-0.00278
7.38,0.01259
7.384,0.01858
7.388,0.02048
7.392,-0.00453
7.396,-0.02113
7.4,0.01289
7.404,0.01307
7.408,0.01828
7.412,0.01391
7.416,-0.02035
7.42,0.02306
7.424,0.00352
7.428,0.05476
7.432,0.01194
7.436,0.04222
7.44,0.03695
7.444,0.03138
7.448,0.06646
7.452,0.09649
7.456,0.08181
7.46,0.09341
7.464,0.12492
7.468,0.13703
7.472,0.12947
7.476,0.1415
7.48,0.16542
7.484,0.18239
7.488,0.16145
7.492,0.18756
7.496,0.19182
7.5,0.21956
7.504,0.23381
7.508,0.21118
7.512,0.24842
7.516,0.22764
7.52,0.22226
7.524,0.22009
7.528,0.22294
7.532,0.2387
7.536,0.22638
7.54,0.19161
7.544,0.18898
7.548,0.18074
7.552,0.19656
7.556,0.12549
7.56,0.12667
7.564,0.13321
7.568,0.1439
7.572,0.08941
7.576,0.10358
7.58,0.10055
7.584,0.08495
7.588,0.04234
7.592,0.08271
7.596,0.05454
7.6,0.06435
7.604,0.0274
7.608,0.06106
7.612,0.03107
7.616,0.05432
7.62,0.04588
7.624,0.05961
7.628,0.00867
7.632,0.0127
7.636,0.03026
7.64,0.01281
7.644,0.01716
7.648,0.008
7.652,0.01953
7.656,-0.0065
7.66,0.03079
7.664,0.01073
7.668,-0.00841
7.672,-0.00816
7.676,0.0299
7.68,0.01712
7.684,0.0151
7.688,0.06233
7.692,0.06679
7.696,0.08578
7.7,0.07658
7.704,0.1159
7.708,0.11298
7.712,0.10779
7.716,0.10734
7.72,0.10729
7.724,0.08499
7.728,0.10989
7.732,0.08004
7.736,0.04866
7.74,0.03546
7.744,0.03547
7.748,0.02999
7.752,0.01859
7.756,0.02061
7.76,0.04277
7.764,0.02634
7.768,0.01384
7.772,0.00144
7.776,0.02529
7.78,-0.00439
7.784,0.01975
7.788,0.00519
7.792,0.00611
7.796,-0.00321
7.8,-0.00759
7.804,0.02524
7.808,0.02483
7.812,-0.03533
7.816,-0.00032
7.82,0.01224
7.824,-0.01511
7.828,-0.00759
7.832,-0.00699
7.836,-0.08422
7.84,-0.13148
7.844,-0.11642
7.848,-0.0485
7.852,0.10572
7.856,0.25523
7.86,0.47157
7.864,0.67009
7.868,0.87732
7.872,0.99775
7.876,1.00118
7.88,0.92009
7.884,0.73573
7.888,0.50106
7.892,0.27642
7.896,0.10865
7.9,-0.02624
7.904,-0.15339
7.908,-0.14566
7.912,-0.1193
7.916,-0.07603
7.92,-0.03247
7.924,-0.02432
7.928,0.00932
7.932,0.02305
7.936,0.03304
7.94,0.0081
7.944,0.01882
7.948,0.02697
7.952,0.01254
7.956,-0.02363
7.96,0.02809
7.964,0.00809
7.968,-0.00122
7.972,0.02484
7.976,0.0194
7.98,0.01619
7.984,0.01121
7.988,0.02435
7.992,0.02898
7.996,0.0226
8.0,0.01546
8.004,0.01566
8.008,0.03259
8.012,0.00177
8.016,0.01349
8.02,0.00842
8.024,-0.0079
8.028,0.0195
8.032,0.03143
8.036,0.01689
8.04,0.03515
8.044,0.02896
8.048,0.02395
8.052,0.01697
8.056,0.02256
8.06,0.03309
8.064,0.04323
8.068,0.02841
8.072,0.07266
8.076,0.07648
8.08,0.06626
8.084,0.08715
8.088,0.10147
8.092,0.10407
8.096,0.1261
8.1,0.13941
8.104,0.11271
8.108,0.12722
8.112,0.16239
8.116,0.17112
8.12,0.18977
8.124,0.19915
8.128,0.22688
8.132,0.21384
8.136,0.19906
8.14,0.23258
8.144,0.23359
8.148,0.23225
8.152,0.25195
8.156,0.2438
8.16,0.23114
8.164,0.23915
8.168,0.24369
8.172,0.2451
8.176,0.24314
8.18,0.19423
8.184,0.18822
8.188,0.18864
8.192,0.16906
8.196,0.14372
8.2,0.16459
8.204,0.10926
8.208,0.13323
8.212,0.14225
8.216,0.10309
8.22,0.06865
8.224,0.09173
8.228,0.0891
8.232,0.08692
8.236,0.05888
8.24,0.06915
8.244,0.03423
8.248,0.04475
8.252,0.04102
8.256,0.01133
8.26,0.03726
8.264,0.03022
8.268,0.01594
8.272,0.018
8.276,0.03268
8.28,0.01671
8.284,0.04539
8.288,0.01235
8.292,-0.0006
8.296,0.03877
8.3,0.03005
8.304,0.03184
8.308,0.00676
8.312,0.06243
8.316,0.02435
8.32,0.0353
8.324,0.02881
8.328,0.03638
8.332,0.03576
8.336,0.03763
8.34,0.03544
8.344,0.01819
8.348,0.02708
8.352,0.02822
8.356,0.03049
8.36,0.00526
8.364,0.00731
8.368,0.00406
8.372,0.00463
8.376,0.02927
8.38,0.01824
8.384,7e-05
8.388,0.02362
8.392,0.01757
8.396,-0.00962
8.4,0.03325
8.404,0.03049
8.408,0.03206
8.412,0.02427
8.416,0.04702
8.42,0.04258
8.424,0.03022
8.428,0.00928
8.432,0.02843
8.436,0.03816
8.44,0.00136
8.444,0.03847
8.448,0.01667
8.452,0.03323
8.456,0.01095
8.46,0.04124
8.464,0.0327
8.468,0.05031
8.472,0.02336
8.476,0.04664
8.48,0.06196
8.484,0.02873
8.488,0.0368
8.492,0.03518
8.496,0.03924
8.5,-0.00229
8.504,0.02841
8.508,0.01473
8.512,0.00998
8.516,0.02343
8.52,0.00214
8.524,0.03278
8.528,0.02219
8.532,0.00714
8.536,0.01795
8.54,0.01911
8.544,0.03776
8.548,0.04731
8.552,0.05885
8.556,0.03858
8.56,0.03638
8.564,0.01773
8.568,0.02855
8.572,0.0299
8.576,0.02049
8.58,0.03553
8.584,0.04489
8.588,0.04442
8.592,0.05018
8.596,0.05816
8.6,0.05144
8.604,0.05321
8.608,0.02806
8.612,0.0718
8.616,0.09189
8.62,0.09059
8.624,0.09977
8.628,0.11221
8.632,0.16523
8.636,0.09874
8.64,0.10112
8.644,0.11364
8.648,0.12958
8.652,0.13312
8.656,0.09402
8.66,0.08646
8.664,0.07629
8.668,0.06943
8.672,0.06585
8.676,0.03787
8.68,0.03443
8.684,0.05102
8.688,0.01401
8.692,0.03389
8.696,0.03582
8.7,0.046
8.704,0.01461
8.708,0.0382
8.712,0.02371
8.716,0.03343
8.72,0.01223
8.724,0.0151
8.728,0.00565
8.732,0.04506
8.736,0.03314
8.74,0.03372
8.744,0.02979
8.748,0.06082
8.752,0.01217
8.756,-0.02768
8.76,-0.06715
8.764,-0.07531
8.768,-0.06874
8.772,-0.01263
8.776,0.12943
8.78,0.29782
8.784,0.51322
8.788,0.71528
8.792,0.9048
8.796,1.03047
8.8,0.97741
8.804,0.91912
8.808,0.69381
8.812,0.48247
8.816,0.27762
8.82,0.07155
8.824,-0.08658
8.828,-0.10409
8.832,-0.15791
8.836,-0.151
8.84,-0.05221
8.844,-0.02445
8.848,0.01766
8.852,0.0139
8.856,0.04311
8.86,0.01748
8.864,-0.00217
8.868,0.01961
8.872,0.03088
8.876,0.04982
8.88,0.00395
8.884,0.02744
8.888,0.01881
8.892,0.02556
8.896,0.05441
8.9,0.02703
8.904,-0.00694
8.908,0.03923
8.912,0.02033
8.916,0.03341
8.92,0.03426
8.924,0.03327
8.928,0.01619
8.932,0.05756
8.936,0.01987
8.94,0.05367
8.944,0.04032
8.948,0.03564
8.952,0.04244
8.956,0.05182
8.96,0.03772
8.964,0.01554
8.968,0.02858
8.972,0.05914
8.976,0.06177
8.98,0.02098
8.984,0.0576
8.988,0.06335
8.992,0.05487
8.996,0.05217
9.0,0.07609
9.004,0.0898
9.008,0.07402
9.012,0.09392
9.016,0.13108
9.02,0.11817
9.024,0.15553
9.028,0.16944
9.032,0.17793
9.036,0.15603
9.04,0.16413
9.044,0.19311
9.048,0.21469
9.052,0.20344
9.056,0.22329
9.06,0.22677
9.064,0.24032
9.068,0.26846
9.072,0.26343
9.076,0.25163
9.08,0.24745
9.084,0.24237
9.088,0.22827
9.092,0.21552
9.096,0.25955
9.1,0.23013
9.104,0.21908
9.108,0.19916
9.112,0.18609
9.116,0.15705
9.12,0.16119
9.124,0.17705
9.128,0.13824
9.132,0.12087
9.136,0.1096
9.14,0.11231
9.144,0.1041
9.148,0.1092
9.152,0.07501
9.156,0.09855
9.16,0.06255
9.164,0.06963
9.168,0.07575
9.172,0.05772
9.176,0.0691
9.18,0.0605
9.184,0.05055
9.188,0.06076
9.192,0.023
9.196,0.0155
9.2,0.02851
9.204,0.04928
9.208,0.06083
9.212,0.03753
9.216,0.03653
9.22,0.02007
9.224,0.05828
9.228,0.02531
9.232,0.0301
9.236,0.03079
9.24,0.03624
9.244,0.05139
9.248,0.00857
9.252,0.05547
9.256,0.03698
9.26,0.04029
9.264,0.03566
9.268,0.02321
9.272,0.04057
9.276,0.03752
9.28,0.02283
9.284,0.00608
9.288,0.03015
9.292,0.02952
9.296,0.00833
9.3,0.02892
9.304,0.0266
9.308,0.03596
9.312,0.01695
9.316,0.03037
9.32,0.0079
9.324,0.02548
9.328,0.03413
9.332,0.03245
9.336,0.01329
9.34,0.06794
9.344,0.03429
9.348,0.02705
9.352,0.05986
9.356,0.08346
9.36,0.07794
9.364,0.09123
9.368,0.12833
9.372,0.12751
9.376,0.12523
9.38,0.11088
9.384,0.10679
9.388,0.11351
9.392,0.0908
9.396,0.09348
9.4,0.09867
9.404,0.05101
9.408,0.06693
9.412,0.02927
9.416,0.0199
9.42,0.06993
9.424,0.06097
9.428,0.0244
9.432,-0.00147
9.436,0.05351
9.44,0.01572
9.444,0.03391
9.448,0.03497
9.452,0.03558
9.456,0.05582
9.46,0.02398
9.464,0.03976
9.468,0.02457
9.472,0.02546
9.476,0.04317
9.48,0.00217
9.484,0.01954
9.488,0.01796
9.492,0.02165
9.496,-0.01287
9.5,-0.04762
9.504,-0.11526
9.508,-0.0459
9.512,-0.00229
9.516,0.13576
9.52,0.30543
9.524,0.52857
9.528,0.74388
9.532,0.90236
9.536,1.01944
9.54,1.00519
9.544,0.89538
9.548,0.71281
9.552,0.48125
9.556,0.24172
9.56,0.05434
9.564,-0.04479
9.568,-0.15278
9.572,-0.10099
9.576,-0.14593
9.58,-0.07241
9.584,-0.01738
9.588,0.00671
9.592,0.03499
9.596,0.03185
9.6,0.04674
9.604,0.02428
9.608,0.02698
9.612,0.03269
9.616,0.01528
9.62,0.03457
9.624,0.02461
9.628,0.03594
9.632,0.00272
9.636,0.031
9.64,-0.00036
9.644,0.03361
9.648,0.01884
9.652,0.05245
9.656,0.04138
9.66,0.02475
9.664,0.02526
9.668,0.04303
9.672,0.05446
9.676,0.02516
9.68,0.00939
9.684,0.04762
9.688,0.0502
9.692,0.02165
9.696,0.04943
9.7,0.02726
9.704,0.03481
9.708,0.03258
9.712,0.05082
9.716,0.03152
9.72,0.04997
9.724,0.05653
9.728,0.04786
9.732,0.04529
9.736,0.06823
9.74,0.07085
9.744,0.06777
9.748,0.10727
9.752,0.07694
9.756,0.12448
9.76,0.14181
9.764,0.11475
9.768,0.13598
9.772,0.1469
9.776,0.15839
9.78,0.18435
9.784,0.21684
9.788,0.16457
9.792,0.17624
9.796,0.20652
9.8,0.19643
9.804,0.23441
9.808,0.22561
9.812,0.25528
9.816,0.2247
9.82,0.23622
9.824,0.2252
9.828,0.21789
9.832,0.21249
9.836,0.22495
9.84,0.19756
9.844,0.20891
9.848,0.19557
9.852,0.18475
9.856,0.18356
9.86,0.17097
9.864,0.13066
9.868,0.15931
9.872,0.13836
9.876,0.09573
9.88,0.12314
9.884,0.09603
9.888,0.12287
9.892,0.08399
9.896,0.04571
9.9,0.06665
9.904,0.06085
9.908,0.04316
9.912,0.06303
9.916,0.01317
9.92,0.03113
9.924,0.04328
9.928,0.01571
9.932,0.01489
9.936,0.03699
9.94,0.02224
9.944,0.02271
9.948,0.00728
9.952,0.03541
9.956,0.02508
9.96,0.03442
9.964,0.00035
9.968,0.02049
9.972,0.00311
9.976,0.02894
9.98,0.00304
9.984,0.01097
9.988,0.0221
9.992,0.04097
9.996,0.0422
