t_seg,ecg_mV
0.0,-0.00148
0.004,-0.02699
0.008,-0.00451
0.012,-0.04969
0.016,-0.01944
0.02,-0.05598
0.024,-0.01839
0.028,-0.05372
0.032,-0.03542
0.036,-0.00902
0.04,0.03634
0.044,-0.0451
0.048,-0.00678
0.052,-0.00583
0.056,9e-05
0.06,-0.05552
0.064,0.03448
0.068,-0.02567
0.072,-0.04557
0.076,-0.04712
0.08,-0.03821
0.084,0.04321
0.088,0.01331
0.092,-0.02775
0.096,-0.0026
0.1,0.01809
0.104,-0.05818
0.108,0.06693
0.112,0.02674
0.116,0.02147
0.12,0.09533
0.124,0.07951
0.128,0.07525
0.132,0.05824
0.136,0.08999
0.14,0.05457
0.144,0.05952
0.148,0.03938
0.152,0.13806
0.156,0.01824
0.16,0.03445
0.164,0.05124
0.168,0.01948
0.172,-0.04375
0.176,-0.00401
0.18,-0.05697
0.184,0.00975
0.188,0.00434
0.192,-0.00302
0.196,-0.05294
0.2,-0.00469
0.204,-0.01597
0.208,0.09252
0.212,-0.05261
0.216,-0.05171
0.22,-0.08858
0.224,-0.01143
0.228,-0.01308
0.232,0.04688
0.236,-0.07909
0.24,-0.02457
0.244,-0.08074
0.248,0.00373
0.252,-0.05324
0.256,-0.1277
0.26,-0.12801
0.264,-0.17572
0.268,-0.00568
0.272,0.09997
0.276,0.35373
0.28,0.57461
0.284,0.68659
0.288,0.93001
0.292,0.97723
0.296,0.94569
0.3,0.80053
0.304,0.63744
0.308,0.36807
0.312,0.11962
0.316,-0.05544
0.32,-0.13251
0.324,-0.19253
0.328,-0.17924
0.332,-0.14254
0.336,-0.08039
0.34,0.00065
0.344,-0.02627
0.348,-0.0051
0.352,-0.00726
0.356,0.00918
0.36,-0.00491
0.364,-0.02119
0.368,0.00247
0.372,-0.00245
0.376,-0.0161
0.38,0.026
0.384,-0.04742
0.388,-0.00812
0.392,-0.02122
0.396,0.00486
0.4,-0.00372
0.404,0.03659
0.408,-0.05986
0.412,-0.03128
0.416,-0.01583
0.42,-0.01424
0.424,0.00914
0.428,-0.02447
0.432,0.00357
0.436,-0.01358
0.44,0.02025
0.444,-0.06575
0.448,-0.03008
0.452,-0.00251
0.456,-0.01372
0.46,0.0307
0.464,-0.01936
0.468,-0.01674
0.472,0.04738
0.476,-0.04343
0.48,-0.04084
0.484,0.01651
0.488,0.03868
0.492,0.11412
0.496,0.03008
0.5,0.04464
0.504,0.10025
0.508,0.0522
0.512,0.0438
0.516,0.06757
0.52,0.12145
0.524,0.09343
0.528,0.04458
0.532,0.14925
0.536,0.13929
0.54,0.18664
0.544,0.19322
0.548,0.23092
0.552,0.16662
0.556,0.10336
0.56,0.2047
0.564,0.20533
0.568,0.22994
0.572,0.13706
0.576,0.17559
0.58,0.23735
0.584,0.15215
0.588,0.19272
0.592,0.12564
0.596,0.19522
0.6,0.20935
0.604,0.09881
0.608,0.13857
0.612,0.15796
0.616,0.12024
0.62,0.08103
0.624,0.11884
0.628,0.07649
0.632,0.06244
0.636,0.08147
0.64,0.0293
0.644,0.03132
0.648,0.09657
0.652,0.0021
0.656,0.00179
0.66,0.00768
0.664,-0.007
0.668,0.0255
0.672,-0.01446
0.676,0.00742
0.68,-0.05006
0.684,0.04536
0.688,-0.04038
0.692,0.00286
0.696,-0.04559
0.7,-0.12574
0.704,-0.08156
0.708,0.0336
0.712,-0.00328
0.716,-0.05006
0.72,-0.00434
0.724,-0.04342
0.728,-0.0114
0.732,-0.05588
0.736,-0.08313
0.74,-0.02607
0.744,-0.00719
0.748,0.02776
0.752,-0.06318
0.756,-0.03217
0.76,-0.00397
0.764,0.00498
0.768,0.06958
0.772,-0.01126
0.776,-0.02738
0.78,0.01465
0.784,-0.04018
0.788,-0.04661
0.792,-0.02164
0.796,-0.02726
0.8,-0.01417
0.804,0.01162
0.808,0.04358
0.812,0.03274
0.816,-0.00295
0.82,0.0255
0.824,0.10718
0.828,0.09287
0.832,0.02001
0.836,0.08329
0.84,0.06877
0.844,0.15107
0.848,-0.00121
0.852,0.03739
0.856,0.03608
0.86,0.04468
0.864,0.01415
0.868,0.01842
0.872,0.02257
0.876,-0.02465
0.88,-0.0261
0.884,-0.0543
0.888,-0.00693
0.892,-0.03567
0.896,0.00939
0.9,-0.05474
0.904,0.00123
0.908,-0.06729
0.912,-0.02331
0.916,-0.02477
0.92,-0.07009
0.924,-0.0123
0.928,0.00679
0.932,-0.04766
0.936,-0.0483
0.94,-0.06329
0.944,-0.07721
0.948,-0.04752
0.952,-0.06374
0.956,-0.03259
0.96,-0.05739
0.964,-0.16428
0.968,-0.14647
0.972,-0.10466
0.976,-0.0217
0.98,0.16058
0.984,0.37156
0.988,0.55717
0.992,0.77879
0.996,0.9089
1.0,0.98716
1.004,0.97233
1.008,0.79888
1.012,0.51895
1.016,0.30521
1.02,0.03594
1.024,-0.17169
1.028,-0.19703
1.032,-0.1409
1.036,-0.15827
1.04,-0.11384
1.044,-0.12695
1.048,-0.04867
1.052,-0.06217
1.056,-0.03567
1.06,0.0012
1.064,0.02566
1.068,-0.07135
1.072,-0.00603
1.076,-0.00844
1.08,-0.0136
1.084,0.03014
1.088,-0.09958
1.092,0.00096
1.096,-0.02655
1.1,-0.06406
1.104,-0.03635
1.108,-0.04252
1.112,0.01633
1.116,0.05199
1.12,0.01393
1.124,-0.04381
1.128,-0.02301
1.132,0.02098
1.136,0.01647
1.14,-0.06555
1.144,-0.00143
1.148,-0.0099
1.152,-0.04264
1.156,-0.01069
1.16,-0.05323
1.164,-0.02465
1.168,0.00339
1.172,0.01819
1.176,0.01719
1.18,-0.01468
1.184,-0.02919
1.188,0.02433
1.192,0.00443
1.196,-0.02603
1.2,0.02489
1.204,0.02719
1.208,0.00686
1.212,0.11972
1.216,0.04055
1.22,0.0996
1.224,0.0458
1.228,0.07589
1.232,0.09619
1.236,0.09203
1.24,0.11618
1.244,0.1524
1.248,0.14266
1.252,0.10408
1.256,0.16284
1.26,0.14993
1.264,0.134
1.268,0.15344
1.272,0.17006
1.276,0.21102
1.28,0.19965
1.284,0.21236
1.288,0.16463
1.292,0.16104
1.296,0.18269
1.3,0.13525
1.304,0.21906
1.308,0.17926
1.312,0.11736
1.316,0.12764
1.32,0.14644
1.324,0.0933
1.328,0.0724
1.332,0.06854
1.336,0.02092
1.34,0.11949
1.344,0.09448
1.348,0.05543
1.352,0.08677
1.356,0.05705
1.36,0.06546
1.364,0.07266
1.368,-0.03657
1.372,0.01042
1.376,0.0243
1.38,0.0063
1.384,0.06723
1.388,0.06635
1.392,0.0579
1.396,0.05858
1.4,0.02
1.404,0.11609
1.408,0.02718
1.412,0.11686
1.416,0.04915
1.42,-0.01404
1.424,-0.01811
1.428,0.0045
1.432,-0.07039
1.436,-0.01724
1.44,-0.02381
1.444,-0.04699
1.448,-0.05537
1.452,-0.06883
1.456,0.03045
1.46,-0.06714
1.464,-0.05548
1.468,-0.02025
1.472,-0.01491
1.476,-0.0325
1.48,-0.02617
1.484,-0.0552
1.488,0.00623
1.492,-0.03121
1.496,-0.03121
1.5,-0.02597
1.504,-0.02089
1.508,-0.0382
1.512,-0.09057
1.516,-0.09238
1.52,-0.1673
1.524,-0.10408
1.528,-0.10743
1.532,-0.01136
1.536,0.08347
1.54,0.26752
1.544,0.48714
1.548,0.70817
1.552,0.87447
1.556,0.97968
1.56,0.94215
1.564,0.82165
1.568,0.62235
1.572,0.28236
1.576,0.24454
1.58,-0.01964
1.584,-0.13307
1.588,-0.13142
1.592,-0.19242
1.596,-0.16077
1.6,-0.11065
1.604,-0.11381
1.608,-0.10809
1.612,-0.01552
1.616,-0.02746
1.62,-0.07616
1.624,-0.03995
1.628,-0.05903
1.632,-0.03384
1.636,0.00278
1.64,-0.0132
1.644,-0.0021
1.648,-0.0463
1.652,0.03427
1.656,0.00163
1.66,-0.06478
1.664,0.03044
1.668,-0.05685
1.672,-0.06026
1.676,-0.0458
1.68,-0.12315
1.684,0.01402
1.688,-0.11062
1.692,0.01632
1.696,-0.02835
1.7,-0.03219
1.704,-0.00691
1.708,-0.00792
1.712,-0.05014
1.716,0.00138
1.72,-0.05025
1.724,-0.0423
1.728,0.00344
1.732,-0.00464
1.736,-0.0171
1.74,-0.03415
1.744,-0.00629
1.748,-0.0192
1.752,0.04168
1.756,0.00875
1.76,0.05236
1.764,0.0395
1.768,0.01508
1.772,0.05314
1.776,0.08299
1.78,0.00735
1.784,0.03093
1.788,0.09136
1.792,0.15679
1.796,0.10423
1.8,0.0965
1.804,0.1056
1.808,0.12137
1.812,0.19768
1.816,0.18569
1.82,0.20917
1.824,0.18291
1.828,0.20886
1.832,0.27295
1.836,0.27999
1.84,0.3152
1.844,0.30222
1.848,0.33388
1.852,0.29268
1.856,0.24007
1.86,0.22445
1.864,0.28419
1.868,0.22807
1.872,0.1702
1.876,0.14423
1.88,0.1236
1.884,0.13285
1.888,0.09911
1.892,0.12571
1.896,0.12512
1.9,0.09568
1.904,-0.02167
1.908,0.01666
1.912,0.06401
1.916,0.01987
1.92,-0.03147
1.924,-0.01353
1.928,-0.01354
1.932,-0.019
1.936,-0.07751
1.94,-0.01885
1.944,0.0029
1.948,-0.03587
1.952,-0.01239
1.956,0.01793
1.96,0.0262
1.964,-0.00967
1.968,-0.01686
1.972,-0.04063
1.976,-0.11597
1.98,-0.09855
1.984,-0.177
1.988,-0.06807
1.992,-0.00791
1.996,0.16261
2.0,0.34196
2.004,0.603
2.008,0.72825
2.012,0.9352
2.016,0.98404
2.02,0.97055
2.024,0.75907
2.028,0.52874
2.032,0.37439
2.036,0.12097
2.04,-0.04731
2.044,-0.13872
2.048,-0.23881
2.052,-0.22362
2.056,-0.15368
2.06,-0.08033
2.064,-0.06685
2.068,-0.04652
2.072,-0.06488
2.076,-0.02615
2.08,-0.05427
2.084,-0.01106
2.088,0.05708
2.092,0.03794
2.096,-0.01901
2.1,-0.04016
2.104,-0.05433
2.108,0.04265
2.112,0.00648
2.116,-0.05176
2.12,-0.02532
2.124,-0.01883
2.128,-0.01834
2.132,0.02837
2.136,-0.01012
2.14,-0.0388
2.144,-0.03728
2.148,-0.03386
2.152,-0.04823
2.156,0.0048
2.16,0.00758
2.164,-0.00732
2.168,0.01198
2.172,0.02998
2.176,0.02319
2.18,0.07829
2.184,0.05232
2.188,0.03721
2.192,0.05388
2.196,0.09245
2.2,0.08195
2.204,0.06521
2.208,0.04286
2.212,0.11345
2.216,0.15014
2.22,0.0349
2.224,0.091
2.228,0.05476
2.232,0.13728
2.236,0.08356
2.24,0.15505
2.244,0.09682
2.248,0.09839
2.252,0.07
2.256,0.14603
2.26,0.13711
2.264,0.14515
2.268,0.12268
2.272,0.20471
2.276,0.21321
2.28,0.21313
2.284,0.24866
2.288,0.17576
2.292,0.18954
2.296,0.15255
2.3,0.20741
2.304,0.18708
2.308,0.21582
2.312,0.23396
2.316,0.07355
2.32,0.08449
2.324,0.08816
2.328,0.09383
2.332,0.06042
2.336,0.10497
2.34,0.28492
2.344,0.37631
2.348,0.64586
2.352,0.76624
2.356,0.90525
2.36,1.07166
2.364,1.06924
2.368,0.91145
2.372,0.68573
2.376,0.52702
2.38,0.23547
2.384,0.09029
2.388,-0.0705
2.392,-0.13449
2.396,-0.10498
2.4,-0.08632
2.404,-0.09092
2.408,-0.12234
2.412,-0.04379
2.416,-0.05417
2.42,-0.04379
2.424,0.03059
2.428,-0.0278
2.432,0.03411
2.436,0.02375
2.44,0.00184
2.444,-0.07455
2.448,0.00367
2.452,0.00086
2.456,-0.00931
2.46,0.01194
2.464,0.05936
2.468,-0.03477
2.472,-0.07722
2.476,0.01062
2.48,-0.03338
2.484,-0.04293
2.488,0.03774
2.492,0.00741
2.496,0.02626
2.5,-0.0011
2.504,-0.00983
2.508,-0.06541
2.512,-0.05545
2.516,-0.03307
2.52,-0.0439
2.524,-0.03322
2.528,0.01179
2.532,-0.00057
2.536,0.07127
2.54,0.04186
2.544,-0.03411
2.548,0.03371
2.552,0.08891
2.556,-0.00908
2.56,0.06056
2.564,0.00094
2.568,0.02539
2.572,0.03644
2.576,0.01276
2.58,0.09625
2.584,0.1311
2.588,0.11214
2.592,0.11275
2.596,0.06315
2.6,0.09736
2.604,0.15546
2.608,0.17971
2.612,0.15137
2.616,0.11117
2.62,0.17408
2.624,0.18626
2.628,0.17897
2.632,0.20486
2.636,0.20805
2.64,0.17025
2.644,0.12613
2.648,0.23054
2.652,0.20924
2.656,0.17767
2.66,0.14533
2.664,0.25276
2.668,0.14475
2.672,0.18628
2.676,0.13879
2.68,0.13964
2.684,0.09101
2.688,0.09574
2.692,0.125
2.696,0.13023
2.7,0.04611
2.704,0.07908
2.708,0.0061
2.712,0.07694
2.716,0.10636
2.72,0.07629
2.724,-0.0086
2.728,0.02058
2.732,0.01792
2.736,0.0001
2.74,0.0243
2.744,-0.01664
2.748,0.03218
2.752,0.01388
2.756,-0.02369
2.76,-0.04475
2.764,0.04572
2.768,-0.05482
2.772,-0.03472
2.776,0.03845
2.78,-0.03569
2.784,-0.01178
2.788,0.03247
2.792,-0.02806
2.796,0.02717
2.8,-0.05731
2.804,-0.04282
2.808,-0.00717
2.812,-0.06161
2.816,-0.04471
2.82,0.03708
2.824,-0.0216
2.828,0.00697
2.832,-0.02161
2.836,0.04425
2.84,0.03539
2.844,-0.00052
2.848,-0.02562
2.852,0.01484
2.856,-0.00104
2.86,0.04419
2.864,-0.04078
2.868,0.02049
2.872,0.03976
2.876,-0.01012
2.88,-0.01378
2.884,0.01818
2.888,0.0756
2.892,-0.00505
2.896,-0.0364
2.9,0.00205
2.904,-0.01874
2.908,0.03859
2.912,-0.0368
2.916,-0.0228
2.92,0.00871
2.924,-0.02245
2.928,0.00858
2.932,0.0388
2.936,-0.04184
2.94,0.01488
2.944,-0.02281
2.948,0.03827
2.952,-0.00867
2.956,-0.00512
2.96,-0.0103
2.964,0.03687
2.968,0.05325
2.972,0.04692
2.976,0.01235
2.98,-0.00635
2.984,-0.03969
2.988,0.01846
2.992,0.02119
2.996,0.03263
3.0,-0.01915
3.004,-0.03216
3.008,0.03442
3.012,0.01892
3.016,-0.03206
3.02,-0.04535
3.024,0.06051
3.028,-0.03658
3.032,0.0094
3.036,-0.00147
3.04,0.01604
3.044,0.0194
3.048,0.05542
3.052,0.00609
3.056,-0.01571
3.06,0.03122
3.064,0.06027
3.068,0.07699
3.072,0.0751
3.076,0.11352
3.08,0.06996
3.084,0.1146
3.088,0.16402
3.092,0.12815
3.096,0.06779
3.1,0.09089
3.104,0.07847
3.108,0.03751
3.112,-0.01438
3.116,0.04174
3.12,0.01287
3.124,0.03507
3.128,-0.01444
3.132,0.0053
3.136,-0.04107
3.14,0.00743
3.144,0.01851
3.148,0.01611
3.152,0.02339
3.156,-0.0002
3.16,-0.00937
3.164,0.01602
3.168,0.02047
3.172,0.04465
3.176,0.01695
3.18,-0.01889
3.184,0.01495
3.188,0.00793
3.192,-0.00341
3.196,-0.05729
3.2,-0.13141
3.204,-0.06615
3.208,-0.11784
3.212,-0.04526
3.216,0.0513
3.22,0.27894
3.224,0.43869
3.228,0.67697
3.232,0.91532
3.236,0.95341
3.24,1.01801
3.244,0.96703
3.248,0.72559
3.252,0.4888
3.256,0.33892
3.26,0.08559
3.264,-0.08257
3.268,-0.11815
3.272,-0.1071
3.276,-0.08846
3.28,-0.09874
3.284,-0.10331
3.288,-0.04347
3.292,-0.01722
3.296,0.05748
3.3,0.09919
3.304,-0.02625
3.308,0.02555
3.312,-0.02272
3.316,-0.00971
3.32,-0.01921
3.324,-0.00428
3.328,0.04208
3.332,-0.00586
3.336,0.07522
3.34,-0.00935
3.344,-0.00017
3.348,-0.06057
3.352,0.03642
3.356,-0.01327
3.36,0.01828
3.364,0.0319
3.368,0.00732
3.372,-0.01692
3.376,0.06679
3.38,-0.0107
3.384,0.08754
3.388,0.04471
3.392,0.0198
3.396,0.08087
3.4,0.006
3.404,0.04779
3.408,0.06254
3.412,0.00053
3.416,0.02789
3.42,0.04559
3.424,0.06045
3.428,0.02879
3.432,0.02658
3.436,0.01746
3.44,0.01413
3.444,0.03719
3.448,0.07386
3.452,0.08999
3.456,0.08528
3.46,0.12792
3.464,0.16001
3.468,0.15686
3.472,0.23766
3.476,0.19895
3.48,0.24955
3.484,0.24467
3.488,0.32075
3.492,0.28043
3.496,0.32301
3.5,0.28136
3.504,0.23139
3.508,0.32316
3.512,0.25341
3.516,0.26681
3.52,0.25523
3.524,0.23143
3.528,0.25425
3.532,0.19189
3.536,0.26135
3.54,0.26622
3.544,0.17723
3.548,0.17971
3.552,0.12946
3.556,0.15438
3.56,0.16749
3.564,0.11358
3.568,0.14439
3.572,0.15345
3.576,0.12412
3.58,0.15036
3.584,0.10625
3.588,0.07165
3.592,0.03232
3.596,0.06027
3.6,0.05938
3.604,0.04612
3.608,-0.04749
3.612,-0.00181
3.616,-0.11857
3.62,-0.06616
3.624,0.02759
3.628,0.16907
3.632,0.39261
3.636,0.6648
3.64,0.7929
3.644,0.9199
3.648,1.01202
3.652,0.96575
3.656,0.81748
3.66,0.61254
3.664,0.40896
3.668,0.12806
3.672,-0.06406
3.676,-0.10586
3.68,-0.15762
3.684,-0.10975
3.688,-0.07969
3.692,-0.06494
3.696,0.06042
3.7,-0.01127
3.704,-0.03678
3.708,0.06749
3.712,-0.0004
3.716,0.05708
3.72,0.02537
3.724,0.01525
3.728,-0.04085
3.732,-0.00948
3.736,0.05983
3.74,0.01139
3.744,0.065
3.748,-0.01211
3.752,-0.02958
3.756,0.01961
3.76,0.07131
3.764,0.0153
3.768,-0.02515
3.772,0.0266
3.776,0.00901
3.78,-0.04842
3.784,-0.06419
3.788,0.01686
3.792,0.07021
3.796,0.03912
3.8,0.04728
3.804,-0.03776
3.808,0.05835
3.812,-0.01269
3.816,-0.00611
3.82,0.05114
3.824,0.06327
3.828,0.06672
3.832,0.03821
3.836,0.07219
3.84,0.05849
3.844,0.09319
3.848,0.06224
3.852,0.0793
3.856,0.0907
3.86,0.10024
3.864,0.07633
3.868,0.09522
3.872,0.07689
3.876,0.14554
3.88,0.15501
3.884,0.13496
3.888,0.21876
3.892,0.20272
3.896,0.21662
3.9,0.17835
3.904,0.24946
3.908,0.23043
3.912,0.24369
3.916,0.19914
3.92,0.20314
3.924,0.19039
3.928,0.25153
3.932,0.26293
3.936,0.28926
3.94,0.282
3.944,0.30263
3.948,0.28061
3.952,0.28955
3.956,0.30723
3.96,0.28139
3.964,0.29695
3.968,0.26633
3.972,0.24201
3.976,0.24825
3.98,0.24211
3.984,0.17726
3.988,0.14994
3.992,0.16999
3.996,0.12569
4.0,0.09545
4.004,0.13934
4.008,0.13685
4.012,0.08124
4.016,-0.00489
4.02,0.02251
4.024,0.00695
4.028,-0.00307
4.032,0.02718
4.036,0.03609
4.04,0.02927
4.044,0.0418
4.048,0.08208
4.052,0.00958
4.056,-0.01179
4.06,0.00232
4.064,0.08458
4.068,0.03564
4.072,0.04589
4.076,0.06229
4.08,-0.04058
4.084,0.00083
4.088,-0.06522
4.092,-0.1275
4.096,-0.06726
4.1,-0.02861
4.104,0.06904
4.108,0.2994
4.112,0.53982
4.116,0.70766
4.12,0.82919
4.124,1.00246
4.128,1.08688
4.132,0.94331
4.136,0.8283
4.14,0.54907
4.144,0.23009
4.148,0.07563
4.152,-0.02266
4.156,-0.05038
4.16,-0.07348
4.164,-0.16946
4.168,-0.06736
4.172,-0.0204
4.176,0.02651
4.18,0.02942
4.184,-0.03666
4.188,-0.02393
4.192,0.08701
4.196,0.06133
4.2,0.00717
4.204,0.07321
4.208,0.03828
4.212,0.06855
4.216,-0.00094
4.22,0.00706
4.224,0.02292
4.228,0.05484
4.232,0.02323
4.236,-0.01491
4.24,0.05629
4.244,0.01667
4.248,0.01688
4.252,0.02618
4.256,0.0206
4.26,0.00187
4.264,0.02849
4.268,0.03577
4.272,0.05101
4.276,-0.00494
4.28,0.01143
4.284,0.05926
4.288,0.04212
4.292,-0.02079
4.296,-0.06038
4.3,0.00722
4.304,0.07448
4.308,0.05262
4.312,0.05711
4.316,0.08137
4.32,0.05292
4.324,0.03403
4.328,0.08363
4.332,0.05036
4.336,0.02558
4.34,0.15894
4.344,0.13654
4.348,0.0382
4.352,0.09605
4.356,0.18925
4.36,0.17894
4.364,0.17786
4.368,0.1509
4.372,0.14634
4.376,0.16225
4.38,0.25341
4.384,0.19507
4.388,0.1917
4.392,0.26676
4.396,0.26926
4.4,0.22022
4.404,0.21763
4.408,0.22834
4.412,0.24176
4.416,0.16867
4.42,0.22669
4.424,0.16967
4.428,0.22635
4.432,0.19794
4.436,0.20803
4.44,0.21188
4.444,0.13865
4.448,0.20037
4.452,0.16533
4.456,0.17495
4.46,0.15215
4.464,0.10327
4.468,0.11381
4.472,0.08212
4.476,0.06109
4.48,0.11537
4.484,0.07218
4.488,0.09456
4.492,0.07917
4.496,0.05358
4.5,0.08491
4.504,0.06075
4.508,-0.01233
4.512,0.04205
4.516,0.06919
4.52,0.11758
4.524,0.06428
4.528,0.04595
4.532,-0.01983
4.536,0.0998
4.54,0.02253
4.544,0.11158
4.548,0.11005
4.552,0.04717
4.556,0.12942
4.56,0.16966
4.564,0.06575
4.568,0.15301
4.572,0.11403
4.576,0.13276
4.58,0.17722
4.584,0.1544
4.588,0.15073
4.592,0.07979
4.596,0.11212
4.6,0.10842
4.604,0.09037
4.608,0.09496
4.612,0.01944
4.616,-0.03204
4.62,-0.00239
4.624,0.04257
4.628,0.01853
4.632,0.04598
4.636,0.03832
4.64,-0.01479
4.644,-0.03312
4.648,-0.01239
4.652,0.00673
4.656,0.00101
4.66,0.02277
4.664,0.05473
4.668,0.04079
4.672,0.01388
4.676,0.02108
4.68,0.09529
4.684,0.03848
4.688,-0.00311
4.692,-0.02793
4.696,-0.0234
4.7,-0.05972
4.704,-0.03686
4.708,-0.0663
4.712,-0.07734
4.716,-0.06332
4.72,0.10376
4.724,0.3357
4.728,0.58395
4.732,0.70025
4.736,0.86891
4.74,0.9714
4.744,1.0339
4.748,0.89105
4.752,0.75264
4.756,0.47472
4.76,0.28043
4.764,0.07387
4.768,-0.02702
4.772,-0.08882
4.776,-0.12783
4.78,-0.12253
4.784,-0.0689
4.788,-0.01184
4.792,-0.00552
4.796,0.06794
4.8,0.02247
4.804,0.1063
4.808,0.0681
4.812,0.0639
4.816,0.0714
4.82,0.04474
4.824,0.01528
4.828,-0.03499
4.832,0.03164
4.836,0.05381
4.84,0.01025
4.844,0.02539
4.848,-0.04791
4.852,0.05214
4.856,0.0822
4.86,0.02963
4.864,0.03917
4.868,0.02958
4.872,0.06532
4.876,0.08344
4.88,0.04982
4.884,0.01403
4.888,0.03783
4.892,0.03824
4.896,0.06134
4.9,0.11608
4.904,0.02382
4.908,0.0581
4.912,0.04398
4.916,0.05139
4.92,0.03525
4.924,0.03407
4.928,0.07723
4.932,0.06818
4.936,0.02569
4.94,0.07247
4.944,0.02522
4.948,0.13821
4.952,0.03833
4.956,0.12549
4.96,0.1449
4.964,0.17235
4.968,0.08767
4.972,0.15464
4.976,0.13414
4.98,0.17591
4.984,0.16541
4.988,0.1858
4.992,0.23884
4.996,0.1647
5.0,0.16069
5.004,0.22989
5.008,0.22691
5.012,0.26086
5.016,0.20448
5.02,0.17075
5.024,0.3211
5.028,0.16392
5.032,0.23919
5.036,0.22629
5.04,0.23061
5.044,0.24522
5.048,0.20535
5.052,0.13399
5.056,0.19931
5.06,0.18606
5.064,0.17449
5.068,0.09138
5.072,0.15989
5.076,0.1049
5.08,0.15576
5.084,0.09226
5.088,0.1478
5.092,0.09476
5.096,0.1268
5.1,0.11612
5.104,0.05795
5.108,0.04549
5.112,0.02886
5.116,-0.00256
5.12,0.01846
5.124,0.04053
5.128,0.0843
5.132,0.06776
5.136,0.04126
5.14,0.06006
5.144,0.04986
5.148,0.02614
5.152,-0.0098
5.156,0.04097
5.16,0.06088
5.164,0.08549
5.168,0.06313
5.172,0.00805
5.176,0.10071
5.18,0.07927
5.184,0.10855
5.188,0.07491
5.192,0.11535
5.196,0.12765
5.2,0.15212
5.204,0.15623
5.208,0.0884
5.212,0.04297
5.216,0.13311
5.22,0.0326
5.224,0.01395
5.228,-0.03237
5.232,0.00533
5.236,0.00356
5.24,0.08579
5.244,0.08536
5.248,0.03641
5.252,-0.00736
5.256,-0.00849
5.26,0.02997
5.264,0.01382
5.268,0.05113
5.272,0.00625
5.276,0.06046
5.28,0.03014
5.284,0.03472
5.288,0.04501
5.292,0.0348
5.296,0.03122
5.3,-0.01137
5.304,0.01181
5.308,0.05611
5.312,0.02872
5.316,-0.11301
5.32,-0.111
5.324,-0.09379
5.328,-0.02267
5.332,0.1026
5.336,0.2741
5.34,0.4177
5.344,0.67863
5.348,0.80781
5.352,0.93906
5.356,0.98322
5.36,0.90445
5.364,0.81763
5.368,0.54714
5.372,0.26659
5.376,0.15614
5.38,0.01815
5.384,-0.12718
5.388,-0.12873
5.392,-0.13307
5.396,-0.06526
5.4,-0.05482
5.404,-0.06249
5.408,0.02865
5.412,0.04568
5.416,0.03308
5.42,0.0456
5.424,0.00716
5.428,0.02724
5.432,0.039
5.436,-0.03601
5.44,0.0253
5.444,0.04131
5.448,0.04856
5.452,0.06046
5.456,-0.0324
5.46,-0.00101
5.464,-0.00662
5.468,0.04579
5.472,0.0755
5.476,0.01767
5.48,0.04398
5.484,0.02736
5.488,0.03594
5.492,0.03624
5.496,0.09609
5.5,-0.00592
5.504,-0.03696
5.508,0.04698
5.512,-0.0208
5.516,0.07675
5.52,-0.01344
5.524,0.01296
5.528,-0.00018
5.532,0.01347
5.536,0.10209
5.54,0.04604
5.544,0.05787
5.548,0.07129
5.552,0.01315
5.556,0.09447
5.56,0.08365
5.564,0.00652
5.568,0.06807
5.572,0.17416
5.576,0.15781
5.58,0.15195
5.584,0.12176
5.588,0.1282
5.592,0.1063
5.596,0.13602
5.6,0.1364
5.604,0.15884
5.608,0.18885
5.612,0.15321
5.616,0.22245
5.62,0.23085
5.624,0.21164
5.628,0.19923
5.632,0.23886
5.636,0.15514
5.64,0.22552
5.644,0.16385
5.648,0.2464
5.652,0.18051
5.656,0.22027
5.66,0.15991
5.664,0.16285
5.668,0.11424
5.672,0.16853
5.676,0.15562
5.68,0.12694
5.684,0.08147
5.688,0.14963
5.692,0.16869
5.696,0.11121
5.7,0.13427
5.704,0.12375
5.708,0.08863
5.712,-0.00534
5.716,0.09421
5.72,0.07954
5.724,0.06156
5.728,-0.01406
5.732,0.00611
5.736,-0.00403
5.74,0.06634
5.744,-0.01453
5.748,7e-05
5.752,0.01542
5.756,-0.00529
5.76,0.00809
5.764,0.04671
5.768,0.037
5.772,-0.01046
5.776,0.05265
5.78,0.08547
5.784,0.01712
5.788,-0.00684
5.792,-0.04209
5.796,-0.00222
5.8,0.04617
5.804,0.05055
5.808,0.02204
5.812,0.01447
5.816,0.01485
5.82,0.04439
5.824,0.04423
5.828,-0.03881
5.832,-0.00983
5.836,0.02653
5.84,0.05242
5.844,0.03963
5.848,-0.02124
5.852,-0.02621
5.856,0.00362
5.86,0.0253
5.864,0.10672
5.868,0.01837
5.872,0.06676
5.876,0.04152
5.88,0.03253
5.884,0.04875
5.888,0.01906
5.892,0.04184
5.896,0.10146
5.9,0.039
5.904,0.09878
5.908,0.04748
5.912,0.1049
5.916,0.15668
5.92,0.06984
5.924,0.18245
5.928,0.09644
5.932,0.05671
5.936,0.0928
5.94,0.06116
5.944,0.121
5.948,0.02258
5.952,0.0498
5.956,0.02854
5.96,0.09592
5.964,0.02622
5.968,0.0181
5.972,-0.06405
5.976,0.02527
5.98,-0.00186
5.984,0.0093
5.988,0.0529
5.992,-0.00115
5.996,0.0633
6.0,-0.00041
6.004,0.00277
6.008,-0.02593
6.012,0.02676
6.016,0.1077
6.02,-0.02659
6.024,-0.0061
6.028,0.04085
6.032,-0.03254
6.036,-0.06354
6.04,-0.10938
6.044,-0.07921
6.048,-0.01962
6.052,0.04243
6.056,0.24654
6.06,0.43896
6.064,0.60411
6.068,0.88473
6.072,0.97678
6.076,1.03413
6.08,0.88004
6.084,0.74187
6.088,0.56469
6.092,0.28315
6.096,0.11267
6.1,-0.08184
6.104,-0.17087
6.108,-0.11066
6.112,-0.20152
6.116,-0.14702
6.12,-0.13092
6.124,0.02658
6.128,-0.00453
6.132,-0.00542
6.136,0.00435
6.14,0.03115
6.144,-0.0039
6.148,0.06382
6.152,-0.00139
6.156,-0.00537
6.16,0.03684
6.164,-0.05194
6.168,-0.00757
6.172,0.0179
6.176,0.08738
6.18,-0.02304
6.184,-0.03988
6.188,-0.00017
6.192,-0.0134
6.196,0.01652
6.2,-0.02725
6.204,0.09373
6.208,-0.01578
6.212,0.0013
6.216,0.05883
6.22,0.06034
6.224,0.02074
6.228,0.01225
6.232,0.03085
6.236,0.0339
6.24,-0.03883
6.244,0.02404
6.248,-0.0243
6.252,0.01389
6.256,-0.03285
6.26,-0.00915
6.264,0.00317
6.268,0.05531
6.272,0.0671
6.276,0.05187
6.28,0.108
6.284,0.07747
6.288,0.03364
6.292,0.053
6.296,0.07875
6.3,0.04672
6.304,0.12786
6.308,0.21234
6.312,0.17169
6.316,0.09002
6.32,0.17818
6.324,0.2238
6.328,0.13967
6.332,0.16716
6.336,0.20827
6.34,0.19336
6.344,0.26715
6.348,0.21899
6.352,0.24593
6.356,0.14906
6.36,0.2517
6.364,0.23206
6.368,0.17939
6.372,0.21291
6.376,0.19676
6.38,0.19318
6.384,0.20688
6.388,0.18349
6.392,0.13584
6.396,0.10477
6.4,0.13093
6.404,0.10113
6.408,0.06583
6.412,0.11152
6.416,0.1196
6.42,0.05514
6.424,0.07791
6.428,0.01489
6.432,0.12767
6.436,0.06727
6.44,0.04171
6.444,-0.01655
6.448,0.02164
6.452,0.05768
6.456,0.00337
6.46,0.11109
6.464,0.02568
6.468,0.08156
6.472,0.01752
6.476,0.04078
6.48,0.0758
6.484,0.10426
6.488,0.05771
6.492,0.09311
6.496,0.09675
6.5,0.0502
6.504,0.13101
6.508,0.09698
6.512,0.12163
6.516,0.02785
6.52,0.03436
6.524,-0.02636
6.528,0.01464
6.532,0.02506
6.536,0.03467
6.54,0.05045
6.544,-0.01835
6.548,0.0049
6.552,0.0277
6.556,0.05597
6.56,0.02733
6.564,-0.00012
6.568,-0.10088
6.572,0.02657
6.576,0.04387
6.58,0.02505
6.584,0.00221
6.588,-0.02779
6.592,-0.01818
6.596,-0.04618
6.6,-0.01108
6.604,0.03458
6.608,-0.04971
6.612,-0.0124
6.616,-0.14495
6.62,-0.12056
6.624,-0.10916
6.628,-0.08317
6.632,0.09613
6.636,0.25421
6.64,0.46393
6.644,0.70733
6.648,0.85312
6.652,0.98186
6.656,0.98437
6.66,0.83884
6.664,0.68976
6.668,0.40929
6.672,0.18627
6.676,-0.04657
6.68,-0.13079
6.684,-0.11549
6.688,-0.18495
6.692,-0.20719
6.696,-0.11704
6.7,-0.06334
6.704,-0.0133
6.708,-0.06854
6.712,0.00651
6.716,-0.00565
6.72,0.05373
6.724,0.01717
6.728,0.00412
6.732,-0.00318
6.736,-0.08885
6.74,0.00022
6.744,-0.02172
6.748,-0.00279
6.752,0.02729
6.756,0.00278
6.76,-0.04128
6.764,-0.00703
6.768,-0.05865
6.772,-0.05632
6.776,-0.03821
6.78,0.0229
6.784,0.01062
6.788,-0.05927
6.792,-0.09512
6.796,-0.00832
6.8,-0.03139
6.804,-0.01836
6.808,-0.02075
6.812,-0.06019
6.816,-0.04816
6.82,-0.00062
6.824,-0.00862
6.828,0.00543
6.832,-0.00029
6.836,-0.00937
6.84,0.00711
6.844,0.0077
6.848,-0.02485
6.852,0.03085
6.856,0.01574
6.86,0.07138
6.864,0.04122
6.868,0.03641
6.872,0.01792
6.876,0.11084
6.88,0.06529
6.884,0.09159
6.888,0.17826
6.892,0.0665
6.896,0.10994
6.9,0.09789
6.904,0.1282
6.908,0.15242
6.912,0.12336
6.916,0.16473
6.92,0.21557
6.924,0.21625
6.928,0.22057
6.932,0.2004
6.936,0.15976
6.94,0.2387
6.944,0.23217
6.948,0.15014
6.952,0.16075
6.956,0.17352
6.96,0.2227
6.964,0.20174
6.968,0.16226
6.972,0.15614
6.976,0.12864
6.98,0.13989
6.984,0.14106
6.988,0.14996
6.992,0.13974
6.996,0.10292
7.0,0.11165
7.004,0.10787
7.008,0.13002
7.012,0.1607
7.016,0.16538
7.02,0.08923
7.024,0.14298
7.028,0.08837
7.032,0.0529
7.036,0.02056
7.04,0.04244
7.044,0.01865
7.048,0.00641
7.052,-0.00435
7.056,-0.07766
7.06,-0.00373
7.064,6e-05
7.068,0.02657
7.072,-0.08812
7.076,-0.00715
7.08,-0.02941
7.084,-0.04317
7.088,0.01969
7.092,-0.00332
7.096,-0.04058
7.1,-0.02653
7.104,-0.01544
7.108,-0.06134
7.112,-0.05014
7.116,0.00268
7.12,-0.01732
7.124,-0.00541
7.128,0.04173
7.132,-0.02472
7.136,-0.09339
7.14,-0.12278
7.144,-0.15399
7.148,-0.09763
7.152,0.00699
7.156,0.07406
7.16,0.1898
7.164,0.23197
7.168,0.3888
7.172,0.44862
7.176,0.48275
7.18,0.42138
7.184,0.23651
7.188,0.1401
7.192,0.04855
7.196,-0.03918
7.2,-0.15993
7.204,-0.20169
7.208,-0.22068
7.212,-0.16698
7.216,-0.03976
7.22,-0.12614
7.224,-0.03788
7.228,-0.05601
7.232,0.01157
7.236,-0.08738
7.24,-0.03084
7.244,-0.02948
7.248,-0.08366
7.252,-0.01414
7.256,-0.03012
7.26,-0.05775
7.264,-0.04821
7.268,0.01356
7.272,0.00605
7.276,0.00204
7.28,-0.04142
7.284,-0.0456
7.288,0.01723
7.292,-0.06401
7.296,-0.03569
7.3,-0.01096
7.304,0.00104
7.308,-0.01468
7.312,0.02873
7.316,-0.07513
7.32,-0.06223
7.324,0.0012
7.328,-0.00318
7.332,0.02683
7.336,-0.06881
7.34,-0.03218
7.344,0.0153
7.348,-0.05647
7.352,0.03497
7.356,0.02711
7.36,-0.03061
7.364,-0.01637
7.368,0.08858
7.372,-0.01975
7.376,0.03438
7.38,0.00646
7.384,0.03716
7.388,0.122
7.392,0.00875
7.396,0.03374
7.4,-0.01918
7.404,0.09222
7.408,0.11627
7.412,0.12709
7.416,0.16019
7.42,0.12885
7.424,0.12694
7.428,0.18074
7.432,0.14579
7.436,0.20445
7.44,0.21393
7.444,0.21839
7.448,0.16194
7.452,0.2736
7.456,0.21932
7.46,0.20114
7.464,0.14877
7.468,0.23015
7.472,0.15593
7.476,0.13044
7.48,0.17222
7.484,0.19538
7.488,0.17288
7.492,0.13284
7.496,0.12538
7.5,0.08858
7.504,0.04687
7.508,0.08122
7.512,0.10004
7.516,0.08932
7.52,0.11442
7.524,0.12765
7.528,0.07207
7.532,0.12226
7.536,0.05126
7.54,0.05517
7.544,0.10731
7.548,0.06016
7.552,0.07872
7.556,0.07441
7.56,0.09283
7.564,0.06445
7.568,0.03536
7.572,0.02841
7.576,-0.00189
7.58,-0.05464
7.584,-0.04827
7.588,-0.00582
7.592,-0.02503
7.596,-0.05221
7.6,0.00439
7.604,-0.02418
7.608,-0.04302
7.612,-0.03007
7.616,-0.05069
7.62,-0.03981
7.624,-0.0018
7.628,-0.0398
7.632,-0.06431
7.636,-0.00781
7.64,-0.02126
7.644,-0.03031
7.648,-0.05953
7.652,0.00745
7.656,0.00829
7.66,-0.06648
7.664,-0.14456
7.668,-0.14411
7.672,-0.15975
7.676,-0.14334
7.68,-0.06879
7.684,-0.03771
7.688,0.08297
7.692,0.25691
7.696,0.42007
7.7,0.47082
7.704,0.54041
7.708,0.42742
7.712,0.31865
7.716,0.20408
7.72,0.03629
7.724,-0.07417
7.728,-0.11867
7.732,-0.15119
7.736,-0.212
7.74,-0.16722
7.744,-0.17351
7.748,-0.05952
7.752,-0.05505
7.756,-0.0201
7.76,0.00763
7.764,-0.03322
7.768,-0.03893
7.772,0.017
7.776,-0.08824
7.78,-0.04943
7.784,-0.06071
7.788,-0.05447
7.792,-0.06077
7.796,-0.02433
7.8,-0.00588
7.804,-0.03431
7.808,-8e-05
7.812,-0.06063
7.816,-0.0955
7.82,-0.04244
7.824,-0.03794
7.828,-0.01048
7.832,-0.03728
7.836,-0.07401
7.84,-0.01808
7.844,-0.04112
7.848,-0.06856
7.852,-0.00202
7.856,-0.00905
7.86,-0.00108
7.864,0.00622
7.868,-0.02817
7.872,-0.04418
7.876,-0.01419
7.88,-0.005
7.884,0.01469
7.888,-0.02488
7.892,0.01067
7.896,0.01819
7.9,-0.00395
7.904,-0.04129
7.908,0.0178
7.912,0.08817
7.916,0.00058
7.92,0.09942
7.924,0.07941
7.928,0.03507
7.932,0.08845
7.936,0.03423
7.94,0.10759
7.944,0.12866
7.948,0.16006
7.952,0.1628
7.956,0.16548
7.96,0.17298
7.964,0.1505
7.968,0.1934
7.972,0.12807
7.976,0.19823
7.98,0.209
7.984,0.22265
7.988,0.21521
7.992,0.22691
7.996,0.18018
8.0,0.23768
8.004,0.18395
8.008,0.14757
8.012,0.22594
8.016,0.11675
8.02,0.08368
8.024,0.05992
8.028,0.07996
8.032,0.15102
8.036,0.12792
8.04,0.10131
8.044,0.04979
8.048,0.12819
8.052,0.07581
8.056,0.05559
8.06,0.02327
8.064,0.00191
8.068,-0.00247
8.072,0.05431
8.076,0.01673
8.08,0.08142
8.084,-0.03499
8.088,-0.06597
8.092,-0.02039
8.096,-0.03848
8.1,-0.02824
8.104,-0.04581
8.108,0.02177
8.112,-0.00674
8.116,-0.01335
8.12,-0.00892
8.124,0.05165
8.128,-0.00915
8.132,-0.0089
8.136,0.13862
8.14,0.06118
8.144,0.09614
8.148,0.01029
8.152,0.09697
8.156,0.07912
8.16,0.01881
8.164,0.08947
8.168,0.04475
8.172,0.05027
8.176,-0.04462
8.18,0.06796
8.184,0.00491
8.188,0.067
8.192,0.0216
8.196,0.03077
8.2,-0.02034
8.204,-0.00764
8.208,-0.033
8.212,0.00423
8.216,0.10573
8.22,-0.05569
8.224,-0.07186
8.228,-0.08159
8.232,-0.04085
8.236,-0.09233
8.24,-0.04418
8.244,-0.05992
8.248,0.05744
8.252,-0.03894
8.256,0.00534
8.26,-0.07566
8.264,-0.00215
8.268,-0.11291
8.272,-0.1279
8.276,-0.15344
8.28,-0.09108
8.284,-0.0319
8.288,0.11663
8.292,0.26374
8.296,0.5675
8.3,0.81959
8.304,0.91417
8.308,1.01117
8.312,0.85849
8.316,0.76717
8.32,0.55931
8.324,0.34984
8.328,0.08122
8.332,-0.01326
8.336,-0.12837
8.34,-0.18632
8.344,-0.20222
8.348,-0.13922
8.352,-0.04601
8.356,-0.01276
8.36,-0.10077
8.364,-0.02724
8.368,-0.03941
8.372,-0.03563
8.376,-0.06493
8.38,-0.01618
8.384,-0.07842
8.388,0.01756
8.392,-0.06019
8.396,-0.00862
8.4,-0.07259
8.404,0.04846
8.408,-0.01249
8.412,-0.02335
8.416,-0.00914
8.42,-0.00897
8.424,0.03263
8.428,-0.09917
8.432,0.00744
8.436,-0.06432
8.44,-0.05504
8.444,0.01462
8.448,0.02065
8.452,-0.04104
8.456,0.00548
8.46,-0.04544
8.464,-0.03688
8.468,-0.03239
8.472,-0.00077
8.476,-0.04951
8.48,-0.00806
8.484,0.00138
8.488,0.03076
8.492,0.00579
8.496,-0.00882
8.5,0.00683
8.504,0.03891
8.508,0.07454
8.512,0.08608
8.516,0.02454
8.52,0.08742
8.524,0.02878
8.528,0.08689
8.532,0.06876
8.536,0.09369
8.54,0.13895
8.544,0.15207
8.548,0.07482
8.552,0.1592
8.556,0.17157
8.56,0.23324
8.564,0.15587
8.568,0.14969
8.572,0.18995
8.576,0.2335
8.58,0.1971
8.584,0.19409
8.588,0.22505
8.592,0.23552
8.596,0.15385
8.6,0.18147
8.604,0.14702
8.608,0.22306
8.612,0.1858
8.616,0.16753
8.62,0.17757
8.624,0.14375
8.628,0.13826
8.632,0.1284
8.636,0.09447
8.64,0.10563
8.644,0.053
8.648,0.00217
8.652,0.0823
8.656,0.0281
8.66,0.06069
8.664,0.0743
8.668,0.0548
8.672,0.06526
8.676,0.01148
8.68,-0.00029
8.684,-0.01059
8.688,-0.01069
8.692,-0.00965
8.696,0.00445
8.7,-0.03389
8.704,-0.07153
8.708,-0.04559
8.712,-0.04492
8.716,0.05933
8.72,-0.03833
8.724,0.01529
8.728,-0.03424
8.732,-0.00124
8.736,-0.03617
8.74,0.01398
8.744,-0.05831
8.748,-0.05146
8.752,-0.03022
8.756,0.0299
8.76,-0.0478
8.764,-0.06992
8.768,-0.09757
8.772,0.01493
8.776,0.00157
8.78,0.00748
8.784,-0.00427
8.788,0.05981
8.792,0.0886
8.796,0.04024
8.8,0.14019
8.804,6e-05
8.808,0.07158
8.812,0.08139
8.816,0.08311
8.82,0.097
8.824,0.06485
8.828,0.03404
8.832,-0.01252
8.836,0.05529
8.84,-0.00782
8.844,0.0813
8.848,-0.02484
8.852,0.05918
8.856,0.07196
8.86,0.00596
8.864,0.02127
8.868,-0.03484
8.872,-0.01046
8.876,-0.023
8.88,0.00693
8.884,0.01618
8.888,-0.03879
8.892,-0.03392
8.896,-0.03863
8.9,-0.01997
8.904,0.01745
8.908,-0.01426
8.912,-0.09722
8.916,-0.03815
8.92,-0.03017
8.924,-0.11248
8.928,-0.02638
8.932,-0.09456
8.936,-0.0547
8.94,-0.15363
8.944,-0.20071
8.948,0.01358
8.952,0.16599
8.956,0.34073
8.96,0.57775
8.964,0.7384
8.968,0.99846
8.972,1.05232
8.976,0.95125
8.98,0.73508
8.984,0.49049
8.988,0.24104
8.992,0.17326
8.996,-0.11913
9.0,-0.14706
9.004,-0.16247
9.008,-0.18849
9.012,-0.07085
9.016,-0.06518
9.02,-0.11922
9.024,0.0195
9.028,-0.04138
9.032,-0.02457
9.036,0.0052
9.04,-0.03287
9.044,-0.0454
9.048,-0.01647
9.052,-0.0031
9.056,0.06852
9.06,0.00854
9.064,0.05564
9.068,0.04122
9.072,0.05063
9.076,0.0429
9.08,0.02186
9.084,0.05679
9.088,0.08731
9.092,0.11857
9.096,0.02032
9.1,0.07597
9.104,0.04093
9.108,0.06223
9.112,0.05517
9.116,0.0075
9.12,0.02942
9.124,0.04665
9.128,0.02331
9.132,-0.01562
9.136,-0.00363
9.14,0.03828
9.144,-0.04244
9.148,-0.06989
9.152,-0.03067
9.156,-0.02064
9.16,0.04345
9.164,0.0355
9.168,0.0192
9.172,0.00074
9.176,0.05878
9.18,0.06948
9.184,0.08029
9.188,0.06506
9.192,0.11524
9.196,0.07241
9.2,0.14398
9.204,0.05987
9.208,0.05026
9.212,0.09594
9.216,0.01497
9.22,0.00836
9.224,0.13065
9.228,0.20566
9.232,0.37067
9.236,0.45686
9.24,0.5363
9.244,0.7508
9.248,0.75812
9.252,0.71239
9.256,0.65449
9.26,0.50387
9.264,0.40328
9.268,0.23457
9.272,0.05672
9.276,0.0301
9.28,0.02467
9.284,0.03878
9.288,0.06795
9.292,0.03261
9.296,0.08352
9.3,0.10827
9.304,0.16018
9.308,0.11682
9.312,0.10435
9.316,0.04005
9.32,0.05712
9.324,0.03013
9.328,0.01688
9.332,0.06647
9.336,0.01429
9.34,-0.04521
9.344,0.06785
9.348,0.02169
9.352,0.07993
9.356,-0.01469
9.36,0.03571
9.364,0.10433
9.368,0.01242
9.372,0.00069
9.376,-0.02382
9.38,0.0394
9.384,-0.01011
9.388,0.01958
9.392,0.03727
9.396,0.03382
9.4,0.04246
9.404,0.06407
9.408,0.1375
9.412,0.10087
9.416,0.08587
9.42,0.11245
9.424,0.09123
9.428,0.08164
9.432,0.04748
9.436,0.13321
9.44,0.03902
9.444,0.08886
9.448,0.08289
9.452,0.06243
9.456,0.08946
9.46,0.08835
9.464,0.0864
9.468,0.10368
9.472,0.11476
9.476,0.0952
9.48,0.11689
9.484,0.14805
9.488,0.08471
9.492,0.10282
9.496,0.21471
9.5,0.16803
9.504,0.19973
9.508,0.1969
9.512,0.18249
9.516,0.21557
9.52,0.21343
9.524,0.20776
9.528,0.21474
9.532,0.19407
9.536,0.14118
9.54,0.04633
9.544,0.09823
9.548,0.10894
9.552,0.24707
9.556,0.47885
9.56,0.57028
9.564,0.78068
9.568,0.98141
9.572,1.12519
9.576,1.10549
9.58,1.01213
9.584,0.83326
9.588,0.58927
9.592,0.40054
9.596,0.18954
9.6,0.01583
9.604,-0.09745
9.608,-0.17307
9.612,-0.04358
9.616,-0.02361
9.62,-0.02935
9.624,0.02182
9.628,-0.02786
9.632,0.01437
9.636,0.00159
9.64,0.04043
9.644,0.03911
9.648,0.00648
9.652,0.02483
9.656,0.02904
9.66,0.04615
9.664,-0.00114
9.668,-0.00872
9.672,0.03697
9.676,-0.0818
9.68,0.05722
9.684,0.03352
9.688,-0.00303
9.692,0.01439
9.696,-0.0233
9.7,-0.00707
9.704,0.02483
9.708,-0.01973
9.712,-0.06052
9.716,0.05839
9.72,0.03076
9.724,0.00046
9.728,-0.02785
9.732,-0.04468
9.736,0.03806
9.74,-0.02788
9.744,0.01695
9.748,0.04433
9.752,0.05637
9.756,0.0408
9.76,0.00423
9.764,0.04655
9.768,0.01933
9.772,0.03602
9.776,0.02881
9.78,0.031
9.784,0.02512
9.788,0.08346
9.792,0.09851
9.796,0.06043
9.8,0.10511
9.804,0.11264
9.808,0.07078
9.812,0.15056
9.816,0.10311
9.82,0.17616
9.824,0.13079
9.828,0.18685
9.832,0.16349
9.836,0.19535
9.84,0.17717
9.844,0.23137
9.848,0.22831
9.852,0.20536
9.856,0.22165
9.86,0.23793
9.864,0.22309
9.868,0.15714
9.872,0.24494
9.876,0.23169
9.88,0.20811
9.884,0.20429
9.888,0.18833
9.892,0.19376
9.896,0.07433
9.9,0.21521
9.904,0.14388
9.908,0.17543
9.912,0.07954
9.916,0.08085
9.92,0.09898
9.924,0.09052
9.928,0.06873
9.932,0.05524
9.936,0.0933
9.94,0.05422
9.944,0.0199
9.948,0.02181
9.952,-0.02025
9.956,-0.02636
9.96,0.09216
9.964,0.00281
9.968,0.05823
9.972,0.08724
9.976,0.00158
9.98,0.03163
9.984,0.01535
9.988,0.00702
9.992,0.08116
9.996,0.08205
