t_seg,ecg_mV
0.0,0.01377
0.004,0.02823
0.008,0.0016
0.012,0.02455
0.016,0.02424
0.02,0.02154
0.024,0.02701
0.028,0.02566
0.032,0.01639
0.036,0.0391
0.04,0.01692
0.044,0.01071
0.048,0.01508
0.052,0.00405
0.056,0.00756
0.06,0.03976
0.064,-0.00735
0.068,-0.01796
0.072,0.01516
0.076,0.01156
0.08,0.04166
0.084,0.02211
0.088,0.016
0.092,0.01294
0.096,0.03816
0.1,0.00918
0.104,0.0299
0.108,0.02507
0.112,-0.01581
0.116,0.02193
0.12,0.02193
0.124,0.00549
0.128,0.03139
0.132,0.04494
0.136,0.06388
0.14,0.02427
0.144,0.01329
0.148,0.01811
0.152,0.03756
0.156,0.04769
0.16,0.04297
0.164,0.03011
0.168,0.02273
0.172,0.01746
0.176,0.00541
0.18,0.01469
0.184,0.02463
0.188,0.01007
0.192,0.01867
0.196,0.02919
0.2,0.03178
0.204,0.01284
0.208,0.00213
0.212,0.01194
0.216,0.00765
0.22,-0.00377
0.224,-0.00406
0.228,0.02746
0.232,0.03035
0.236,-0.00346
0.24,0.00542
0.244,0.02462
0.248,0.01569
0.252,0.0048
0.256,0.01183
0.26,0.01824
0.264,0.0295
0.268,0.02178
0.272,0.0241
0.276,0.02026
0.28,-0.00334
0.284,0.00202
0.288,0.02134
0.292,0.0443
0.296,0.0104
0.3,0.02218
0.304,0.01497
0.308,0.02818
0.312,0.02694
0.316,0.02689
0.32,0.00779
0.324,0.02154
0.328,0.01856
0.332,0.01741
0.336,0.02257
0.34,0.02898
0.344,0.03597
0.348,0.01329
0.352,0.0124
0.356,0.03657
0.36,0.04224
0.364,0.03559
0.368,0.03172
0.372,0.03777
0.376,-0.00413
0.38,0.04183
0.384,0.02504
0.388,0.04261
0.392,0.02404
0.396,0.02539
0.4,0.02311
0.404,0.02357
0.408,0.00573
0.412,0.02927
0.416,0.02351
0.42,0.03043
0.424,0.0274
0.428,0.01699
0.432,0.07544
0.436,0.00759
0.44,0.05945
0.444,0.02932
0.448,0.03528
0.452,0.03398
0.456,0.01717
0.46,0.02258
0.464,0.04495
0.468,0.05228
0.472,0.03575
0.476,0.01459
0.48,0.01555
0.484,0.03196
0.488,0.01908
0.492,0.06691
0.496,0.00885
0.5,0.04925
0.504,0.04827
0.508,0.01144
0.512,0.03333
0.516,0.02334
0.52,0.02637
0.524,0.03254
0.528,0.03515
0.532,0.06996
0.536,0.04736
0.54,0.0783
0.544,0.13258
0.548,0.10719
0.552,0.11476
0.556,0.11971
0.56,0.11842
0.564,0.12367
0.568,0.13445
0.572,0.14391
0.576,0.12144
0.58,0.07517
0.584,0.09095
0.588,0.06893
0.592,0.04416
0.596,0.03186
0.6,0.03343
0.604,0.0528
0.608,0.04329
0.612,0.03442
0.616,0.04124
0.62,0.03901
0.624,0.01984
0.628,0.04384
0.632,0.0412
0.636,0.04239
0.64,0.02172
0.644,0.02396
0.648,0.02149
0.652,0.02905
0.656,0.02793
0.66,0.04197
0.664,0.00177
0.668,0.01407
0.672,0.02592
0.676,-0.00895
0.68,-0.01536
0.684,-0.05939
0.688,-0.08311
0.692,-0.09627
0.696,0.0079
0.7,0.09203
0.704,0.27931
0.708,0.49449
0.712,0.71233
0.716,0.84298
0.72,1.02181
0.724,1.01256
0.728,0.92609
0.732,0.73904
0.736,0.51234
0.74,0.28213
0.744,0.09635
0.748,-0.06503
0.752,-0.11584
0.756,-0.1136
0.76,-0.12894
0.764,-0.08359
0.768,-0.02712
0.772,0.01571
0.776,0.02314
0.78,-0.00267
0.784,0.00445
0.788,0.03143
0.792,0.03646
0.796,0.04107
0.8,0.02292
0.804,0.02356
0.808,0.03755
0.812,0.02966
0.816,0.0413
0.82,0.01127
0.824,0.03335
0.828,0.01699
0.832,0.0442
0.836,0.00907
0.84,0.02386
0.844,0.00785
0.848,0.02248
0.852,0.00607
0.856,0.02892
0.86,-0.00559
0.864,0.05163
0.868,0.06941
0.872,0.0186
0.876,0.02759
0.88,0.00789
0.884,0.04997
0.888,0.04357
0.892,0.04032
0.896,0.08445
0.9,0.05437
0.904,0.02504
0.908,0.03906
0.912,0.04328
0.916,0.08169
0.92,0.07573
0.924,0.08976
0.928,0.13223
0.932,0.10062
0.936,0.11078
0.94,0.11591
0.944,0.11317
0.948,0.13609
0.952,0.13984
0.956,0.14339
0.96,0.16
0.964,0.16662
0.968,0.1777
0.972,0.22178
0.976,0.21015
0.98,0.21337
0.984,0.21953
0.988,0.22769
0.992,0.2332
0.996,0.25511
1.0,0.24983
1.004,0.25754
1.008,0.24694
1.012,0.22616
1.016,0.23931
1.02,0.25922
1.024,0.22361
1.028,0.21916
1.032,0.21991
1.036,0.1869
1.04,0.20899
1.044,0.16508
1.048,0.20181
1.052,0.15679
1.056,0.13481
1.06,0.1347
1.064,0.14277
1.068,0.08961
1.072,0.11616
1.076,0.08122
1.08,0.07122
1.084,0.0785
1.088,0.07097
1.092,0.05373
1.096,0.03015
1.1,0.03706
1.104,0.03445
1.108,0.03575
1.112,0.02425
1.116,0.0505
1.12,0.01485
1.124,0.00446
1.128,0.05648
1.132,0.039
1.136,0.01527
1.14,0.02821
1.144,0.03495
1.148,0.04371
1.152,0.01681
1.156,0.05102
1.16,0.00361
1.164,0.01077
1.168,0.02156
1.172,0.05981
1.176,0.0091
1.18,0.01906
1.184,0.01666
1.188,0.02619
1.192,0.04419
1.196,0.03696
1.2,0.05499
1.204,0.0217
1.208,0.01141
1.212,0.02022
1.216,0.01232
1.22,0.04796
1.224,-0.00104
1.228,0.01536
1.232,0.04682
1.236,0.01997
1.24,0.04349
1.244,0.0364
1.248,0.06201
1.252,0.00603
1.256,0.01944
1.26,0.01719
1.264,0.02762
1.268,0.04135
1.272,0.03758
1.276,0.05525
1.28,0.03714
1.284,0.03228
1.288,0.0297
1.292,0.02227
1.296,0.0795
1.3,0.02722
1.304,0.02364
1.308,0.03102
1.312,0.04032
1.316,0.0389
1.32,0.04831
1.324,0.00745
1.328,0.05073
1.332,0.04737
1.336,0.07027
1.34,0.06254
1.344,0.06451
1.348,0.04779
1.352,0.09848
1.356,0.08191
1.36,0.11677
1.364,0.11731
1.368,0.11053
1.372,0.10163
1.376,0.11229
1.38,0.09727
1.384,0.13353
1.388,0.09752
1.392,0.06431
1.396,0.07002
1.4,0.05282
1.404,0.05509
1.408,0.02736
1.412,0.06627
1.416,0.04326
1.42,0.01168
1.424,0.02848
1.428,0.04736
1.432,0.02921
1.436,0.02868
1.44,0.03516
1.444,0.0564
1.448,0.01426
1.452,0.0048
1.456,0.03987
1.46,0.03139
1.464,0.02808
1.468,0.0067
1.472,0.01275
1.476,0.01322
1.48,0.0283
1.484,0.02981
1.488,0.00531
1.492,-0.02067
1.496,-0.04909
1.5,-0.07276
1.504,-0.08804
1.508,0.0477
1.512,0.26811
1.516,0.42983
1.52,0.6097
1.524,0.84212
1.528,0.97407
1.532,1.01993
1.536,0.95708
1.54,0.77831
1.544,0.55978
1.548,0.37081
1.552,0.15935
1.556,-0.03747
1.56,-0.10677
1.564,-0.12597
1.568,-0.11648
1.572,-0.07886
1.576,-0.05286
1.58,-0.00886
1.584,-0.01079
1.588,0.01857
1.592,0.03169
1.596,0.01074
1.6,0.00174
1.604,0.0271
1.608,0.01974
1.612,0.05514
1.616,0.00448
1.62,0.0035
1.624,0.01942
1.628,0.03177
1.632,0.04992
1.636,0.03689
1.64,0.02217
1.644,0.04917
1.648,0.05724
1.652,0.03028
1.656,0.00108
1.66,0.03008
1.664,0.02369
1.668,0.01534
1.672,0.02964
1.676,0.05995
1.68,0.06086
1.684,0.01345
1.688,0.02031
1.692,0.04941
1.696,0.0374
1.7,0.04994
1.704,0.01838
1.708,0.03519
1.712,0.04718
1.716,0.04104
1.72,0.05508
1.724,0.05732
1.728,0.0756
1.732,0.0599
1.736,0.09193
1.74,0.07276
1.744,0.10533
1.748,0.12108
1.752,0.14691
1.756,0.12114
1.76,0.1512
1.764,0.13816
1.768,0.1322
1.772,0.15214
1.776,0.16341
1.78,0.18456
1.784,0.21733
1.788,0.21716
1.792,0.20656
1.796,0.22216
1.8,0.25021
1.804,0.2417
1.808,0.21562
1.812,0.26426
1.816,0.24473
1.82,0.24899
1.824,0.22521
1.828,0.22292
1.832,0.20768
1.836,0.22788
1.84,0.21682
1.844,0.19433
1.848,0.19033
1.852,0.16793
1.856,0.13788
1.86,0.13809
1.864,0.10505
1.868,0.12934
1.872,0.07906
1.876,0.11986
1.88,0.07075
1.884,0.07793
1.888,0.05626
1.892,0.05934
1.896,0.05311
1.9,0.07165
1.904,0.05641
1.908,0.00635
1.912,0.05529
1.916,0.03328
1.92,0.0195
1.924,0.04856
1.928,0.02615
1.932,0.03566
1.936,0.03581
1.94,0.01772
1.944,0.04736
1.948,0.00307
1.952,0.05297
1.956,0.02251
1.96,0.02704
1.964,0.01163
1.968,0.01331
1.972,0.01308
1.976,0.01235
1.98,0.02292
1.984,0.02843
1.988,0.01649
1.992,0.02745
1.996,0.01574
2.0,0.01408
2.004,0.03173
2.008,0.03441
2.012,-0.00876
2.016,0.02405
2.02,0.02458
2.024,-0.00135
2.028,0.01529
2.032,0.01865
2.036,0.03094
2.04,0.03893
2.044,0.00587
2.048,0.01022
2.052,0.00231
2.056,0.03731
2.06,0.00943
2.064,0.04266
2.068,0.00539
2.072,0.0098
2.076,-0.00189
2.08,0.00092
2.084,0.02106
2.088,0.01891
2.092,-0.00719
2.096,0.00831
2.1,0.00129
2.104,0.01402
2.108,0.02128
2.112,0.01434
2.116,-0.00666
2.12,0.01117
2.124,0.01231
2.128,0.01065
2.132,0.00599
2.136,-0.00337
2.14,0.01995
2.144,0.02817
2.148,0.00958
2.152,0.04892
2.156,0.04865
2.16,0.03338
2.164,0.05656
2.168,0.07041
2.172,0.08649
2.176,0.07637
2.18,0.11558
2.184,0.09244
2.188,0.11339
2.192,0.10405
2.196,0.09256
2.2,0.08697
2.204,0.08101
2.208,0.06064
2.212,0.0648
2.216,0.04465
2.22,0.01538
2.224,0.02306
2.228,0.0335
2.232,0.00861
2.236,0.01619
2.24,-0.00197
2.244,0.00602
2.248,-0.00895
2.252,-0.00043
2.256,0.01413
2.26,-0.02571
2.264,0.03272
2.268,0.00236
2.272,0.01329
2.276,0.01097
2.28,0.01222
2.284,0.02276
2.288,0.0323
2.292,-0.00477
2.296,0.02088
2.3,-0.00392
2.304,-0.04917
2.308,-0.06319
2.312,-0.12544
2.316,-0.07621
2.32,-0.00292
2.324,0.13965
2.328,0.31387
2.332,0.54988
2.336,0.72908
2.34,0.91886
2.344,0.98209
2.348,0.98385
2.352,0.85363
2.356,0.66003
2.36,0.42247
2.364,0.21094
2.368,0.01514
2.372,-0.09115
2.376,-0.15069
2.38,-0.14071
2.384,-0.14699
2.388,-0.06806
2.392,-0.06615
2.396,0.00501
2.4,0.00564
2.404,-8e-05
2.408,-0.02153
2.412,0.01285
2.416,0.02388
2.42,0.02744
2.424,0.00366
2.428,0.01143
2.432,-0.00341
2.436,0.02186
2.44,-0.00343
2.444,0.03201
2.448,0.02777
2.452,-0.00031
2.456,-0.0042
2.46,0.01835
2.464,0.02026
2.468,0.02253
2.472,0.00187
2.476,0.00984
2.48,0.00756
2.484,0.02385
2.488,-0.01695
2.492,0.00385
2.496,-0.00717
2.5,-0.0016
2.504,0.02436
2.508,0.01691
2.512,0.00723
2.516,0.02578
2.52,0.00608
2.524,0.01657
2.528,0.02817
2.532,0.04307
2.536,0.03445
2.54,0.03894
2.544,0.06058
2.548,0.04581
2.552,0.05002
2.556,0.03847
2.56,0.09233
2.564,0.10013
2.568,0.08954
2.572,0.13542
2.576,0.11733
2.58,0.13303
2.584,0.16872
2.588,0.16543
2.592,0.17932
2.596,0.17227
2.6,0.16454
2.604,0.19752
2.608,0.20606
2.612,0.22865
2.616,0.24567
2.62,0.20586
2.624,0.23815
2.628,0.21298
2.632,0.23993
2.636,0.22328
2.64,0.18784
2.644,0.20436
2.648,0.185
2.652,0.19448
2.656,0.19884
2.66,0.15452
2.664,0.12327
2.668,0.15076
2.672,0.13561
2.676,0.11979
2.68,0.10895
2.684,0.06881
2.688,0.0736
2.692,0.09501
2.696,0.06014
2.7,0.04301
2.704,0.06656
2.708,0.04538
2.712,0.06299
2.716,0.04077
2.72,0.05011
2.724,0.03415
2.728,0.03943
2.732,0.05109
2.736,0.051
2.74,0.09872
2.744,0.09161
2.748,0.08844
2.752,0.1084
2.756,0.10102
2.76,0.06364
2.764,0.1027
2.768,0.05356
2.772,0.06619
2.776,0.02633
2.78,0.04164
2.784,-0.00087
2.788,0.02857
2.792,0.00228
2.796,0.0148
2.8,0.01508
2.804,-0.00581
2.808,0.00673
2.812,-0.01237
2.816,0.00992
2.82,-0.01339
2.824,-0.01213
2.828,0.00664
2.832,-0.05014
2.836,-0.00242
2.84,0.00582
2.844,-0.00858
2.848,0.02897
2.852,0.01229
2.856,-0.01467
2.86,-0.01614
2.864,-0.00381
2.868,-0.00781
2.872,-0.04152
2.876,-0.07464
2.88,-0.1069
2.884,-0.12069
2.888,-0.0777
2.892,0.06081
2.896,0.25257
2.9,0.45244
2.904,0.65763
2.908,0.85952
2.912,0.96568
2.916,0.96825
2.92,0.88991
2.924,0.69772
2.928,0.46892
2.932,0.25768
2.936,0.04931
2.94,-0.08375
2.944,-0.18221
2.948,-0.1924
2.952,-0.13096
2.956,-0.12744
2.96,-0.08803
2.964,-0.06277
2.968,-0.01511
2.972,-0.00794
2.976,-0.0212
2.98,-0.01289
2.984,-0.01588
2.988,0.00383
2.992,-0.00501
2.996,-0.01063
3.0,-0.01066
3.004,-0.01439
3.008,-0.00536
3.012,0.0017
3.016,-0.00799
3.02,0.01351
3.024,0.00519
3.028,-0.0283
3.032,-0.00354
3.036,-0.03889
3.04,-0.00661
3.044,-0.00025
3.048,-0.01048
3.052,0.01264
3.056,-0.01109
3.06,-0.02307
3.064,0.00214
3.068,-0.00293
3.072,-0.02488
3.076,0.00027
3.08,-0.0007
3.084,-0.0042
3.088,0.00168
3.092,-0.01289
3.096,0.02359
3.1,0.01646
3.104,0.04667
3.108,0.0263
3.112,0.03208
3.116,0.04532
3.12,0.03351
3.124,0.05138
3.128,0.07028
3.132,0.05186
3.136,0.08452
3.14,0.0755
3.144,0.11248
3.148,0.099
3.152,0.13163
3.156,0.14129
3.16,0.13572
3.164,0.1861
3.168,0.17714
3.172,0.19162
3.176,0.1917
3.18,0.19995
3.184,0.19478
3.188,0.21077
3.192,0.2151
3.196,0.20912
3.2,0.21482
3.204,0.18412
3.208,0.22242
3.212,0.19826
3.216,0.17362
3.22,0.18821
3.224,0.18773
3.228,0.14189
3.232,0.15757
3.236,0.14182
3.24,0.13003
3.244,0.10375
3.248,0.09757
3.252,0.05584
3.256,0.06498
3.26,0.05592
3.264,0.03367
3.268,0.02726
3.272,-0.00124
3.276,0.03034
3.28,0.00756
3.284,0.01543
3.288,0.01875
3.292,0.01758
3.296,0.0282
3.3,0.01359
3.304,-0.03128
3.308,-0.02383
3.312,-0.03546
3.316,-0.01257
3.32,-0.01008
3.324,0.00651
3.328,-0.00099
3.332,-0.03504
3.336,-0.03188
3.34,-0.03353
3.344,0.00737
3.348,0.00193
3.352,-0.0297
3.356,-0.00209
3.36,-0.01762
3.364,-0.02249
3.368,-0.01194
3.372,-0.02499
3.376,-0.01315
3.38,-0.02028
3.384,-0.03463
3.388,-0.0514
3.392,0.00514
3.396,-0.00893
3.4,-0.03078
3.404,-0.04193
3.408,-0.02454
3.412,-0.02133
3.416,-0.05063
3.42,0.00856
3.424,-0.01368
3.428,-0.03434
3.432,-0.01471
3.436,-0.02465
3.44,0.00972
3.444,-0.00812
3.448,-0.00637
3.452,-0.00865
3.456,-0.02406
3.46,-0.03052
3.464,-0.02757
3.468,-0.01234
3.472,-0.01509
3.476,-0.02926
3.48,-0.00433
3.484,-0.02426
3.488,-0.04086
3.492,-0.01337
3.496,-0.00822
3.5,-0.01161
3.504,-0.03989
3.508,-0.02589
3.512,-0.01746
3.516,-0.02543
3.52,-0.01724
3.524,-0.03353
3.528,-0.01393
3.532,-0.02437
3.536,0.00077
3.54,-0.0347
3.544,-0.01152
3.548,-0.00856
3.552,-0.02367
3.556,-0.0264
3.56,-0.03041
3.564,-0.00871
3.568,-0.02886
3.572,-0.02418
3.576,-0.02566
3.58,-0.0143
3.584,-0.00347
3.588,-0.01085
3.592,0.00776
3.596,0.02578
3.6,0.04594
3.604,0.00188
3.608,0.07521
3.612,0.06541
3.616,0.08344
3.62,0.079
3.624,0.07402
3.628,0.06361
3.632,0.07393
3.636,0.05758
3.64,0.05858
3.644,0.04538
3.648,-0.00487
3.652,0.01853
3.656,-0.00362
3.66,0.00093
3.664,-0.01352
3.668,-0.02178
3.672,-0.01996
3.676,-0.00631
3.68,-0.02096
3.684,-0.0214
3.688,-0.03535
3.692,-0.00824
3.696,-0.01157
3.7,-0.03561
3.704,-0.02098
3.708,-0.03092
3.712,-0.05795
3.716,-0.01292
3.72,-0.02065
3.724,-0.05562
3.728,-0.03582
3.732,-0.0639
3.736,-0.03308
3.74,-0.0694
3.744,-0.10158
3.748,-0.1198
3.752,-0.13895
3.756,-0.06556
3.76,0.04187
3.764,0.20388
3.768,0.40145
3.772,0.61173
3.776,0.83414
3.78,0.94163
3.784,0.97092
3.788,0.87302
3.792,0.70669
3.796,0.47365
3.8,0.275
3.804,0.05083
3.808,-0.0911
3.812,-0.16424
3.816,-0.19297
3.82,-0.17793
3.824,-0.14532
3.828,-0.09368
3.832,-0.05387
3.836,-0.02939
3.84,-0.04905
3.844,-0.05667
3.848,-0.02219
3.852,-0.01512
3.856,-0.0205
3.86,-0.02059
3.864,-0.03227
3.868,-0.03546
3.872,-0.03428
3.876,-0.0659
3.88,-0.0441
3.884,-0.05467
3.888,-0.03327
3.892,-0.04073
3.896,-0.04764
3.9,-0.02338
3.904,-0.02881
3.908,-0.02784
3.912,-0.02225
3.916,-0.02397
3.92,-0.04908
3.924,-0.02584
3.928,-0.00817
3.932,0.00617
3.936,-0.0372
3.94,-0.03163
3.944,0.01166
3.948,-0.00535
3.952,-0.02128
3.956,-0.02422
3.96,-0.01388
3.964,-0.01919
3.968,-0.01076
3.972,-0.01918
3.976,0.01406
3.98,0.02285
3.984,0.05457
3.988,0.02259
3.992,0.04161
3.996,0.06081
4.0,0.04931
4.004,0.06244
4.008,0.06937
4.012,0.10311
4.016,0.10138
4.02,0.11372
4.024,0.126
4.028,0.12396
4.032,0.1291
4.036,0.14445
4.04,0.15197
4.044,0.20506
4.048,0.17635
4.052,0.18419
4.056,0.17634
4.06,0.18986
4.064,0.16197
4.068,0.17988
4.072,0.19248
4.076,0.19612
4.08,0.15638
4.084,0.15
4.088,0.1846
4.092,0.13332
4.096,0.14021
4.1,0.12645
4.104,0.10093
4.108,0.11486
4.112,0.12533
4.116,0.07831
4.12,0.06501
4.124,0.06507
4.128,0.05592
4.132,0.0673
4.136,0.02401
4.14,0.01386
4.144,0.03794
4.148,-0.00198
4.152,0.00044
4.156,-0.0048
4.16,-0.0334
4.164,-0.01547
4.168,-0.01415
4.172,-0.02021
4.176,-0.00359
4.18,-0.02599
4.184,-0.01372
4.188,-0.02611
4.192,-0.03315
4.196,-0.04198
4.2,-0.02941
4.204,-0.02493
4.208,-0.01785
4.212,-0.00622
4.216,-0.0271
4.22,-0.05615
4.224,-0.03769
4.228,-0.02497
4.232,-0.04705
4.236,-0.0272
4.24,-0.04057
4.244,-0.02769
4.248,-0.00913
4.252,-0.02286
4.256,-0.03391
4.26,-0.0405
4.264,-0.04374
4.268,-0.04116
4.272,-0.03664
4.276,-0.02454
4.28,-0.02543
4.284,-0.02235
4.288,-0.02214
4.292,-0.04846
4.296,-0.02976
4.3,-0.01964
4.304,-0.02897
4.308,-0.0364
4.312,-0.04234
4.316,-0.03507
4.32,-0.03296
4.324,-0.01978
4.328,-0.03967
4.332,-0.01125
4.336,-0.02045
4.34,-0.03991
4.344,-0.02722
4.348,-0.051
4.352,-0.05988
4.356,3e-05
4.36,0.01461
4.364,-0.04937
4.368,-0.02349
4.372,-0.0461
4.376,-0.06521
4.38,-0.05384
4.384,-0.02751
4.388,-0.05021
4.392,-0.04455
4.396,-0.02067
4.4,-0.02702
4.404,-0.01773
4.408,-0.03694
4.412,-0.0215
4.416,-0.02715
4.42,-0.02161
4.424,-0.06048
4.428,-0.04277
4.432,-0.00817
4.436,-0.03905
4.44,-0.03542
4.444,-0.02457
4.448,-0.04394
4.452,-0.03743
4.456,-0.05254
4.46,-0.03322
4.464,-0.0641
4.468,-0.01826
4.472,-0.02322
4.476,-0.01286
4.48,-0.03459
4.484,-0.04961
4.488,-0.04157
4.492,-0.01069
4.496,-0.00736
4.5,-0.02737
4.504,-0.03282
4.508,0.00512
4.512,-0.00482
4.516,0.00012
4.52,0.03405
4.524,0.04914
4.528,0.01526
4.532,0.05487
4.536,0.05602
4.54,0.08328
4.544,0.06788
4.548,0.07201
4.552,0.0806
4.556,0.0698
4.56,0.07206
4.564,0.03215
4.568,0.0199
4.572,-0.01825
4.576,0.01204
4.58,0.01059
4.584,-0.01675
4.588,-0.0359
4.592,-0.01539
4.596,-0.01584
4.6,-0.03865
4.604,-0.05686
4.608,-0.01583
4.612,-0.03297
4.616,-0.04035
4.62,-0.01579
4.624,-0.05469
4.628,-0.02145
4.632,0.00705
4.636,-0.03848
4.64,-0.01213
4.644,-0.03811
4.648,0.00015
4.652,-0.02966
4.656,-0.04227
4.66,-0.067
4.664,-0.09894
4.668,-0.14879
4.672,-0.1567
4.676,-0.09954
4.68,5e-05
4.684,0.1765
4.688,0.36218
4.692,0.57322
4.696,0.78298
4.7,0.94918
4.704,0.98888
4.708,0.92183
4.712,0.73982
4.716,0.49917
4.72,0.28329
4.724,0.0874
4.728,-0.05126
4.732,-0.15039
4.736,-0.19726
4.74,-0.1528
4.744,-0.15155
4.748,-0.09998
4.752,-0.04941
4.756,-0.05023
4.76,-0.02748
4.764,-0.04378
4.768,-0.0262
4.772,-0.00938
4.776,-0.02666
4.78,-0.02636
4.784,0.00039
4.788,-0.01508
4.792,-0.0114
4.796,-0.04057
4.8,-0.03432
4.804,-0.02181
4.808,-0.04722
4.812,-0.00705
4.816,-0.02572
4.82,-0.03075
4.824,-0.03003
4.828,-0.0446
4.832,-0.01226
4.836,-0.03462
4.84,-0.03092
4.844,-0.04311
4.848,0.00201
4.852,-0.02634
4.856,-0.03226
4.86,-0.03759
4.864,-0.03401
4.868,-0.04012
4.872,-0.02967
4.876,-0.00058
4.88,-0.02564
4.884,-0.01094
4.888,0.00209
4.892,0.02457
4.896,0.02361
4.9,0.00026
4.904,0.04225
4.908,0.03839
4.912,0.0042
4.916,0.05766
4.92,0.04118
4.924,0.06513
4.928,0.07489
4.932,0.08302
4.936,0.10987
4.94,0.10273
4.944,0.10044
4.948,0.13357
4.952,0.145
4.956,0.15721
4.96,0.16337
4.964,0.18348
4.968,0.16961
4.972,0.198
4.976,0.20518
4.98,0.20143
4.984,0.20217
4.988,0.19355
4.992,0.18942
4.996,0.19232
5.0,0.19791
5.004,0.17889
5.008,0.16452
5.012,0.13855
5.016,0.15244
5.02,0.15399
5.024,0.15036
5.028,0.12159
5.032,0.0755
5.036,0.07946
5.04,0.08123
5.044,0.07317
5.048,0.05455
5.052,0.05563
5.056,0.03341
5.06,0.05239
5.064,0.00944
5.068,0.00756
5.072,0.00076
5.076,-0.00316
5.08,-0.01409
5.084,-0.02926
5.088,-0.0058
5.092,-0.02163
5.096,-0.00585
5.1,-0.02289
5.104,-0.01638
5.108,-0.00285
5.112,-0.02236
5.116,-0.00311
5.12,-0.02262
5.124,-0.02096
5.128,-0.02176
5.132,-0.00104
5.136,-0.00204
5.14,0.00295
5.144,-0.02046
5.148,-0.00519
5.152,-0.03039
5.156,-0.02465
5.16,-0.02824
5.164,-0.00822
5.168,-0.01284
5.172,-0.03975
5.176,-0.0353
5.18,-0.01534
5.184,-0.02088
5.188,-0.03359
5.192,0.01989
5.196,-0.002
5.2,-0.00585
5.204,-0.04125
5.208,0.01766
5.212,-0.00924
5.216,0.00431
5.22,0.0457
5.224,0.06412
5.228,0.05477
5.232,0.03872
5.236,0.06847
5.24,0.06863
5.244,0.08073
5.248,0.0876
5.252,0.05598
5.256,0.06437
5.26,0.06966
5.264,0.04615
5.268,0.02946
5.272,0.01232
5.276,0.02377
5.28,-0.00532
5.284,-0.02074
5.288,0.02188
5.292,-0.00319
5.296,0.017
5.3,-0.00756
5.304,-0.03839
5.308,-0.01057
5.312,-0.02542
5.316,-0.02401
5.32,0.00247
5.324,-0.02402
5.328,-0.02138
5.332,-0.01093
5.336,-0.02324
5.34,-0.02084
5.344,-0.03284
5.348,0.01038
5.352,-0.05756
5.356,-0.04252
5.36,-0.02922
5.364,-0.06317
5.368,-0.10204
5.372,-0.17527
5.376,-0.15048
5.38,-0.0276
5.384,0.09475
5.388,0.28926
5.392,0.4929
5.396,0.70233
5.4,0.86066
5.404,0.98009
5.408,0.96372
5.412,0.82612
5.416,0.65155
5.42,0.42111
5.424,0.16757
5.428,-0.01101
5.432,-0.11439
5.436,-0.17786
5.44,-0.17809
5.444,-0.14189
5.448,-0.11222
5.452,-0.05718
5.456,-0.03856
5.46,-0.02389
5.464,-0.00268
5.468,0.0018
5.472,-0.01205
5.476,-0.00403
5.48,-0.03648
5.484,-0.01099
5.488,-0.00455
5.492,-0.02763
5.496,-0.00243
5.5,-0.00325
5.504,9e-05
5.508,-0.01152
5.512,-0.00643
5.516,0.02594
5.52,-0.04381
5.524,0.00011
5.528,-0.00328
5.532,-0.01711
5.536,0.00877
5.54,-0.01046
5.544,-0.00125
5.548,0.02605
5.552,0.00659
5.556,-0.0288
5.56,-0.01217
5.564,-0.02444
5.568,-0.01131
5.572,-0.00394
5.576,0.02455
5.58,-0.00841
5.584,-0.00687
5.588,-0.0081
5.592,0.02928
5.596,0.03604
5.6,0.00434
5.604,0.02918
5.608,0.03506
5.612,0.05956
5.616,0.0659
5.62,0.07434
5.624,0.09702
5.628,0.09535
5.632,0.10079
5.636,0.11727
5.64,0.13637
5.644,0.13194
5.648,0.1569
5.652,0.13949
5.656,0.1744
5.66,0.19937
5.664,0.18378
5.668,0.20443
5.672,0.19021
5.676,0.18656
5.68,0.2014
5.684,0.21407
5.688,0.20174
5.692,0.19291
5.696,0.22292
5.7,0.18694
5.704,0.18206
5.708,0.18419
5.712,0.19116
5.716,0.13549
5.72,0.1586
5.724,0.12226
5.728,0.12725
5.732,0.10005
5.736,0.12919
5.74,0.12117
5.744,0.06873
5.748,0.09402
5.752,0.08796
5.756,0.05693
5.76,0.05077
5.764,0.02037
5.768,0.02701
5.772,0.00735
5.776,0.02638
5.78,0.01835
5.784,0.03042
5.788,0.00162
5.792,0.0012
5.796,0.00634
5.8,0.01578
5.804,0.00834
5.808,0.01463
5.812,0.00894
5.816,0.011
5.82,0.00737
5.824,-0.00115
5.828,-0.0068
5.832,-0.00914
5.836,-0.00174
5.84,-0.02937
5.844,-0.03152
5.848,-0.00617
5.852,-0.00797
5.856,-0.00644
5.86,0.00067
5.864,-0.00932
5.868,-0.01822
5.872,0.00343
5.876,-0.02071
5.88,0.00099
5.884,-0.03123
5.888,-0.02151
5.892,-0.01573
5.896,0.02096
5.9,0.00441
5.904,-0.00225
5.908,0.00048
5.912,-0.00855
5.916,0.00849
5.92,-0.01772
5.924,0.00457
5.928,0.00336
5.932,0.01544
5.936,-0.00976
5.94,0.01325
5.944,0.04273
5.948,0.03147
5.952,0.08126
5.956,0.08381
5.96,0.05171
5.964,0.09453
5.968,0.08534
5.972,0.08272
5.976,0.11178
5.98,0.10972
5.984,0.10799
5.988,0.09435
5.992,0.07446
5.996,0.08812
6.0,0.05465
6.004,0.03079
6.008,0.02667
6.012,0.04309
6.016,0.0242
6.02,0.00345
6.024,0.00768
6.028,-0.0091
6.032,0.00841
6.036,0.00166
6.04,-0.00772
6.044,-0.00496
6.048,0.03744
6.052,-0.02703
6.056,0.02018
6.06,-0.00477
6.064,-0.00868
6.068,-0.01403
6.072,0.0113
6.076,-0.00179
6.08,0.00854
6.084,-0.03223
6.088,0.00447
6.092,0.01507
6.096,-0.01733
6.1,-0.08813
6.104,-0.11878
6.108,-0.11644
6.112,-0.06706
6.116,0.01116
6.12,0.199
6.124,0.37688
6.128,0.58623
6.132,0.8161
6.136,0.94247
6.14,0.99156
6.144,0.9504
6.148,0.78984
6.152,0.56276
6.156,0.35732
6.16,0.11835
6.164,-0.02807
6.168,-0.12515
6.172,-0.15437
6.176,-0.14037
6.18,-0.11122
6.184,-0.06589
6.188,-0.01313
6.192,-0.02011
6.196,-0.0043
6.2,0.00798
6.204,0.01626
6.208,0.00687
6.212,0.01302
6.216,0.00613
6.22,-0.01015
6.224,0.01912
6.228,0.00853
6.232,0.0089
6.236,0.01227
6.24,-0.01173
6.244,0.0167
6.248,0.02709
6.252,-0.00408
6.256,0.03299
6.26,-0.01221
6.264,-0.01517
6.268,0.01306
6.272,0.00876
6.276,0.01226
6.28,-0.00385
6.284,-0.00183
6.288,-0.02648
6.292,0.00706
6.296,0.00252
6.3,0.02645
6.304,0.02303
6.308,0.01445
6.312,0.03047
6.316,0.01776
6.32,0.02618
6.324,0.02927
6.328,0.06692
6.332,0.02856
6.336,0.06112
6.34,0.06713
6.344,0.07347
6.348,0.07431
6.352,0.06836
6.356,0.09252
6.36,0.08865
6.364,0.12418
6.368,0.11837
6.372,0.14181
6.376,0.1471
6.38,0.17785
6.384,0.17381
6.388,0.19888
6.392,0.21123
6.396,0.17817
6.4,0.21299
6.404,0.22584
6.408,0.22411
6.412,0.24076
6.416,0.21778
6.42,0.23087
6.424,0.21803
6.428,0.21974
6.432,0.22783
6.436,0.22952
6.44,0.1993
6.444,0.22008
6.448,0.17425
6.452,0.19119
6.456,0.16463
6.46,0.16008
6.464,0.1542
6.468,0.1566
6.472,0.14099
6.476,0.11517
6.48,0.11158
6.484,0.07347
6.488,0.09561
6.492,0.10019
6.496,0.05848
6.5,0.05424
6.504,0.0746
6.508,0.04023
6.512,0.0536
6.516,0.02551
6.52,0.02679
6.524,0.04299
6.528,0.03205
6.532,0.02014
6.536,0.03821
6.54,0.03659
6.544,0.03018
6.548,-0.00977
6.552,-0.00928
6.556,0.03097
6.56,0.02421
6.564,-0.00609
6.568,0.0114
6.572,0.02371
6.576,0.02649
6.58,0.0305
6.584,0.01612
6.588,0.02841
6.592,0.02459
6.596,0.01981
6.6,0.01425
6.604,0.0285
6.608,0.026
6.612,0.0108
6.616,0.0173
6.62,0.0044
6.624,0.02276
6.628,0.03102
6.632,0.02591
6.636,0.02102
6.64,0.02556
6.644,0.03593
6.648,0.0081
6.652,0.03689
6.656,0.04672
6.66,0.0412
6.664,-0.00468
6.668,0.00971
6.672,0.02845
6.676,0.01017
6.68,0.01097
6.684,-0.00193
6.688,0.00922
6.692,0.00442
6.696,0.00456
6.7,0.04261
6.704,0.00229
6.708,0.01928
6.712,0.05149
6.716,0.03275
6.72,0.01212
6.724,0.0477
6.728,0.02938
6.732,0.05995
6.736,0.03148
6.74,0.07406
6.744,0.07723
6.748,0.08664
6.752,0.10668
6.756,0.09349
6.76,0.12527
6.764,0.11149
6.768,0.15213
6.772,0.12388
6.776,0.13296
6.78,0.10842
6.784,0.07421
6.788,0.05133
6.792,0.04614
6.796,0.06154
6.8,0.0346
6.804,0.02765
6.808,0.03491
6.812,0.03677
6.816,0.0441
6.82,0.01534
6.824,-0.01402
6.828,0.02961
6.832,0.03909
6.836,0.02702
6.84,0.00521
6.844,0.03191
6.848,0.0245
6.852,0.04148
6.856,0.02842
6.86,0.02045
6.864,0.02869
6.868,0.02545
6.872,0.00621
6.876,0.05544
6.88,0.01425
6.884,-0.01726
6.888,-0.07908
6.892,-0.1225
6.896,-0.10039
6.9,-0.01244
6.904,0.13582
6.908,0.30741
6.912,0.50662
6.916,0.72914
6.92,0.90989
6.924,0.98322
6.928,1.00495
6.932,0.86599
6.936,0.71645
6.94,0.45993
6.944,0.2276
6.948,0.05918
6.952,-0.0598
6.956,-0.10792
6.96,-0.14284
6.964,-0.08791
6.968,-0.05237
6.972,-0.03334
6.976,0.04462
6.98,0.03031
6.984,0.02925
6.988,0.00795
6.992,0.04025
6.996,0.01221
7.0,0.01165
7.004,0.02596
7.008,0.00211
7.012,0.02934
7.016,0.02929
7.02,0.01749
7.024,0.02745
7.028,0.05806
7.032,0.0244
7.036,0.01752
7.04,0.01092
7.044,0.04604
7.048,0.04248
7.052,0.00517
7.056,0.05859
7.06,0.02607
7.064,0.01773
7.068,0.02787
7.072,0.02609
7.076,-0.00015
7.08,0.04443
7.084,0.01177
7.088,0.01238
7.092,0.06314
7.096,0.03559
7.1,0.02322
7.104,0.01791
7.108,0.05336
7.112,0.07315
7.116,0.04572
7.12,0.07114
7.124,0.09124
7.128,0.07657
7.132,0.0757
7.136,0.08621
7.14,0.06745
7.144,0.11908
7.148,0.13772
7.152,0.13455
7.156,0.11911
7.16,0.15296
7.164,0.17927
7.168,0.19365
7.172,0.2041
7.176,0.18231
7.18,0.23882
7.184,0.21177
7.188,0.24913
7.192,0.23795
7.196,0.21613
7.2,0.23636
7.204,0.23773
7.208,0.23392
7.212,0.24837
7.216,0.26864
7.22,0.2329
7.224,0.23657
7.228,0.24099
7.232,0.21463
7.236,0.23556
7.24,0.20752
7.244,0.16477
7.248,0.18829
7.252,0.14582
7.256,0.13748
7.26,0.17075
7.264,0.11863
7.268,0.09937
7.272,0.10318
7.276,0.08294
7.28,0.10465
7.284,0.10038
7.288,0.08471
7.292,0.07261
7.296,0.05884
7.3,0.05553
7.304,0.01096
7.308,0.04759
7.312,0.03125
7.316,0.04729
7.32,0.04542
7.324,0.00432
7.328,0.07747
7.332,0.03143
7.336,0.04422
7.34,0.00873
7.344,0.0312
7.348,0.01856
7.352,0.01602
7.356,0.04064
7.36,0.04637
7.364,0.02703
7.368,0.0267
7.372,0.04348
7.376,0.02504
7.38,0.00508
7.384,0.0208
7.388,0.04948
7.392,0.0559
7.396,-0.00409
7.4,0.03946
7.404,0.02578
7.408,0.01275
7.412,0.02114
7.416,0.06018
7.42,0.04958
7.424,0.02278
7.428,0.06344
7.432,0.02369
7.436,0.05599
7.44,0.03604
7.444,0.01974
7.448,0.03734
7.452,0.02899
7.456,-0.0013
7.46,0.01666
7.464,0.02929
7.468,0.05559
7.472,0.05319
7.476,0.03911
7.48,0.03957
7.484,0.01181
7.488,0.04377
7.492,0.03609
7.496,0.03436
7.5,0.04088
7.504,0.04213
7.508,0.04743
7.512,0.05562
7.516,0.01393
7.52,0.04079
7.524,0.04558
7.528,0.03437
7.532,0.04695
7.536,0.0954
7.54,0.11528
7.544,0.10105
7.548,0.09143
7.552,0.08954
7.556,0.13937
7.56,0.1305
7.564,0.14792
7.568,0.1181
7.572,0.10858
7.576,0.11561
7.58,0.11084
7.584,0.10786
7.588,0.08843
7.592,0.10214
7.596,0.09401
7.6,0.03543
7.604,0.01603
7.608,0.06656
7.612,0.02805
7.616,0.02859
7.62,0.03748
7.624,0.05262
7.628,0.03812
7.632,0.03196
7.636,0.00782
7.64,0.05364
7.644,0.01109
7.648,0.02353
7.652,0.03785
7.656,0.01784
7.66,0.05487
7.664,0.0053
7.668,0.00616
7.672,0.00783
7.676,0.04223
7.68,-0.00365
7.684,-0.01712
7.688,-0.07789
7.692,-0.0928
7.696,-0.0452
7.7,0.0594
7.704,0.19909
7.708,0.39899
7.712,0.61489
7.716,0.82704
7.72,0.97308
7.724,1.0264
7.728,0.96687
7.732,0.80154
7.736,0.60393
7.74,0.3628
7.744,0.16933
7.748,0.01363
7.752,-0.09887
7.756,-0.14671
7.76,-0.12149
7.764,-0.0893
7.768,-0.01935
7.772,-0.02375
7.776,0.02215
7.78,0.02692
7.784,0.00245
7.788,0.02453
7.792,0.04881
7.796,0.02364
7.8,0.01487
7.804,0.03765
7.808,0.03124
7.812,0.0347
7.816,0.0083
7.82,0.03554
7.824,0.02807
7.828,0.02296
7.832,0.03715
7.836,0.01556
7.84,0.02111
7.844,0.04565
7.848,0.02853
7.852,0.03615
7.856,0.02497
7.86,0.01015
7.864,0.03898
7.868,0.03214
7.872,0.01188
7.876,0.05218
7.88,0.03488
7.884,0.02698
7.888,0.03384
7.892,0.02738
7.896,0.04074
7.9,0.0176
7.904,0.05388
7.908,0.04334
7.912,0.06447
7.916,0.06867
7.92,0.06385
7.924,0.0778
7.928,0.09067
7.932,0.08516
7.936,0.13408
7.94,0.11649
7.944,0.11296
7.948,0.15362
7.952,0.13018
7.956,0.12074
7.96,0.18373
7.964,0.17879
7.968,0.21495
7.972,0.23107
7.976,0.17297
7.98,0.21679
7.984,0.22006
7.988,0.25281
7.992,0.24026
7.996,0.22362
8.0,0.23768
8.004,0.25973
8.008,0.24072
8.012,0.23809
8.016,0.25492
8.02,0.23818
8.024,0.22077
8.028,0.21059
8.032,0.19635
8.036,0.19268
8.04,0.18449
8.044,0.19615
8.048,0.15354
8.052,0.17372
8.056,0.15227
8.06,0.11878
8.064,0.12981
8.068,0.10711
8.072,0.11319
8.076,0.0833
8.08,0.0758
8.084,0.05927
8.088,0.07612
8.092,0.06004
8.096,0.03812
8.1,0.04455
8.104,0.03544
8.108,0.02811
8.112,0.06475
8.116,0.0345
8.12,0.04905
8.124,0.05798
8.128,0.0365
8.132,0.02041
8.136,0.06065
8.14,0.02889
8.144,0.03031
8.148,0.03745
8.152,0.0282
8.156,0.01962
8.16,0.02493
8.164,0.01432
8.168,0.02964
8.172,0.03488
8.176,0.04658
8.18,0.02179
8.184,0.0435
8.188,0.04243
8.192,0.02116
8.196,0.00452
8.2,0.01719
8.204,0.02263
8.208,-0.00581
8.212,0.01472
8.216,0.05601
8.22,0.03588
8.224,0.05701
8.228,0.05363
8.232,0.05589
8.236,0.04641
8.24,0.07934
8.244,0.08241
8.248,0.14324
8.252,0.11632
8.256,0.11392
8.26,0.13041
8.264,0.14526
8.268,0.13708
8.272,0.10206
8.276,0.10114
8.28,0.09439
8.284,0.07919
8.288,0.07575
8.292,0.06054
8.296,0.05535
8.3,0.03972
8.304,0.03445
8.308,0.05548
8.312,0.02495
8.316,0.03259
8.32,0.02126
8.324,-0.00388
8.328,0.02072
8.332,0.00644
8.336,0.043
8.34,0.03141
8.344,0.02852
8.348,0.0263
8.352,0.03782
8.356,0.03469
8.36,0.03246
8.364,0.01115
8.368,0.01745
8.372,0.00038
8.376,-0.0123
8.38,-0.02458
8.384,-0.06594
8.388,-0.07887
8.392,-0.08337
8.396,0.00365
8.4,0.10907
8.404,0.3361
8.408,0.51507
8.412,0.73637
8.416,0.90832
8.42,1.02059
8.424,1.00222
8.428,0.8569
8.432,0.66279
8.436,0.44207
8.44,0.24008
8.444,0.05593
8.448,-0.06699
8.452,-0.13165
8.456,-0.16829
8.46,-0.13271
8.464,-0.07788
8.468,-0.04279
8.472,0.01617
8.476,0.03406
8.48,0.00413
8.484,0.00673
8.488,0.00066
8.492,0.04178
8.496,0.02683
8.5,0.03145
8.504,0.01742
8.508,0.02927
8.512,0.01862
8.516,0.02255
8.52,0.00969
8.524,0.03239
8.528,0.01065
8.532,0.04592
8.536,0.00434
8.54,0.01804
8.544,0.03665
8.548,0.04836
8.552,0.03053
8.556,0.03985
8.56,0.00421
8.564,0.04123
8.568,0.02744
8.572,0.01664
8.576,0.04025
8.58,0.0238
8.584,0.03458
8.588,0.00974
8.592,0.06103
8.596,0.02158
8.6,0.02914
8.604,0.02671
8.608,0.03963
8.612,0.05655
8.616,0.02945
8.62,0.04888
8.624,0.07736
8.628,0.0721
8.632,0.09117
8.636,0.09493
8.64,0.0929
8.644,0.1246
8.648,0.13144
8.652,0.12352
8.656,0.11851
8.66,0.15047
8.664,0.164
8.668,0.17533
8.672,0.19571
8.676,0.20462
8.68,0.18456
8.684,0.22184
8.688,0.22685
8.692,0.24067
8.696,0.23801
8.7,0.23845
8.704,0.22981
8.708,0.27748
8.712,0.24712
8.716,0.2286
8.72,0.19368
8.724,0.22032
8.728,0.20878
8.732,0.18002
8.736,0.18013
8.74,0.21305
8.744,0.13385
8.748,0.15041
8.752,0.14507
8.756,0.14158
8.76,0.1464
8.764,0.12412
8.768,0.13637
8.772,0.10786
8.776,0.14851
8.78,0.10744
8.784,0.14637
8.788,0.12971
8.792,0.14452
8.796,0.10911
8.8,0.13316
8.804,0.12978
8.808,0.12626
8.812,0.1192
8.816,0.08547
8.82,0.07029
8.824,0.0883
8.828,0.06268
8.832,0.04902
8.836,0.06054
8.84,0.03176
8.844,-0.0227
8.848,0.01596
8.852,-0.01276
8.856,-0.01654
8.86,0.00993
8.864,0.01301
8.868,-0.00354
8.872,0.03067
8.876,0.02332
8.88,0.01685
8.884,0.01817
8.888,0.04525
8.892,0.01312
8.896,0.00122
8.9,0.04608
8.904,0.01309
8.908,-0.00734
8.912,0.00889
8.916,0.00781
8.92,-0.06078
8.924,-0.08563
8.928,-0.10216
8.932,-0.08377
8.936,-0.00988
8.94,0.14809
8.944,0.34798
8.948,0.56436
8.952,0.77191
8.956,0.90344
8.96,0.9937
8.964,0.98065
8.968,0.82639
8.972,0.62789
8.976,0.38935
8.98,0.19585
8.984,0.00229
8.988,-0.09262
8.992,-0.14377
8.996,-0.14867
9.0,-0.11809
9.004,-0.08523
9.008,-0.01978
9.012,-0.00439
9.016,-0.00536
9.02,0.00818
9.024,0.00012
9.028,-0.03077
9.032,0.00568
9.036,0.00207
9.04,-0.01691
9.044,0.01299
9.048,0.00641
9.052,-0.00767
9.056,0.01621
9.06,0.01168
9.064,0.00415
9.068,0.00493
9.072,-0.00143
9.076,0.00386
9.08,0.02256
9.084,0.00919
9.088,0.01405
9.092,0.00689
9.096,0.02686
9.1,0.03929
9.104,0.00347
9.108,0.02664
9.112,0.02886
9.116,-0.00268
9.12,0.00152
9.124,0.02783
9.128,0.00774
9.132,0.02567
9.136,0.02586
9.14,0.02195
9.144,0.01608
9.148,0.025
9.152,0.02937
9.156,0.04967
9.16,0.03816
9.164,0.0636
9.168,0.08583
9.172,0.07139
9.176,0.09104
9.18,0.0905
9.184,0.09676
9.188,0.10276
9.192,0.13164
9.196,0.14374
9.2,0.13495
9.204,0.15916
9.208,0.16275
9.212,0.1724
9.216,0.17234
9.22,0.20686
9.224,0.22921
9.228,0.2078
9.232,0.20854
9.236,0.23097
9.24,0.22527
9.244,0.21682
9.248,0.21335
9.252,0.19615
9.256,0.20426
9.26,0.19001
9.264,0.21829
9.268,0.18897
9.272,0.14987
9.276,0.16358
9.28,0.17887
9.284,0.12673
9.288,0.13005
9.292,0.13342
9.296,0.10008
9.3,0.09327
9.304,0.07871
9.308,0.08169
9.312,0.06932
9.316,0.06667
9.32,0.04953
9.324,0.04621
9.328,0.02361
9.332,0.01762
9.336,0.0523
9.34,0.0212
9.344,0.01015
9.348,0.02751
9.352,0.00942
9.356,-0.01976
9.36,0.00056
9.364,0.00089
9.368,0.01108
9.372,-0.00267
9.376,-0.00254
9.38,0.0363
9.384,0.02136
9.388,0.00122
9.392,-0.0002
9.396,0.00445
9.4,0.00084
9.404,-0.03044
9.408,0.00806
9.412,0.00264
9.416,-0.01526
9.42,-0.0311
9.424,0.01051
9.428,0.00648
9.432,-0.01289
9.436,-0.01765
9.44,-0.01104
9.444,0.01227
9.448,-0.0068
9.452,-0.00535
9.456,0.01708
9.46,0.01387
9.464,0.0089
9.468,-0.0166
9.472,-0.01252
9.476,0.00835
9.48,-0.00096
9.484,0.00098
9.488,-0.00781
9.492,-0.00959
9.496,-0.01461
9.5,-0.00071
9.504,-0.01052
9.508,0.05555
9.512,0.00908
9.516,0.04981
9.52,0.01958
9.524,0.06294
9.528,0.05722
9.532,0.06466
9.536,0.08372
9.54,0.10036
9.544,0.1199
9.548,0.07153
9.552,0.11239
9.556,0.06074
9.56,0.05129
9.564,0.05965
9.568,0.07573
9.572,0.05357
9.576,0.01727
9.58,-0.006
9.584,-0.00317
9.588,0.04204
9.592,-0.00408
9.596,-0.02162
9.6,-0.01305
9.604,0.0004
9.608,-0.02427
9.612,-0.04352
9.616,-0.01847
9.62,-0.00522
9.624,-0.0149
9.628,0.00919
9.632,0.00309
9.636,-0.01893
9.64,-0.02883
9.644,-0.00389
9.648,-0.01252
9.652,-0.01868
9.656,-0.0271
9.66,0.00516
9.664,-0.06243
9.668,-0.09178
9.672,-0.10345
9.676,-0.10734
9.68,-0.07768
9.684,0.06421
9.688,0.24435
9.692,0.44252
9.696,0.68338
9.7,0.82981
9.704,0.97552
9.708,0.98316
9.712,0.89871
9.716,0.70774
9.72,0.45769
9.724,0.25594
9.728,0.04278
9.732,-0.11659
9.736,-0.17112
9.74,-0.16806
9.744,-0.13671
9.748,-0.13504
9.752,-0.06497
9.756,-0.04988
9.76,-0.01806
9.764,-0.01233
9.768,-0.02753
9.772,-0.02059
9.776,-0.04219
9.78,0.0075
9.784,-0.01104
9.788,-0.00414
9.792,-0.02939
9.796,-0.03504
9.8,-0.02913
9.804,-0.02759
9.808,0.00112
9.812,-0.02362
9.816,-0.00029
9.82,-0.02665
9.824,-0.01388
9.828,-0.01817
9.832,-0.00817
9.836,-0.01731
9.84,-0.01522
9.844,-0.03024
9.848,-0.00151
9.852,-0.00126
9.856,0.00709
9.86,-0.01081
9.864,-0.02942
9.868,-0.0123
9.872,0.00847
9.876,0.00548
9.88,-0.00476
9.884,0.01797
9.888,0.02711
9.892,0.0256
9.896,0.02848
9.9,0.02048
9.904,0.02677
9.908,0.03488
9.912,0.05961
9.916,0.0492
9.92,0.06678
9.924,0.05857
9.928,0.08247
9.932,0.06809
9.936,0.11359
9.94,0.11468
9.944,0.14735
9.948,0.12406
9.952,0.14711
9.956,0.16993
9.96,0.16899
9.964,0.19112
9.968,0.18252
9.972,0.18024
9.976,0.19688
9.98,0.21285
9.984,0.20914
9.988,0.24155
9.992,0.20399
9.996,0.20666
