t_seg,ecg_mV
0.0,0.00565
0.004,-0.01023
0.008,0.01844
0.012,0.02413
0.016,-0.00413
0.02,0.03145
0.024,-0.00217
0.028,0.01274
0.032,0.03116
0.036,0.01213
0.04,-0.01225
0.044,0.01367
0.048,0.01437
0.052,0.02585
0.056,-0.01993
0.06,0.02373
0.064,0.03119
0.068,0.02653
0.072,0.01095
0.076,0.01533
0.08,0.01945
0.084,0.02505
0.088,0.02656
0.092,-0.01477
0.096,0.0115
0.1,0.00031
0.104,-0.0251
0.108,0.02282
0.112,0.02189
0.116,0.0078
0.12,0.02695
0.124,-0.01785
0.128,0.02039
0.132,0.0108
0.136,0.00411
0.14,0.00296
0.144,0.01158
0.148,0.00189
0.152,-0.00683
0.156,0.01714
0.16,0.00555
0.164,-0.00466
0.168,0.01105
0.172,-0.00877
0.176,0.01033
0.18,-0.00325
0.184,0.02851
0.188,0.01569
0.192,-0.01275
0.196,-0.00354
0.2,0.01588
0.204,0.02399
0.208,0.01637
0.212,0.01943
0.216,0.02762
0.22,0.02013
0.224,0.003
0.228,0.02575
0.232,0.01267
0.236,-0.00715
0.24,-0.00749
0.244,-0.0103
0.248,0.00059
0.252,0.02655
0.256,0.02704
0.26,0.01331
0.264,-0.00729
0.268,0.0127
0.272,0.01277
0.276,-0.01547
0.28,0.01107
0.284,-0.00513
0.288,-0.00541
0.292,0.01015
0.296,0.0391
0.3,-0.00069
0.304,0.00415
0.308,0.01527
0.312,0.00316
0.316,-0.00945
0.32,0.00718
0.324,0.00659
0.328,0.00527
0.332,0.0172
0.336,0.0258
0.34,0.01089
0.344,-0.00281
0.348,0.02634
0.352,-0.00864
0.356,-0.00376
0.36,0.00949
0.364,0.00142
0.368,-0.01727
0.372,0.00391
0.376,0.00783
0.38,0.02446
0.384,-0.01777
0.388,0.01334
0.392,-0.03388
0.396,0.02835
0.4,0.02125
0.404,0.01134
0.408,0.00388
0.412,-0.02508
0.416,-0.0015
0.42,-0.01278
0.424,0.01905
0.428,-0.00865
0.432,0.02954
0.436,-0.01187
0.44,0.0007
0.444,0.02357
0.448,-0.00402
0.452,0.02316
0.456,0.01111
0.46,0.01093
0.464,-0.00141
0.468,-0.00923
0.472,0.00395
0.476,-0.00256
0.48,0.00919
0.484,0.01877
0.488,0.00159
0.492,0.00962
0.496,-0.00152
0.5,-0.01466
0.504,-0.00066
0.508,-0.01645
0.512,0.00622
0.516,0.00493
0.52,0.01115
0.524,0.00221
0.528,-0.02408
0.532,0.01602
0.536,0.0055
0.54,-0.01168
0.544,-0.00689
0.548,-0.00733
0.552,-0.01218
0.556,0.04901
0.56,0.04648
0.564,0.04725
0.568,0.06925
0.572,0.07671
0.576,0.09325
0.58,0.09518
0.584,0.07348
0.588,0.1141
0.592,0.08963
0.596,0.09447
0.6,0.09233
0.604,0.08899
0.608,0.0545
0.612,0.02551
0.616,0.03282
0.62,0.00104
0.624,0.01283
0.628,0.00173
0.632,0.00819
0.636,0.00318
0.64,-0.01385
0.644,0.01231
0.648,-0.00122
0.652,0.03603
0.656,0.00935
0.66,0.03722
0.664,-0.01296
0.668,-0.00281
0.672,0.00723
0.676,0.00325
0.68,0.00666
0.684,0.01194
0.688,-0.01865
0.692,0.00691
0.696,-0.01146
0.7,0.00954
0.704,-0.05525
0.708,-0.07323
0.712,-0.13679
0.716,-0.11298
0.72,-0.06768
0.724,0.02722
0.728,0.19133
0.732,0.40443
0.736,0.63418
0.74,0.82513
0.744,0.96417
0.748,0.98745
0.752,0.91573
0.756,0.74252
0.76,0.53128
0.764,0.30898
0.768,0.08707
0.772,-0.05545
0.776,-0.14857
0.78,-0.20074
0.784,-0.15795
0.788,-0.14809
0.792,-0.09548
0.796,-0.05204
0.8,-0.01781
0.804,-0.00486
0.808,-0.01288
0.812,-0.00184
0.816,0.0041
0.82,-0.01691
0.824,-0.01343
0.828,-0.02447
0.832,0.02965
0.836,0.00333
0.84,-0.0019
0.844,-0.01703
0.848,0.00504
0.852,-0.01611
0.856,-0.00794
0.86,0.00642
0.864,-0.03262
0.868,0.00803
0.872,-0.01978
0.876,-0.01289
0.88,0.01309
0.884,-0.01186
0.888,-0.00638
0.892,0.00054
0.896,-0.01059
0.9,0.00963
0.904,0.01204
0.908,0.00086
0.912,0.02703
0.916,0.01436
0.92,-0.00122
0.924,0.01925
0.928,0.02277
0.932,-0.00651
0.936,0.018
0.94,0.02419
0.944,0.00601
0.948,0.02654
0.952,0.03198
0.956,0.03427
0.96,0.0588
0.964,0.04774
0.968,0.06951
0.972,0.12017
0.976,0.1266
0.98,0.1024
0.984,0.11853
0.988,0.18906
0.992,0.16396
0.996,0.17071
1.0,0.16583
1.004,0.15981
1.008,0.20851
1.012,0.20986
1.016,0.20427
1.02,0.23153
1.024,0.19471
1.028,0.19446
1.032,0.18533
1.036,0.17244
1.04,0.19364
1.044,0.20221
1.048,0.179
1.052,0.18935
1.056,0.19285
1.06,0.14351
1.064,0.15993
1.068,0.09347
1.072,0.13349
1.076,0.09129
1.08,0.10118
1.084,0.07754
1.088,0.08087
1.092,0.06602
1.096,0.02801
1.1,0.06942
1.104,0.02633
1.108,0.03962
1.112,0.04237
1.116,0.0048
1.12,0.00761
1.124,0.01518
1.128,0.00647
1.132,-0.01273
1.136,-0.00737
1.14,-0.01889
1.144,-0.00739
1.148,-0.02827
1.152,0.00793
1.156,-0.00464
1.16,-0.00018
1.164,-0.00687
1.168,-0.03238
1.172,-0.00448
1.176,-0.01759
1.18,-0.00291
1.184,-0.03359
1.188,-0.01689
1.192,-0.00374
1.196,-0.02634
1.2,-0.01402
1.204,0.00059
1.208,-0.0393
1.212,-0.02952
1.216,-0.0052
1.22,-0.01553
1.224,-0.00895
1.228,-0.02812
1.232,-0.01745
1.236,-0.02183
1.24,-0.01196
1.244,-0.05999
1.248,-0.02813
1.252,-0.0074
1.256,-0.0262
1.26,-0.0162
1.264,-0.01651
1.268,-0.03209
1.272,-0.0143
1.276,-0.02214
1.28,-0.02158
1.284,-0.03168
1.288,-0.01975
1.292,-0.01736
1.296,-0.04457
1.3,-0.01606
1.304,0.00736
1.308,0.01502
1.312,-0.00011
1.316,-0.00792
1.32,0.0224
1.324,0.02039
1.328,0.05583
1.332,0.04911
1.336,0.02795
1.34,0.05901
1.344,0.04996
1.348,0.07875
1.352,0.08309
1.356,0.08705
1.36,0.05118
1.364,0.09293
1.368,0.04367
1.372,0.04731
1.376,0.03308
1.38,0.00871
1.384,0.00386
1.388,0.03141
1.392,0.00452
1.396,-0.01853
1.4,-0.00842
1.404,-0.0136
1.408,-0.00164
1.412,0.01042
1.416,-0.01876
1.42,-0.02132
1.424,-0.01656
1.428,-0.00605
1.432,-0.01085
1.436,-0.04983
1.44,-0.03349
1.444,-0.0305
1.448,-0.03026
1.452,0.01565
1.456,-0.01982
1.46,-0.0159
1.464,-0.02975
1.468,-0.07058
1.472,-0.0885
1.476,-0.10154
1.48,-0.13276
1.484,-0.10086
1.488,-0.0352
1.492,0.11672
1.496,0.34612
1.5,0.56753
1.504,0.74959
1.508,0.886
1.512,0.97786
1.516,0.9322
1.52,0.77855
1.524,0.55944
1.528,0.33777
1.532,0.1388
1.536,-0.04307
1.54,-0.14596
1.544,-0.20014
1.548,-0.19045
1.552,-0.14187
1.556,-0.07916
1.56,-0.0562
1.564,-0.02919
1.568,-0.02568
1.572,-0.05316
1.576,-0.02983
1.58,-0.01705
1.584,-0.00367
1.588,-0.02411
1.592,-0.03991
1.596,-0.04878
1.6,-0.02867
1.604,-0.04933
1.608,-0.03546
1.612,-0.03107
1.616,-0.01377
1.62,-0.06086
1.624,-0.02438
1.628,-0.02877
1.632,-0.01801
1.636,-0.03644
1.64,-0.01904
1.644,-0.05909
1.648,-0.03651
1.652,0.00021
1.656,-0.01427
1.66,-0.02622
1.664,-0.00951
1.668,-0.02731
1.672,-0.01127
1.676,-0.01164
1.68,-0.00669
1.684,-0.00324
1.688,-0.01652
1.692,-0.02997
1.696,0.01103
1.7,-0.00144
1.704,-0.00728
1.708,0.01924
1.712,0.03841
1.716,0.04848
1.72,0.03545
1.724,0.03595
1.728,0.02878
1.732,0.05569
1.736,0.03566
1.74,0.0691
1.744,0.1012
1.748,0.08887
1.752,0.13226
1.756,0.13291
1.76,0.12627
1.764,0.14501
1.768,0.17222
1.772,0.16774
1.776,0.19461
1.78,0.17118
1.784,0.19347
1.788,0.15648
1.792,0.19735
1.796,0.20809
1.8,0.18486
1.804,0.17839
1.808,0.17743
1.812,0.20671
1.816,0.19974
1.82,0.17353
1.824,0.1386
1.828,0.12333
1.832,0.10533
1.836,0.1069
1.84,0.06929
1.844,0.09964
1.848,0.05965
1.852,0.05465
1.856,0.02807
1.86,0.02322
1.864,0.01913
1.868,0.04189
1.872,0.02924
1.876,0.04706
1.88,0.0181
1.884,-0.01028
1.888,-0.00314
1.892,-0.00018
1.896,-0.02235
1.9,-0.00705
1.904,-0.03469
1.908,-0.01417
1.912,-0.02479
1.916,-0.02076
1.92,-0.01963
1.924,-0.01009
1.928,-0.03252
1.932,-0.02543
1.936,-0.01443
1.94,0.00162
1.944,-0.0199
1.948,-0.01723
1.952,-0.04661
1.956,-0.03831
1.96,-0.03246
1.964,-0.0202
1.968,-0.02063
1.972,-0.04392
1.976,-0.00681
1.98,-0.01621
1.984,-0.01682
1.988,-0.0414
1.992,-0.04044
1.996,-0.03398
2.0,-0.03614
2.004,-0.0553
2.008,0.00491
2.012,-0.02696
2.016,-0.01731
2.02,-0.02845
2.024,-0.02548
2.028,-0.03658
2.032,-0.02939
2.036,-0.03034
2.04,-0.03707
2.044,-0.04901
2.048,-0.0257
2.052,-0.03166
2.056,-0.01244
2.06,-0.02323
2.064,-0.04326
2.068,-0.02665
2.072,-0.06635
2.076,-0.04568
2.08,-0.03816
2.084,-0.04622
2.088,-0.01031
2.092,-0.02285
2.096,-0.00371
2.1,-0.03039
2.104,-0.00947
2.108,0.00833
2.112,0.02492
2.116,-0.02166
2.12,-0.00345
2.124,0.033
2.128,0.05088
2.132,0.05275
2.136,0.0393
2.14,0.0806
2.144,0.08267
2.148,0.06158
2.152,0.07658
2.156,0.05455
2.16,0.04749
2.164,0.00743
2.168,0.01442
2.172,0.00713
2.176,0.00428
2.18,0.00025
2.184,-0.00816
2.188,-0.03958
2.192,-0.02084
2.196,-0.02425
2.2,-0.03118
2.204,-0.00535
2.208,-0.0544
2.212,-0.02954
2.216,-0.01313
2.22,-0.0451
2.224,-0.0487
2.228,-0.03443
2.232,0.00464
2.236,-0.00835
2.24,-0.02315
2.244,-0.04462
2.248,-0.02631
2.252,-0.01133
2.256,-0.04104
2.26,-0.0813
2.264,-0.08929
2.268,-0.13233
2.272,-0.1524
2.276,-0.11073
2.28,0.01006
2.284,0.16834
2.288,0.3524
2.292,0.58589
2.296,0.7791
2.3,0.91336
2.304,0.98572
2.308,0.90185
2.312,0.77031
2.316,0.49252
2.32,0.28892
2.324,0.09136
2.328,-0.06525
2.332,-0.17181
2.336,-0.1951
2.34,-0.17727
2.344,-0.12295
2.348,-0.10248
2.352,-0.07314
2.356,-0.03348
2.36,-0.02825
2.364,-0.03146
2.368,-0.04305
2.372,0.00372
2.376,-0.02315
2.38,-0.03548
2.384,-0.00394
2.388,-0.05289
2.392,-0.05214
2.396,-0.01607
2.4,-0.04041
2.404,-0.03582
2.408,-0.05882
2.412,-0.03526
2.416,-0.02083
2.42,-0.01438
2.424,-0.01649
2.428,-0.01729
2.432,-0.03467
2.436,-0.04303
2.44,-0.04578
2.444,-0.04167
2.448,-0.04723
2.452,-0.00614
2.456,-0.05059
2.46,-0.04303
2.464,-0.02135
2.468,-0.02371
2.472,-0.02383
2.476,-0.04857
2.48,-0.01834
2.484,-0.04174
2.488,-0.00065
2.492,0.01356
2.496,0.01025
2.5,0.00933
2.504,0.0329
2.508,0.01843
2.512,0.03474
2.516,0.02409
2.52,0.03459
2.524,0.09419
2.528,0.0736
2.532,0.09542
2.536,0.10541
2.54,0.10575
2.544,0.12505
2.548,0.1472
2.552,0.13541
2.556,0.14303
2.56,0.17195
2.564,0.16037
2.568,0.15733
2.572,0.19085
2.576,0.16353
2.58,0.20659
2.584,0.19028
2.588,0.19286
2.592,0.19178
2.596,0.18397
2.6,0.20968
2.604,0.16899
2.608,0.14848
2.612,0.13521
2.616,0.15025
2.62,0.13996
2.624,0.11908
2.628,0.10256
2.632,0.09324
2.636,0.07374
2.64,0.06586
2.644,0.06128
2.648,0.02639
2.652,0.05131
2.656,0.01446
2.66,0.01554
2.664,0.01772
2.668,0.01189
2.672,0.006
2.676,-0.00409
2.68,-0.02202
2.684,-0.02171
2.688,-0.00751
2.692,-0.02585
2.696,-0.01469
2.7,-0.00089
2.704,-0.04424
2.708,-0.05324
2.712,-0.03498
2.716,-0.02697
2.72,-0.0233
2.724,-0.03776
2.728,-0.03932
2.732,-0.02931
2.736,-0.00415
2.74,-0.01906
2.744,-0.0575
2.748,-0.04286
2.752,-0.03612
2.756,-0.02339
2.76,-0.03673
2.764,-0.02555
2.768,-0.02293
2.772,-0.04274
2.776,-0.04462
2.78,-0.03814
2.784,0.00364
2.788,-0.0253
2.792,-0.00813
2.796,-0.00553
2.8,-0.03386
2.804,0.01855
2.808,0.00186
2.812,0.02533
2.816,0.01319
2.82,0.06026
2.824,0.08474
2.828,0.07093
2.832,0.09136
2.836,0.06313
2.84,0.07222
2.844,0.06419
2.848,0.05123
2.852,0.0534
2.856,0.04393
2.86,0.01035
2.864,0.01588
2.868,0.01261
2.872,-0.01104
2.876,0.00906
2.88,-0.0159
2.884,-0.01599
2.888,-0.03149
2.892,-0.01818
2.896,-0.02932
2.9,-0.00947
2.904,-0.02912
2.908,-0.01781
2.912,-0.02075
2.916,-0.01378
2.92,-0.02993
2.924,-0.02599
2.928,-0.02785
2.932,-0.04401
2.936,-0.01589
2.94,-0.02427
2.944,-0.03032
2.948,-0.0131
2.952,-0.0433
2.956,-0.04875
2.96,-0.09448
2.964,-0.15129
2.968,-0.14484
2.972,-0.05824
2.976,0.06431
2.98,0.25841
2.984,0.46036
2.988,0.67515
2.992,0.85702
2.996,0.97511
3.0,0.94986
3.004,0.83745
3.008,0.6408
3.012,0.44118
3.016,0.19724
3.02,0.03798
3.024,-0.12716
3.028,-0.18378
3.032,-0.19172
3.036,-0.16469
3.04,-0.08919
3.044,-0.09263
3.048,-0.04105
3.052,-0.01949
3.056,-0.0256
3.06,-0.00426
3.064,-0.02729
3.068,-0.02132
3.072,0.00698
3.076,-0.01813
3.08,-0.03129
3.084,-0.01732
3.088,-0.04859
3.092,-0.01881
3.096,0.01451
3.1,-0.02081
3.104,-0.00196
3.108,-0.02752
3.112,-0.04133
3.116,-0.02738
3.12,-0.02073
3.124,-0.03497
3.128,-0.02973
3.132,-0.02401
3.136,-0.00883
3.14,-0.01764
3.144,-0.02602
3.148,-0.00729
3.152,0.00539
3.156,-0.00371
3.16,-0.03024
3.164,-0.01746
3.168,-0.00551
3.172,0.02122
3.176,-0.00839
3.18,0.01778
3.184,0.01938
3.188,-0.0001
3.192,-0.01501
3.196,0.04007
3.2,0.04521
3.204,0.03253
3.208,0.03513
3.212,0.05595
3.216,0.07494
3.22,0.09098
3.224,0.0934
3.228,0.1004
3.232,0.158
3.236,0.11677
3.24,0.15086
3.244,0.14377
3.248,0.14565
3.252,0.19375
3.256,0.1817
3.26,0.1819
3.264,0.18636
3.268,0.19132
3.272,0.22312
3.276,0.18987
3.28,0.20271
3.284,0.20393
3.288,0.19145
3.292,0.20359
3.296,0.23261
3.3,0.19169
3.304,0.17264
3.308,0.1588
3.312,0.12579
3.316,0.14434
3.32,0.12705
3.324,0.11885
3.328,0.09001
3.332,0.10291
3.336,0.06377
3.34,0.04221
3.344,0.05448
3.348,0.02991
3.352,0.02838
3.356,0.03871
3.36,0.01739
3.364,0.02911
3.368,0.01838
3.372,0.01903
3.376,0.02712
3.38,-0.00044
3.384,0.00077
3.388,-0.01154
3.392,-0.01063
3.396,0.01393
3.4,-0.00499
3.404,-0.01315
3.408,-0.02127
3.412,0.00157
3.416,0.00461
3.42,0.01429
3.424,-0.01772
3.428,-0.01757
3.432,-0.02633
3.436,-0.02261
3.44,0.02017
3.444,0.00965
3.448,-0.00381
3.452,-0.02858
3.456,0.00449
3.46,0.00182
3.464,-0.03294
3.468,-0.008
3.472,-0.02105
3.476,-0.03362
3.48,-0.00335
3.484,-0.02011
3.488,-0.00439
3.492,-0.00596
3.496,-0.04038
3.5,-0.01493
3.504,-0.00443
3.508,-0.00533
3.512,-0.00108
3.516,-0.00835
3.52,-0.04438
3.524,-0.00503
3.528,-0.01081
3.532,-0.00895
3.536,-0.02426
3.54,-0.00326
3.544,0.00052
3.548,0.00325
3.552,-0.02469
3.556,0.0222
3.56,0.00292
3.564,0.01638
3.568,-0.01042
3.572,-0.03537
3.576,-0.04056
3.58,-0.02535
3.584,-0.03101
3.588,-0.03719
3.592,0.01352
3.596,-0.00545
3.6,-0.02248
3.604,-0.00721
3.608,-0.01914
3.612,0.01583
3.616,-0.02003
3.62,-0.04295
3.624,-0.00798
3.628,0.01687
3.632,0.0066
3.636,-0.02112
3.64,0.0089
3.644,-0.00572
3.648,-0.01155
3.652,-0.00333
3.656,-0.03804
3.66,0.00277
3.664,-0.01511
3.668,-0.00933
3.672,-0.01189
3.676,0.00221
3.68,-0.00141
3.684,-0.01977
3.688,-0.00224
3.692,-0.01014
3.696,0.00167
3.7,0.00058
3.704,0.0192
3.708,-0.0011
3.712,0.0201
3.716,0.03647
3.72,0.02009
3.724,0.02417
3.728,0.02781
3.732,-0.00107
3.736,0.03128
3.74,0.01236
3.744,0.0752
3.748,0.06916
3.752,0.08812
3.756,0.0749
3.76,0.14647
3.764,0.0992
3.768,0.08157
3.772,0.09083
3.776,0.07889
3.78,0.09077
3.784,0.08076
3.788,0.03751
3.792,0.04035
3.796,0.02435
3.8,0.01665
3.804,0.00104
3.808,0.01421
3.812,0.00119
3.816,0.01176
3.82,0.00637
3.824,0.00373
3.828,0.0044
3.832,0.00378
3.836,-0.02247
3.84,0.00185
3.844,0.00313
3.848,0.00721
3.852,-0.01448
3.856,-0.01518
3.86,-0.03059
3.864,0.02567
3.868,-0.0051
3.872,-0.00112
3.876,-0.00239
3.88,-0.01051
3.884,-0.07292
3.888,-0.09355
3.892,-0.1275
3.896,-0.10492
3.9,0.00196
3.904,0.14191
3.908,0.32927
3.912,0.54188
3.916,0.77395
3.92,0.93364
3.924,1.0404
3.928,0.9702
3.932,0.79428
3.936,0.59647
3.94,0.35707
3.944,0.19281
3.948,-0.01312
3.952,-0.1281
3.956,-0.16622
3.96,-0.1778
3.964,-0.12289
3.968,-0.10258
3.972,-0.01032
3.976,0.00022
3.98,-0.01344
3.984,-0.00189
3.988,0.01698
3.992,0.01403
3.996,-0.00098
4.0,0.00627
4.004,0.04185
4.008,0.00431
4.012,-0.02762
4.016,-0.0304
4.02,0.01628
4.024,0.01782
4.028,0.00028
4.032,-0.00569
4.036,-0.0022
4.04,0.01018
4.044,0.01653
4.048,0.01353
4.052,0.02846
4.056,0.03479
4.06,0.0202
4.064,0.00039
4.068,0.01398
4.072,0.00461
4.076,0.00907
4.08,0.03038
4.084,0.02272
4.088,0.00141
4.092,0.0036
4.096,0.02897
4.1,0.01883
4.104,0.01166
4.108,0.02662
4.112,0.00685
4.116,0.05205
4.12,0.0289
4.124,0.00418
4.128,0.07257
4.132,0.07609
4.136,0.06537
4.14,0.07842
4.144,0.0997
4.148,0.11792
4.152,0.12291
4.156,0.13539
4.16,0.14067
4.164,0.15182
4.168,0.16048
4.172,0.16637
4.176,0.17503
4.18,0.18254
4.184,0.23752
4.188,0.19933
4.192,0.23633
4.196,0.22008
4.2,0.26364
4.204,0.22414
4.208,0.2382
4.212,0.23303
4.216,0.20617
4.22,0.24014
4.224,0.21601
4.228,0.19777
4.232,0.21222
4.236,0.19066
4.24,0.1414
4.244,0.18322
4.248,0.15931
4.252,0.13401
4.256,0.15915
4.26,0.12064
4.264,0.12694
4.268,0.09361
4.272,0.10504
4.276,0.06522
4.28,0.06213
4.284,0.04807
4.288,0.06053
4.292,0.02059
4.296,0.04259
4.3,0.04247
4.304,0.05189
4.308,0.00104
4.312,0.02438
4.316,0.02349
4.32,0.01118
4.324,0.01321
4.328,0.02884
4.332,-0.0054
4.336,0.02557
4.34,0.0169
4.344,0.01474
4.348,0.01782
4.352,0.00556
4.356,0.00316
4.36,0.03006
4.364,0.01421
4.368,0.02963
4.372,-0.00393
4.376,0.019
4.38,0.01235
4.384,0.0338
4.388,0.0204
4.392,0.01079
4.396,0.02407
4.4,0.00161
4.404,0.01902
4.408,0.04119
4.412,0.01423
4.416,0.02086
4.42,0.02341
4.424,0.00913
4.428,0.01666
4.432,-0.00173
4.436,-0.00188
4.44,0.03137
4.444,-0.00598
4.448,0.03101
4.452,0.03684
4.456,0.01684
4.46,-0.00238
4.464,0.04046
4.468,0.01887
4.472,0.01428
4.476,0.01505
4.48,0.01799
4.484,0.03348
4.488,0.00732
4.492,0.00675
4.496,-0.00579
4.5,0.01938
4.504,0.00838
4.508,-0.00348
4.512,0.02089
4.516,0.00534
4.52,0.0183
4.524,0.00661
4.528,0.02063
4.532,0.00983
4.536,0.01013
4.54,0.02012
4.544,0.02892
4.548,0.00828
4.552,0.03078
4.556,0.013
4.56,0.01708
4.564,0.02012
4.568,0.01952
4.572,0.03106
4.576,0.00486
4.58,0.02913
4.584,0.02333
4.588,0.00763
4.592,0.03679
4.596,0.03409
4.6,0.05589
4.604,0.03532
4.608,0.06028
4.612,0.06275
4.616,0.05726
4.62,0.12496
4.624,0.11497
4.628,0.11006
4.632,0.13396
4.636,0.10641
4.64,0.10689
4.644,0.12022
4.648,0.11628
4.652,0.11288
4.656,0.08954
4.66,0.07075
4.664,0.05417
4.668,0.03495
4.672,0.03785
4.676,0.03755
4.68,0.04505
4.684,0.02292
4.688,0.02718
4.692,0.01139
4.696,-0.00148
4.7,0.03963
4.704,0.01743
4.708,-0.0079
4.712,0.0128
4.716,0.00265
4.72,0.03181
4.724,0.03714
4.728,0.04235
4.732,0.00244
4.736,0.05074
4.74,0.01935
4.744,0.01742
4.748,0.02573
4.752,0.0096
4.756,-0.038
4.76,-0.09384
4.764,-0.07502
4.768,-0.06229
4.772,0.06854
4.776,0.21652
4.78,0.39745
4.784,0.65689
4.788,0.8401
4.792,0.96569
4.796,1.02154
4.8,0.93849
4.804,0.77273
4.808,0.5776
4.812,0.33453
4.816,0.14957
4.82,-0.02553
4.824,-0.10689
4.828,-0.13629
4.832,-0.09393
4.836,-0.13813
4.84,-0.0287
4.844,0.00724
4.848,0.01338
4.852,0.0116
4.856,0.03318
4.86,0.02048
4.864,-0.00648
4.868,0.02616
4.872,0.04401
4.876,0.0032
4.88,-0.00314
4.884,0.0376
4.888,0.01274
4.892,0.01681
4.896,0.0203
4.9,0.03019
4.904,-0.00601
4.908,0.04019
4.912,0.01834
4.916,0.01939
4.92,0.01854
4.924,0.01474
4.928,0.05443
4.932,0.03734
4.936,0.0121
4.94,0.03183
4.944,0.03349
4.948,0.03679
4.952,0.05695
4.956,0.04264
4.96,0.02384
4.964,0.03103
4.968,0.02279
4.972,0.04747
4.976,0.03455
4.98,0.04488
4.984,0.04461
4.988,0.06828
4.992,0.04453
4.996,0.07462
5.0,0.11515
5.004,0.08264
5.008,0.09356
5.012,0.09919
5.016,0.13144
5.02,0.13076
5.024,0.14324
5.028,0.18218
5.032,0.15753
5.036,0.15011
5.04,0.19978
5.044,0.18533
5.048,0.20731
5.052,0.22384
5.056,0.2429
5.06,0.24922
5.064,0.21614
5.068,0.21435
5.072,0.23778
5.076,0.22505
5.08,0.28612
5.084,0.24856
5.088,0.23817
5.092,0.23152
5.096,0.22632
5.1,0.22951
5.104,0.20789
5.108,0.19292
5.112,0.20542
5.116,0.17046
5.12,0.14999
5.124,0.16221
5.128,0.11386
5.132,0.13842
5.136,0.12342
5.14,0.12314
5.144,0.09358
5.148,0.10196
5.152,0.07664
5.156,0.08672
5.16,0.06678
5.164,0.04546
5.168,0.04696
5.172,0.06196
5.176,0.0397
5.18,0.04286
5.184,0.03167
5.188,0.05772
5.192,0.03492
5.196,0.02831
5.2,0.04474
5.204,0.0116
5.208,0.05506
5.212,0.01079
5.216,0.00917
5.22,0.0562
5.224,0.03229
5.228,0.00259
5.232,0.02061
5.236,0.04523
5.24,0.02731
5.244,0.02426
5.248,0.03496
5.252,0.01941
5.256,0.01843
5.26,0.02178
5.264,0.01819
5.268,0.02712
5.272,0.0177
5.276,0.03795
5.28,0.04011
5.284,0.03366
5.288,0.04486
5.292,0.02043
5.296,0.0172
5.3,0.04587
5.304,0.01561
5.308,0.04181
5.312,0.03648
5.316,0.02987
5.32,-0.00531
5.324,0.00551
5.328,0.02389
5.332,0.0278
5.336,0.01365
5.34,0.02702
5.344,0.01031
5.348,0.0348
5.352,0.01969
5.356,0.05281
5.36,0.02959
5.364,0.04593
5.368,0.04498
5.372,0.03393
5.376,0.03118
5.38,0.01535
5.384,0.03361
5.388,0.05661
5.392,0.03251
5.396,0.03887
5.4,0.03068
5.404,0.00346
5.408,0.05291
5.412,0.06408
5.416,0.03985
5.42,0.04388
5.424,0.04852
5.428,0.05109
5.432,0.05589
5.436,0.06795
5.44,0.09353
5.444,0.10158
5.448,0.08169
5.452,0.10425
5.456,0.1215
5.46,0.15239
5.464,0.11543
5.468,0.13783
5.472,0.10702
5.476,0.08858
5.48,0.0735
5.484,0.10516
5.488,0.07094
5.492,0.07325
5.496,0.04774
5.5,0.02728
5.504,0.03736
5.508,0.02554
5.512,0.04693
5.516,0.01599
5.52,0.03365
5.524,0.04352
5.528,0.03255
5.532,0.03673
5.536,0.03137
5.54,0.03841
5.544,0.0283
5.548,0.02135
5.552,0.0013
5.556,0.0404
5.56,0.04237
5.564,0.0327
5.568,0.0386
5.572,0.03172
5.576,0.01797
5.58,-0.0002
5.584,-0.08328
5.588,-0.08316
5.592,-0.06168
5.596,-0.00917
5.6,0.09276
5.604,0.27762
5.608,0.48262
5.612,0.64776
5.616,0.87298
5.62,1.00639
5.624,1.06901
5.628,0.91652
5.632,0.75923
5.636,0.50957
5.64,0.29817
5.644,0.1048
5.648,-0.05774
5.652,-0.10613
5.656,-0.14733
5.66,-0.13744
5.664,-0.0827
5.668,-0.00263
5.672,-0.00468
5.676,0.01626
5.68,0.00963
5.684,0.04425
5.688,0.04757
5.692,0.04015
5.696,0.00958
5.7,0.05588
5.704,0.04421
5.708,0.01941
5.712,0.02689
5.716,0.02853
5.72,0.01523
5.724,0.01576
5.728,0.05257
5.732,0.04439
5.736,0.04293
5.74,0.04047
5.744,0.03562
5.748,0.00466
5.752,0.02345
5.756,0.03499
5.76,0.01801
5.764,0.05577
5.768,0.00129
5.772,0.06238
5.776,0.02381
5.78,0.03625
5.784,0.0567
5.788,0.05878
5.792,0.0512
5.796,0.0509
5.8,0.02594
5.804,0.07237
5.808,0.09068
5.812,0.06283
5.816,0.05098
5.82,0.07249
5.824,0.08143
5.828,0.08155
5.832,0.1035
5.836,0.10708
5.84,0.11702
5.844,0.099
5.848,0.14082
5.852,0.16395
5.856,0.15917
5.86,0.16204
5.864,0.18433
5.868,0.2003
5.872,0.19687
5.876,0.19077
5.88,0.24641
5.884,0.26149
5.888,0.26616
5.892,0.26747
5.896,0.25259
5.9,0.22971
5.904,0.25652
5.908,0.24863
5.912,0.23888
5.916,0.22921
5.92,0.18074
5.924,0.22505
5.928,0.23242
5.932,0.19215
5.936,0.21236
5.94,0.13926
5.944,0.1405
5.948,0.14413
5.952,0.1457
5.956,0.14394
5.96,0.1152
5.964,0.09707
5.968,0.08312
5.972,0.09181
5.976,0.05059
5.98,0.08335
5.984,0.073
5.988,0.04737
5.992,0.08759
5.996,0.06705
6.0,0.04476
6.004,0.05304
6.008,0.0543
6.012,0.05005
6.016,0.04734
6.02,0.02998
6.024,0.01763
6.028,0.04246
6.032,0.0172
6.036,0.02073
6.04,0.04719
6.044,0.04407
6.048,0.04068
6.052,0.04036
6.056,0.01947
6.06,0.03053
6.064,0.02089
6.068,0.0156
6.072,0.03163
6.076,0.03512
6.08,0.0327
6.084,0.01813
6.088,0.03336
6.092,0.0233
6.096,0.01977
6.1,0.01269
6.104,0.05203
6.108,0.01135
6.112,0.01395
6.116,0.03307
6.12,0.0203
6.124,0.04221
6.128,0.03655
6.132,0.04455
6.136,0.01681
6.14,0.02169
6.144,0.02105
6.148,0.04722
6.152,0.03217
6.156,0.02652
6.16,0.00982
6.164,0.04779
6.168,0.02058
6.172,0.03695
6.176,0.0423
6.18,0.032
6.184,0.03764
6.188,0.04091
6.192,0.07752
6.196,0.07545
6.2,0.12393
6.204,0.11921
6.208,0.11502
6.212,0.11061
6.216,0.08662
6.22,0.13044
6.224,0.1202
6.228,0.1242
6.232,0.12014
6.236,0.13228
6.24,0.08916
6.244,0.058
6.248,0.0614
6.252,0.06027
6.256,0.04079
6.26,0.0488
6.264,0.03331
6.268,0.05858
6.272,0.01535
6.276,0.02526
6.28,0.02343
6.284,0.03729
6.288,0.03079
6.292,0.01651
6.296,0.0149
6.3,0.0235
6.304,0.04733
6.308,0.02544
6.312,0.00881
6.316,0.04324
6.32,0.01291
6.324,0.04352
6.328,0.00788
6.332,0.02288
6.336,0.02457
6.34,-0.02731
6.344,-0.04567
6.348,-0.11971
6.352,-0.0772
6.356,-0.01965
6.36,0.15267
6.364,0.35765
6.368,0.53333
6.372,0.73891
6.376,0.91506
6.38,1.0133
6.384,1.00408
6.388,0.8853
6.392,0.70542
6.396,0.41458
6.4,0.24824
6.404,0.02613
6.408,-0.06425
6.412,-0.13665
6.416,-0.14483
6.42,-0.09244
6.424,-0.07351
6.428,-0.04503
6.432,-0.01358
6.436,0.02294
6.44,0.0068
6.444,0.01712
6.448,-0.01089
6.452,0.02321
6.456,-0.01129
6.46,0.02156
6.464,0.00213
6.468,-0.00673
6.472,0.01651
6.476,0.01923
6.48,0.02698
6.484,0.0184
6.488,0.03346
6.492,0.04207
6.496,0.01952
6.5,0.0182
6.504,0.03954
6.508,0.01528
6.512,0.04773
6.516,-0.02041
6.52,0.00711
6.524,-0.00252
6.528,0.0307
6.532,-0.01943
6.536,0.00378
6.54,0.03745
6.544,0.02682
6.548,0.00784
6.552,-0.00667
6.556,0.04454
6.56,0.02468
6.564,0.02484
6.568,0.03396
6.572,0.05639
6.576,0.05374
6.58,0.0293
6.584,0.0636
6.588,0.08857
6.592,0.09051
6.596,0.09146
6.6,0.11349
6.604,0.13311
6.608,0.13227
6.612,0.13991
6.616,0.15413
6.62,0.17988
6.624,0.15409
6.628,0.15458
6.632,0.21229
6.636,0.21662
6.64,0.19691
6.644,0.23244
6.648,0.22228
6.652,0.19529
6.656,0.24644
6.66,0.24145
6.664,0.23164
6.668,0.23261
6.672,0.2163
6.676,0.20722
6.68,0.19053
6.684,0.23201
6.688,0.18064
6.692,0.17155
6.696,0.1552
6.7,0.17554
6.704,0.13658
6.708,0.1658
6.712,0.14025
6.716,0.14502
6.72,0.14894
6.724,0.08817
6.728,0.08794
6.732,0.06777
6.736,0.04207
6.74,0.08121
6.744,0.07043
6.748,0.0486
6.752,0.04654
6.756,0.03485
6.76,0.00525
6.764,0.01828
6.768,0.02621
6.772,0.02212
6.776,0.04184
6.78,0.01585
6.784,0.00908
6.788,0.04607
6.792,0.03986
6.796,-0.0035
6.8,0.02396
6.804,0.00447
6.808,0.00311
6.812,0.00935
6.816,-0.00472
6.82,0.01597
6.824,0.01226
6.828,0.00182
6.832,-0.00221
6.836,-0.00325
6.84,-0.00191
6.844,0.00771
6.848,0.00912
6.852,-0.00787
6.856,0.00465
6.86,0.02537
6.864,0.02679
6.868,0.04557
6.872,0.00387
6.876,0.02498
6.88,0.04605
6.884,-0.00301
6.888,0.05452
6.892,0.03641
6.896,0.03335
6.9,0.05493
6.904,0.03797
6.908,0.06589
6.912,0.08722
6.916,0.07228
6.92,0.10271
6.924,0.0801
6.928,0.0941
6.932,0.10367
6.936,0.11042
6.94,0.13347
6.944,0.12453
6.948,0.06552
6.952,0.07724
6.956,0.06047
6.96,0.02446
6.964,0.06401
6.968,0.02507
6.972,0.03448
6.976,0.02801
6.98,0.00198
6.984,0.00652
6.988,0.01664
6.992,-0.00775
6.996,0.01216
7.0,0.02157
7.004,0.01288
7.008,-0.00262
7.012,-0.00641
7.016,0.02541
7.02,0.01178
7.024,-0.01276
7.028,-0.01231
7.032,-0.00109
7.036,0.03236
7.04,-0.01488
7.044,-0.04451
7.048,-0.07077
7.052,-0.07704
7.056,-0.11494
7.06,-0.08862
7.064,0.01604
7.068,0.1598
7.072,0.3691
7.076,0.57881
7.08,0.78951
7.084,0.9382
7.088,1.0041
7.092,0.96245
7.096,0.78829
7.1,0.61173
7.104,0.34399
7.108,0.14783
7.112,-8e-05
7.116,-0.1183
7.12,-0.16483
7.124,-0.12764
7.128,-0.14476
7.132,-0.07179
7.136,-0.04319
7.14,-0.01215
7.144,-0.01627
7.148,0.01632
7.152,-0.02575
7.156,0.01722
7.16,0.01612
7.164,-0.01066
7.168,-0.01539
7.172,-0.0091
7.176,0.00173
7.18,-0.01693
7.184,0.00459
7.188,-0.01129
7.192,-0.0023
7.196,-0.03118
7.2,-0.01645
7.204,0.00566
7.208,-0.01951
7.212,0.00643
7.216,-0.00452
7.22,0.00694
7.224,0.01465
7.228,0.00474
7.232,0.00239
7.236,0.01054
7.24,-0.00674
7.244,0.01796
7.248,0.01284
7.252,0.00916
7.256,0.03713
7.26,-0.01516
7.264,0.00633
7.268,0.02344
7.272,0.01809
7.276,0.03952
7.28,0.00253
7.284,-0.00544
7.288,0.02985
7.292,0.05571
7.296,0.05052
7.3,0.05638
7.304,0.07136
7.308,0.07429
7.312,0.08614
7.316,0.12187
7.32,0.12548
7.324,0.13311
7.328,0.1511
7.332,0.17189
7.336,0.15908
7.34,0.20404
7.344,0.18859
7.348,0.19507
7.352,0.19242
7.356,0.19818
7.36,0.19306
7.364,0.22562
7.368,0.21309
7.372,0.20583
7.376,0.21103
7.38,0.20537
7.384,0.17883
7.388,0.20376
7.392,0.20111
7.396,0.1484
7.4,0.17708
7.404,0.18975
7.408,0.12655
7.412,0.13605
7.416,0.11256
7.42,0.08105
7.424,0.10201
7.428,0.03849
7.432,0.11481
7.436,0.05154
7.44,0.04369
7.444,0.04938
7.448,0.0381
7.452,0.02913
7.456,0.01307
7.46,0.02267
7.464,0.04316
7.468,0.0227
7.472,0.00768
7.476,0.02324
7.48,0.00394
7.484,-0.00991
7.488,-0.00172
7.492,-0.00207
7.496,0.00552
7.5,0.01919
7.504,-0.00258
7.508,-0.01438
7.512,-0.00154
7.516,-0.02161
7.52,0.0019
7.524,-0.00519
7.528,-0.01821
7.532,-0.01123
7.536,-0.00178
7.54,-0.00437
7.544,0.00533
7.548,-0.01037
7.552,-0.00616
7.556,-0.0012
7.56,-0.01871
7.564,-0.03436
7.568,-0.01228
7.572,-0.00183
7.576,0.01366
7.58,-0.00382
7.584,-0.0185
7.588,0.001
7.592,-0.01253
7.596,-0.00805
7.6,-0.02498
7.604,0.01005
7.608,-0.04226
7.612,-0.03094
7.616,-0.00878
7.62,-0.00871
7.624,0.00248
7.628,-0.02257
7.632,-0.00295
7.636,-0.01202
7.64,-0.00305
7.644,-0.01766
7.648,-0.00669
7.652,-0.00435
7.656,-0.01201
7.66,-0.00967
7.664,-0.01357
7.668,-0.0237
7.672,-0.03245
7.676,-0.03186
7.68,0.00443
7.684,-0.00122
7.688,0.00192
7.692,-0.02659
7.696,-0.00137
7.7,0.01153
7.704,-0.0004
7.708,-0.01654
7.712,0.00811
7.716,0.00893
7.72,0.00151
7.724,0.01627
7.728,0.03596
7.732,0.05443
7.736,0.07773
7.74,0.07164
7.744,0.09347
7.748,0.08828
7.752,0.08148
7.756,0.0855
7.76,0.05484
7.764,0.05002
7.768,0.05588
7.772,0.03358
7.776,0.01428
7.78,0.03567
7.784,0.01844
7.788,0.02858
7.792,0.00599
7.796,-0.00319
7.8,-0.02856
7.804,-0.04606
7.808,0.00494
7.812,-0.0214
7.816,-0.00108
7.82,-0.02686
7.824,-0.01952
7.828,0.001
7.832,-0.01672
7.836,-0.02397
7.84,0.00168
7.844,0.00142
7.848,-0.00577
7.852,-0.01485
7.856,-0.02643
7.86,-0.01953
7.864,-0.03122
7.868,-0.05426
7.872,-0.09587
7.876,-0.10722
7.88,-0.11548
7.884,-0.00565
7.888,0.15151
7.892,0.31657
7.896,0.52796
7.9,0.75503
7.904,0.88949
7.908,0.9738
7.912,0.91731
7.916,0.81253
7.92,0.60024
7.924,0.36197
7.928,0.149
7.932,-0.02879
7.936,-0.11675
7.94,-0.22131
7.944,-0.16942
7.948,-0.152
7.952,-0.1
7.956,-0.0515
7.96,-0.06054
7.964,-0.01565
7.968,-0.00348
7.972,-0.0136
7.976,-0.04714
7.98,-0.03983
7.984,-0.02506
7.988,-0.04465
7.992,-0.04426
7.996,0.01317
8.0,-0.01542
8.004,-0.01536
8.008,-0.05068
8.012,-0.02487
8.016,-0.00877
8.02,-0.02613
8.024,-0.00586
8.028,-0.02435
8.032,-0.03499
8.036,-0.01978
8.04,0.00623
8.044,-0.00444
8.048,-0.03032
8.052,-0.03005
8.056,-0.01815
8.06,-0.0255
8.064,-0.03072
8.068,-0.05581
8.072,-0.0113
8.076,-0.03909
8.08,-0.02787
8.084,-0.02244
8.088,-0.0176
8.092,0.00132
8.096,-0.00185
8.1,-0.00723
8.104,0.03352
8.108,0.00718
8.112,0.0418
8.116,0.04407
8.12,0.04728
8.124,0.03537
8.128,0.07325
8.132,0.08612
8.136,0.10472
8.14,0.11349
8.144,0.08314
8.148,0.10809
8.152,0.1137
8.156,0.14105
8.16,0.15907
8.164,0.15289
8.168,0.16113
8.172,0.172
8.176,0.20235
8.18,0.18887
8.184,0.19342
8.188,0.21494
8.192,0.20799
8.196,0.22177
8.2,0.22352
8.204,0.18054
8.208,0.18603
8.212,0.15431
8.216,0.15589
8.22,0.13125
8.224,0.14403
8.228,0.10432
8.232,0.14145
8.236,0.08498
8.24,0.11588
8.244,0.05892
8.248,0.08546
8.252,0.06676
8.256,0.03747
8.26,0.04549
8.264,0.06175
8.268,0.01774
8.272,0.0163
8.276,-0.01162
8.28,0.01527
8.284,0.0017
8.288,-0.02729
8.292,0.01355
8.296,-0.02017
8.3,-0.03363
8.304,-0.00977
8.308,-0.02508
8.312,-0.03858
8.316,-0.03388
8.32,-0.04807
8.324,-0.03175
8.328,-0.00341
8.332,-0.02084
8.336,-0.03038
8.34,-0.01931
8.344,-0.04305
8.348,-0.01337
8.352,-0.03947
8.356,0.00623
8.36,-0.01291
8.364,-0.04034
8.368,-0.03543
8.372,-0.03219
8.376,-0.01922
8.38,-0.03116
8.384,-0.01126
8.388,-0.04218
8.392,-0.02467
8.396,-0.03931
8.4,-0.01459
8.404,-0.02659
8.408,-0.03638
8.412,-0.03265
8.416,-0.02685
8.42,-0.03444
8.424,-0.05629
8.428,-0.0282
8.432,-0.01478
8.436,-0.03876
8.44,-0.00807
8.444,-0.0199
8.448,-0.02286
8.452,-0.02968
8.456,-0.0398
8.46,-0.03493
8.464,-0.04974
8.468,-0.03818
8.472,-0.03046
8.476,-0.04703
8.48,-0.02535
8.484,-0.03589
8.488,-0.03693
8.492,-0.03179
8.496,-0.02087
8.5,-0.0509
8.504,-0.01785
8.508,-0.02909
8.512,0.01108
8.516,-0.01909
8.52,-0.0388
8.524,-0.01881
8.528,-0.02426
8.532,-0.02344
8.536,-0.03001
8.54,-0.01944
8.544,-0.02603
8.548,0.00684
8.552,0.01109
8.556,0.02691
8.56,0.034
8.564,0.05582
8.568,0.04055
8.572,0.06183
8.576,0.0886
8.58,0.07381
8.584,0.08778
8.588,0.04941
8.592,0.04293
8.596,0.02009
8.6,0.04063
8.604,0.01099
8.608,0.00477
8.612,-0.01991
8.616,-0.03703
8.62,-0.01531
8.624,-0.05187
8.628,-0.02538
8.632,-0.02845
8.636,-0.01919
8.64,-0.01077
8.644,-0.02718
8.648,-0.04229
8.652,-0.06924
8.656,-0.01182
8.66,-0.02045
8.664,-0.04581
8.668,-0.0085
8.672,-0.02112
8.676,-0.01807
8.68,-0.03777
8.684,-0.01831
8.688,-0.03888
8.692,-0.04183
8.696,-0.06182
8.7,-0.10715
8.704,-0.15242
8.708,-0.11952
8.712,-0.03287
8.716,0.10231
8.72,0.21344
8.724,0.45021
8.728,0.69865
8.732,0.87329
8.736,0.98536
8.74,0.94138
8.744,0.84206
8.748,0.62438
8.752,0.37796
8.756,0.18522
8.76,0.00097
8.764,-0.11743
8.768,-0.17284
8.772,-0.18748
8.776,-0.1796
8.78,-0.11921
8.784,-0.05931
8.788,-0.06167
8.792,-0.06232
8.796,-0.02793
8.8,-0.05341
8.804,-0.01183
8.808,-0.0221
8.812,0.0068
8.816,-0.03147
8.82,-0.02366
8.824,-0.02283
8.828,-0.00081
8.832,-0.00604
8.836,-0.06585
8.84,-0.014
8.844,-0.03916
8.848,-0.01968
8.852,-0.02329
8.856,-0.02978
8.86,-0.0351
8.864,-0.00759
8.868,-0.01753
8.872,-0.00778
8.876,-0.01642
8.88,-0.0372
8.884,-0.01664
8.888,-0.03576
8.892,-0.00335
8.896,-0.02703
8.9,-0.01787
8.904,-0.0334
8.908,-0.01899
8.912,-0.00586
8.916,-0.05824
8.92,-0.01772
8.924,-0.00434
8.928,-0.03883
8.932,0.01648
8.936,-0.00231
8.94,0.01482
8.944,0.00778
8.948,0.0519
8.952,0.04039
8.956,0.06411
8.96,0.07659
8.964,0.0603
8.968,0.07872
8.972,0.10174
8.976,0.10983
8.98,0.14763
8.984,0.11483
8.988,0.12456
8.992,0.16527
8.996,0.17618
9.0,0.18272
9.004,0.17995
9.008,0.16239
9.012,0.21161
9.016,0.17181
9.02,0.19305
9.024,0.16593
9.028,0.22626
9.032,0.17454
9.036,0.14598
9.04,0.18609
9.044,0.15625
9.048,0.14171
9.052,0.16581
9.056,0.11671
9.06,0.10082
9.064,0.10261
9.068,0.11311
9.072,0.07653
9.076,0.06676
9.08,0.05834
9.084,0.03717
9.088,0.07313
9.092,0.02557
9.096,0.00712
9.1,0.00082
9.104,0.0039
9.108,0.0172
9.112,0.01113
9.116,-0.00318
9.12,0.00124
9.124,-0.05775
9.128,-0.04345
9.132,-0.06254
9.136,-0.04268
9.14,-0.02439
9.144,-0.01891
9.148,-0.0322
9.152,-0.04143
9.156,-0.02485
9.16,-0.01431
9.164,-0.01494
9.168,-0.05489
9.172,-0.01839
9.176,-0.03073
9.18,-0.05609
9.184,-0.02078
9.188,-0.02323
9.192,0.00952
9.196,-0.04083
9.2,-0.03384
9.204,-0.03265
9.208,-0.02398
9.212,-0.03907
9.216,-0.02425
9.22,-0.01714
9.224,-0.03548
9.228,-0.02682
9.232,-0.01549
9.236,-0.02793
9.24,-0.0171
9.244,-0.02646
9.248,-0.03746
9.252,-0.03821
9.256,-0.02248
9.26,-0.00587
9.264,-0.03537
9.268,-0.0483
9.272,-0.03316
9.276,-0.02061
9.28,-0.01211
9.284,-0.0357
9.288,-0.01465
9.292,-0.01925
9.296,0.00923
9.3,0.02516
9.304,0.02775
9.308,0.03614
9.312,0.04317
9.316,0.08203
9.32,0.06473
9.324,0.08232
9.328,0.08812
9.332,0.05771
9.336,0.0501
9.34,0.0677
9.344,0.03068
9.348,-0.00233
9.352,0.0244
9.356,-0.00511
9.36,-0.02389
9.364,-0.02199
9.368,-0.03094
9.372,-0.02954
9.376,-0.03678
9.38,-0.02346
9.384,-0.01022
9.388,-0.03375
9.392,-0.02118
9.396,-0.03774
9.4,-0.02458
9.404,-0.01616
9.408,-0.03075
9.412,-0.02934
9.416,-0.05026
9.42,-0.04142
9.424,-0.04166
9.428,-0.01742
9.432,-0.00548
9.436,-0.01189
9.44,-0.06088
9.444,-0.0836
9.448,-0.10332
9.452,-0.17524
9.456,-0.15343
9.46,-0.03652
9.464,0.10918
9.468,0.28945
9.472,0.49897
9.476,0.71237
9.48,0.86354
9.484,0.97033
9.488,0.91807
9.492,0.82636
9.496,0.61448
9.5,0.38617
9.504,0.19868
9.508,-0.0146
9.512,-0.15746
9.516,-0.18826
9.52,-0.19218
9.524,-0.15835
9.528,-0.12564
9.532,-0.0765
9.536,-0.04538
9.54,-0.02805
9.544,-0.01194
9.548,-0.03321
9.552,-0.02918
9.556,-0.03893
9.56,-0.00625
9.564,-0.01675
9.568,-0.02003
9.572,-0.03088
9.576,-0.028
9.58,-0.02991
9.584,-0.00752
9.588,-0.0458
9.592,-0.00945
9.596,-0.04221
9.6,-0.06355
9.604,-0.03171
9.608,-0.02916
9.612,-0.03074
9.616,-0.04266
9.62,-0.008
9.624,-0.05722
9.628,-0.02513
9.632,-0.03933
9.636,0.00224
9.64,-0.03186
9.644,-0.00016
9.648,-0.01306
9.652,-0.00652
9.656,-0.01868
9.66,-0.0001
9.664,-0.00317
9.668,-0.01525
9.672,-0.02319
9.676,0.00652
9.68,0.03432
9.684,0.0413
9.688,0.02169
9.692,0.04136
9.696,0.04368
9.7,0.04652
9.704,0.07141
9.708,0.08265
9.712,0.08907
9.716,0.11362
9.72,0.11935
9.724,0.13315
9.728,0.16545
9.732,0.14828
9.736,0.13721
9.74,0.17143
9.744,0.19807
9.748,0.17991
9.752,0.20012
9.756,0.19299
9.76,0.22532
9.764,0.18758
9.768,0.21826
9.772,0.16964
9.776,0.2025
9.78,0.20197
9.784,0.1728
9.788,0.15171
9.792,0.13274
9.796,0.14661
9.8,0.11653
9.804,0.13903
9.808,0.12432
9.812,0.11684
9.816,0.11363
9.82,0.10005
9.824,0.09367
9.828,0.03239
9.832,0.04739
9.836,0.04359
9.84,0.0238
9.844,0.01403
9.848,0.05331
9.852,0.03095
9.856,0.02299
9.86,0.00648
9.864,0.00927
9.868,-0.00331
9.872,-0.01978
9.876,-0.00418
9.88,0.0165
9.884,-0.0203
9.888,0.00441
9.892,-0.03623
9.896,-0.01908
9.9,-0.01732
9.904,-0.00592
9.908,-0.02127
9.912,-0.0054
9.916,-0.01156
9.92,-0.03211
9.924,-0.00922
9.928,0.00459
9.932,-0.00613
9.936,-0.01854
9.94,-0.04188
9.944,-0.00661
9.948,0.01009
9.952,0.00121
9.956,-0.01589
9.96,-0.00322
9.964,-0.01179
9.968,-0.01505
9.972,-0.03561
9.976,0.00401
9.98,-0.03196
9.984,-0.01597
9.988,-0.04406
9.992,-0.02837
9.996,-0.01885
