t_seg,ecg_mV
0.0,0.00972
0.004,-0.01473
0.008,0.0313
0.012,0.00953
0.016,0.01747
0.02,0.00088
0.024,0.02874
0.028,0.03528
0.032,0.04492
0.036,0.02791
0.04,0.0375
0.044,0.01788
0.048,0.0018
0.052,0.04403
0.056,0.0218
0.06,0.0331
0.064,0.02002
0.068,0.03762
0.072,0.04979
0.076,0.02947
0.08,0.04012
0.084,0.01951
0.088,0.04371
0.092,0.02435
0.096,0.03558
0.1,0.00562
0.104,0.02892
0.108,0.03705
0.112,0.0273
0.116,-0.01345
0.12,0.01989
0.124,0.04377
0.128,0.01107
0.132,0.01753
0.136,0.01353
0.14,0.03136
0.144,0.00749
0.148,0.01039
0.152,0.03367
0.156,-0.01682
0.16,0.0013
0.164,0.00132
0.168,0.02261
0.172,0.0096
0.176,0.00787
0.18,-0.01358
0.184,0.00678
0.188,0.01535
0.192,-0.00107
0.196,0.0244
0.2,0.05293
0.204,0.05337
0.208,0.02928
0.212,0.02955
0.216,0.02455
0.22,0.04016
0.224,0.03269
0.228,0.05989
0.232,0.06791
0.236,0.07324
0.24,0.0824
0.244,0.1039
0.248,0.11006
0.252,0.10721
0.256,0.13963
0.26,0.14494
0.264,0.1202
0.268,0.1012
0.272,0.10095
0.276,0.0868
0.28,0.07022
0.284,0.03923
0.288,0.07121
0.292,0.06912
0.296,0.04501
0.3,0.02856
0.304,0.02737
0.308,0.0432
0.312,0.01456
0.316,0.01096
0.32,0.01163
0.324,0.02904
0.328,0.02469
0.332,0.02572
0.336,0.04865
0.34,0.03326
0.344,0.02364
0.348,0.02407
0.352,0.05981
0.356,0.04217
0.36,0.05488
0.364,0.02291
0.368,0.04487
0.372,0.01882
0.376,-0.03572
0.38,-0.07023
0.384,-0.11561
0.388,-0.06912
0.392,0.01895
0.396,0.14577
0.4,0.34198
0.404,0.58175
0.408,0.77956
0.412,0.94603
0.416,0.99916
0.42,1.00147
0.424,0.83404
0.428,0.68404
0.432,0.42779
0.436,0.21511
0.44,0.03159
0.444,-0.07922
0.448,-0.13638
0.452,-0.12281
0.456,-0.09993
0.46,-0.08515
0.464,-0.02628
0.468,0.02775
0.472,0.03047
0.476,0.02315
0.48,0.00474
0.484,0.02633
0.488,0.01462
0.492,0.03202
0.496,0.01235
0.5,0.04037
0.504,0.04584
0.508,0.04527
0.512,0.03964
0.516,0.0071
0.52,0.03831
0.524,0.01688
0.528,0.06375
0.532,0.0507
0.536,0.00256
0.54,0.02594
0.544,0.0115
0.548,0.01217
0.552,0.04183
0.556,0.00815
0.56,0.0083
0.564,0.02409
0.568,0.02803
0.572,0.03498
0.576,0.0458
0.58,0.03134
0.584,0.04979
0.588,0.0414
0.592,0.03779
0.596,0.05016
0.6,0.03929
0.604,0.06036
0.608,0.0593
0.612,0.04826
0.616,0.05504
0.62,0.09121
0.624,0.05488
0.628,0.11583
0.632,0.12896
0.636,0.13551
0.64,0.10449
0.644,0.13694
0.648,0.14529
0.652,0.18271
0.656,0.16017
0.66,0.18481
0.664,0.21254
0.668,0.21561
0.672,0.22336
0.676,0.21351
0.68,0.22445
0.684,0.24167
0.688,0.25885
0.692,0.24102
0.696,0.26737
0.7,0.26547
0.704,0.22108
0.708,0.25006
0.712,0.22737
0.716,0.21858
0.72,0.23771
0.724,0.24551
0.728,0.20073
0.732,0.19658
0.736,0.18549
0.74,0.16098
0.744,0.163
0.748,0.14295
0.752,0.14487
0.756,0.14786
0.76,0.11779
0.764,0.08037
0.768,0.08483
0.772,0.08956
0.776,0.06816
0.78,0.07966
0.784,0.04209
0.788,0.05239
0.792,0.04699
0.796,0.03616
0.8,0.07046
0.804,0.006
0.808,0.05757
0.812,0.03682
0.816,0.05881
0.82,0.03337
0.824,0.0303
0.828,0.07157
0.832,0.02747
0.836,0.02483
0.84,0.03818
0.844,0.03084
0.848,0.02827
0.852,0.02247
0.856,0.04027
0.86,0.04083
0.864,0.03265
0.868,0.04495
0.872,0.05215
0.876,-0.00293
0.88,0.05098
0.884,0.05809
0.888,0.06266
0.892,0.05377
0.896,0.08431
0.9,0.08491
0.904,0.09712
0.908,0.11527
0.912,0.14387
0.916,0.13508
0.92,0.12125
0.924,0.12395
0.928,0.10339
0.932,0.10246
0.936,0.11596
0.94,0.07645
0.944,0.06396
0.948,0.07779
0.952,0.05076
0.956,0.05629
0.96,0.02423
0.964,0.02695
0.968,0.01476
0.972,0.0562
0.976,0.00877
0.98,0.01326
0.984,0.02038
0.988,0.03908
0.992,0.03584
0.996,0.02275
1.0,0.03836
1.004,0.02037
1.008,0.01
1.012,0.04062
1.016,0.02432
1.02,0.02377
1.024,0.02765
1.028,0.02878
1.032,-0.01283
1.036,-0.04193
1.04,-0.06026
1.044,-0.07739
1.048,-0.05965
1.052,0.02457
1.056,0.18245
1.06,0.34406
1.064,0.56732
1.068,0.78756
1.072,0.95723
1.076,1.01196
1.08,1.00177
1.084,0.82591
1.088,0.64916
1.092,0.41467
1.096,0.18249
1.1,0.02595
1.104,-0.1154
1.108,-0.13397
1.112,-0.13511
1.116,-0.10789
1.12,-0.0489
1.124,-0.02042
1.128,0.02332
1.132,0.00949
1.136,0.03709
1.14,-0.00126
1.144,0.0207
1.148,0.05781
1.152,0.02389
1.156,0.00902
1.16,0.03168
1.164,0.04035
1.168,0.07114
1.172,0.04249
1.176,0.00366
1.18,0.01379
1.184,0.03827
1.188,0.02365
1.192,0.01564
1.196,0.05265
1.2,0.03125
1.204,0.02125
1.208,0.01538
1.212,0.03653
1.216,0.02195
1.22,0.03789
1.224,0.00247
1.228,0.02821
1.232,0.02351
1.236,0.03545
1.24,0.03477
1.244,0.02282
1.248,0.02946
1.252,0.04422
1.256,0.05821
1.26,0.06753
1.264,0.03165
1.268,0.02754
1.272,0.07717
1.276,0.06795
1.28,0.089
1.284,0.06682
1.288,0.10798
1.292,0.12078
1.296,0.10077
1.3,0.12497
1.304,0.13272
1.308,0.14159
1.312,0.17833
1.316,0.18086
1.32,0.18751
1.324,0.2121
1.328,0.20485
1.332,0.24365
1.336,0.22626
1.34,0.21908
1.344,0.22555
1.348,0.22145
1.352,0.24491
1.356,0.25889
1.36,0.24112
1.364,0.25053
1.368,0.22632
1.372,0.24147
1.376,0.24058
1.38,0.22226
1.384,0.22952
1.388,0.20334
1.392,0.17193
1.396,0.18149
1.4,0.14
1.404,0.14341
1.408,0.1737
1.412,0.15249
1.416,0.10621
1.42,0.10254
1.424,0.09307
1.428,0.07545
1.432,0.06663
1.436,0.05197
1.44,0.07762
1.444,0.05047
1.448,0.06538
1.452,0.03879
1.456,0.03836
1.46,0.03356
1.464,0.04027
1.468,0.02477
1.472,0.0147
1.476,0.04895
1.48,0.04828
1.484,0.03298
1.488,0.02636
1.492,0.02254
1.496,0.01764
1.5,0.03136
1.504,0.01633
1.508,0.02132
1.512,0.02435
1.516,0.02583
1.52,0.00221
1.524,0.01434
1.528,0.01822
1.532,0.03314
1.536,0.03879
1.54,0.02247
1.544,0.01356
1.548,0.02999
1.552,0.0316
1.556,0.0257
1.56,0.03134
1.564,0.02688
1.568,0.0229
1.572,0.03554
1.576,0.03882
1.58,0.02796
1.584,0.02289
1.588,0.04124
1.592,0.09375
1.596,0.02463
1.6,0.07412
1.604,0.06556
1.608,0.09745
1.612,0.07375
1.616,0.1152
1.62,0.12586
1.624,0.11844
1.628,0.15033
1.632,0.12984
1.636,0.12315
1.64,0.10704
1.644,0.07525
1.648,0.08642
1.652,0.06449
1.656,0.05433
1.66,0.04191
1.664,0.05029
1.668,0.0557
1.672,0.01814
1.676,0.00138
1.68,0.01317
1.684,0.03422
1.688,0.04578
1.692,-0.00556
1.696,0.01581
1.7,0.02442
1.704,0.05061
1.708,0.02391
1.712,0.04858
1.716,0.02891
1.72,0.01075
1.724,0.00065
1.728,0.03
1.732,0.01126
1.736,0.01107
1.74,0.0136
1.744,-0.01653
1.748,-0.0614
1.752,-0.0706
1.756,-0.0797
1.76,-0.05117
1.764,0.04573
1.768,0.22851
1.772,0.41716
1.776,0.63092
1.78,0.82692
1.784,0.98853
1.788,0.9944
1.792,0.92853
1.796,0.78034
1.8,0.54686
1.804,0.33351
1.808,0.15137
1.812,-0.04625
1.816,-0.11706
1.82,-0.14304
1.824,-0.12258
1.828,-0.08593
1.832,-0.02819
1.836,-0.00427
1.84,-0.0049
1.844,0.02283
1.848,0.02883
1.852,0.02642
1.856,0.02432
1.86,0.01155
1.864,0.02459
1.868,0.03629
1.872,-0.0107
1.876,-0.01052
1.88,-0.00229
1.884,-0.00364
1.888,0.0123
1.892,0.03193
1.896,-0.01886
1.9,0.00957
1.904,0.00152
1.908,0.02101
1.912,0.02879
1.916,0.01211
1.92,0.01568
1.924,0.019
1.928,0.02041
1.932,0.03309
1.936,0.02578
1.94,0.01656
1.944,0.00926
1.948,0.0101
1.952,0.0199
1.956,0.00445
1.96,0.00095
1.964,0.04022
1.968,0.03761
1.972,0.02307
1.976,0.05061
1.98,0.06206
1.984,0.04578
1.988,0.0759
1.992,0.05944
1.996,0.09391
2.0,0.09812
2.004,0.0994
2.008,0.12626
2.012,0.13499
2.016,0.10998
2.02,0.14617
2.024,0.12262
2.028,0.14401
2.032,0.16797
2.036,0.17814
2.04,0.18783
2.044,0.20238
2.048,0.19957
2.052,0.22595
2.056,0.24329
2.06,0.22266
2.064,0.23123
2.068,0.23958
2.072,0.2204
2.076,0.21337
2.08,0.20656
2.084,0.21613
2.088,0.18825
2.092,0.21074
2.096,0.16771
2.1,0.1932
2.104,0.14593
2.108,0.15819
2.112,0.14919
2.116,0.1548
2.12,0.13154
2.124,0.11233
2.128,0.08312
2.132,0.08003
2.136,0.06608
2.14,0.07692
2.144,0.05958
2.148,0.06064
2.152,0.0616
2.156,0.0545
2.16,0.0384
2.164,0.03996
2.168,0.02401
2.172,0.00404
2.176,0.04216
2.18,0.01634
2.184,0.01815
2.188,0.03956
2.192,-0.02951
2.196,0.00242
2.2,0.02213
2.204,0.00405
2.208,0.01851
2.212,0.01929
2.216,0.03762
2.22,0.03283
2.224,-0.01503
2.228,0.02513
2.232,0.02343
2.236,0.00288
2.24,0.01282
2.244,0.02655
2.248,-0.00529
2.252,0.00948
2.256,0.00341
2.26,0.02257
2.264,0.00023
2.268,0.02539
2.272,-0.00659
2.276,0.03093
2.28,0.01378
2.284,0.00925
2.288,0.01272
2.292,0.02123
2.296,0.00171
2.3,0.00383
2.304,0.00165
2.308,0.00931
2.312,0.01432
2.316,-0.01153
2.32,-0.00459
2.324,-0.00583
2.328,0.02833
2.332,0.0226
2.336,0.00608
2.34,-0.01684
2.344,0.03169
2.348,-0.00845
2.352,0.0193
2.356,0.00717
2.36,0.00206
2.364,0.01945
2.368,0.0115
2.372,0.0188
2.376,-0.01323
2.38,0.00973
2.384,0.03248
2.388,0.04423
2.392,0.05365
2.396,0.06697
2.4,0.05981
2.404,0.07412
2.408,0.0857
2.412,0.10831
2.416,0.09748
2.42,0.09299
2.424,0.09047
2.428,0.08566
2.432,0.05021
2.436,0.05537
2.44,0.02895
2.444,0.04069
2.448,0.03989
2.452,0.03252
2.456,0.02084
2.46,0.00232
2.464,-0.00496
2.468,0.00174
2.472,-0.01255
2.476,-0.00406
2.48,0.0217
2.484,0.00913
2.488,0.00379
2.492,-0.00757
2.496,-0.00026
2.5,-0.00827
2.504,-0.00283
2.508,-0.00761
2.512,-0.00633
2.516,-0.02076
2.52,0.01468
2.524,0.01139
2.528,-0.03268
2.532,0.00046
2.536,-0.03298
2.54,-0.08159
2.544,-0.10036
2.548,-0.12569
2.552,-0.03869
2.556,0.02599
2.56,0.23944
2.564,0.42586
2.568,0.62705
2.572,0.82006
2.576,0.981
2.58,1.00879
2.584,0.90247
2.588,0.74922
2.592,0.51363
2.596,0.27893
2.6,0.10683
2.604,-0.0622
2.608,-0.15659
2.612,-0.18289
2.616,-0.12688
2.62,-0.11238
2.624,-0.08439
2.628,-0.08325
2.632,-0.00503
2.636,-0.00261
2.64,-0.02876
2.644,0.00638
2.648,-0.01112
2.652,0.01958
2.656,0.00629
2.66,-0.00453
2.664,-0.0079
2.668,-0.03341
2.672,-0.00646
2.676,0.00779
2.68,0.01526
2.684,0.00057
2.688,0.00715
2.692,-0.00823
2.696,-0.0043
2.7,0.00751
2.704,-0.00166
2.708,-0.01808
2.712,-0.0012
2.716,0.03067
2.72,-0.02992
2.724,0.00395
2.728,-0.00339
2.732,-0.00921
2.736,0.0151
2.74,0.01562
2.744,0.03173
2.748,-0.00646
2.752,0.00438
2.756,0.01533
2.76,0.01836
2.764,0.03289
2.768,0.01149
2.772,0.0404
2.776,0.04164
2.78,0.06546
2.784,0.04467
2.788,0.07566
2.792,0.06426
2.796,0.10513
2.8,0.08838
2.804,0.11432
2.808,0.11553
2.812,0.0951
2.816,0.12151
2.82,0.16177
2.824,0.16337
2.828,0.14636
2.832,0.17995
2.836,0.17362
2.84,0.17653
2.844,0.20299
2.848,0.20315
2.852,0.22513
2.856,0.2124
2.86,0.22581
2.864,0.23462
2.868,0.20161
2.872,0.20578
2.876,0.19413
2.88,0.19156
2.884,0.17032
2.888,0.16655
2.892,0.14795
2.896,0.19005
2.9,0.13752
2.904,0.13091
2.908,0.13092
2.912,0.08673
2.916,0.09205
2.92,0.05668
2.924,0.04137
2.928,0.05977
2.932,0.06147
2.936,0.05447
2.94,0.04217
2.944,0.03034
2.948,0.01836
2.952,0.02498
2.956,-0.00563
2.96,-0.01366
2.964,-0.01435
2.968,-0.01812
2.972,0.0201
2.976,-0.02418
2.98,0.01548
2.984,-0.01567
2.988,-0.00725
2.992,-0.00244
2.996,-0.03093
3.0,-0.02318
3.004,-0.00839
3.008,-0.04416
3.012,-0.01505
3.016,-0.0187
3.02,-0.01718
3.024,-0.01969
3.028,-0.02721
3.032,-0.03278
3.036,-0.02615
3.04,-0.03723
3.044,-0.02217
3.048,-0.03589
3.052,-0.00273
3.056,0.0002
3.06,-0.01937
3.064,0.01437
3.068,0.00824
3.072,-0.03959
3.076,-0.02277
3.08,-0.00596
3.084,-0.04463
3.088,-0.01436
3.092,-0.00733
3.096,-0.03471
3.1,-0.03194
3.104,0.01054
3.108,-0.01532
3.112,-0.0158
3.116,-0.03146
3.12,-0.0303
3.124,0.0077
3.128,-0.01674
3.132,-0.03711
3.136,-0.03281
3.14,-0.01099
3.144,-0.01854
3.148,-0.04413
3.152,-0.01176
3.156,-0.01143
3.16,-0.04084
3.164,0.00132
3.168,-0.00263
3.172,-0.03436
3.176,-0.01365
3.18,-0.01851
3.184,-0.02918
3.188,-0.02119
3.192,-0.01024
3.196,-0.00873
3.2,-0.0193
3.204,-0.03416
3.208,-0.01977
3.212,-0.02409
3.216,-0.0322
3.22,-0.03108
3.224,-0.00688
3.228,-0.00536
3.232,-0.02377
3.236,-0.01846
3.24,-0.0204
3.244,-0.04268
3.248,-0.00395
3.252,0.00804
3.256,-0.01859
3.26,-0.0299
3.264,-0.02865
3.268,-0.01946
3.272,-0.02682
3.276,-0.0165
3.28,-0.02226
3.284,0.00477
3.288,-0.02611
3.292,-0.01971
3.296,0.03364
3.3,0.01439
3.304,0.03924
3.308,0.039
3.312,0.04536
3.316,0.05539
3.32,0.10558
3.324,0.09942
3.328,0.07562
3.332,0.06896
3.336,0.06906
3.34,0.06848
3.344,0.02116
3.348,0.01995
3.352,0.00608
3.356,0.00918
3.36,-0.0182
3.364,-0.01146
3.368,-0.01891
3.372,-0.02389
3.376,0.00787
3.38,-0.03593
3.384,-0.00464
3.388,-0.02997
3.392,-0.03511
3.396,-0.03997
3.4,-0.03714
3.404,-0.0389
3.408,-0.01973
3.412,-0.00277
3.416,-0.00345
3.42,-0.02505
3.424,-0.01796
3.428,-0.00305
3.432,-0.01054
3.436,-0.03817
3.44,-0.03914
3.444,-0.04904
3.448,-0.09502
3.452,-0.13824
3.456,-0.12326
3.46,-0.0795
3.464,0.02151
3.468,0.21012
3.472,0.3961
3.476,0.61527
3.48,0.80144
3.484,0.95026
3.488,0.99854
3.492,0.87129
3.496,0.7156
3.5,0.47926
3.504,0.24059
3.508,0.06313
3.512,-0.08296
3.516,-0.19029
3.52,-0.18306
3.524,-0.17892
3.528,-0.16461
3.532,-0.09175
3.536,-0.06935
3.54,-0.06115
3.544,-0.01475
3.548,-0.01695
3.552,-0.02299
3.556,-0.01345
3.56,-0.02937
3.564,-0.02952
3.568,-0.03713
3.572,-0.02829
3.576,-0.00871
3.58,-0.03729
3.584,-0.00324
3.588,-0.02617
3.592,-0.03752
3.596,-0.02258
3.6,-0.02885
3.604,-0.03949
3.608,-0.017
3.612,-0.01364
3.616,-0.04663
3.62,-0.02557
3.624,0.00574
3.628,-0.01414
3.632,-0.01883
3.636,0.00287
3.64,-0.03571
3.644,-0.00484
3.648,0.0004
3.652,-0.02206
3.656,-0.01359
3.66,-0.01517
3.664,-0.00952
3.668,-0.03978
3.672,-0.0416
3.676,-0.01554
3.68,0.00083
3.684,0.02184
3.688,0.00208
3.692,0.02766
3.696,0.06146
3.7,0.06277
3.704,0.06746
3.708,0.08119
3.712,0.11869
3.716,0.08225
3.72,0.1262
3.724,0.11704
3.728,0.11872
3.732,0.15248
3.736,0.15274
3.74,0.1316
3.744,0.14556
3.748,0.14586
3.752,0.15253
3.756,0.16863
3.76,0.21128
3.764,0.19062
3.768,0.19561
3.772,0.16805
3.776,0.19612
3.78,0.19017
3.784,0.17483
3.788,0.19707
3.792,0.14583
3.796,0.15371
3.8,0.15244
3.804,0.12241
3.808,0.09296
3.812,0.07335
3.816,0.10538
3.82,0.07684
3.824,0.08348
3.828,0.0395
3.832,0.04067
3.836,0.06534
3.84,0.03099
3.844,0.02391
3.848,0.04898
3.852,0.01571
3.856,-0.01839
3.86,0.00239
3.864,-0.0253
3.868,0.02242
3.872,-0.0082
3.876,0.01873
3.88,-0.00743
3.884,-0.05331
3.888,0.00178
3.892,-0.01161
3.896,0.00154
3.9,-0.0347
3.904,0.00152
3.908,0.01342
3.912,0.03035
3.916,0.01116
3.92,0.01277
3.924,0.06532
3.928,0.06188
3.932,0.06798
3.936,0.06532
3.94,0.08047
3.944,0.07921
3.948,0.06218
3.952,0.02811
3.956,0.0323
3.96,0.02905
3.964,0.01593
3.968,0.00435
3.972,0.00608
3.976,0.00411
3.98,-0.03584
3.984,-0.02908
3.988,-0.02907
3.992,-0.02762
3.996,-0.03671
4.0,-0.00424
4.004,-0.01735
4.008,-0.04049
4.012,-0.03922
4.016,-0.04206
4.02,-0.03856
4.024,-0.04291
4.028,-0.04122
4.032,-0.02904
4.036,-0.0388
4.04,-0.04284
4.044,-0.02059
4.048,-0.01647
4.052,-0.0273
4.056,-0.04431
4.06,-0.10731
4.064,-0.11955
4.068,-0.16454
4.072,-0.11998
4.076,-0.04732
4.08,0.1077
4.084,0.34076
4.088,0.53255
4.092,0.72194
4.096,0.89082
4.1,0.95217
4.104,0.93955
4.108,0.79614
4.112,0.57337
4.116,0.34485
4.12,0.13536
4.124,-0.03257
4.128,-0.1474
4.132,-0.20534
4.136,-0.19973
4.14,-0.15714
4.144,-0.11512
4.148,-0.06821
4.152,-0.01268
4.156,-0.02216
4.16,-0.03406
4.164,0.00851
4.168,-0.03719
4.172,-0.04536
4.176,-0.03732
4.18,-0.02707
4.184,-0.04561
4.188,-0.05718
4.192,-0.02844
4.196,-0.06123
4.2,-0.06992
4.204,-0.02815
4.208,-0.01056
4.212,-0.03107
4.216,-0.03546
4.22,-0.01161
4.224,-0.02823
4.228,-0.03085
4.232,-0.05336
4.236,0.00446
4.24,-0.04356
4.244,-0.0495
4.248,-0.05373
4.252,-0.03228
4.256,-0.04
4.26,-0.0191
4.264,-0.02761
4.268,-0.00254
4.272,-0.03028
4.276,-0.00421
4.28,0.00128
4.284,0.0136
4.288,0.00732
4.292,0.00161
4.296,0.01599
4.3,0.02745
4.304,0.0036
4.308,0.04182
4.312,0.04961
4.316,0.01649
4.32,0.05442
4.324,0.06023
4.328,0.08873
4.332,0.11664
4.336,0.09456
4.34,0.0901
4.344,0.13321
4.348,0.13006
4.352,0.15495
4.356,0.17479
4.36,0.1829
4.364,0.15909
4.368,0.17031
4.372,0.17832
4.376,0.17541
4.38,0.2128
4.384,0.19974
4.388,0.1962
4.392,0.16802
4.396,0.18712
4.4,0.1518
4.404,0.16821
4.408,0.15396
4.412,0.12962
4.416,0.15417
4.42,0.09509
4.424,0.10825
4.428,0.1207
4.432,0.08779
4.436,0.02774
4.44,0.05699
4.444,0.05445
4.448,0.05308
4.452,0.06665
4.456,0.04637
4.46,0.01274
4.464,0.03371
4.468,0.0133
4.472,-0.01247
4.476,0.00715
4.48,-0.01852
4.484,-0.034
4.488,-0.04873
4.492,-0.04192
4.496,-0.02711
4.5,-0.03111
4.504,-0.02225
4.508,-0.01934
4.512,-0.03704
4.516,-0.0369
4.52,-0.01938
4.524,-0.01462
4.528,-0.00888
4.532,0.00028
4.536,-0.00806
4.54,-0.01028
4.544,-0.01076
4.548,0.03487
4.552,0.02513
4.556,0.03835
4.56,0.06327
4.564,0.05215
4.568,0.05119
4.572,0.04976
4.576,0.07374
4.58,0.07266
4.584,0.05272
4.588,0.04769
4.592,0.0556
4.596,0.02747
4.6,0.00863
4.604,0.02292
4.608,-0.00864
4.612,-0.00157
4.616,-0.04382
4.62,-0.04742
4.624,-0.03153
4.628,-0.00991
4.632,-0.02129
4.636,-0.02713
4.64,-0.03255
4.644,-0.01911
4.648,-0.03989
4.652,-0.02555
4.656,-0.03495
4.66,-0.02581
4.664,-0.01638
4.668,-0.0143
4.672,-0.01972
4.676,-0.02921
4.68,-0.03034
4.684,-0.03995
4.688,-0.03614
4.692,-0.05516
4.696,-0.11527
4.7,-0.13236
4.704,-0.1266
4.708,-0.08343
4.712,0.00018
4.716,0.16473
4.72,0.3883
4.724,0.60398
4.728,0.80572
4.732,0.92296
4.736,0.97353
4.74,0.88601
4.744,0.73508
4.748,0.52274
4.752,0.28162
4.756,0.07054
4.76,-0.08938
4.764,-0.13406
4.768,-0.20908
4.772,-0.18275
4.776,-0.15929
4.78,-0.0945
4.784,-0.07407
4.788,-0.04287
4.792,-0.03661
4.796,-0.02741
4.8,-0.00222
4.804,-0.01654
4.808,-0.01805
4.812,-0.00624
4.816,-0.04162
4.82,-0.02984
4.824,-0.0221
4.828,-0.02099
4.832,-0.02144
4.836,-0.00827
4.84,-0.02295
4.844,-0.0452
4.848,-0.042
4.852,-0.00875
4.856,0.00452
4.86,-0.02589
4.864,-0.03914
4.868,-0.03513
4.872,-0.03761
4.876,0.00013
4.88,-0.01309
4.884,-0.0127
4.888,-0.0572
4.892,-0.03042
4.896,-0.01783
4.9,0.00661
4.904,-0.03449
4.908,-0.04035
4.912,-0.01207
4.916,-0.0005
4.92,0.01837
4.924,0.00417
4.928,0.02442
4.932,0.01878
4.936,0.00845
4.94,0.05554
4.944,0.05028
4.948,0.03326
4.952,0.05507
4.956,0.06085
4.96,0.07979
4.964,0.10215
4.968,0.11969
4.972,0.13342
4.976,0.11392
4.98,0.1694
4.984,0.14465
4.988,0.18552
4.992,0.15149
4.996,0.18161
5.0,0.22065
5.004,0.16997
5.008,0.20834
5.012,0.17567
5.016,0.18082
5.02,0.2263
5.024,0.18572
5.028,0.17589
5.032,0.17592
5.036,0.15877
5.04,0.19078
5.044,0.15295
5.048,0.15431
5.052,0.16058
5.056,0.10185
5.06,0.10063
5.064,0.10688
5.068,0.09997
5.072,0.05926
5.076,0.06751
5.08,0.04706
5.084,0.05186
5.088,0.02932
5.092,0.04306
5.096,0.03665
5.1,0.00675
5.104,0.01022
5.108,-0.0107
5.112,-0.03259
5.116,-0.02492
5.12,-0.02974
5.124,0.00151
5.128,-0.00765
5.132,-0.0038
5.136,-0.03091
5.14,-0.00641
5.144,-0.02608
5.148,-0.02947
5.152,-0.02955
5.156,-0.00753
5.16,-0.0077
5.164,-0.00552
5.168,-0.03911
5.172,-0.03592
5.176,-0.00631
5.18,-0.04452
5.184,-0.00993
5.188,0.00426
5.192,-0.01548
5.196,-0.03505
5.2,-0.02054
5.204,-0.00727
5.208,-0.0459
5.212,-0.02386
5.216,-0.00121
5.22,-0.00671
5.224,-0.03105
5.228,-0.03216
5.232,-0.01706
5.236,-0.00262
5.24,0.00335
5.244,-0.01364
5.248,-0.01386
5.252,-0.02024
5.256,-0.01103
5.26,-0.02164
5.264,0.00182
5.268,-0.03337
5.272,-0.03349
5.276,-0.03054
5.28,-0.02756
5.284,-0.0111
5.288,-0.01049
5.292,-0.02883
5.296,-0.00776
5.3,-0.0033
5.304,0.007
5.308,-0.00594
5.312,0.02003
5.316,0.01129
5.32,0.02998
5.324,0.06323
5.328,0.05173
5.332,0.06439
5.336,0.12103
5.34,0.05444
5.344,0.08944
5.348,0.09036
5.352,0.11405
5.356,0.0484
5.36,0.05645
5.364,0.03881
5.368,0.02599
5.372,0.03006
5.376,0.01572
5.38,0.00595
5.384,-0.01736
5.388,-0.0017
5.392,-0.01105
5.396,0.00226
5.4,-0.0063
5.404,-0.02664
5.408,-0.00441
5.412,-0.02844
5.416,-0.01726
5.42,0.03501
5.424,-0.01361
5.428,-0.00565
5.432,-0.03689
5.436,-0.00192
5.44,-0.02697
5.444,-0.02412
5.448,-0.02286
5.452,-0.04284
5.456,-0.03311
5.46,-0.05696
5.464,-0.08764
5.468,-0.09842
5.472,-0.10523
5.476,-0.07738
5.48,0.02417
5.484,0.15448
5.488,0.38245
5.492,0.60351
5.496,0.80369
5.5,0.9551
5.504,1.00044
5.508,0.95996
5.512,0.7742
5.516,0.54656
5.52,0.30527
5.524,0.10075
5.528,-0.03473
5.532,-0.13378
5.536,-0.16698
5.54,-0.15532
5.544,-0.11166
5.548,-0.09928
5.552,-0.06151
5.556,0.01107
5.56,-0.0369
5.564,0.01053
5.568,-0.00906
5.572,-0.03639
5.576,-0.01167
5.58,-0.0145
5.584,-0.015
5.588,-0.02856
5.592,-0.02332
5.596,0.02644
5.6,-0.00992
5.604,0.0053
5.608,-0.01151
5.612,-0.01761
5.616,-0.01726
5.62,-0.00396
5.624,-0.00905
5.628,-0.01511
5.632,0.00781
5.636,-7e-05
5.64,-0.00072
5.644,-0.00558
5.648,-0.00584
5.652,0.00888
5.656,0.00101
5.66,-0.00422
5.664,0.01091
5.668,0.02132
5.672,-0.02614
5.676,0.01884
5.68,0.01074
5.684,0.02834
5.688,0.02074
5.692,0.01774
5.696,0.01759
5.7,0.0462
5.704,0.03582
5.708,0.0635
5.712,0.09049
5.716,0.06508
5.72,0.07196
5.724,0.04903
5.728,0.10998
5.732,0.10117
5.736,0.1334
5.74,0.13602
5.744,0.12474
5.748,0.17981
5.752,0.177
5.756,0.17472
5.76,0.19216
5.764,0.20181
5.768,0.19592
5.772,0.22063
5.776,0.19945
5.78,0.21712
5.784,0.24254
5.788,0.23588
5.792,0.19511
5.796,0.18593
5.8,0.20798
5.804,0.18449
5.808,0.17334
5.812,0.16721
5.816,0.18166
5.82,0.15162
5.824,0.12038
5.828,0.14976
5.832,0.13015
5.836,0.11743
5.84,0.12113
5.844,0.0891
5.848,0.06341
5.852,0.05847
5.856,0.07278
5.86,0.06821
5.864,0.01906
5.868,0.00887
5.872,0.02422
5.876,0.0224
5.88,0.02784
5.884,0.01618
5.888,0.0152
5.892,-0.01995
5.896,0.00772
5.9,-0.00697
5.904,0.01225
5.908,0.01659
5.912,-0.00269
5.916,0.03802
5.92,-0.01791
5.924,0.02917
5.928,0.01786
5.932,-0.02679
5.936,0.05815
5.94,0.04687
5.944,0.03886
5.948,0.06187
5.952,0.04901
5.956,0.08221
5.96,0.08862
5.964,0.1007
5.968,0.11055
5.972,0.11845
5.976,0.08414
5.98,0.10483
5.984,0.06691
5.988,0.05585
5.992,0.04879
5.996,0.05885
6.0,0.03934
6.004,0.01019
6.008,0.00233
6.012,0.01616
6.016,0.00852
6.02,-0.00754
6.024,0.00728
6.028,0.0281
6.032,0.03068
6.036,0.01348
6.04,0.01089
6.044,0.03871
6.048,0.01464
6.052,0.00545
6.056,0.00726
6.06,0.00125
6.064,-0.00268
6.068,0.01466
6.072,-0.01963
6.076,0.03472
6.08,0.00774
6.084,-0.01095
6.088,-0.0547
6.092,-0.07671
6.096,-0.11679
6.1,-0.0796
6.104,-0.03471
6.108,0.07792
6.112,0.25518
6.116,0.46946
6.12,0.72904
6.124,0.89192
6.128,0.98834
6.132,1.022
6.136,0.90704
6.14,0.7138
6.144,0.46893
6.148,0.24349
6.152,0.06768
6.156,-0.05998
6.16,-0.15489
6.164,-0.17392
6.168,-0.11737
6.172,-0.09771
6.176,-0.05875
6.18,0.00213
6.184,-0.01728
6.188,0.00779
6.192,-0.00128
6.196,0.0287
6.2,0.02314
6.204,0.01392
6.208,-0.00281
6.212,-0.00684
6.216,-0.02568
6.22,-0.00423
6.224,0.02208
6.228,-0.00783
6.232,0.00017
6.236,0.00514
6.24,-0.01059
6.244,0.02888
6.248,0.01541
6.252,0.03052
6.256,0.01913
6.26,0.01793
6.264,-0.00591
6.268,0.00468
6.272,0.02606
6.276,0.00433
6.28,0.028
6.284,0.0159
6.288,0.02814
6.292,0.02485
6.296,0.02393
6.3,0.01934
6.304,0.03101
6.308,0.037
6.312,0.03907
6.316,0.03722
6.32,0.05084
6.324,0.02304
6.328,0.03503
6.332,0.07581
6.336,0.07997
6.34,0.07528
6.344,0.11144
6.348,0.13661
6.352,0.09786
6.356,0.11168
6.36,0.11705
6.364,0.13863
6.368,0.16233
6.372,0.19087
6.376,0.15668
6.38,0.18691
6.384,0.18453
6.388,0.2073
6.392,0.22494
6.396,0.22216
6.4,0.23681
6.404,0.24532
6.408,0.22387
6.412,0.24316
6.416,0.23933
6.42,0.20633
6.424,0.2151
6.428,0.24126
6.432,0.19926
6.436,0.20321
6.44,0.2091
6.444,0.18687
6.448,0.13814
6.452,0.1386
6.456,0.14953
6.46,0.14542
6.464,0.11123
6.468,0.08785
6.472,0.10409
6.476,0.10184
6.48,0.08895
6.484,0.08631
6.488,0.07384
6.492,0.04756
6.496,0.0693
6.5,0.03576
6.504,0.03081
6.508,0.05344
6.512,0.03837
6.516,0.05347
6.52,0.00601
6.524,0.01788
6.528,0.01555
6.532,0.02796
6.536,0.00323
6.54,0.0059
6.544,0.03856
6.548,0.00846
6.552,0.03874
6.556,0.04065
6.56,0.04865
6.564,0.07294
6.568,0.05751
6.572,0.04884
6.576,0.11499
6.58,0.06891
6.584,0.11245
6.588,0.13319
6.592,0.09832
6.596,0.11712
6.6,0.12526
6.604,0.11106
6.608,0.09587
6.612,0.11559
6.616,0.08471
6.62,0.05886
6.624,0.07496
6.628,0.04587
6.632,0.03768
6.636,0.02216
6.64,0.0243
6.644,0.02502
6.648,0.01983
6.652,0.00493
6.656,0.04475
6.66,0.01989
6.664,0.04365
6.668,0.03722
6.672,0.03588
6.676,-0.00201
6.68,0.03836
6.684,0.04837
6.688,0.03906
6.692,0.0265
6.696,0.01788
6.7,0.03004
6.704,0.02118
6.708,-0.00305
6.712,-0.00414
6.716,-0.08639
6.72,-0.06802
6.724,-0.11186
6.728,-0.05661
6.732,0.06195
6.736,0.20807
6.74,0.43261
6.744,0.61953
6.748,0.83867
6.752,0.9664
6.756,0.98955
6.76,0.95068
6.764,0.79225
6.768,0.61069
6.772,0.36699
6.776,0.15049
6.78,-0.02215
6.784,-0.09317
6.788,-0.14406
6.792,-0.12056
6.796,-0.08006
6.8,-0.0769
6.804,-0.00031
6.808,-0.00051
6.812,-0.00054
6.816,0.0224
6.82,0.03824
6.824,0.02807
6.828,0.01548
6.832,0.03361
6.836,0.03749
6.84,0.0337
6.844,0.04855
6.848,0.02878
6.852,-0.00679
6.856,0.01009
6.86,0.04703
6.864,0.0488
6.868,-0.01022
6.872,0.02558
6.876,0.05984
6.88,0.02184
6.884,0.02903
6.888,0.0136
6.892,0.02932
6.896,0.02909
6.9,0.03528
6.904,0.03934
6.908,0.05331
6.912,0.02802
6.916,0.03363
6.92,0.03691
6.924,0.02711
6.928,0.01074
6.932,0.03896
6.936,0.05497
6.94,0.06703
6.944,0.06552
6.948,0.04267
6.952,0.05791
6.956,0.07507
6.96,0.07565
6.964,0.10679
6.968,0.05774
6.972,0.11803
6.976,0.13272
6.98,0.12484
6.984,0.1283
6.988,0.17388
6.992,0.15043
6.996,0.16628
7.0,0.19441
7.004,0.1762
7.008,0.20287
7.012,0.20632
7.016,0.2298
7.02,0.24078
7.024,0.25127
7.028,0.2382
7.032,0.24294
7.036,0.23262
7.04,0.2561
7.044,0.26683
7.048,0.26739
7.052,0.23172
7.056,0.23688
7.06,0.24175
7.064,0.22957
7.068,0.22949
7.072,0.23004
7.076,0.2138
7.08,0.17989
7.084,0.13753
7.088,0.14797
7.092,0.12591
7.096,0.11546
7.1,0.11425
7.104,0.09301
7.108,0.09428
7.112,0.06234
7.116,0.07999
7.12,0.07331
7.124,0.05872
7.128,0.06045
7.132,0.05601
7.136,0.06614
7.14,0.02865
7.144,0.04523
7.148,0.02691
7.152,0.03854
7.156,0.03536
7.16,0.06418
7.164,0.03812
7.168,0.0252
7.172,0.03728
7.176,0.03074
7.18,0.00694
7.184,0.03933
7.188,0.04777
7.192,0.01038
7.196,0.00994
7.2,0.07564
7.204,0.04258
7.208,0.03707
7.212,0.0316
7.216,0.00594
7.22,0.0114
7.224,0.0256
7.228,0.02673
7.232,0.03547
7.236,0.02253
7.24,0.01091
7.244,0.03299
7.248,0.02447
7.252,0.02209
7.256,0.04293
7.26,0.02506
7.264,0.02171
7.268,0.02889
7.272,0.01764
7.276,0.02247
7.28,0.01862
7.284,0.01787
7.288,0.03272
7.292,0.02108
7.296,0.00756
7.3,0.0248
7.304,0.02967
7.308,0.04462
7.312,0.04016
7.316,0.02234
7.32,0.05054
7.324,0.03163
7.328,0.04834
7.332,0.03867
7.336,0.05725
7.34,0.0329
7.344,0.04159
7.348,0.03408
7.352,0.03052
7.356,0.03818
7.36,0.0234
7.364,0.01219
7.368,0.05241
7.372,0.07072
7.376,0.05589
7.38,0.05608
7.384,0.08332
7.388,0.06764
7.392,0.11468
7.396,0.11018
7.4,0.12576
7.404,0.11316
7.408,0.1199
7.412,0.10395
7.416,0.10213
7.42,0.1279
7.424,0.1155
7.428,0.06486
7.432,0.07728
7.436,0.07521
7.44,0.05514
7.444,0.04672
7.448,0.06608
7.452,0.01873
7.456,0.05175
7.46,0.05204
7.464,0.0213
7.468,0.03923
7.472,0.07076
7.476,0.04886
7.48,0.03258
7.484,0.01215
7.488,0.0571
7.492,0.04655
7.496,0.02042
7.5,0.03814
7.504,0.04351
7.508,0.0291
7.512,0.02946
7.516,0.02248
7.52,-0.00324
7.524,-0.01898
7.528,-0.04466
7.532,-0.08674
7.536,-0.10318
7.54,-0.0292
7.544,0.09745
7.548,0.234
7.552,0.46841
7.556,0.68715
7.56,0.86675
7.564,1.00251
7.568,1.02418
7.572,0.94192
7.576,0.75534
7.58,0.54881
7.584,0.30811
7.588,0.12261
7.592,-0.044
7.596,-0.11586
7.6,-0.12558
7.604,-0.10845
7.608,-0.08994
7.612,-0.03769
7.616,-0.00285
7.62,0.03336
7.624,0.0175
7.628,0.02116
7.632,0.03453
7.636,0.04375
7.64,0.04758
7.644,0.01822
7.648,0.02137
7.652,0.0363
7.656,0.02337
7.66,0.02301
7.664,0.02578
7.668,0.02883
7.672,0.00749
7.676,0.02643
7.68,0.04613
7.684,0.0478
7.688,0.02983
7.692,0.03788
7.696,0.01164
7.7,0.02262
7.704,0.0475
7.708,0.04331
7.712,0.04225
7.716,0.00703
7.72,0.02728
7.724,0.05044
7.728,0.04993
7.732,0.04791
7.736,0.0378
7.74,0.0506
7.744,0.0551
7.748,0.04925
7.752,0.02233
7.756,0.06154
7.76,0.06786
7.764,0.0947
7.768,0.08176
7.772,0.06702
7.776,0.10235
7.78,0.10012
7.784,0.11658
7.788,0.15324
7.792,0.15683
7.796,0.16218
7.8,0.15248
7.804,0.16218
7.808,0.21251
7.812,0.18905
7.816,0.20219
7.82,0.2173
7.824,0.24184
7.828,0.24042
7.832,0.22575
7.836,0.24492
7.84,0.23783
7.844,0.25111
7.848,0.28118
7.852,0.2725
7.856,0.25369
7.86,0.22871
7.864,0.22574
7.868,0.2153
7.872,0.20351
7.876,0.21183
7.88,0.19168
7.884,0.16594
7.888,0.15413
7.892,0.16268
7.896,0.1542
7.9,0.14301
7.904,0.13488
7.908,0.08882
7.912,0.11488
7.916,0.07385
7.92,0.07981
7.924,0.05637
7.928,0.06671
7.932,0.07985
7.936,0.07282
7.94,0.054
7.944,0.06087
7.948,0.05145
7.952,0.04293
7.956,0.03232
7.96,0.06838
7.964,0.01107
7.968,0.03981
7.972,0.01593
7.976,0.03092
7.98,0.04253
7.984,0.05675
7.988,0.03869
7.992,0.02691
7.996,0.02315
8.0,0.03677
8.004,0.02149
8.008,0.04355
8.012,0.04087
8.016,0.02461
8.02,0.03107
8.024,0.04439
8.028,0.0273
8.032,0.02977
8.036,0.05139
8.04,0.01496
8.044,0.02644
8.048,-0.00439
8.052,0.02509
8.056,0.04938
8.06,0.02537
8.064,0.03072
8.068,0.00797
8.072,0.0021
8.076,-0.00571
8.08,0.05388
8.084,0.04154
8.088,0.01304
8.092,0.00483
8.096,0.03281
8.1,0.0407
8.104,0.04549
8.108,0.04106
8.112,0.01199
8.116,0.03396
8.12,0.04312
8.124,0.05975
8.128,0.06208
8.132,0.07096
8.136,0.08365
8.14,0.12735
8.144,0.12511
8.148,0.1303
8.152,0.13823
8.156,0.13705
8.16,0.1036
8.164,0.10951
8.168,0.10263
8.172,0.0851
8.176,0.10716
8.18,0.07272
8.184,0.05406
8.188,0.04743
8.192,0.03567
8.196,0.04296
8.2,0.06971
8.204,0.05032
8.208,0.02248
8.212,0.01679
8.216,0.01608
8.22,0.02246
8.224,0.02374
8.228,0.02979
8.232,0.01663
8.236,0.01955
8.24,0.01329
8.244,0.04748
8.248,0.02632
8.252,0.00901
8.256,0.01533
8.26,-0.00028
8.264,0.03085
8.268,0.04721
8.272,-0.03338
8.276,-0.05664
8.28,-0.11374
8.284,-0.0985
8.288,-0.0077
8.292,0.07199
8.296,0.25949
8.3,0.46777
8.304,0.66705
8.308,0.87459
8.312,0.98537
8.316,1.0122
8.32,0.95181
8.324,0.76552
8.328,0.52697
8.332,0.30803
8.336,0.10907
8.34,-0.04929
8.344,-0.11579
8.348,-0.12738
8.352,-0.15038
8.356,-0.07687
8.36,-0.03853
8.364,-0.0041
8.368,0.03092
8.372,0.02556
8.376,0.00802
8.38,0.00465
8.384,0.01942
8.388,0.03001
8.392,0.0146
8.396,0.00703
8.4,0.00078
8.404,0.02193
8.408,0.01041
8.412,0.01032
8.416,0.00825
8.42,0.02068
8.424,0.0077
8.428,0.00995
8.432,0.02754
8.436,0.01559
8.44,-0.0014
8.444,0.03024
8.448,0.00815
8.452,0.043
8.456,0.01492
8.46,-0.00175
8.464,0.00739
8.468,0.03839
8.472,-0.00153
8.476,0.01362
8.48,0.05649
8.484,0.01436
8.488,0.01637
8.492,0.02795
8.496,0.03616
8.5,0.03883
8.504,0.06514
8.508,0.04088
8.512,0.0746
8.516,0.06333
8.52,0.07218
8.524,0.12405
8.528,0.10908
8.532,0.10804
8.536,0.10992
8.54,0.11913
8.544,0.13456
8.548,0.14241
8.552,0.17461
8.556,0.197
8.56,0.18059
8.564,0.2444
8.568,0.20629
8.572,0.20304
8.576,0.21731
8.58,0.23328
8.584,0.22064
8.588,0.24466
8.592,0.24838
8.596,0.26013
8.6,0.24792
8.604,0.20005
8.608,0.19697
8.612,0.24595
8.616,0.2027
8.62,0.21031
8.624,0.16941
8.628,0.15645
8.632,0.19529
8.636,0.17
8.64,0.13688
8.644,0.13098
8.648,0.12114
8.652,0.12518
8.656,0.11018
8.66,0.09326
8.664,0.06808
8.668,0.06922
8.672,0.05257
8.676,0.04961
8.68,0.04465
8.684,0.0393
8.688,0.05393
8.692,0.03126
8.696,0.02979
8.7,0.0582
8.704,0.01352
8.708,0.0
8.712,-0.01187
8.716,0.04739
8.72,0.04621
8.724,0.00224
8.728,0.04997
8.732,0.00909
8.736,0.02529
8.74,0.00107
8.744,-0.00305
8.748,0.03507
8.752,0.05078
8.756,0.02407
8.76,0.01344
8.764,0.01276
8.768,0.01777
8.772,0.01756
8.776,0.03968
8.78,0.01248
8.784,0.02822
8.788,0.04291
8.792,0.05561
8.796,0.07125
8.8,0.06511
8.804,0.08038
8.808,0.09409
8.812,0.0834
8.816,0.11126
8.82,0.13164
8.824,0.09694
8.828,0.11926
8.832,0.08574
8.836,0.07095
8.84,0.10166
8.844,0.07336
8.848,0.03518
8.852,0.04578
8.856,0.02098
8.86,0.02868
8.864,0.03527
8.868,0.01774
8.872,0.00869
8.876,-0.00346
8.88,0.00805
8.884,0.04049
8.888,0.00174
8.892,-0.02812
8.896,0.02378
8.9,-0.00539
8.904,0.02289
8.908,0.01209
8.912,0.02527
8.916,0.03018
8.92,0.01254
8.924,-0.01105
8.928,0.0179
8.932,0.00208
8.936,-0.01659
8.94,-0.08571
8.944,-0.08427
8.948,-0.11984
8.952,-0.0956
8.956,-0.02181
8.96,0.14422
8.964,0.31512
8.968,0.52493
8.972,0.73453
8.976,0.92582
8.98,0.99268
8.984,0.98322
8.988,0.8488
8.992,0.641
8.996,0.39073
9.0,0.18955
9.004,0.00023
9.008,-0.0897
9.012,-0.1441
9.016,-0.1653
9.02,-0.10701
9.024,-0.06385
9.028,-0.05113
9.032,-0.0088
9.036,-0.0103
9.04,-0.00808
9.044,0.02651
9.048,0.00782
9.052,0.03687
9.056,0.01438
9.06,-0.03043
9.064,0.00029
9.068,0.0136
9.072,0.02157
9.076,-0.00877
9.08,-0.00687
9.084,0.02046
9.088,0.00851
9.092,-0.0056
9.096,-0.02449
9.1,-0.00382
9.104,-0.00671
9.108,-0.00154
9.112,-0.03168
9.116,-0.00539
9.12,0.01588
9.124,0.0049
9.128,-0.0065
9.132,0.0088
9.136,-0.01239
9.14,0.02834
9.144,0.00067
9.148,0.01238
9.152,0.01975
9.156,0.0029
9.16,0.006
9.164,0.02966
9.168,0.02314
9.172,0.02783
9.176,0.0212
9.18,0.04372
9.184,0.07324
9.188,0.06067
9.192,0.06468
9.196,0.08052
9.2,0.10345
9.204,0.08136
9.208,0.0974
9.212,0.13345
9.216,0.15608
9.22,0.14718
9.224,0.14562
9.228,0.16673
9.232,0.19328
9.236,0.16622
9.24,0.21321
9.244,0.21866
9.248,0.19399
9.252,0.20913
9.256,0.21634
9.26,0.19989
9.264,0.20605
9.268,0.22797
9.272,0.19184
9.276,0.21639
9.28,0.18957
9.284,0.19449
9.288,0.16982
9.292,0.1606
9.296,0.15528
9.3,0.15032
9.304,0.12795
9.308,0.11404
9.312,0.12088
9.316,0.09792
9.32,0.10737
9.324,0.07949
9.328,0.08082
9.332,0.04878
9.336,0.07944
9.34,0.03461
9.344,0.05072
9.348,0.02876
9.352,-0.00162
9.356,0.00635
9.36,0.02041
9.364,-0.00114
9.368,-0.00376
9.372,-0.00478
9.376,-0.01638
9.38,-0.0109
9.384,0.02888
9.388,0.02691
9.392,0.00031
9.396,-0.0107
9.4,-0.01804
9.404,-0.0105
9.408,-0.01996
9.412,-0.00591
9.416,-0.02394
9.42,-0.01236
9.424,0.01216
9.428,-0.0103
9.432,-0.00016
9.436,-0.01104
9.44,-0.01064
9.444,0.00325
9.448,0.01164
9.452,-0.02238
9.456,0.00778
9.46,-0.01044
9.464,-0.02755
9.468,-0.00959
9.472,-0.01087
9.476,-0.01047
9.48,-0.00146
9.484,-0.01936
9.488,0.01431
9.492,0.0066
9.496,0.03331
9.5,-0.04609
9.504,0.00849
9.508,-0.02492
9.512,-0.00086
9.516,-0.00906
9.52,0.00687
9.524,-0.00557
9.528,-0.01433
9.532,-0.00123
9.536,-0.0079
9.54,-0.00928
9.544,0.02046
9.548,0.06668
9.552,0.03751
9.556,0.04869
9.56,0.07816
9.564,0.09275
9.568,0.08247
9.572,0.07052
9.576,0.07914
9.58,0.07146
9.584,0.0915
9.588,0.07794
9.592,0.07093
9.596,0.03382
9.6,0.0213
9.604,0.06053
9.608,0.03111
9.612,0.01213
9.616,0.00092
9.62,-0.02066
9.624,-0.00877
9.628,0.01167
9.632,-0.01075
9.636,-0.03215
9.64,-0.0133
9.644,-0.03169
9.648,-0.04607
9.652,0.01721
9.656,-0.03505
9.66,0.00756
9.664,-0.02172
9.668,-0.01803
9.672,-0.00875
9.676,-0.02385
9.68,0.00639
9.684,0.0094
9.688,-0.01009
9.692,-0.02412
9.696,-0.07499
9.7,-0.12373
9.704,-0.11051
9.708,-0.12447
9.712,-0.03643
9.716,0.10133
9.72,0.27275
9.724,0.53034
9.728,0.71549
9.732,0.88621
9.736,0.9589
9.74,0.94877
9.744,0.84073
9.748,0.62812
9.752,0.42658
9.756,0.20254
9.76,0.01303
9.764,-0.10089
9.768,-0.17679
9.772,-0.16289
9.776,-0.12843
9.78,-0.1062
9.784,-0.04443
9.788,-0.05636
9.792,-0.04156
9.796,-0.03696
9.8,-0.00698
9.804,-0.01906
9.808,-0.02583
9.812,-0.01562
9.816,-0.00314
9.82,0.00264
9.824,-0.00575
9.828,-0.01623
9.832,-0.00694
9.836,0.00537
9.84,-0.03953
9.844,-0.02548
9.848,-0.02618
9.852,-0.01472
9.856,-0.02741
9.86,-0.00614
9.864,-0.02371
9.868,-0.01316
9.872,-0.0174
9.876,-0.02731
9.88,-0.01088
9.884,-0.01941
9.888,0.00887
9.892,-0.00712
9.896,-0.03152
9.9,-0.01357
9.904,0.00141
9.908,-0.01654
9.912,0.01909
9.916,0.00344
9.92,0.02166
9.924,0.00192
9.928,0.01807
9.932,0.00313
9.936,0.05478
9.94,0.00383
9.944,0.01577
9.948,0.05579
9.952,0.06524
9.956,0.05824
9.96,0.05573
9.964,0.1113
9.968,0.11184
9.972,0.11837
9.976,0.11422
9.98,0.12187
9.984,0.14682
9.988,0.14119
9.992,0.15968
9.996,0.19499
