t_seg,ecg_mV
0.0,-0.01169
0.004,-0.02427
0.008,-0.03637
0.012,-0.02002
0.016,-0.04168
0.02,-0.00977
0.024,-0.0046
0.028,-0.01972
0.032,-0.00895
0.036,-0.00434
0.04,-0.02563
0.044,-0.04227
0.048,-0.01637
0.052,-0.04422
0.056,-0.01498
0.06,-0.04394
0.064,-0.0563
0.068,-0.02657
0.072,-0.03232
0.076,-0.02255
0.08,0.01701
0.084,-0.04074
0.088,-0.03118
0.092,-0.04027
0.096,-0.01681
0.1,-0.01959
0.104,-0.02188
0.108,-0.00226
0.112,-0.04951
0.116,-0.02599
0.12,-0.04246
0.124,-0.03711
0.128,-0.04365
0.132,-0.01548
0.136,-0.06429
0.14,-0.0288
0.144,-0.0545
0.148,-0.00055
0.152,-0.04968
0.156,-0.02098
0.16,-0.03356
0.164,-0.0429
0.168,0.00722
0.172,-0.04957
0.176,-0.05916
0.18,-0.021
0.184,-0.05477
0.188,-0.02421
0.192,-0.0197
0.196,-0.03316
0.2,-0.02053
0.204,-0.04495
0.208,-0.00949
0.212,-0.02698
0.216,-0.02854
0.22,-0.03187
0.224,-0.02704
0.228,-0.01606
0.232,-0.01592
0.236,-0.02751
0.24,-0.03097
0.244,-0.01335
0.248,-0.00937
0.252,-0.03176
0.256,-0.03717
0.26,-0.00525
0.264,-0.02727
0.268,-0.03036
0.272,-0.02338
0.276,-0.04517
0.28,-0.03855
0.284,-0.00457
0.288,-0.00952
0.292,-0.01603
0.296,-0.02418
0.3,0.00689
0.304,0.00815
0.308,0.00687
0.312,0.03155
0.316,0.04494
0.32,0.05239
0.324,0.06051
0.328,0.0698
0.332,0.07838
0.336,0.07857
0.34,0.01951
0.344,0.07122
0.348,0.02001
0.352,0.05497
0.356,0.03227
0.36,-0.01043
0.364,0.00259
0.368,-0.00802
0.372,-0.00174
0.376,-0.00085
0.38,-0.01227
0.384,-0.04379
0.388,-0.03578
0.392,-0.01915
0.396,-0.00643
0.4,-0.02218
0.404,-0.03942
0.408,-0.03687
0.412,-0.05308
0.416,-0.0103
0.42,-0.01752
0.424,-0.04664
0.428,-0.03279
0.432,-0.03908
0.436,-0.01354
0.44,-0.04178
0.444,-0.08217
0.448,-0.07906
0.452,-0.10502
0.456,-0.16381
0.46,-0.12074
0.464,-0.06502
0.468,0.11362
0.472,0.28166
0.476,0.49054
0.48,0.72097
0.484,0.87577
0.488,0.97026
0.492,0.91998
0.496,0.82198
0.5,0.61571
0.504,0.38172
0.508,0.15034
0.512,-0.02867
0.516,-0.14392
0.52,-0.20375
0.524,-0.2013
0.528,-0.1521
0.532,-0.12209
0.536,-0.06701
0.54,-0.06045
0.544,-0.01709
0.548,-0.03137
0.552,-0.04238
0.556,-0.04228
0.56,-0.03808
0.564,-0.03422
0.568,-0.0364
0.572,-0.01339
0.576,-0.0033
0.58,-0.02149
0.584,-0.03999
0.588,-0.04841
0.592,-0.01594
0.596,-0.01119
0.6,-0.04465
0.604,-0.02123
0.608,-0.03955
0.612,-0.00301
0.616,-0.04575
0.62,-0.02779
0.624,-0.02513
0.628,-0.06409
0.632,-0.01513
0.636,-0.01633
0.64,-0.01584
0.644,1e-05
0.648,-0.0133
0.652,-0.03045
0.656,-0.02851
0.66,-0.02028
0.664,-0.00408
0.668,-0.00939
0.672,-0.00735
0.676,-0.03258
0.68,0.00531
0.684,-0.0114
0.688,0.02833
0.692,0.02811
0.696,0.02824
0.7,0.05971
0.704,0.04862
0.708,0.04366
0.712,0.04884
0.716,0.09312
0.72,0.09019
0.724,0.1402
0.728,0.11854
0.732,0.12521
0.736,0.12409
0.74,0.13314
0.744,0.18588
0.748,0.17207
0.752,0.17168
0.756,0.19451
0.76,0.17184
0.764,0.20146
0.768,0.21147
0.772,0.19259
0.776,0.17205
0.78,0.16886
0.784,0.18744
0.788,0.1677
0.792,0.13149
0.796,0.18213
0.8,0.16552
0.804,0.15151
0.808,0.11567
0.812,0.11636
0.816,0.11481
0.82,0.08703
0.824,0.10516
0.828,0.0578
0.832,0.061
0.836,0.05944
0.84,0.05154
0.844,0.00387
0.848,0.02359
0.852,-0.01296
0.856,0.01429
0.86,-0.00651
0.864,-0.02735
0.868,-0.01552
0.872,-0.03912
0.876,-0.00668
0.88,0.005
0.884,-0.03508
0.888,-0.01739
0.892,-0.04018
0.896,-0.04715
0.9,-0.01863
0.904,-0.02685
0.908,-0.01801
0.912,-0.0342
0.916,-0.01851
0.92,-0.07033
0.924,-0.00145
0.928,-0.03878
0.932,-0.04483
0.936,-3e-05
0.94,-0.05309
0.944,-0.02766
0.948,-0.02889
0.952,-0.00528
0.956,-0.0506
0.96,-0.0366
0.964,-0.01909
0.968,-0.01464
0.972,-0.03541
0.976,-0.02477
0.98,-0.03743
0.984,-0.03886
0.988,-0.02862
0.992,-0.02021
0.996,-0.01409
1.0,-0.06116
1.004,-0.02558
1.008,-0.02044
1.012,-0.03026
1.016,-0.02123
1.02,-0.03581
1.024,0.00017
1.028,-0.04991
1.032,-0.00524
1.036,-0.04172
1.04,-0.03434
1.044,-0.017
1.048,-0.02977
1.052,-0.01948
1.056,-0.00213
1.06,-0.02597
1.064,-0.02586
1.068,-0.03101
1.072,-0.00649
1.076,-0.0078
1.08,-0.03343
1.084,-0.02492
1.088,-0.02927
1.092,-0.03631
1.096,-0.03572
1.1,-0.00406
1.104,-0.00666
1.108,-0.01063
1.112,-0.04905
1.116,-0.01988
1.12,-0.01898
1.124,-0.02531
1.128,-0.02737
1.132,-0.01369
1.136,-0.0188
1.14,-0.01374
1.144,-0.02368
1.148,-0.0003
1.152,-0.01912
1.156,-0.0229
1.16,0.00977
1.164,-0.01383
1.168,-0.00511
1.172,-0.00816
1.176,-0.03112
1.18,-0.00527
1.184,0.01221
1.188,-0.01392
1.192,0.04474
1.196,0.03856
1.2,0.04975
1.204,0.0717
1.208,0.04929
1.212,0.07114
1.216,0.08314
1.22,0.09621
1.224,0.06241
1.228,0.04923
1.232,0.05723
1.236,0.01063
1.24,0.00938
1.244,0.00913
1.248,0.00184
1.252,-0.01576
1.256,-0.00424
1.26,0.0006
1.264,-0.02583
1.268,-0.01248
1.272,-0.00505
1.276,-0.03257
1.28,-0.00886
1.284,-0.03552
1.288,-0.00214
1.292,-0.04399
1.296,-0.02764
1.3,-0.00035
1.304,-0.0016
1.308,-0.05461
1.312,-0.0165
1.316,-0.00867
1.32,-0.00459
1.324,-0.06084
1.328,-0.03325
1.332,-0.04944
1.336,-0.10134
1.34,-0.14695
1.344,-0.11741
1.348,-0.06974
1.352,0.0317
1.356,0.20979
1.36,0.38591
1.364,0.61826
1.368,0.80365
1.372,0.97166
1.376,1.01485
1.38,0.91916
1.384,0.70242
1.388,0.5042
1.392,0.26211
1.396,0.03952
1.4,-0.06406
1.404,-0.16841
1.408,-0.14397
1.412,-0.16776
1.416,-0.12175
1.42,-0.07685
1.424,-0.0688
1.428,-0.02948
1.432,-0.00034
1.436,0.00213
1.44,-0.02145
1.444,-0.00303
1.448,-0.01147
1.452,-0.02451
1.456,-0.0125
1.46,-0.01615
1.464,-0.00786
1.468,-0.02973
1.472,-0.01708
1.476,-0.02564
1.48,-0.01796
1.484,-0.01559
1.488,-0.01699
1.492,-0.00241
1.496,-0.0032
1.5,-0.0048
1.504,-0.03736
1.508,-0.01996
1.512,0.01099
1.516,-0.01711
1.52,-0.02311
1.524,-0.02056
1.528,-0.0273
1.532,-0.00486
1.536,-0.00344
1.54,0.00883
1.544,-0.0032
1.548,0.01681
1.552,0.01286
1.556,0.00731
1.56,0.00686
1.564,0.03245
1.568,0.01592
1.572,0.03539
1.576,0.03844
1.58,0.03438
1.584,0.00885
1.588,0.05159
1.592,0.07711
1.596,0.07703
1.6,0.10112
1.604,0.08417
1.608,0.13863
1.612,0.12554
1.616,0.12683
1.62,0.15236
1.624,0.16621
1.628,0.16184
1.632,0.18438
1.636,0.20528
1.64,0.20572
1.644,0.17827
1.648,0.18839
1.652,0.19569
1.656,0.22201
1.66,0.20345
1.664,0.21476
1.668,0.17754
1.672,0.17662
1.676,0.18199
1.68,0.17699
1.684,0.18393
1.688,0.17256
1.692,0.16872
1.696,0.14995
1.7,0.11516
1.704,0.13368
1.708,0.08956
1.712,0.07386
1.716,0.07514
1.72,0.07564
1.724,0.0638
1.728,0.06366
1.732,0.04274
1.736,0.04289
1.74,0.03235
1.744,0.01713
1.748,0.01935
1.752,0.02281
1.756,-0.00604
1.76,0.00843
1.764,0.00261
1.768,0.00882
1.772,0.01167
1.776,-0.00502
1.78,-0.00118
1.784,-0.00929
1.788,-0.02992
1.792,0.00646
1.796,0.00524
1.8,-0.01529
1.804,0.00674
1.808,-0.027
1.812,-0.01926
1.816,-0.01087
1.82,0.00606
1.824,-0.00842
1.828,0.0119
1.832,0.00646
1.836,-0.02591
1.84,-0.0107
1.844,-0.00156
1.848,-0.01322
1.852,-0.01047
1.856,-0.00251
1.86,-0.0122
1.864,0.02189
1.868,-0.02944
1.872,0.01256
1.876,0.03358
1.88,0.00137
1.884,-0.03176
1.888,-0.0062
1.892,-0.01867
1.896,-0.00134
1.9,-0.00258
1.904,-0.00399
1.908,0.00117
1.912,0.01778
1.916,-0.00539
1.92,0.02101
1.924,-0.02354
1.928,-0.03277
1.932,-0.00617
1.936,0.00269
1.94,-0.01413
1.944,-0.00365
1.948,-0.00032
1.952,0.01177
1.956,0.01811
1.96,0.01463
1.964,-0.00824
1.968,0.0019
1.972,-0.0383
1.976,0.01175
1.98,-0.02312
1.984,0.00302
1.988,-0.0004
1.992,-0.03702
1.996,0.01772
2.0,0.02372
2.004,-0.00334
2.008,0.01984
2.012,0.02752
2.016,0.02823
2.02,0.01809
2.024,0.04054
2.028,0.07249
2.032,0.07592
2.036,0.10004
2.04,0.09171
2.044,0.08967
2.048,0.07452
2.052,0.10382
2.056,0.07977
2.06,0.08037
2.064,0.04064
2.068,0.05512
2.072,0.0522
2.076,0.0226
2.08,0.04381
2.084,-0.00325
2.088,0.0122
2.092,0.00298
2.096,0.01443
2.1,0.00241
2.104,0.00326
2.108,-0.01551
2.112,0.0266
2.116,0.00498
2.12,-0.01069
2.124,-0.00342
2.128,0.00631
2.132,-0.01366
2.136,-0.00594
2.14,0.0342
2.144,-0.01335
2.148,-0.01092
2.152,-0.00611
2.156,-0.0223
2.16,-0.03703
2.164,-0.05798
2.168,-0.07777
2.172,-0.11251
2.176,-0.11229
2.18,-0.04247
2.184,0.06513
2.188,0.23761
2.192,0.44123
2.196,0.65476
2.2,0.82649
2.204,0.98594
2.208,1.01894
2.212,0.88974
2.216,0.73434
2.22,0.51034
2.224,0.28878
2.228,0.07759
2.232,-0.07561
2.236,-0.13583
2.24,-0.17469
2.244,-0.15002
2.248,-0.08848
2.252,-0.08696
2.256,-0.02381
2.26,0.0008
2.264,0.01801
2.268,-0.01653
2.272,-0.02246
2.276,0.00486
2.28,0.02853
2.284,-0.00014
2.288,0.00826
2.292,0.01064
2.296,0.02095
2.3,0.01557
2.304,0.00157
2.308,0.00216
2.312,-0.0208
2.316,0.01065
2.32,-0.00225
2.324,0.019
2.328,0.00201
2.332,-0.00778
2.336,0.03166
2.34,0.01207
2.344,0.0041
2.348,0.0154
2.352,0.01852
2.356,0.02512
2.36,-0.00476
2.364,0.02838
2.368,0.00018
2.372,0.0267
2.376,-0.00159
2.38,0.0364
2.384,0.02954
2.388,0.01285
2.392,0.03772
2.396,0.02812
2.4,0.02631
2.404,0.05897
2.408,0.07716
2.412,0.05304
2.416,0.06204
2.42,0.07698
2.424,0.09563
2.428,0.08996
2.432,0.11738
2.436,0.11449
2.44,0.13365
2.444,0.16688
2.448,0.13015
2.452,0.15641
2.456,0.23174
2.46,0.18852
2.464,0.22856
2.468,0.20502
2.472,0.21236
2.476,0.21963
2.48,0.2295
2.484,0.22606
2.488,0.21709
2.492,0.23818
2.496,0.20428
2.5,0.22643
2.504,0.22571
2.508,0.20217
2.512,0.19754
2.516,0.20788
2.52,0.20318
2.524,0.18877
2.528,0.11934
2.532,0.13806
2.536,0.13338
2.54,0.12159
2.544,0.10455
2.548,0.09811
2.552,0.05054
2.556,0.10123
2.56,0.0979
2.564,0.05393
2.568,0.06163
2.572,0.04854
2.576,0.06487
2.58,0.02828
2.584,0.01388
2.588,0.0272
2.592,0.03838
2.596,0.02595
2.6,-0.00231
2.604,0.02627
2.608,0.03329
2.612,0.01754
2.616,0.02347
2.62,0.00366
2.624,0.04914
2.628,0.0197
2.632,-0.00162
2.636,0.02421
2.64,0.01644
2.644,0.0261
2.648,0.0254
2.652,-0.00541
2.656,0.02022
2.66,0.01349
2.664,0.02211
2.668,0.0079
2.672,0.00928
2.676,0.02558
2.68,0.00955
2.684,0.04463
2.688,-0.00817
2.692,0.04229
2.696,-0.00445
2.7,0.02582
2.704,0.01895
2.708,-0.02402
2.712,0.00527
2.716,0.03683
2.72,-0.02028
2.724,0.03817
2.728,-0.00145
2.732,0.00995
2.736,0.00245
2.74,0.01671
2.744,0.03593
2.748,0.02773
2.752,0.01306
2.756,-0.00877
2.76,0.01183
2.764,0.01361
2.768,0.06073
2.772,0.01753
2.776,0.02241
2.78,0.01563
2.784,0.00234
2.788,0.03384
2.792,0.01393
2.796,-0.01036
2.8,0.02061
2.804,0.00596
2.808,0.0018
2.812,-0.00049
2.816,0.01094
2.82,0.02401
2.824,0.01125
2.828,0.01925
2.832,0.02505
2.836,0.02886
2.84,0.00638
2.844,0.00613
2.848,0.01708
2.852,0.02884
2.856,-0.00224
2.86,0.02985
2.864,-0.02054
2.868,0.01827
2.872,0.01391
2.876,0.03935
2.88,0.03141
2.884,0.0357
2.888,-0.00078
2.892,0.02709
2.896,0.01989
2.9,0.02904
2.904,0.01894
2.908,0.01373
2.912,0.02524
2.916,-0.00289
2.92,-0.01418
2.924,0.00228
2.928,0.0197
2.932,0.03393
2.936,0.05075
2.94,0.03039
2.944,0.03324
2.948,0.06901
2.952,0.05582
2.956,0.074
2.96,0.07405
2.964,0.08616
2.968,0.13385
2.972,0.09205
2.976,0.13113
2.98,0.13404
2.984,0.10016
2.988,0.11411
2.992,0.09067
2.996,0.07598
3.0,0.06158
3.004,0.08897
3.008,0.06451
3.012,0.06019
3.016,0.04253
3.02,0.00084
3.024,0.03969
3.028,0.03618
3.032,0.02148
3.036,0.02428
3.04,-0.00549
3.044,0.02455
3.048,0.0419
3.052,0.01531
3.056,0.02852
3.06,0.0339
3.064,0.0034
3.068,0.01245
3.072,-0.00278
3.076,0.02806
3.08,0.01145
3.084,0.0075
3.088,0.03812
3.092,0.03552
3.096,0.01154
3.1,-0.05013
3.104,-0.08599
3.108,-0.11465
3.112,-0.03468
3.116,0.07281
3.12,0.19847
3.124,0.41187
3.128,0.61964
3.132,0.83357
3.136,0.96658
3.14,1.03095
3.144,0.94218
3.148,0.75119
3.152,0.55306
3.156,0.35313
3.16,0.11832
3.164,-0.00044
3.168,-0.09069
3.172,-0.14245
3.176,-0.10436
3.18,-0.09142
3.184,-0.05794
3.188,-0.01268
3.192,-0.00534
3.196,0.03648
3.2,0.02471
3.204,0.04081
3.208,0.02396
3.212,0.01991
3.216,0.00415
3.22,0.01537
3.224,0.01209
3.228,0.02115
3.232,0.04449
3.236,0.00308
3.24,0.00191
3.244,0.02714
3.248,0.02876
3.252,0.01155
3.256,0.01526
3.26,0.04969
3.264,0.01862
3.268,0.02419
3.272,0.01617
3.276,0.00428
3.28,0.05139
3.284,0.03196
3.288,0.00858
3.292,0.02444
3.296,0.02344
3.3,0.02504
3.304,0.03376
3.308,0.03051
3.312,0.02663
3.316,0.05529
3.32,0.05247
3.324,0.03985
3.328,0.06282
3.332,0.04408
3.336,0.10256
3.34,0.10148
3.344,0.08793
3.348,0.07274
3.352,0.11709
3.356,0.10492
3.36,0.11184
3.364,0.11165
3.368,0.13798
3.372,0.13741
3.376,0.17916
3.38,0.16964
3.384,0.18633
3.388,0.23216
3.392,0.21631
3.396,0.21183
3.4,0.21739
3.404,0.22894
3.408,0.23469
3.412,0.25469
3.416,0.26666
3.42,0.25135
3.424,0.25685
3.428,0.25891
3.432,0.245
3.436,0.22826
3.44,0.22626
3.444,0.21368
3.448,0.22335
3.452,0.19914
3.456,0.19034
3.46,0.16485
3.464,0.1607
3.468,0.13427
3.472,0.15173
3.476,0.13197
3.48,0.11182
3.484,0.10045
3.488,0.10319
3.492,0.10095
3.496,0.07881
3.5,0.09307
3.504,0.05475
3.508,0.05684
3.512,0.06662
3.516,0.08147
3.52,0.06607
3.524,0.05033
3.528,0.04174
3.532,0.03015
3.536,0.04931
3.54,0.0354
3.544,0.02488
3.548,0.01436
3.552,0.028
3.556,0.0134
3.56,0.01052
3.564,0.04293
3.568,0.01105
3.572,0.04386
3.576,0.02235
3.58,0.02538
3.584,0.03844
3.588,0.04117
3.592,-0.01442
3.596,0.04402
3.6,0.02981
3.604,0.02263
3.608,0.0463
3.612,0.03306
3.616,0.02059
3.62,0.03523
3.624,0.01428
3.628,0.02269
3.632,0.0239
3.636,0.0486
3.64,0.03052
3.644,0.06141
3.648,0.02851
3.652,0.03431
3.656,0.05136
3.66,0.03764
3.664,0.04273
3.668,0.06615
3.672,0.03595
3.676,0.07559
3.68,0.09705
3.684,0.08199
3.688,0.08959
3.692,0.13563
3.696,0.11535
3.7,0.12426
3.704,0.13373
3.708,0.11377
3.712,0.12621
3.716,0.10978
3.72,0.11165
3.724,0.1111
3.728,0.06452
3.732,0.07244
3.736,0.05451
3.74,0.04624
3.744,0.0385
3.748,0.03035
3.752,0.03473
3.756,0.02067
3.76,0.03583
3.764,0.02956
3.768,0.00841
3.772,0.04446
3.776,0.00226
3.78,0.01465
3.784,0.01626
3.788,0.0166
3.792,0.02824
3.796,0.02779
3.8,0.03496
3.804,0.02975
3.808,0.04547
3.812,0.04671
3.816,0.00069
3.82,0.01822
3.824,-0.05972
3.828,-0.06073
3.832,-0.0654
3.836,-0.00586
3.84,0.10968
3.844,0.29392
3.848,0.49568
3.852,0.67711
3.856,0.873
3.86,0.99966
3.864,1.009
3.868,0.91397
3.872,0.73456
3.876,0.53629
3.88,0.31255
3.884,0.06505
3.888,-0.01768
3.892,-0.09749
3.896,-0.13748
3.9,-0.14615
3.904,-0.07408
3.908,-0.03655
3.912,-0.01722
3.916,-0.01049
3.92,0.04085
3.924,0.01929
3.928,0.03988
3.932,0.02851
3.936,0.04285
3.94,0.01899
3.944,0.02779
3.948,0.0418
3.952,0.02745
3.956,0.02373
3.96,0.03288
3.964,0.03307
3.968,0.04493
3.972,0.05838
3.976,0.0384
3.98,0.03064
3.984,0.02461
3.988,0.03115
3.992,0.01129
3.996,0.03312
4.0,0.05532
4.004,0.02079
4.008,0.04112
4.012,0.0215
4.016,0.02452
4.02,0.00672
4.024,0.04916
4.028,0.02181
4.032,0.01761
4.036,0.0329
4.04,0.03728
4.044,0.05945
4.048,0.03083
4.052,0.07688
4.056,0.05046
4.06,0.09925
4.064,0.08472
4.068,0.1009
4.072,0.08965
4.076,0.0895
4.08,0.11416
4.084,0.12169
4.088,0.12606
4.092,0.12374
4.096,0.17135
4.1,0.14882
4.104,0.19031
4.108,0.18474
4.112,0.22447
4.116,0.17029
4.12,0.20639
4.124,0.23413
4.128,0.22507
4.132,0.22923
4.136,0.2482
4.14,0.24596
4.144,0.23002
4.148,0.23302
4.152,0.2259
4.156,0.23958
4.16,0.20737
4.164,0.19138
4.168,0.1978
4.172,0.18602
4.176,0.19284
4.18,0.15163
4.184,0.17541
4.188,0.17543
4.192,0.13704
4.196,0.13655
4.2,0.15528
4.204,0.11615
4.208,0.10674
4.212,0.11103
4.216,0.08399
4.22,0.08865
4.224,0.03122
4.228,0.06558
4.232,0.06826
4.236,0.03698
4.24,0.04018
4.244,0.0507
4.248,0.04134
4.252,0.02231
4.256,0.03862
4.26,0.04938
4.264,0.03662
4.268,0.02552
4.272,0.02828
4.276,0.01262
4.28,0.01914
4.284,0.03736
4.288,0.02001
4.292,0.01819
4.296,0.00538
4.3,0.04031
4.304,0.02606
4.308,0.05116
4.312,0.01671
4.316,0.04796
4.32,0.04754
4.324,0.03597
4.328,0.01753
4.332,0.03518
4.336,0.02688
4.34,0.02397
4.344,0.02703
4.348,0.01179
4.352,0.02875
4.356,0.0498
4.36,0.01217
4.364,0.05448
4.368,0.04037
4.372,0.04588
4.376,0.00235
4.38,0.02702
4.384,0.02776
4.388,0.01209
4.392,7e-05
4.396,0.02925
4.4,0.02758
4.404,0.01654
4.408,0.03932
4.412,0.02827
4.416,0.03472
4.42,0.00413
4.424,0.02071
4.428,0.02173
4.432,0.0193
4.436,0.01334
4.44,0.05032
4.444,0.02365
4.448,0.0177
4.452,0.05481
4.456,0.06067
4.46,0.08284
4.464,0.08865
4.468,0.09504
4.472,0.1203
4.476,0.12922
4.48,0.11482
4.484,0.10437
4.488,0.12742
4.492,0.10066
4.496,0.10741
4.5,0.13497
4.504,0.0785
4.508,0.10891
4.512,0.0515
4.516,0.05085
4.52,0.04887
4.524,0.04989
4.528,0.01136
4.532,0.02221
4.536,0.04082
4.54,0.01515
4.544,0.00172
4.548,-0.00073
4.552,0.04467
4.556,0.01389
4.56,0.01526
4.564,0.00829
4.568,0.0447
4.572,0.01248
4.576,0.02481
4.58,0.00389
4.584,0.0277
4.588,0.02354
4.592,0.0101
4.596,0.0121
4.6,-0.00451
4.604,-0.06524
4.608,-0.10461
4.612,-0.09774
4.616,-0.03057
4.62,0.07509
4.624,0.23904
4.628,0.48839
4.632,0.64996
4.636,0.86357
4.64,0.9789
4.644,0.99042
4.648,0.92108
4.652,0.75765
4.656,0.52643
4.66,0.29545
4.664,0.07189
4.668,-0.05701
4.672,-0.12828
4.676,-0.1337
4.68,-0.12412
4.684,-0.0758
4.688,-0.05014
4.692,0.0124
4.696,0.00153
4.7,0.00015
4.704,0.01792
4.708,0.00717
4.712,0.04415
4.716,0.03821
4.72,0.01322
4.724,0.01144
4.728,0.03689
4.732,0.02624
4.736,0.02998
4.74,0.03904
4.744,0.01629
4.748,0.0167
4.752,0.01268
4.756,0.02937
4.76,0.00696
4.764,0.03522
4.768,0.02647
4.772,-0.01559
4.776,0.03257
4.78,-0.00125
4.784,0.04081
4.788,0.02021
4.792,-0.01272
4.796,0.03059
4.8,0.01053
4.804,0.02936
4.808,0.02555
4.812,0.00833
4.816,0.04236
4.82,0.04018
4.824,0.05709
4.828,0.028
4.832,0.04864
4.836,0.0528
4.84,0.07052
4.844,0.07743
4.848,0.06707
4.852,0.07931
4.856,0.10005
4.86,0.0776
4.864,0.15182
4.868,0.12447
4.872,0.13161
4.876,0.15511
4.88,0.15148
4.884,0.12933
4.888,0.16952
4.892,0.14964
4.896,0.19382
4.9,0.2066
4.904,0.22435
4.908,0.24508
4.912,0.23677
4.916,0.22507
4.92,0.20688
4.924,0.22391
4.928,0.24436
4.932,0.23548
4.936,0.21888
4.94,0.21509
4.944,0.20481
4.948,0.18728
4.952,0.18133
4.956,0.19511
4.96,0.15627
4.964,0.13987
4.968,0.13412
4.972,0.13255
4.976,0.10074
4.98,0.12187
4.984,0.10663
4.988,0.09722
4.992,0.07803
4.996,0.04768
5.0,0.06077
5.004,0.05907
5.008,0.04992
5.012,0.05337
5.016,0.03567
5.02,0.0337
5.024,0.03062
5.028,0.00584
5.032,0.00104
5.036,0.01909
5.04,0.00231
5.044,0.02583
5.048,0.01274
5.052,0.0204
5.056,-0.00384
5.06,0.00724
5.064,0.00064
5.068,0.01973
5.072,0.00891
5.076,0.00411
5.08,-0.01171
5.084,-0.00382
5.088,-0.00168
5.092,0.00076
5.096,0.00927
5.1,0.00283
5.104,0.02846
5.108,0.01034
5.112,0.02293
5.116,0.01914
5.12,-0.01148
5.124,0.00843
5.128,0.0233
5.132,-0.01217
5.136,0.03653
5.14,0.0327
5.144,0.01299
5.148,0.01939
5.152,-0.01766
5.156,0.03601
5.16,0.03037
5.164,-0.03825
5.168,0.00745
5.172,-0.01196
5.176,-0.01002
5.18,0.02866
5.184,0.00149
5.188,0.00406
5.192,0.01897
5.196,-0.00537
5.2,0.01099
5.204,-0.00741
5.208,-0.01746
5.212,0.00181
5.216,0.01681
5.22,0.01167
5.224,-0.0011
5.228,0.03243
5.232,-0.01825
5.236,0.00058
5.24,0.01655
5.244,0.01282
5.248,0.03063
5.252,0.00196
5.256,0.03401
5.26,0.0442
5.264,0.07413
5.268,0.07438
5.272,0.08768
5.276,0.0773
5.28,0.09993
5.284,0.1135
5.288,0.07425
5.292,0.10736
5.296,0.1013
5.3,0.07736
5.304,0.08215
5.308,0.02523
5.312,0.01213
5.316,0.03556
5.32,0.01734
5.324,0.01834
5.328,0.03146
5.332,0.02499
5.336,0.0189
5.34,0.01407
5.344,0.00019
5.348,0.02284
5.352,-0.00553
5.356,-0.00155
5.36,0.01358
5.364,0.00122
5.368,-0.01902
5.372,0.00906
5.376,0.01404
5.38,-0.007
5.384,-0.01954
5.388,0.04232
5.392,0.03547
5.396,-0.00651
5.4,0.01432
5.404,-0.02642
5.408,-0.1135
5.412,-0.09424
5.416,-0.08793
5.42,-0.02717
5.424,0.11085
5.428,0.29863
5.432,0.47159
5.436,0.69986
5.44,0.89109
5.444,0.98015
5.448,0.98217
5.452,0.88726
5.456,0.66866
5.46,0.44482
5.464,0.19245
5.468,0.03747
5.472,-0.08538
5.476,-0.16404
5.48,-0.16018
5.484,-0.12206
5.488,-0.11128
5.492,-0.07778
5.496,-0.02425
5.5,0.01365
5.504,-0.00832
5.508,-0.02399
5.512,0.00536
5.516,0.03965
5.52,-0.01099
5.524,-0.06109
5.528,-0.00579
5.532,-0.00617
5.536,-0.01509
5.54,-0.0215
5.544,-0.02061
5.548,-0.00823
5.552,0.00616
5.556,-0.01288
5.56,0.01483
5.564,0.01118
5.568,-0.02279
5.572,0.01019
5.576,0.03077
5.58,-0.00808
5.584,0.02826
5.588,-0.00483
5.592,-0.02455
5.596,-0.03331
5.6,-0.03345
5.604,-0.00861
5.608,-0.00689
5.612,-0.00272
5.616,-0.00447
5.62,0.02996
5.624,0.0454
5.628,0.02007
5.632,0.01897
5.636,0.02673
5.64,0.04427
5.644,0.03736
5.648,0.07514
5.652,0.05787
5.656,0.07878
5.66,0.05514
5.664,0.0628
5.668,0.08267
5.672,0.09035
5.676,0.11164
5.68,0.13637
5.684,0.13512
5.688,0.18935
5.692,0.15987
5.696,0.17908
5.7,0.16792
5.704,0.19337
5.708,0.18809
5.712,0.18632
5.716,0.16532
5.72,0.25096
5.724,0.22635
5.728,0.2044
5.732,0.2051
5.736,0.18851
5.74,0.22138
5.744,0.18505
5.748,0.19565
5.752,0.17288
5.756,0.17404
5.76,0.15347
5.764,0.10091
5.768,0.12129
5.772,0.1331
5.776,0.11615
5.78,0.11354
5.784,0.0828
5.788,0.05067
5.792,0.05526
5.796,0.06634
5.8,0.0557
5.804,0.06119
5.808,0.03611
5.812,0.01607
5.816,0.03917
5.82,0.00704
5.824,0.00847
5.828,-0.00118
5.832,0.00909
5.836,-0.00963
5.84,0.00879
5.844,0.00838
5.848,-0.01572
5.852,0.0134
5.856,-0.00237
5.86,-0.00151
5.864,0.02181
5.868,-0.01913
5.872,8e-05
5.876,-0.02026
5.88,-0.02637
5.884,0.01328
5.888,0.0052
5.892,-0.01421
5.896,-0.00112
5.9,-0.00377
5.904,-0.01998
5.908,0.00058
5.912,-0.00558
5.916,-0.01293
5.92,-0.00366
5.924,-0.00437
5.928,-0.0191
5.932,-0.03107
5.936,-0.00056
5.94,-0.02921
5.944,-0.03238
5.948,-0.00828
5.952,-0.03612
5.956,0.0195
5.96,-0.04071
5.964,-0.01528
5.968,-0.04079
5.972,-0.01341
5.976,0.00095
5.98,-0.05515
5.984,-0.02542
5.988,-0.0277
5.992,-0.00515
5.996,0.00365
6.0,0.00576
6.004,0.00994
6.008,-0.0076
6.012,-0.03351
6.016,-0.01921
6.02,0.00286
6.024,-0.00986
6.028,-0.00038
6.032,-0.00914
6.036,-0.01795
6.04,-0.01161
6.044,-0.02525
6.048,-0.0131
6.052,-0.01238
6.056,-0.00584
6.06,-0.01144
6.064,-0.0017
6.068,-0.04526
6.072,-0.02902
6.076,-0.02193
6.08,-0.00334
6.084,-0.03916
6.088,-0.02771
6.092,-0.02078
6.096,0.00218
6.1,-0.01088
6.104,-0.04611
6.108,-0.02364
6.112,-0.01809
6.116,-0.02264
6.12,-0.03063
6.124,-0.04247
6.128,0.00516
6.132,0.03164
6.136,0.01195
6.14,-0.00242
6.144,0.03318
6.148,0.05112
6.152,0.04696
6.156,0.05904
6.16,0.0838
6.164,0.09683
6.168,0.06903
6.172,0.09259
6.176,0.0732
6.18,0.07643
6.184,0.0574
6.188,0.03863
6.192,0.04583
6.196,0.00143
6.2,0.01441
6.204,0.00834
6.208,-0.00636
6.212,-0.02412
6.216,-0.003
6.22,-0.02724
6.224,-0.01232
6.228,-0.04086
6.232,-0.03717
6.236,-0.00531
6.24,-0.0276
6.244,-0.01874
6.248,-0.03051
6.252,-0.0111
6.256,-0.03143
6.26,-0.0012
6.264,-0.0439
6.268,-0.0135
6.272,-0.02772
6.276,-0.03347
6.28,-0.04006
6.284,-0.05256
6.288,-0.10243
6.292,-0.11574
6.296,-0.15877
6.3,-0.09316
6.304,0.00812
6.308,0.23492
6.312,0.4171
6.316,0.62266
6.32,0.82496
6.324,0.93715
6.328,1.00223
6.332,0.87597
6.336,0.73308
6.34,0.50278
6.344,0.30034
6.348,0.06197
6.352,-0.09277
6.356,-0.17043
6.36,-0.16391
6.364,-0.16506
6.368,-0.11922
6.372,-0.0751
6.376,-0.04954
6.38,-0.02666
6.384,-0.04656
6.388,-0.03637
6.392,-0.01215
6.396,-0.05171
6.4,-0.02434
6.404,-0.03571
6.408,-0.01377
6.412,-0.00979
6.416,-0.02794
6.42,-0.03578
6.424,-0.0178
6.428,-0.01361
6.432,-0.03516
6.436,-0.00403
6.44,-0.04363
6.444,-0.01183
6.448,-0.01093
6.452,-0.01496
6.456,-0.03267
6.46,-0.02772
6.464,-0.04156
6.468,-0.01497
6.472,-0.06607
6.476,0.01712
6.48,-0.0214
6.484,-0.01531
6.488,-0.00523
6.492,-0.01263
6.496,-0.02617
6.5,-0.03413
6.504,-0.01136
6.508,-0.02771
6.512,0.02088
6.516,0.0062
6.52,0.0237
6.524,0.02407
6.528,0.03268
6.532,0.02676
6.536,0.02583
6.54,0.07342
6.544,0.04963
6.548,0.05523
6.552,0.09627
6.556,0.09319
6.56,0.09769
6.564,0.10959
6.568,0.14575
6.572,0.13529
6.576,0.13943
6.58,0.17236
6.584,0.18822
6.588,0.16779
6.592,0.17052
6.596,0.21019
6.6,0.17182
6.604,0.20369
6.608,0.20059
6.612,0.21271
6.616,0.18516
6.62,0.15831
6.624,0.17176
6.628,0.17012
6.632,0.1622
6.636,0.15881
6.64,0.13154
6.644,0.13835
6.648,0.09272
6.652,0.09685
6.656,0.08141
6.66,0.0743
6.664,0.08698
6.668,0.05885
6.672,0.03581
6.676,0.00764
6.68,0.02494
6.684,0.04293
6.688,-0.00242
6.692,0.0167
6.696,0.01192
6.7,0.0042
6.704,-0.00115
6.708,-0.01192
6.712,-0.02381
6.716,-0.0415
6.72,-0.02561
6.724,-0.03338
6.728,-0.00992
6.732,-0.0103
6.736,0.00207
6.74,-0.02447
6.744,-0.0282
6.748,-0.03158
6.752,-0.01596
6.756,-0.04825
6.76,-0.02055
6.764,-0.01866
6.768,-0.05463
6.772,-0.05426
6.776,-0.03774
6.78,-0.02196
6.784,-0.01663
6.788,-0.04623
6.792,-0.02494
6.796,0.00359
6.8,-0.02297
6.804,-0.04091
6.808,-0.07643
6.812,-0.02963
6.816,-0.02464
6.82,-0.05343
6.824,-0.05071
6.828,-0.02594
6.832,-0.02551
6.836,-0.0207
6.84,-0.01926
6.844,0.00237
6.848,-0.01355
6.852,-0.04369
6.856,-0.03371
6.86,-0.01356
6.864,-0.03359
6.868,-0.01616
6.872,-0.04289
6.876,-0.02286
6.88,-0.04647
6.884,-0.01792
6.888,-0.0206
6.892,-0.01556
6.896,-0.01852
6.9,-0.03334
6.904,-0.03759
6.908,-0.01729
6.912,-0.02639
6.916,-0.02023
6.92,-0.02557
6.924,-0.03471
6.928,-0.06283
6.932,-0.04213
6.936,-0.02309
6.94,-0.03162
6.944,-0.02635
6.948,-0.01807
6.952,-0.04006
6.956,-0.04141
6.96,-0.0072
6.964,-0.02947
6.968,-0.04668
6.972,-0.05943
6.976,-0.01988
6.98,-0.02936
6.984,-0.0173
6.988,-0.0337
6.992,-0.02842
6.996,0.00919
7.0,-0.02272
7.004,-0.04539
7.008,-0.02012
7.012,-0.0118
7.016,-0.01269
7.02,0.02091
7.024,0.01384
7.028,0.01764
7.032,0.0558
7.036,0.07904
7.04,0.04375
7.044,0.06212
7.048,0.09446
7.052,0.08495
7.056,0.06834
7.06,0.03935
7.064,0.04157
7.068,0.01311
7.072,-0.01933
7.076,-0.01203
7.08,0.01919
7.084,0.00061
7.088,-0.0278
7.092,-0.024
7.096,-0.01696
7.1,-0.01408
7.104,-0.01814
7.108,-0.0193
7.112,-0.03976
7.116,-0.02193
7.12,-0.05025
7.124,-0.03403
7.128,-0.05421
7.132,-0.0376
7.136,-0.05259
7.14,-0.05198
7.144,-0.03031
7.148,-0.04828
7.152,-0.0307
7.156,-0.02083
7.16,-0.04862
7.164,-0.08447
7.168,-0.10569
7.172,-0.14279
7.176,-0.12189
7.18,-0.0727
7.184,0.09511
7.188,0.27344
7.192,0.45976
7.196,0.66922
7.2,0.84541
7.204,0.94557
7.208,0.95192
7.212,0.82249
7.216,0.63847
7.22,0.40049
7.224,0.19075
7.228,-0.00502
7.232,-0.15518
7.236,-0.21243
7.24,-0.2104
7.244,-0.14986
7.248,-0.12719
7.252,-0.07428
7.256,-0.04648
7.26,-0.03501
7.264,-0.01305
7.268,-0.05625
7.272,-0.00502
7.276,-0.02524
7.28,-0.02268
7.284,-0.00809
7.288,-0.04003
7.292,-0.03339
7.296,0.0003
7.3,-0.02574
7.304,-0.02118
7.308,-0.02229
7.312,-0.02556
7.316,-0.02669
7.32,-0.01849
7.324,-0.01704
7.328,-0.03875
7.332,-0.00093
7.336,-0.04004
7.34,-0.03809
7.344,-0.03952
7.348,-0.01752
7.352,-0.0296
7.356,-0.02152
7.36,-0.00671
7.364,-0.02211
7.368,-0.02776
7.372,-0.03047
7.376,-0.03365
7.38,0.00405
7.384,-0.00642
7.388,-0.03395
7.392,0.03756
7.396,-0.01206
7.4,-0.00635
7.404,0.0081
7.408,0.01703
7.412,0.04231
7.416,0.04748
7.42,0.05945
7.424,0.04818
7.428,0.05621
7.432,0.07413
7.436,0.08525
7.44,0.1204
7.444,0.11686
7.448,0.13452
7.452,0.13962
7.456,0.15424
7.46,0.13628
7.464,0.16274
7.468,0.15459
7.472,0.20768
7.476,0.17963
7.48,0.20604
7.484,0.18421
7.488,0.20497
7.492,0.17752
7.496,0.1861
7.5,0.17347
7.504,0.17141
7.508,0.15485
7.512,0.13802
7.516,0.13266
7.52,0.14841
7.524,0.11635
7.528,0.10494
7.532,0.09322
7.536,0.08922
7.54,0.06654
7.544,0.07531
7.548,0.06342
7.552,0.05384
7.556,0.02594
7.56,0.06881
7.564,0.01369
7.568,0.02638
7.572,0.02265
7.576,0.03444
7.58,0.02691
7.584,-0.00054
7.588,-0.01057
7.592,-0.01747
7.596,-0.03839
7.6,-0.01168
7.604,-0.0232
7.608,-0.00188
7.612,-0.02498
7.616,-0.01443
7.62,-0.0289
7.624,-0.02614
7.628,-0.04032
7.632,-0.02207
7.636,-0.02599
7.64,-0.01811
7.644,-0.03154
7.648,-0.01609
7.652,-0.03323
7.656,-0.00967
7.66,-0.03209
7.664,-0.03511
7.668,-0.00315
7.672,-0.02894
7.676,-0.03388
7.68,-0.01619
7.684,-0.02913
7.688,-0.03758
7.692,-0.01218
7.696,-0.02879
7.7,-0.03304
7.704,-0.03433
7.708,-0.01448
7.712,-0.015
7.716,-0.01807
7.72,-0.02195
7.724,-0.01889
7.728,-0.02076
7.732,-0.0095
7.736,-0.01803
7.74,-0.02508
7.744,0.00045
7.748,-0.03375
7.752,-0.00655
7.756,-0.0213
7.76,-0.03505
7.764,-0.02574
7.768,-0.02195
7.772,-0.0662
7.776,-0.01625
7.78,-0.02439
7.784,-0.01566
7.788,-0.05507
7.792,-0.04202
7.796,-0.00626
7.8,-0.03182
7.804,-0.00755
7.808,0.00359
7.812,-0.01764
7.816,0.0299
7.82,0.00545
7.824,0.0309
7.828,0.0522
7.832,0.04477
7.836,0.07724
7.84,0.08429
7.844,0.08051
7.848,0.07761
7.852,0.06966
7.856,0.07334
7.86,0.0475
7.864,0.05657
7.868,-0.00322
7.872,0.03843
7.876,0.03326
7.88,-0.00592
7.884,-0.00083
7.888,-0.01959
7.892,-0.02965
7.896,-0.04681
7.9,-0.02898
7.904,-0.02705
7.908,-0.01568
7.912,-0.01319
7.916,-0.03168
7.92,-0.01987
7.924,-0.02141
7.928,-0.00993
7.932,-0.04647
7.936,-0.03264
7.94,-0.01624
7.944,-0.01216
7.948,-0.04042
7.952,-0.0497
7.956,-0.03161
7.96,-0.0265
7.964,-0.08615
7.968,-0.11847
7.972,-0.1517
7.976,-0.10583
7.98,-0.02877
7.984,0.16338
7.988,0.29299
7.992,0.53167
7.996,0.71835
8.0,0.88902
8.004,0.9937
8.008,0.95207
8.012,0.77547
8.016,0.61881
8.02,0.3927
8.024,0.18548
8.028,0.00641
8.032,-0.11839
8.036,-0.18775
8.04,-0.19523
8.044,-0.13077
8.048,-0.11212
8.052,-0.09789
8.056,-0.02098
8.06,-0.02944
8.064,-0.01444
8.068,-0.03841
8.072,-0.01647
8.076,-0.03007
8.08,-0.02841
8.084,-0.03649
8.088,0.00222
8.092,-0.05385
8.096,-0.01863
8.1,-0.04071
8.104,0.00954
8.108,-0.00643
8.112,-0.00051
8.116,-0.00429
8.12,-0.02763
8.124,-0.02944
8.128,-0.03871
8.132,0.00313
8.136,-0.01261
8.14,-0.04473
8.144,-0.00881
8.148,-0.01492
8.152,-0.02923
8.156,0.00116
8.16,-0.01221
8.164,-0.00095
8.168,0.00727
8.172,-0.01302
8.176,-0.01108
8.18,0.00674
8.184,-0.00376
8.188,0.02047
8.192,0.00545
8.196,0.02648
8.2,0.05384
8.204,0.06195
8.208,0.02562
8.212,0.04047
8.216,0.05416
8.22,0.06542
8.224,0.06639
8.228,0.08472
8.232,0.1175
8.236,0.14355
8.24,0.10981
8.244,0.10855
8.248,0.12644
8.252,0.18512
8.256,0.15511
8.26,0.19243
8.264,0.176
8.268,0.19006
8.272,0.18796
8.276,0.20925
8.28,0.19472
8.284,0.17861
8.288,0.21788
8.292,0.19859
8.296,0.20765
8.3,0.19472
8.304,0.18884
8.308,0.18023
8.312,0.15341
8.316,0.14179
8.32,0.16478
8.324,0.16592
8.328,0.11103
8.332,0.09995
8.336,0.0855
8.34,0.08932
8.344,0.08384
8.348,0.09669
8.352,0.04433
8.356,0.06545
8.36,0.04048
8.364,0.02348
8.368,-0.01009
8.372,0.02126
8.376,0.03168
8.38,0.02121
8.384,0.0293
8.388,-0.00852
8.392,0.0129
8.396,0.00167
8.4,0.02892
8.404,-0.01028
8.408,-0.01576
8.412,-0.02464
8.416,-0.02346
8.42,0.01928
8.424,-0.0202
8.428,0.0004
8.432,0.00325
8.436,-0.00469
8.44,-0.00497
8.444,-0.04684
8.448,-0.00071
8.452,-0.00798
8.456,0.00541
8.46,-0.01452
8.464,-0.01765
8.468,-0.01081
8.472,0.03582
8.476,-0.01895
8.48,-0.00653
8.484,-0.0028
8.488,-0.00932
8.492,-0.00523
8.496,-0.01311
8.5,-0.00997
8.504,0.00617
8.508,-0.01071
8.512,0.0004
8.516,0.00578
8.52,0.00021
8.524,-0.00275
8.528,-0.01224
8.532,-0.00404
8.536,-0.02454
8.54,-0.00909
8.544,-0.00166
8.548,0.02106
8.552,0.02651
8.556,-0.01541
8.56,-0.01211
8.564,-0.01943
8.568,-0.00379
8.572,0.00159
8.576,-0.01046
8.58,-0.00959
8.584,0.00571
8.588,-0.00903
8.592,-0.01272
8.596,-0.01708
8.6,0.01213
8.604,-0.00333
8.608,0.04544
8.612,0.03923
8.616,0.04591
8.62,0.0333
8.624,0.04797
8.628,0.08565
8.632,0.09033
8.636,0.08383
8.64,0.10736
8.644,0.09298
8.648,0.0786
8.652,0.07402
8.656,0.06097
8.66,0.08872
8.664,0.04427
8.668,0.03214
8.672,0.04024
8.676,0.02061
8.68,0.01745
8.684,-0.00633
8.688,0.00548
8.692,-0.01047
8.696,0.00924
8.7,-0.01925
8.704,-0.05457
8.708,0.00615
8.712,-0.00982
8.716,-0.00821
8.72,-0.00347
8.724,-0.01177
8.728,-0.01573
8.732,0.02232
8.736,-0.01357
8.74,0.01521
8.744,0.0032
8.748,0.01433
8.752,0.01057
8.756,-0.02645
8.76,-0.07088
8.764,-0.09591
8.768,-0.1378
8.772,-0.09618
8.776,0.00684
8.78,0.14759
8.784,0.34827
8.788,0.58156
8.792,0.77028
8.796,0.95849
8.8,1.00659
8.804,0.95357
8.808,0.81802
8.812,0.60192
8.816,0.34092
8.82,0.16916
8.824,-0.00938
8.828,-0.10841
8.832,-0.14408
8.836,-0.14449
8.84,-0.11983
8.844,-0.09124
8.848,-0.04713
8.852,-0.00476
8.856,0.01755
8.86,0.00345
8.864,-0.01131
8.868,0.03715
8.872,0.00917
8.876,0.02668
8.88,0.03145
8.884,-0.01604
8.888,-0.00789
8.892,0.02227
8.896,-0.01065
8.9,-0.00884
8.904,0.00964
8.908,0.01085
8.912,-0.00799
8.916,0.03793
8.92,-0.01204
8.924,0.01808
8.928,0.03024
8.932,-0.02054
8.936,0.0005
8.94,0.00323
8.944,0.03703
8.948,-0.00488
8.952,0.02401
8.956,-0.01369
8.96,0.03889
8.964,0.04102
8.968,0.01281
8.972,0.03984
8.976,0.00166
8.98,0.04648
8.984,0.05017
8.988,0.01731
8.992,0.03687
8.996,0.05361
9.0,0.03172
9.004,0.07427
9.008,0.0655
9.012,0.06733
9.016,0.08623
9.02,0.10042
9.024,0.08566
9.028,0.12636
9.032,0.11146
9.036,0.12986
9.04,0.1863
9.044,0.17981
9.048,0.12134
9.052,0.20149
9.056,0.20708
9.06,0.17092
9.064,0.21922
9.068,0.22476
9.072,0.20185
9.076,0.26266
9.08,0.21315
9.084,0.23502
9.088,0.26114
9.092,0.23204
9.096,0.21728
9.1,0.20084
9.104,0.1899
9.108,0.18238
9.112,0.17086
9.116,0.18423
9.12,0.14442
9.124,0.17465
9.128,0.13755
9.132,0.11249
9.136,0.1207
9.14,0.09358
9.144,0.06918
9.148,0.08617
9.152,0.08576
9.156,0.07656
9.16,0.0643
9.164,0.05331
9.168,0.02232
9.172,0.04387
9.176,0.02524
9.18,0.01626
9.184,0.0394
9.188,0.03209
9.192,-0.00517
9.196,0.01012
9.2,0.03722
9.204,-0.00126
9.208,-0.00697
9.212,-0.01652
9.216,0.02228
9.22,0.01171
9.224,0.01426
9.228,-0.00539
9.232,0.01546
9.236,0.03889
9.24,0.02353
9.244,0.0175
9.248,0.02935
9.252,-0.00408
9.256,0.01206
9.26,0.00294
9.264,-0.00357
9.268,0.02469
9.272,0.02522
9.276,0.00775
9.28,0.02305
9.284,0.02176
9.288,-0.00555
9.292,0.02696
9.296,0.04798
9.3,0.04353
9.304,-0.01029
9.308,0.01485
9.312,0.03101
9.316,-0.00468
9.32,0.00839
9.324,0.03122
9.328,0.01344
9.332,0.00877
9.336,0.02431
9.34,0.01567
9.344,0.01055
9.348,0.01432
9.352,0.01838
9.356,0.02391
9.36,0.03876
9.364,0.02028
9.368,0.02163
9.372,0.02883
9.376,0.01657
9.38,0.00618
9.384,0.02608
9.388,0.03872
9.392,0.0412
9.396,0.02114
9.4,0.02682
9.404,0.0168
9.408,0.0099
9.412,-0.00182
9.416,0.02259
9.42,0.02614
9.424,0.0453
9.428,-0.00526
9.432,0.04616
9.436,0.01734
9.44,0.03502
9.444,0.0413
9.448,0.02845
9.452,0.03924
9.456,0.06821
9.46,0.086
9.464,0.09604
9.468,0.11587
9.472,0.11334
9.476,0.14794
9.48,0.13173
9.484,0.12711
9.488,0.1313
9.492,0.07242
9.496,0.07766
9.5,0.08299
9.504,0.04559
9.508,0.04599
9.512,0.04157
9.516,0.03916
9.52,0.03122
9.524,0.01533
9.528,0.00932
9.532,0.02179
9.536,0.0618
9.54,0.03595
9.544,0.04225
9.548,0.00381
9.552,0.01106
9.556,0.03688
9.56,0.03131
9.564,-0.00541
9.568,0.01584
9.572,0.02708
9.576,0.04683
9.58,0.02966
9.584,-0.0055
9.588,0.0061
9.592,-0.00262
9.596,-0.01656
9.6,-0.05617
9.604,-0.09649
9.608,-0.08595
9.612,-0.06296
9.616,0.07075
9.62,0.26738
9.624,0.45117
9.628,0.66438
9.632,0.87432
9.636,0.97016
9.64,0.99207
9.644,0.95366
9.648,0.73853
9.652,0.542
9.656,0.32787
9.66,0.12463
9.664,-0.02855
9.668,-0.10572
9.672,-0.14861
9.676,-0.12366
9.68,-0.06641
9.684,-0.0572
9.688,0.00461
9.692,0.02602
9.696,0.01546
9.7,0.02639
9.704,0.03843
9.708,0.02045
9.712,0.02642
9.716,0.02353
9.72,0.00475
9.724,0.01255
9.728,0.03966
9.732,0.04778
9.736,0.03419
9.74,0.02961
9.744,0.01024
9.748,0.03172
9.752,0.02447
9.756,0.02933
9.76,0.00906
9.764,0.04075
9.768,0.05021
9.772,0.02074
9.776,0.06589
9.78,0.01838
9.784,0.03566
9.788,0.0173
9.792,0.0154
9.796,-0.00556
9.8,0.04531
9.804,0.00613
9.808,0.02592
9.812,0.04783
9.816,0.0444
9.82,0.05103
9.824,0.03854
9.828,0.08968
9.832,0.03403
9.836,0.09023
9.84,0.08375
9.844,0.08794
9.848,0.10111
9.852,0.08636
9.856,0.12131
9.86,0.15373
9.864,0.12678
9.868,0.14747
9.872,0.15785
9.876,0.17301
9.88,0.1481
9.884,0.19179
9.888,0.19201
9.892,0.20645
9.896,0.24806
9.9,0.22459
9.904,0.23794
9.908,0.25507
9.912,0.24265
9.916,0.25627
9.92,0.25669
9.924,0.24811
9.928,0.23087
9.932,0.24042
9.936,0.2493
9.94,0.22211
9.944,0.22502
9.948,0.21332
9.952,0.18166
9.956,0.20441
9.96,0.15965
9.964,0.13011
9.968,0.16476
9.972,0.12799
9.976,0.13192
9.98,0.1191
9.984,0.10555
9.988,0.07091
9.992,0.08234
9.996,0.08666
