t_seg,ecg_mV
0.0,0.00269
0.004,-0.05749
0.008,0.01576
0.012,-0.06006
0.016,-0.07656
0.02,-0.02243
0.024,-0.00285
0.028,-0.03972
0.032,-0.00996
0.036,0.01293
0.04,-0.05521
0.044,0.0006
0.048,0.0031
0.052,-0.00716
0.056,0.02295
0.06,-0.05986
0.064,-0.05865
0.068,0.03309
0.072,-0.05276
0.076,-0.01427
0.08,-0.05939
0.084,-0.03294
0.088,-0.03406
0.092,-0.05026
0.096,-0.02759
0.1,-0.04266
0.104,-0.03923
0.108,0.0249
0.112,-0.00273
0.116,0.01162
0.12,-0.07658
0.124,-0.02806
0.128,0.00803
0.132,0.02284
0.136,0.02238
0.14,-0.0776
0.144,0.00456
0.148,-0.02662
0.152,-0.004
0.156,-0.05007
0.16,-0.04323
0.164,-0.00112
0.168,-0.02205
0.172,-0.01404
0.176,0.06152
0.18,-0.01812
0.184,-0.07815
0.188,-0.06253
0.192,-0.00459
0.196,-0.07917
0.2,-0.06191
0.204,-0.00606
0.208,0.00534
0.212,-0.04931
0.216,-0.04549
0.22,-0.04468
0.224,-0.03704
0.228,-0.06275
0.232,0.04179
0.236,-0.01929
0.24,-0.05526
0.244,-0.04807
0.248,0.00331
0.252,-0.09646
0.256,-0.02192
0.26,-0.02286
0.264,-0.00769
0.268,-0.03604
0.272,0.00279
0.276,-0.08859
0.28,0.02166
0.284,-0.00523
0.288,-0.00259
0.292,-0.04994
0.296,-0.01824
0.3,-0.0312
0.304,0.0232
0.308,-0.00442
0.312,0.06731
0.316,-0.00133
0.32,0.0688
0.324,0.06788
0.328,0.07233
0.332,0.0407
0.336,0.0981
0.34,0.10602
0.344,0.10186
0.348,0.11409
0.352,-0.00783
0.356,0.05408
0.36,0.04522
0.364,-0.0073
0.368,-0.05691
0.372,-0.04211
0.376,-0.04418
0.38,0.04154
0.384,-0.02617
0.388,-0.03078
0.392,-0.08745
0.396,-0.07923
0.4,-0.03532
0.404,-0.0259
0.408,-0.04228
0.412,-0.00038
0.416,0.02167
0.42,-0.012
0.424,0.03177
0.428,-0.02192
0.432,-0.03022
0.436,-0.07836
0.44,-0.13983
0.444,-0.0369
0.448,-0.05492
0.452,-0.07306
0.456,-0.09127
0.46,-0.11518
0.464,-0.09516
0.468,0.00056
0.472,0.20105
0.476,0.41786
0.48,0.65752
0.484,0.83803
0.488,0.94774
0.492,0.97126
0.496,0.90685
0.5,0.70106
0.504,0.47368
0.508,0.30075
0.512,0.10145
0.516,-0.11203
0.52,-0.18343
0.524,-0.20566
0.528,-0.13909
0.532,-0.0973
0.536,-0.16484
0.54,-0.00738
0.544,-0.08853
0.548,0.00213
0.552,-0.0311
0.556,-0.10342
0.56,-0.09367
0.564,-0.04441
0.568,0.01267
0.572,0.00359
0.576,-0.04985
0.58,-0.02163
0.584,0.03147
0.588,-0.01561
0.592,-0.02528
0.596,-0.03164
0.6,-0.04046
0.604,-0.098
0.608,-0.03181
0.612,-0.05105
0.616,-0.03631
0.62,-0.03739
0.624,-0.05846
0.628,-0.07964
0.632,0.02782
0.636,0.02773
0.64,-0.02482
0.644,-0.02268
0.648,-0.01264
0.652,-0.01696
0.656,-0.02548
0.66,0.04092
0.664,-0.03144
0.668,0.02244
0.672,0.00113
0.676,0.04441
0.68,-0.0475
0.684,-0.03911
0.688,0.04992
0.692,-0.00405
0.696,0.01612
0.7,0.02087
0.704,0.0618
0.708,0.08014
0.712,0.04168
0.716,0.09334
0.72,0.14287
0.724,0.06704
0.728,0.13671
0.732,0.13021
0.736,0.15645
0.74,0.14511
0.744,0.14541
0.748,0.23312
0.752,0.16011
0.756,0.20107
0.76,0.18839
0.764,0.1914
0.768,0.20176
0.772,0.09956
0.776,0.17037
0.78,0.24718
0.784,0.22075
0.788,0.17251
0.792,0.16593
0.796,0.20247
0.8,0.09915
0.804,0.12309
0.808,0.10146
0.812,0.12067
0.816,0.15768
0.82,0.11587
0.824,0.05799
0.828,0.09609
0.832,0.03597
0.836,0.02083
0.84,0.07427
0.844,0.00174
0.848,0.01261
0.852,0.03028
0.856,0.0519
0.86,0.06386
0.864,0.02904
0.868,-0.01055
0.872,-0.03303
0.876,-0.035
0.88,0.02521
0.884,0.0201
0.888,0.0587
0.892,0.01787
0.896,0.09473
0.9,0.02738
0.904,0.05098
0.908,0.04438
0.912,0.03211
0.916,0.08889
0.92,0.09461
0.924,0.07395
0.928,0.03356
0.932,0.00876
0.936,0.03746
0.94,0.00443
0.944,0.05421
0.948,-0.03674
0.952,-0.11325
0.956,-0.06042
0.96,-0.02219
0.964,0.01405
0.968,0.01246
0.972,-0.03859
0.976,-0.09669
0.98,-0.02429
0.984,0.02425
0.988,-0.06131
0.992,-0.03913
0.996,-0.02196
1.0,-0.04784
1.004,0.00125
1.008,-0.00269
1.012,-0.0278
1.016,0.01374
1.02,-0.08391
1.024,-0.11422
1.028,-0.1013
1.032,-0.09598
1.036,-0.16082
1.04,-0.06627
1.044,0.01028
1.048,0.15398
1.052,0.35109
1.056,0.6068
1.06,0.74666
1.064,0.90554
1.068,0.97524
1.072,0.9924
1.076,0.70676
1.08,0.58278
1.084,0.26634
1.088,0.05954
1.092,-0.0281
1.096,-0.10272
1.1,-0.19782
1.104,-0.15702
1.108,-0.15856
1.112,-0.09905
1.116,-0.07662
1.12,-0.0032
1.124,-0.0263
1.128,-0.00724
1.132,0.04249
1.136,0.02455
1.14,0.03785
1.144,-0.04653
1.148,0.00462
1.152,-0.01501
1.156,-0.05177
1.16,-0.03649
1.164,-0.03888
1.168,-0.03317
1.172,0.01643
1.176,0.04002
1.18,-0.00857
1.184,0.00475
1.188,-0.01769
1.192,-0.01468
1.196,-0.05583
1.2,0.00219
1.204,-0.02183
1.208,-0.00797
1.212,-0.05433
1.216,-0.03728
1.22,-0.10346
1.224,-0.01793
1.228,-0.01612
1.232,-0.02065
1.236,-0.06888
1.24,0.02774
1.244,0.04675
1.248,0.02621
1.252,0.00071
1.256,-0.00192
1.26,0.05775
1.264,-0.00971
1.268,-0.03972
1.272,0.04161
1.276,0.03328
1.28,0.09212
1.284,0.07462
1.288,0.09066
1.292,0.10848
1.296,0.13842
1.3,0.10219
1.304,0.13267
1.308,0.10714
1.312,0.14241
1.316,0.23112
1.32,0.15573
1.324,0.20785
1.328,0.16834
1.332,0.16935
1.336,0.20551
1.34,0.25287
1.344,0.18757
1.348,0.26488
1.352,0.18312
1.356,0.17744
1.36,0.25001
1.364,0.20548
1.368,0.19581
1.372,0.20283
1.376,0.16581
1.38,0.11086
1.384,0.11726
1.388,0.09614
1.392,0.10883
1.396,0.11675
1.4,0.08625
1.404,0.04595
1.408,0.02061
1.412,0.11804
1.416,0.02571
1.42,0.05804
1.424,-0.01433
1.428,0.02937
1.432,-0.0172
1.436,0.03359
1.44,0.0602
1.444,-0.00145
1.448,0.03214
1.452,-0.02126
1.456,-0.06512
1.46,-0.03997
1.464,-0.03091
1.468,-0.0138
1.472,-0.0379
1.476,-0.00255
1.48,0.00613
1.484,-0.02079
1.488,0.02652
1.492,-0.00409
1.496,-0.0445
1.5,-0.0169
1.504,0.0026
1.508,-0.00141
1.512,-0.03561
1.516,-0.09687
1.52,0.03779
1.524,0.02597
1.528,0.02776
1.532,-0.009
1.536,-0.02107
1.54,0.00938
1.544,0.001
1.548,-0.0158
1.552,-0.04582
1.556,-0.00646
1.56,0.02121
1.564,-0.01786
1.568,0.0749
1.572,0.04103
1.576,0.03256
1.58,0.05058
1.584,0.0626
1.588,0.07489
1.592,0.06844
1.596,0.10253
1.6,0.07548
1.604,0.05024
1.608,0.04269
1.612,0.06978
1.616,0.03048
1.62,-0.03014
1.624,0.06835
1.628,0.00699
1.632,0.02652
1.636,0.00693
1.64,0.01328
1.644,0.04411
1.648,-0.04343
1.652,-0.0656
1.656,-0.04276
1.66,0.00614
1.664,0.02427
1.668,-0.00393
1.672,0.02936
1.676,-0.03667
1.68,-0.05689
1.684,0.00479
1.688,-0.02564
1.692,-0.02055
1.696,-0.0565
1.7,0.00453
1.704,-0.02202
1.708,0.01643
1.712,-0.11682
1.716,-0.12116
1.72,-0.06103
1.724,-0.12753
1.728,-0.10917
1.732,-0.10995
1.736,0.03534
1.74,0.22001
1.744,0.36842
1.748,0.63076
1.752,0.83813
1.756,0.95127
1.76,1.02003
1.764,0.93547
1.768,0.76949
1.772,0.57134
1.776,0.29866
1.78,0.07374
1.784,0.018
1.788,-0.0765
1.792,-0.11351
1.796,-0.17975
1.8,-0.1691
1.804,-0.13486
1.808,-0.06049
1.812,0.02642
1.816,0.04423
1.82,-0.04392
1.824,-0.02128
1.828,-0.00128
1.832,-0.0244
1.836,-0.02605
1.84,-0.05482
1.844,-0.03468
1.848,-0.00647
1.852,-0.07226
1.856,0.03374
1.86,-0.03534
1.864,0.00283
1.868,0.05063
1.872,0.0142
1.876,0.05476
1.88,-0.05367
1.884,-0.01069
1.888,-0.02814
1.892,-0.03924
1.896,-0.03407
1.9,-0.00846
1.904,0.00313
1.908,0.05635
1.912,0.00771
1.916,0.01754
1.92,-0.00402
1.924,0.01932
1.928,0.00383
1.932,0.01135
1.936,0.05038
1.94,0.02589
1.944,0.01135
1.948,0.0365
1.952,0.0551
1.956,0.05071
1.96,0.07586
1.964,0.01485
1.968,0.04116
1.972,0.07316
1.976,0.01636
1.98,0.17372
1.984,0.1505
1.988,0.10725
1.992,0.11556
1.996,0.13658
2.0,0.09151
2.004,0.1284
2.008,0.23641
2.012,0.14144
2.016,0.21363
2.02,0.19785
2.024,0.21422
2.028,0.21037
2.032,0.21264
2.036,0.22338
2.04,0.2285
2.044,0.19313
2.048,0.19697
2.052,0.20725
2.056,0.16742
2.06,0.21045
2.064,0.25724
2.068,0.12651
2.072,0.16159
2.076,0.20064
2.08,0.11295
2.084,0.06114
2.088,0.13576
2.092,0.13073
2.096,0.06813
2.1,0.12586
2.104,0.17619
2.108,0.08633
2.112,0.18759
2.116,0.16333
2.12,0.15477
2.124,0.11477
2.128,0.07829
2.132,0.11064
2.136,0.12227
2.14,0.08125
2.144,-0.01812
2.148,0.03562
2.152,0.1101
2.156,0.03694
2.16,0.0325
2.164,0.01111
2.168,-0.01204
2.172,0.00851
2.176,0.03288
2.18,0.0094
2.184,-0.01434
2.188,-0.02091
2.192,-0.02902
2.196,-0.04509
2.2,-0.05548
2.204,-0.00747
2.208,0.03591
2.212,-0.06873
2.216,0.05111
2.22,-0.00368
2.224,-0.04506
2.228,-0.03082
2.232,0.01636
2.236,-0.02889
2.24,-0.08469
2.244,-0.05936
2.248,-0.08404
2.252,-0.12517
2.256,-0.19245
2.26,-0.05037
2.264,0.0931
2.268,0.23569
2.272,0.4954
2.276,0.67147
2.28,0.84576
2.284,0.98626
2.288,0.92925
2.292,0.8973
2.296,0.66631
2.3,0.4418
2.304,0.18388
2.308,0.03372
2.312,-0.05432
2.316,-0.11864
2.32,-0.15939
2.324,-0.14835
2.328,-0.13329
2.332,-0.05804
2.336,-0.02865
2.34,0.01879
2.344,0.0224
2.348,0.01311
2.352,-0.02634
2.356,0.04076
2.36,0.00585
2.364,0.01784
2.368,-0.00291
2.372,-0.00505
2.376,-0.01805
2.38,0.01213
2.384,0.02075
2.388,-0.02733
2.392,0.04281
2.396,0.02005
2.4,0.0174
2.404,-0.01724
2.408,0.00793
2.412,0.01559
2.416,0.00078
2.42,0.03612
2.424,0.00129
2.428,0.05582
2.432,0.00143
2.436,0.11578
2.44,0.15854
2.444,0.12208
2.448,0.1089
2.452,0.11372
2.456,0.11414
2.46,0.11861
2.464,0.13559
2.468,0.1198
2.472,0.07333
2.476,0.12672
2.48,0.05359
2.484,0.11847
2.488,0.08149
2.492,0.06883
2.496,0.11472
2.5,0.12951
2.504,0.11717
2.508,0.08514
2.512,0.14658
2.516,0.18358
2.52,0.16509
2.524,0.1689
2.528,0.1188
2.532,0.16764
2.536,0.18629
2.54,0.1713
2.544,0.22446
2.548,0.20872
2.552,0.24103
2.556,0.19275
2.56,0.2624
2.564,0.21684
2.568,0.23105
2.572,0.22965
2.576,0.08933
2.58,0.18008
2.584,0.10088
2.588,0.12913
2.592,0.12611
2.596,0.29834
2.6,0.50156
2.604,0.63638
2.608,0.86635
2.612,1.03266
2.616,1.12066
2.62,1.08801
2.624,0.89769
2.628,0.70692
2.632,0.5112
2.636,0.25631
2.64,0.0743
2.644,-0.06288
2.648,-0.09907
2.652,-0.13487
2.656,-0.09985
2.66,-0.08518
2.664,-0.07634
2.668,0.04512
2.672,0.06322
2.676,0.04176
2.68,0.01361
2.684,0.12572
2.688,0.0578
2.692,0.13888
2.696,0.0713
2.7,0.16372
2.704,0.1258
2.708,0.10846
2.712,0.08652
2.716,0.10101
2.72,0.12824
2.724,0.14747
2.728,0.00654
2.732,0.06733
2.736,0.06088
2.74,0.05714
2.744,0.05267
2.748,0.04993
2.752,0.03334
2.756,0.01133
2.76,0.04124
2.764,-0.00541
2.768,0.00549
2.772,0.05481
2.776,0.02285
2.78,0.0476
2.784,0.05348
2.788,0.08178
2.792,-0.02084
2.796,0.02895
2.8,0.08548
2.804,-0.00072
2.808,0.04203
2.812,0.01845
2.816,0.07428
2.82,0.06219
2.824,0.03227
2.828,0.02255
2.832,-0.07501
2.836,-0.04846
2.84,-0.01533
2.844,0.1536
2.848,0.29236
2.852,0.5499
2.856,0.82206
2.86,0.99362
2.864,1.21456
2.868,1.16415
2.872,1.17131
2.876,1.00583
2.88,0.76286
2.884,0.5203
2.888,0.35504
2.892,0.20134
2.896,0.09137
2.9,0.1045
2.904,0.08058
2.908,0.1279
2.912,0.24615
2.916,0.21875
2.92,0.13214
2.924,0.19044
2.928,0.13664
2.932,0.1935
2.936,0.18234
2.94,0.12223
2.944,0.13651
2.948,0.13546
2.952,0.14822
2.956,0.08178
2.96,0.09764
2.964,0.10991
2.968,0.12229
2.972,0.03764
2.976,0.04639
2.98,0.06302
2.984,0.01864
2.988,0.0354
2.992,0.03355
2.996,0.0202
3.0,0.01263
3.004,0.01316
3.008,0.0351
3.012,0.03868
3.016,0.04214
3.02,0.04087
3.024,-0.01112
3.028,0.03269
3.032,-0.02174
3.036,0.00828
3.04,-0.01646
3.044,0.02907
3.048,0.02164
3.052,0.0737
3.056,-0.02193
3.06,0.01819
3.064,0.05664
3.068,0.05945
3.072,0.07146
3.076,0.08229
3.08,0.12916
3.084,0.08302
3.088,0.17347
3.092,0.19089
3.096,0.14991
3.1,0.12052
3.104,0.14806
3.108,0.14623
3.112,0.14359
3.116,0.205
3.12,0.14868
3.124,0.22623
3.128,0.2236
3.132,0.2236
3.136,0.25618
3.14,0.25086
3.144,0.24219
3.148,0.26157
3.152,0.21238
3.156,0.21415
3.16,0.20665
3.164,0.25489
3.168,0.25094
3.172,0.14944
3.176,0.19168
3.18,0.15644
3.184,0.17136
3.188,0.17657
3.192,0.19418
3.196,0.09942
3.2,0.15369
3.204,0.10594
3.208,0.1386
3.212,0.16003
3.216,0.09581
3.22,0.14824
3.224,0.17874
3.228,0.17013
3.232,0.12156
3.236,0.15344
3.24,0.22164
3.244,0.12106
3.248,0.07536
3.252,0.11085
3.256,0.13776
3.26,0.19879
3.264,0.0797
3.268,0.11951
3.272,0.04799
3.276,0.0293
3.28,0.08143
3.284,0.07035
3.288,0.03385
3.292,0.03772
3.296,-0.01591
3.3,0.04401
3.304,0.03834
3.308,0.09667
3.312,-0.05788
3.316,-0.00822
3.32,0.00854
3.324,0.06478
3.328,0.02688
3.332,3e-05
3.336,0.04158
3.34,0.0989
3.344,0.0654
3.348,0.0229
3.352,0.02728
3.356,0.0215
3.36,0.06601
3.364,-0.01425
3.368,-0.04038
3.372,-0.05478
3.376,-0.04757
3.38,-0.02629
3.384,0.11696
3.388,0.2865
3.392,0.52142
3.396,0.70568
3.4,0.8823
3.404,0.99504
3.408,1.07242
3.412,0.93489
3.416,0.70273
3.42,0.47866
3.424,0.3007
3.428,0.06499
3.432,-0.0678
3.436,-0.10444
3.44,-0.10216
3.444,-0.14752
3.448,-0.06299
3.452,0.01696
3.456,-0.01759
3.46,0.05128
3.464,0.05182
3.468,0.03552
3.472,0.08082
3.476,-0.01776
3.48,0.04535
3.484,-0.00049
3.488,0.00197
3.492,0.02923
3.496,0.07186
3.5,-0.00974
3.504,0.02759
3.508,0.05331
3.512,0.03875
3.516,0.01635
3.52,0.06975
3.524,0.05855
3.528,0.03844
3.532,0.0215
3.536,0.02704
3.54,0.05929
3.544,0.09961
3.548,0.01347
3.552,0.01247
3.556,0.0444
3.56,0.05186
3.564,0.0001
3.568,0.03596
3.572,0.05032
3.576,0.0848
3.58,0.0345
3.584,0.03598
3.588,0.09276
3.592,0.05527
3.596,0.16021
3.6,0.08607
3.604,0.06444
3.608,0.08323
3.612,0.07857
3.616,0.09749
3.62,0.04122
3.624,0.17516
3.628,0.14965
3.632,0.12559
3.636,0.21123
3.64,0.11949
3.644,0.2224
3.648,0.24564
3.652,0.2044
3.656,0.15222
3.66,0.20489
3.664,0.21374
3.668,0.22795
3.672,0.23658
3.676,0.25177
3.68,0.27317
3.684,0.25195
3.688,0.32392
3.692,0.20462
3.696,0.1794
3.7,0.155
3.704,0.22774
3.708,0.2532
3.712,0.23105
3.716,0.19652
3.72,0.24411
3.724,0.20608
3.728,0.20551
3.732,0.1743
3.736,0.2322
3.74,0.19923
3.744,0.2789
3.748,0.21537
3.752,0.20423
3.756,0.15983
3.76,0.17299
3.764,0.21159
3.768,0.15993
3.772,0.16593
3.776,0.17711
3.78,0.07394
3.784,0.02974
3.788,0.08963
3.792,0.00072
3.796,0.10724
3.8,0.0024
3.804,0.04655
3.808,0.04405
3.812,0.08102
3.816,0.11662
3.82,0.00848
3.824,0.05531
3.828,0.03542
3.832,-0.02537
3.836,0.08188
3.84,0.06489
3.844,-0.00945
3.848,0.02256
3.852,0.0411
3.856,0.00682
3.86,-0.03684
3.864,-0.00204
3.868,0.05172
3.872,-0.02808
3.876,-0.05777
3.88,-0.09586
3.884,-0.08409
3.888,-0.02403
3.892,0.05222
3.896,0.25846
3.9,0.47607
3.904,0.60031
3.908,0.82719
3.912,0.98261
3.916,1.0583
3.92,0.99321
3.924,0.81995
3.928,0.59187
3.932,0.33343
3.936,0.13834
3.94,-0.0048
3.944,-0.12401
3.948,-0.14252
3.952,-0.11937
3.956,-0.128
3.96,0.05196
3.964,0.03531
3.968,-0.01627
3.972,-0.01575
3.976,0.03772
3.98,0.02528
3.984,0.00695
3.988,0.02998
3.992,0.00025
3.996,0.0434
4.0,0.00674
4.004,0.0912
4.008,-0.02108
4.012,0.01933
4.016,0.06184
4.02,0.04006
4.024,-0.0298
4.028,-0.0321
4.032,0.11148
4.036,-0.00493
4.04,0.03134
4.044,0.05038
4.048,0.10159
4.052,0.07784
4.056,0.07325
4.06,0.01944
4.064,0.07005
4.068,0.06935
4.072,-0.00692
4.076,0.00624
4.08,0.0523
4.084,0.00189
4.088,0.01655
4.092,0.03401
4.096,0.06874
4.1,0.08104
4.104,0.06952
4.108,0.03677
4.112,0.08467
4.116,0.05331
4.12,0.04959
4.124,0.10584
4.128,0.08139
4.132,0.11473
4.136,0.14407
4.14,0.12874
4.144,0.16353
4.148,0.1527
4.152,0.17418
4.156,0.19937
4.16,0.17656
4.164,0.23925
4.168,0.22096
4.172,0.16012
4.176,0.20886
4.18,0.25293
4.184,0.34209
4.188,0.23781
4.192,0.21414
4.196,0.2734
4.2,0.20194
4.204,0.27067
4.208,0.22458
4.212,0.24432
4.216,0.24278
4.22,0.21245
4.224,0.16706
4.228,0.17154
4.232,0.16784
4.236,0.13353
4.24,0.14106
4.244,0.16758
4.248,0.12788
4.252,0.13604
4.256,0.06936
4.26,0.15465
4.264,0.12335
4.268,0.06501
4.272,0.0748
4.276,0.06708
4.28,0.04028
4.284,0.15299
4.288,0.06047
4.292,0.06098
4.296,0.12236
4.3,0.10589
4.304,0.16041
4.308,0.1714
4.312,0.05459
4.316,0.09463
4.32,0.11298
4.324,0.13867
4.328,0.12634
4.332,0.10207
4.336,0.09898
4.34,0.08808
4.344,0.06727
4.348,0.03078
4.352,0.02217
4.356,0.09193
4.36,-0.0026
4.364,-0.00796
4.368,0.04152
4.372,0.0281
4.376,-0.06801
4.38,0.01562
4.384,-0.00106
4.388,0.08413
4.392,0.00917
4.396,0.01592
4.4,-0.00354
4.404,0.03025
4.408,0.0235
4.412,0.11727
4.416,0.05295
4.42,0.01529
4.424,0.0378
4.428,-0.03
4.432,0.03298
4.436,0.03751
4.44,-0.05453
4.444,-0.1181
4.448,-0.09799
4.452,-0.15571
4.456,-0.03146
4.46,0.06476
4.464,0.27048
4.468,0.42393
4.472,0.6118
4.476,0.8846
4.48,1.03457
4.484,1.0086
4.488,0.91474
4.492,0.72765
4.496,0.58398
4.5,0.316
4.504,0.08843
4.508,-0.03753
4.512,-0.04789
4.516,-0.15777
4.52,-0.15767
4.524,-0.15359
4.528,-0.08188
4.532,0.02917
4.536,0.04393
4.54,0.05156
4.544,0.01895
4.548,0.0223
4.552,0.06669
4.556,0.05247
4.56,-0.01169
4.564,0.03686
4.568,-0.01113
4.572,0.07294
4.576,0.02562
4.58,0.00915
4.584,-0.01176
4.588,0.11918
4.592,0.01227
4.596,0.01261
4.6,0.03142
4.604,0.05792
4.608,0.01869
4.612,0.00305
4.616,0.06581
4.62,0.08157
4.624,0.07258
4.628,-0.00301
4.632,0.08078
4.636,-0.00676
4.64,0.04748
4.644,0.0004
4.648,0.02197
4.652,0.07774
4.656,0.06258
4.66,0.08132
4.664,0.06121
4.668,0.0749
4.672,0.09443
4.676,0.05293
4.68,0.01955
4.684,0.10672
4.688,0.0457
4.692,0.10854
4.696,0.09951
4.7,0.15691
4.704,0.09407
4.708,0.16666
4.712,0.12229
4.716,0.14247
4.72,0.09975
4.724,0.17624
4.728,0.22221
4.732,0.16602
4.736,0.24667
4.74,0.1763
4.744,0.2391
4.748,0.25285
4.752,0.21593
4.756,0.17414
4.76,0.18369
4.764,0.24718
4.768,0.30396
4.772,0.2346
4.776,0.23143
4.78,0.27448
4.784,0.21324
4.788,0.16882
4.792,0.17795
4.796,0.23203
4.8,0.23171
4.804,0.21605
4.808,0.297
4.812,0.22439
4.816,0.2499
4.82,0.17468
4.824,0.21518
4.828,0.15508
4.832,0.16428
4.836,0.18281
4.84,0.1369
4.844,0.041
4.848,0.09786
4.852,0.08703
4.856,0.06968
4.86,-0.01162
4.864,0.18541
4.868,0.05836
4.872,0.02221
4.876,0.07454
4.88,0.05105
4.884,0.0374
4.888,0.04385
4.892,0.06943
4.896,-0.00813
4.9,0.0592
4.904,-0.00904
4.908,-0.01139
4.912,-0.00766
4.916,-0.03418
4.92,0.03419
4.924,-0.01813
4.928,0.02579
4.932,-0.03673
4.936,-0.0334
4.94,0.01028
4.944,-0.04139
4.948,-0.07096
4.952,-0.04521
4.956,0.06726
4.96,0.21678
4.964,0.50251
4.968,0.60364
4.972,0.88201
4.976,0.94443
4.98,1.06044
4.984,0.93668
4.988,0.78505
4.992,0.58052
4.996,0.35924
5.0,0.11345
5.004,-0.0199
5.008,-0.08088
5.012,-0.14911
5.016,-0.1619
5.02,-0.13345
5.024,0.01855
5.028,0.0151
5.032,-0.06952
5.036,0.02165
5.04,0.02571
5.044,-0.04151
5.048,0.00315
5.052,-0.05555
5.056,0.1017
5.06,-0.01932
5.064,0.01992
5.068,-0.00908
5.072,0.00578
5.076,0.0266
5.08,0.03152
5.084,0.07514
5.088,0.03238
5.092,0.00907
5.096,-0.02193
5.1,0.07291
5.104,0.06371
5.108,0.02358
5.112,0.03259
5.116,-0.02725
5.12,-0.01979
5.124,0.01555
5.128,0.00833
5.132,-0.02413
5.136,0.07998
5.14,-0.02682
5.144,0.06122
5.148,0.05067
5.152,-0.01776
5.156,0.0108
5.16,-0.01609
5.164,0.05092
5.168,0.03463
5.172,-0.00588
5.176,0.04806
5.18,0.01172
5.184,0.052
5.188,0.06222
5.192,0.15543
5.196,0.06868
5.2,0.14858
5.204,0.02068
5.208,0.15898
5.212,0.16986
5.216,0.16726
5.22,0.1162
5.224,0.2148
5.228,0.20116
5.232,0.22707
5.236,0.24404
5.24,0.20998
5.244,0.18487
5.248,0.29394
5.252,0.24377
5.256,0.21746
5.26,0.23616
5.264,0.31454
5.268,0.18504
5.272,0.26046
5.276,0.24992
5.28,0.21775
5.284,0.23265
5.288,0.18684
5.292,0.127
5.296,0.1184
5.3,0.1483
5.304,0.17316
5.308,0.12341
5.312,0.11815
5.316,0.11765
5.32,0.16869
5.324,0.09833
5.328,0.09279
5.332,0.09004
5.336,0.10093
5.34,0.03778
5.344,0.00372
5.348,0.03178
5.352,0.1021
5.356,0.06451
5.36,-0.04509
5.364,0.03621
5.368,-0.01065
5.372,-0.02135
5.376,0.084
5.38,0.06353
5.384,-0.00103
5.388,-0.00821
5.392,-0.05008
5.396,-0.01435
5.4,0.02147
5.404,-0.06417
5.408,0.01476
5.412,0.0094
5.416,0.05071
5.42,0.07765
5.424,0.04459
5.428,-0.05161
5.432,-0.03559
5.436,0.01661
5.44,0.01965
5.444,0.0632
5.448,0.05162
5.452,0.01978
5.456,-0.01577
5.46,0.0202
5.464,-0.01535
5.468,-0.01295
5.472,-0.03711
5.476,0.00456
5.48,0.00355
5.484,0.01484
5.488,0.0001
5.492,0.04875
5.496,0.01825
5.5,0.04153
5.504,-0.03409
5.508,0.0014
5.512,-0.00979
5.516,-0.04093
5.52,-0.02323
5.524,0.04384
5.528,0.00527
5.532,0.00759
5.536,-0.00528
5.54,-0.04819
5.544,-0.03556
5.548,-0.00311
5.552,-0.02694
5.556,0.02483
5.56,-0.07684
5.564,0.06211
5.568,-0.00897
5.572,-0.01463
5.576,-0.01013
5.58,0.05931
5.584,0.00706
5.588,-0.04122
5.592,-0.0149
5.596,0.03198
5.6,-0.06114
5.604,-0.05804
5.608,0.04272
5.612,0.03622
5.616,0.04479
5.62,0.02629
5.624,0.05554
5.628,-0.00076
5.632,0.02984
5.636,0.06576
5.64,-0.00103
5.644,0.00803
5.648,0.03671
5.652,-0.00888
5.656,0.05441
5.66,0.03458
5.664,-0.00613
5.668,0.03851
5.672,-0.02576
5.676,-0.05338
5.68,0.01381
5.684,0.03086
5.688,-0.01273
5.692,0.03627
5.696,0.05104
5.7,-0.03491
5.704,0.03507
5.708,-0.00588
5.712,0.04893
5.716,-0.01102
5.72,0.06611
5.724,0.05589
5.728,0.1097
5.732,0.09358
5.736,0.10124
5.74,0.11132
5.744,0.10766
5.748,0.11349
5.752,0.07276
5.756,0.0811
5.76,0.07711
5.764,0.04818
5.768,0.01317
5.772,0.08462
5.776,-0.00156
5.78,0.01385
5.784,0.006
5.788,-0.03906
5.792,-0.01213
5.796,0.04676
5.8,-0.0423
5.804,-0.02307
5.808,0.01439
5.812,-0.0182
5.816,0.00092
5.82,-0.00121
5.824,0.00984
5.828,0.01299
5.832,0.04368
5.836,-0.01648
5.84,0.02817
5.844,0.01119
5.848,0.01873
5.852,0.00185
5.856,-0.06077
5.86,-0.0448
5.864,-0.15872
5.868,-0.14862
5.872,-0.06901
5.876,0.00398
5.88,0.27627
5.884,0.32393
5.888,0.58875
5.892,0.7213
5.896,0.95759
5.9,1.02398
5.904,0.92356
5.908,0.74362
5.912,0.51912
5.916,0.21709
5.92,0.10738
5.924,-0.05717
5.928,-0.11822
5.932,-0.15005
5.936,-0.15399
5.94,-0.1443
5.944,-0.0343
5.948,0.0162
5.952,-0.03702
5.956,-0.04674
5.96,0.02562
5.964,-0.01108
5.968,-0.0671
5.972,-0.04211
5.976,-0.02516
5.98,0.01865
5.984,0.00517
5.988,0.01375
5.992,-0.00932
5.996,-0.02997
6.0,-0.03792
6.004,-0.05605
6.008,0.0077
6.012,-0.04067
6.016,0.03168
6.02,-0.08084
6.024,-0.05821
6.028,0.0495
6.032,-0.01732
6.036,0.01379
6.04,-0.03462
6.044,-0.04537
6.048,-0.05491
6.052,0.00826
6.056,-0.0621
6.06,-0.01969
6.064,-0.04737
6.068,0.00553
6.072,0.01256
6.076,-0.04739
6.08,-0.06939
6.084,0.02
6.088,0.01115
6.092,-0.02227
6.096,0.04134
6.1,0.01694
6.104,-0.01068
6.108,0.0805
6.112,0.02769
6.116,0.06969
6.12,0.12154
6.124,0.01666
6.128,0.08922
6.132,0.14862
6.136,0.14348
6.14,0.1422
6.144,0.1078
6.148,0.11042
6.152,0.19935
6.156,0.17932
6.16,0.20586
6.164,0.21064
6.168,0.22254
6.172,0.16926
6.176,0.22284
6.18,0.17161
6.184,0.16959
6.188,0.23224
6.192,0.31412
6.196,0.23296
6.2,0.21118
6.204,0.23196
6.208,0.20585
6.212,0.29548
6.216,0.20029
6.22,0.21152
6.224,0.19983
6.228,0.21706
6.232,0.1286
6.236,0.21165
6.24,0.15572
6.244,0.06235
6.248,0.06222
6.252,0.07143
6.256,0.08844
6.26,0.08402
6.264,0.00906
6.268,0.03399
6.272,0.04657
6.276,0.02324
6.28,0.00503
6.284,0.01175
6.288,-0.04652
6.292,-0.03324
6.296,0.04363
6.3,-0.02356
6.304,0.01262
6.308,0.01481
6.312,-0.02302
6.316,-0.00995
6.32,-0.01756
6.324,-0.01654
6.328,-0.06117
6.332,0.02752
6.336,-0.07049
6.34,-0.11896
6.344,-0.09038
6.348,-0.15325
6.352,-0.1378
6.356,0.03965
6.36,-0.02797
6.364,0.08332
6.368,0.32743
6.372,0.50625
6.376,0.78509
6.38,0.8636
6.384,0.98494
6.388,0.88824
6.392,0.79304
6.396,0.58863
6.4,0.43369
6.404,0.14773
6.408,0.00959
6.412,-0.16329
6.416,-0.20649
6.42,-0.22338
6.424,-0.1931
6.428,-0.08437
6.432,-0.08585
6.436,-0.03869
6.44,-0.06309
6.444,0.01667
6.448,-0.02799
6.452,-0.08655
6.456,-0.03703
6.46,0.02023
6.464,-0.08348
6.468,0.01166
6.472,-0.04285
6.476,-0.02242
6.48,-0.05221
6.484,-0.0544
6.488,-0.08875
6.492,-0.0006
6.496,-0.0197
6.5,-0.03332
6.504,-0.00614
6.508,-0.03893
6.512,-0.03994
6.516,0.01027
6.52,-0.02441
6.524,-0.06037
6.528,-0.05748
6.532,0.0215
6.536,-0.03195
6.54,-0.04131
6.544,-0.07439
6.548,0.00261
6.552,0.00046
6.556,0.05432
6.56,-0.00462
6.564,0.02319
6.568,0.00726
6.572,-0.00884
6.576,-0.03424
6.58,0.02647
6.584,0.0276
6.588,0.07099
6.592,-0.01847
6.596,0.08913
6.6,-0.01412
6.604,0.09321
6.608,0.05368
6.612,0.09233
6.616,0.10284
6.62,0.09086
6.624,0.11145
6.628,0.12309
6.632,0.12208
6.636,0.18976
6.64,0.15129
6.644,0.18493
6.648,0.13546
6.652,0.16866
6.656,0.19574
6.66,0.11246
6.664,0.17416
6.668,0.13563
6.672,0.23879
6.676,0.15588
6.68,0.18337
6.684,0.17063
6.688,0.16439
6.692,0.19759
6.696,0.11487
6.7,0.19352
6.704,0.13796
6.708,0.09202
6.712,0.11766
6.716,0.12437
6.72,0.15425
6.724,0.12764
6.728,0.16225
6.732,0.15001
6.736,0.05899
6.74,0.13231
6.744,0.15071
6.748,0.14754
6.752,0.08201
6.756,0.06757
6.76,0.0546
6.764,0.01856
6.768,-0.01637
6.772,0.05412
6.776,-0.00751
6.78,0.01438
6.784,0.00707
6.788,-0.04956
6.792,-0.00468
6.796,-0.00704
6.8,0.00352
6.804,-0.0196
6.808,-0.02428
6.812,0.04298
6.816,0.00309
6.82,0.02407
6.824,-0.02124
6.828,-0.03767
6.832,0.00776
6.836,0.03364
6.84,0.00324
6.844,-0.01323
6.848,-0.04817
6.852,0.01126
6.856,-0.03782
6.86,-0.08997
6.864,-0.07224
6.868,-0.10147
6.872,-0.1042
6.876,-0.14691
6.88,-0.1956
6.884,-0.04298
6.888,0.19483
6.892,0.35293
6.896,0.49075
6.9,0.73033
6.904,0.9519
6.908,0.91429
6.912,0.87935
6.916,0.83832
6.92,0.5614
6.924,0.33548
6.928,0.09375
6.932,-0.09528
6.936,-0.14203
6.94,-0.22825
6.944,-0.18107
6.948,-0.11249
6.952,-0.13994
6.956,-0.0672
6.96,-0.01349
6.964,-0.01802
6.968,-0.02015
6.972,-0.04645
6.976,0.0167
6.98,-0.04498
6.984,-0.07588
6.988,-0.04325
6.992,-0.00272
6.996,-0.00011
7.0,-0.03757
7.004,-0.01966
7.008,-0.07361
7.012,-0.04123
7.016,-0.0134
7.02,-0.08536
7.024,-0.02136
7.028,0.00117
7.032,-0.00317
7.036,-0.05563
7.04,0.01997
7.044,-0.02282
7.048,0.01357
7.052,-0.02872
7.056,-0.0035
7.06,-0.05384
7.064,-0.05844
7.068,0.03693
7.072,-0.0561
7.076,0.05235
7.08,-0.00282
7.084,0.02664
7.088,0.07584
7.092,0.02899
7.096,0.05072
7.1,0.14573
7.104,0.08178
7.108,0.13113
7.112,0.14512
7.116,0.1553
7.12,0.05728
7.124,0.15759
7.128,0.05304
7.132,0.13286
7.136,0.05771
7.14,0.15273
7.144,0.10946
7.148,0.13576
7.152,0.14132
7.156,0.08234
7.16,0.14063
7.164,0.12843
7.168,0.20535
7.172,0.14352
7.176,0.12227
7.18,0.20749
7.184,0.21238
7.188,0.1666
7.192,0.1974
7.196,0.14559
7.2,0.20388
7.204,0.15567
7.208,0.23221
7.212,0.20031
7.216,0.11089
7.22,0.15737
7.224,0.11678
7.228,0.06845
7.232,-0.03266
7.236,-0.00178
7.24,-0.02731
7.244,0.17109
7.248,0.34355
7.252,0.52847
7.256,0.74961
7.26,0.90641
7.264,1.0125
7.268,1.04812
7.272,0.91292
7.276,0.61798
7.28,0.49716
7.284,0.19888
7.288,0.02549
7.292,-0.06638
7.296,-0.19052
7.3,-0.17709
7.304,-0.13311
7.308,-0.07923
7.312,-0.07612
7.316,-0.06644
7.32,-0.02549
7.324,-0.00557
7.328,-0.00877
7.332,0.01151
7.336,-0.01372
7.34,-0.00613
7.344,0.00061
7.348,-0.07538
7.352,-0.05714
7.356,-0.03815
7.36,-0.07833
7.364,-0.00542
7.368,-0.05681
7.372,-0.02751
7.376,0.02817
7.38,0.0178
7.384,-0.02775
7.388,-0.06826
7.392,0.03782
7.396,-0.03576
7.4,-0.0645
7.404,-0.04116
7.408,-0.00095
7.412,-0.00774
7.416,0.03223
7.42,-0.06519
7.424,-0.04195
7.428,-0.02849
7.432,-0.01427
7.436,0.01048
7.44,-0.04615
7.444,0.03521
7.448,-0.02978
7.452,-0.00648
7.456,-0.03156
7.46,0.01152
7.464,-0.02225
7.468,0.02082
7.472,0.01047
7.476,0.07727
7.48,0.04408
7.484,0.0764
7.488,0.0581
7.492,0.12441
7.496,0.0417
7.5,0.12528
7.504,0.12675
7.508,0.14567
7.512,0.1103
7.516,0.20293
7.52,0.09242
7.524,0.17255
7.528,0.13134
7.532,0.19289
7.536,0.16618
7.54,0.1728
7.544,0.18638
7.548,0.16642
7.552,0.25255
7.556,0.18697
7.56,0.21199
7.564,0.15037
7.568,0.15293
7.572,0.19938
7.576,0.18817
7.58,0.22257
7.584,0.16263
7.588,0.15368
7.592,0.17777
7.596,0.08645
7.6,0.0411
7.604,0.00742
7.608,0.0195
7.612,0.05145
7.616,-0.00321
7.62,0.05716
7.624,0.00483
7.628,-0.02328
7.632,0.06794
7.636,0.02719
7.64,0.0298
7.644,-0.00615
7.648,0.02939
7.652,0.04741
7.656,-0.06287
7.66,-0.03783
7.664,-0.01426
7.668,-0.05913
7.672,-0.05563
7.676,-0.06383
7.68,-0.05183
7.684,-0.04495
7.688,-0.04962
7.692,-0.03028
7.696,-0.02935
7.7,-0.07829
7.704,0.02086
7.708,0.02988
7.712,-0.01401
7.716,-0.04297
7.72,0.05294
7.724,-0.03285
7.728,0.00753
7.732,0.02119
7.736,0.04571
7.74,0.02565
7.744,-0.01474
7.748,-0.00211
7.752,-0.0321
7.756,-0.04181
7.76,-0.03592
7.764,-0.04158
7.768,-0.02345
7.772,-0.0309
7.776,-0.00283
7.78,-0.009
7.784,-0.04643
7.788,-0.03613
7.792,-0.00922
7.796,0.00029
7.8,-0.08939
7.804,-0.01319
7.808,-0.04133
7.812,-0.05473
7.816,-0.02976
7.82,-0.08629
7.824,-0.01714
7.828,-0.05733
7.832,-0.06461
7.836,-0.01045
7.84,-0.02634
7.844,0.00531
7.848,0.03257
7.852,-0.04215
7.856,-0.01366
7.86,0.02643
7.864,-0.01418
7.868,-0.06854
7.872,-0.04183
7.876,-0.00454
7.88,-0.01384
7.884,-0.0132
7.888,-0.01438
7.892,-0.00509
7.896,0.03878
7.9,-0.04859
7.904,-0.08117
7.908,-0.00318
7.912,-0.05545
7.916,-0.02126
7.92,-0.02724
7.924,-0.03845
7.928,-0.05396
7.932,-0.04524
7.936,0.07237
7.94,-0.04395
7.944,-0.00727
7.948,-0.0346
7.952,0.05152
7.956,-0.06938
7.96,-0.05534
7.964,-0.01251
7.968,-0.01557
7.972,-0.02854
7.976,-0.00916
7.98,-0.0955
7.984,-0.06127
7.988,-0.04976
7.992,-0.01064
7.996,-0.06113
8.0,-0.00378
8.004,-0.04863
8.008,-0.02605
8.012,0.05136
8.016,0.002
8.02,0.03027
8.024,-0.04198
8.028,-0.0365
8.032,-0.07109
8.036,-0.08452
8.04,-0.053
8.044,-0.03722
8.048,0.04882
8.052,-0.05544
8.056,-0.04357
8.06,-0.02568
8.064,-0.09001
8.068,-0.04982
8.072,-0.09723
8.076,-0.04234
8.08,-0.05529
8.084,-0.01336
8.088,-0.10434
8.092,-0.03712
8.096,-0.00543
8.1,-0.0238
8.104,-0.01797
8.108,-0.03105
8.112,-0.0092
8.116,-0.05027
8.12,0.03731
8.124,0.046
8.128,-0.0452
8.132,-0.01307
8.136,-0.01732
8.14,0.0051
8.144,-0.0403
8.148,-0.04122
8.152,-0.02403
8.156,-0.06531
8.16,-0.03884
8.164,-0.04822
8.168,-0.00789
8.172,0.01241
8.176,-0.00864
8.18,-0.02421
8.184,-0.00893
8.188,-0.03694
8.192,0.00753
8.196,0.00077
8.2,-0.00838
8.204,-0.03664
8.208,0.04052
8.212,-0.02402
8.216,-0.06303
8.22,-0.01987
8.224,0.03377
8.228,-0.00379
8.232,0.02408
8.236,-0.00173
8.24,0.0213
8.244,0.04611
8.248,0.02666
8.252,-0.04149
8.256,0.0258
8.26,0.02401
8.264,0.0789
8.268,0.04894
8.272,0.15817
8.276,0.07583
8.28,0.10749
8.284,-0.00065
8.288,0.00608
8.292,0.04948
8.296,0.02489
8.3,0.00354
8.304,-0.04696
8.308,-0.09213
8.312,-0.02316
8.316,0.01389
8.32,-0.00885
8.324,0.05472
8.328,-0.00211
8.332,-0.00269
8.336,-0.06906
8.34,-0.00012
8.344,-0.03912
8.348,-0.0338
8.352,-0.02967
8.356,-0.02624
8.36,0.00156
8.364,-0.03127
8.368,-0.00567
8.372,0.00569
8.376,-0.03564
8.38,-0.05153
8.384,-0.08629
8.388,-0.11668
8.392,-0.17682
8.396,-0.15933
8.4,-0.08256
8.404,0.0725
8.408,0.21805
8.412,0.51617
8.416,0.69189
8.42,0.79858
8.424,0.95273
8.428,0.95115
8.432,0.85599
8.436,0.6361
8.44,0.44934
8.444,0.26911
8.448,0.0682
8.452,-0.05783
8.456,-0.17118
8.46,-0.16495
8.464,-0.1532
8.468,-0.15593
8.472,-0.05574
8.476,-0.07972
8.48,0.04189
8.484,-0.03236
8.488,0.04894
8.492,-0.02098
8.496,-0.00724
8.5,0.00451
8.504,0.00257
8.508,-0.013
8.512,-0.01686
8.516,0.00388
8.52,-0.02237
8.524,0.01892
8.528,-0.0793
8.532,-0.03872
8.536,-0.03369
8.54,-0.01126
8.544,0.02907
8.548,0.02189
8.552,-0.02054
8.556,-0.04192
8.56,0.01837
8.564,0.00915
8.568,0.0195
8.572,-0.02897
8.576,-0.04969
8.58,0.00368
8.584,-0.01234
8.588,0.03366
8.592,0.07009
8.596,-0.00662
8.6,-0.0174
8.604,0.04539
8.608,0.00091
8.612,0.01419
8.616,-0.01308
8.62,0.04156
8.624,0.06218
8.628,0.07018
8.632,0.02483
8.636,0.07038
8.64,0.15495
8.644,0.01765
8.648,0.0665
8.652,0.13833
8.656,0.09597
8.66,0.12541
8.664,0.14249
8.668,0.13901
8.672,0.1141
8.676,0.13301
8.68,0.17687
8.684,0.20718
8.688,0.2032
8.692,0.29291
8.696,0.21623
8.7,0.14307
8.704,0.24757
8.708,0.26131
8.712,0.17374
8.716,0.22486
8.72,0.20409
8.724,0.21173
8.728,0.19767
8.732,0.16916
8.736,0.16007
8.74,0.18991
8.744,0.15323
8.748,0.13494
8.752,0.09213
8.756,0.15063
8.76,0.08348
8.764,0.06431
8.768,0.0836
8.772,0.07514
8.776,0.14255
8.78,-0.00584
8.784,0.01964
8.788,0.04513
8.792,0.04698
8.796,0.08111
8.8,0.06898
8.804,-0.00371
8.808,0.12956
8.812,-0.00634
8.816,0.06165
8.82,-0.00046
8.824,-0.00055
8.828,0.04247
8.832,0.00512
8.836,0.01667
8.84,-0.04943
8.844,-0.00522
8.848,0.00896
8.852,-0.01074
8.856,-0.03679
8.86,0.00997
8.864,0.01444
8.868,-0.0157
8.872,0.09594
8.876,0.00662
8.88,0.04039
8.884,0.02929
8.888,0.04737
8.892,0.10346
8.896,0.06188
8.9,0.0945
8.904,0.07707
8.908,0.06894
8.912,0.11172
8.916,0.05882
8.92,0.0674
8.924,0.07095
8.928,0.06352
8.932,0.1048
8.936,0.02732
8.94,0.00924
8.944,-0.04971
8.948,-0.01856
8.952,0.02412
8.956,0.032
8.96,0.05293
8.964,0.0135
8.968,0.0157
8.972,-0.03474
8.976,-0.04184
8.98,0.03044
8.984,0.04814
8.988,0.01199
8.992,0.02623
8.996,-0.00492
9.0,0.0426
9.004,-0.0075
9.008,0.01481
9.012,-0.01306
9.016,0.02035
9.02,-0.04094
9.024,-0.03166
9.028,-0.10913
9.032,-0.07918
9.036,-0.14194
9.04,-0.13696
9.044,-0.06146
9.048,-0.00863
9.052,0.2435
9.056,0.38608
9.06,0.63344
9.064,0.82501
9.068,0.84742
9.072,0.95795
9.076,0.89423
9.08,0.70122
9.084,0.55358
9.088,0.35561
9.092,0.12943
9.096,-0.07252
9.1,-0.10208
9.104,-0.14876
9.108,-0.15177
9.112,-0.15341
9.116,-0.08826
9.12,0.00025
9.124,-0.03476
9.128,-0.04279
9.132,0.05911
9.136,-0.01926
9.14,0.04981
9.144,0.03285
9.148,-0.02505
9.152,0.00285
9.156,0.07302
9.16,0.05796
9.164,0.00486
9.168,-0.02263
9.172,0.02026
9.176,0.03567
9.18,-0.02019
9.184,0.01685
9.188,0.00326
9.192,-0.03244
9.196,-0.00137
9.2,0.00585
9.204,0.00849
9.208,-0.07471
9.212,0.00587
9.216,0.02133
9.22,0.05982
9.224,-0.05098
9.228,-0.02514
9.232,0.02477
9.236,0.04883
9.24,0.05428
9.244,0.03674
9.248,0.00663
9.252,0.01357
9.256,0.03532
9.26,0.01475
9.264,0.12017
9.268,0.05785
9.272,0.04796
9.276,0.04827
9.28,0.06736
9.284,0.06546
9.288,0.11498
9.292,0.12591
9.296,0.17958
9.3,0.09293
9.304,0.17879
9.308,0.15643
9.312,0.12659
9.316,0.19982
9.32,0.2023
9.324,0.17766
9.328,0.22089
9.332,0.28497
9.336,0.2232
9.34,0.29822
9.344,0.20283
9.348,0.25389
9.352,0.21137
9.356,0.22823
9.36,0.19668
9.364,0.26329
9.368,0.17258
9.372,0.29209
9.376,0.2007
9.38,0.15071
9.384,0.15642
9.388,0.1699
9.392,0.19268
9.396,0.19019
9.4,0.11831
9.404,0.1003
9.408,0.07537
9.412,0.11571
9.416,0.06708
9.42,0.11798
9.424,0.11756
9.428,0.04919
9.432,0.02566
9.436,0.05833
9.44,0.01408
9.444,0.04212
9.448,0.02355
9.452,0.05006
9.456,-0.02661
9.46,0.0451
9.464,0.02276
9.468,-0.01358
9.472,0.00092
9.476,0.02627
9.48,0.03671
9.484,-0.00613
9.488,0.05842
9.492,0.02244
9.496,0.04636
9.5,0.04988
9.504,0.04641
9.508,-0.01962
9.512,0.01122
9.516,0.01851
9.52,0.02172
9.524,-0.02539
9.528,-0.00292
9.532,0.05101
9.536,-0.00318
9.54,0.01931
9.544,0.05524
9.548,0.05706
9.552,0.06749
9.556,0.0188
9.56,0.01638
9.564,-0.06007
9.568,0.0337
9.572,0.03397
9.576,-0.01084
9.58,0.00657
9.584,0.01771
9.588,0.03404
9.592,0.00165
9.596,0.00295
9.6,-0.00119
9.604,-0.02608
9.608,0.06433
9.612,0.0234
9.616,0.00309
9.62,0.04073
9.624,0.03636
9.628,-0.00541
9.632,0.03726
9.636,-0.03621
9.64,0.09747
9.644,0.0537
9.648,-0.0075
9.652,-0.07842
9.656,-0.01033
9.66,0.00174
9.664,-0.01138
9.668,0.09317
9.672,0.09156
9.676,0.05026
9.68,-0.02164
9.684,0.0244
9.688,-0.0064
9.692,0.01926
9.696,0.03107
9.7,0.05158
9.704,0.11514
9.708,0.08992
9.712,0.16047
9.716,0.09454
9.72,0.09311
9.724,0.10548
9.728,0.11569
9.732,0.13179
9.736,0.05339
9.74,0.09977
9.744,0.03887
9.748,-0.02421
9.752,0.09813
9.756,0.02836
9.76,-0.02754
9.764,0.03224
9.768,0.06499
9.772,-0.03328
9.776,0.03651
9.78,0.04086
9.784,0.0501
9.788,0.04601
9.792,-0.01562
9.796,0.03091
9.8,-0.00712
9.804,-0.00663
9.808,0.01597
9.812,0.02246
9.816,0.02955
9.82,-0.04101
9.824,0.05914
9.828,0.01116
9.832,-0.00184
9.836,0.0286
9.84,0.06204
9.844,0.00731
9.848,-0.00671
9.852,-0.0766
9.856,-0.09164
9.86,-0.01623
9.864,0.1249
9.868,0.23619
9.872,0.51597
9.876,0.68485
9.88,0.89786
9.884,0.98084
9.888,1.0615
9.892,1.00435
9.896,0.72193
9.9,0.54658
9.904,0.33097
9.908,0.0739
9.912,0.06334
9.916,-0.09151
9.92,-0.11887
9.924,-0.13414
9.928,-0.08252
9.932,-0.04759
9.936,-0.01983
9.94,0.03056
9.944,0.04989
9.948,0.02084
9.952,0.08764
9.956,0.02213
9.96,0.03239
9.964,0.00224
9.968,0.06313
9.972,0.0157
9.976,0.05285
9.98,0.05915
9.984,0.03034
9.988,-0.03797
9.992,0.00094
9.996,0.02993
