t_seg,ecg_mV
0.0,0.00498
0.004,-0.042
0.008,0.00692
0.012,0.02733
0.016,0.00743
0.02,-0.00032
0.024,-0.02079
0.028,0.01074
0.032,0.01277
0.036,0.03256
0.04,0.01557
0.044,0.02669
0.048,0.00765
0.052,0.00844
0.056,0.00487
0.06,-0.00625
0.064,0.03012
0.068,0.00965
0.072,0.00232
0.076,-0.00159
0.08,0.01159
0.084,0.02466
0.088,-0.00342
0.092,-0.00168
0.096,-0.01989
0.1,-0.01884
0.104,0.00081
0.108,0.00082
0.112,-0.01162
0.116,0.01155
0.12,0.01554
0.124,-0.00328
0.128,0.01247
0.132,0.00553
0.136,-0.00082
0.14,0.006
0.144,0.02627
0.148,0.00678
0.152,-0.00584
0.156,-0.01106
0.16,-0.00116
0.164,0.00801
0.168,-0.01298
0.172,-0.01754
0.176,0.02136
0.18,0.01256
0.184,0.01224
0.188,0.03256
0.192,0.01032
0.196,0.01517
0.2,-0.01522
0.204,0.0291
0.208,0.02326
0.212,0.05661
0.216,0.06946
0.22,0.05328
0.224,0.05504
0.228,0.11187
0.232,0.11028
0.236,0.11409
0.24,0.07654
0.244,0.09237
0.248,0.11491
0.252,0.0876
0.256,0.08958
0.26,0.08875
0.264,0.03725
0.268,0.06618
0.272,0.01921
0.276,0.05231
0.28,-0.01177
0.284,0.02551
0.288,-0.00532
0.292,0.02839
0.296,0.01326
0.3,0.02114
0.304,-0.02139
0.308,0.00309
0.312,-0.00239
0.316,0.00335
0.32,-0.01801
0.324,-0.01521
0.328,-0.01566
0.332,0.01224
0.336,-0.00702
0.34,0.02187
0.344,0.01044
0.348,0.02288
0.352,0.03591
0.356,0.01838
0.36,-0.05989
0.364,-0.08367
0.368,-0.0935
0.372,-0.10393
0.376,-0.0195
0.38,0.13123
0.384,0.30646
0.388,0.54867
0.392,0.76442
0.396,0.93838
0.4,1.02025
0.404,0.96443
0.408,0.82231
0.412,0.62031
0.416,0.40257
0.42,0.1992
0.424,0.00764
0.428,-0.08451
0.432,-0.14383
0.436,-0.16279
0.44,-0.09176
0.444,-0.09394
0.448,-0.03862
0.452,-0.00378
0.456,0.01038
0.46,0.01987
0.464,0.01189
0.468,0.013
0.472,0.00958
0.476,0.04279
0.48,0.00514
0.484,-0.00097
0.488,0.0159
0.492,0.03849
0.496,0.00273
0.5,0.01734
0.504,0.04255
0.508,0.00174
0.512,-0.00764
0.516,0.00729
0.52,-0.00229
0.524,0.00887
0.528,0.00515
0.532,0.00836
0.536,0.01123
0.54,0.01009
0.544,0.03056
0.548,0.01729
0.552,0.02357
0.556,0.02795
0.56,0.00241
0.564,0.01181
0.568,0.02708
0.572,0.02496
0.576,0.02366
0.58,0.03582
0.584,0.03769
0.588,0.03807
0.592,0.01651
0.596,0.03071
0.6,0.0173
0.604,0.07506
0.608,0.05122
0.612,0.09623
0.616,0.10578
0.62,0.09353
0.624,0.12666
0.628,0.13794
0.632,0.16958
0.636,0.13775
0.64,0.16425
0.644,0.18236
0.648,0.14446
0.652,0.19004
0.656,0.21843
0.66,0.23728
0.664,0.21743
0.668,0.22311
0.672,0.22982
0.676,0.24413
0.68,0.25244
0.684,0.23203
0.688,0.21645
0.692,0.24444
0.696,0.22624
0.7,0.22302
0.704,0.23082
0.708,0.17008
0.712,0.19445
0.716,0.16718
0.72,0.17863
0.724,0.15951
0.728,0.1444
0.732,0.14003
0.736,0.11728
0.74,0.11914
0.744,0.09335
0.748,0.08636
0.752,0.04679
0.756,0.08484
0.76,0.05406
0.764,0.08534
0.768,0.07302
0.772,0.05925
0.776,0.0431
0.78,0.03992
0.784,0.02152
0.788,0.06228
0.792,0.0115
0.796,0.03247
0.8,0.01871
0.804,0.01289
0.808,0.02349
0.812,0.0449
0.816,0.05454
0.82,0.02214
0.824,0.0121
0.828,0.02961
0.832,0.00043
0.836,0.01013
0.84,0.02629
0.844,0.01105
0.848,0.02345
0.852,0.0305
0.856,0.00771
0.86,0.03845
0.864,0.03154
0.868,0.03314
0.872,0.02238
0.876,0.05025
0.88,0.05808
0.884,0.06238
0.888,0.06966
0.892,0.08453
0.896,0.08154
0.9,0.12353
0.904,0.11583
0.908,0.1147
0.912,0.11967
0.916,0.1335
0.92,0.12376
0.924,0.0981
0.928,0.07259
0.932,0.08486
0.936,0.07916
0.94,0.05852
0.944,0.06599
0.948,0.0554
0.952,0.04438
0.956,0.05378
0.96,0.02098
0.964,0.01835
0.968,0.02351
0.972,0.02061
0.976,0.03829
0.98,0.01651
0.984,0.02202
0.988,0.03953
0.992,0.03436
0.996,0.00954
1.0,4e-05
1.004,0.02027
1.008,0.01859
1.012,0.00141
1.016,0.02687
1.02,0.00391
1.024,0.00312
1.028,0.00988
1.032,-0.07589
1.036,-0.08786
1.04,-0.1008
1.044,-0.01763
1.048,0.08022
1.052,0.28651
1.056,0.51687
1.06,0.7157
1.064,0.89044
1.068,1.00148
1.072,0.98569
1.076,0.91646
1.08,0.73878
1.084,0.47044
1.088,0.26023
1.092,0.08772
1.096,-0.07602
1.1,-0.11737
1.104,-0.14472
1.108,-0.11747
1.112,-0.0787
1.116,-0.06216
1.12,-0.00605
1.124,-0.00119
1.128,0.0222
1.132,0.0318
1.136,0.00759
1.14,0.0068
1.144,0.02712
1.148,0.00824
1.152,0.01302
1.156,0.0482
1.16,-0.00043
1.164,0.04787
1.168,0.02437
1.172,0.02514
1.176,0.01683
1.18,0.05933
1.184,0.06036
1.188,0.03577
1.192,0.02843
1.196,0.04551
1.2,0.01888
1.204,0.02866
1.208,0.0415
1.212,0.04131
1.216,0.0368
1.22,0.01159
1.224,0.01243
1.228,0.02468
1.232,0.01858
1.236,0.04812
1.24,0.02935
1.244,0.01458
1.248,0.03125
1.252,0.07108
1.256,0.04615
1.26,0.04645
1.264,0.06058
1.268,0.05944
1.272,0.07851
1.276,0.09831
1.28,0.09711
1.284,0.10728
1.288,0.1097
1.292,0.12585
1.296,0.12606
1.3,0.15785
1.304,0.15695
1.308,0.18895
1.312,0.1621
1.316,0.21488
1.32,0.19846
1.324,0.18455
1.328,0.2373
1.332,0.23565
1.336,0.26281
1.34,0.23753
1.344,0.20684
1.348,0.22688
1.352,0.24281
1.356,0.21918
1.36,0.28015
1.364,0.22779
1.368,0.2238
1.372,0.2078
1.376,0.1976
1.38,0.22857
1.384,0.21531
1.388,0.19302
1.392,0.18879
1.396,0.16088
1.4,0.13403
1.404,0.15782
1.408,0.12646
1.412,0.09954
1.416,0.10453
1.42,0.09916
1.424,0.06528
1.428,0.0838
1.432,0.08117
1.436,0.10583
1.44,0.04518
1.444,0.07732
1.448,0.03928
1.452,0.04221
1.456,0.04721
1.46,0.03878
1.464,0.04372
1.468,0.051
1.472,0.02886
1.476,0.05417
1.48,0.02657
1.484,0.05503
1.488,0.05515
1.492,0.05907
1.496,0.01981
1.5,0.02894
1.504,0.02041
1.508,0.05474
1.512,0.03635
1.516,0.05832
1.52,0.0547
1.524,0.07727
1.528,0.07217
1.532,0.09298
1.536,0.13226
1.54,0.08767
1.544,0.12409
1.548,0.11734
1.552,0.13096
1.556,0.15799
1.56,0.12543
1.564,0.13805
1.568,0.08
1.572,0.06997
1.576,0.09061
1.58,0.08306
1.584,0.03183
1.588,0.05146
1.592,0.0472
1.596,0.02949
1.6,0.04635
1.604,0.00174
1.608,0.01232
1.612,0.03067
1.616,0.02264
1.62,0.04454
1.624,0.02798
1.628,0.03011
1.632,0.02386
1.636,0.04418
1.64,0.02878
1.644,0.03901
1.648,0.0235
1.652,0.02462
1.656,0.05593
1.66,0.02779
1.664,0.02856
1.668,-0.01264
1.672,-0.03509
1.676,-0.11589
1.68,-0.08059
1.684,-0.04349
1.688,0.07777
1.692,0.23396
1.696,0.44507
1.7,0.68954
1.704,0.87496
1.708,0.99124
1.712,1.05476
1.716,0.92107
1.72,0.73502
1.724,0.50924
1.728,0.33323
1.732,0.12612
1.736,-0.01831
1.74,-0.11378
1.744,-0.13984
1.748,-0.12629
1.752,-0.06838
1.756,-0.03433
1.76,-0.01273
1.764,0.01228
1.768,0.02767
1.772,0.02395
1.776,0.02188
1.78,0.04557
1.784,0.03965
1.788,0.05747
1.792,0.04288
1.796,0.02682
1.8,0.03824
1.804,0.01041
1.808,0.03092
1.812,0.0444
1.816,0.01314
1.82,0.00963
1.824,0.04178
1.828,0.02694
1.832,0.03336
1.836,0.03176
1.84,0.03349
1.844,0.02535
1.848,0.03543
1.852,0.0488
1.856,0.02383
1.86,0.06826
1.864,0.01114
1.868,0.03087
1.872,0.07099
1.876,0.0426
1.88,0.04707
1.884,0.05376
1.888,0.00897
1.892,0.04261
1.896,0.04744
1.9,0.02631
1.904,0.06303
1.908,0.07245
1.912,0.0455
1.916,0.08875
1.92,0.09862
1.924,0.10017
1.928,0.12471
1.932,0.13772
1.936,0.13144
1.94,0.13115
1.944,0.16433
1.948,0.15691
1.952,0.18289
1.956,0.17713
1.96,0.20304
1.964,0.21698
1.968,0.23793
1.972,0.20332
1.976,0.24747
1.98,0.2188
1.984,0.25
1.988,0.24239
1.992,0.2479
1.996,0.23476
2.0,0.24049
2.004,0.21999
2.008,0.20177
2.012,0.24359
2.016,0.23291
2.02,0.20498
2.024,0.18561
2.028,0.20841
2.032,0.17098
2.036,0.17627
2.04,0.1585
2.044,0.14743
2.048,0.08895
2.052,0.11028
2.056,0.11254
2.06,0.09592
2.064,0.10117
2.068,0.10344
2.072,0.09813
2.076,0.0603
2.08,0.0473
2.084,0.05635
2.088,0.02661
2.092,0.07242
2.096,0.05142
2.1,0.0448
2.104,0.02713
2.108,0.03447
2.112,0.03052
2.116,0.02117
2.12,0.0207
2.124,0.04973
2.128,0.03076
2.132,0.04336
2.136,0.02967
2.14,0.04839
2.144,0.01342
2.148,0.00753
2.152,0.02255
2.156,0.02095
2.16,0.02752
2.164,0.04001
2.168,0.05522
2.172,0.02529
2.176,0.07889
2.18,0.03524
2.184,0.05057
2.188,0.02271
2.192,0.0793
2.196,0.06164
2.2,0.09743
2.204,0.11489
2.208,0.10603
2.212,0.10277
2.216,0.11795
2.22,0.11207
2.224,0.14318
2.228,0.11716
2.232,0.13246
2.236,0.1097
2.24,0.08442
2.244,0.089
2.248,0.07743
2.252,0.08976
2.256,0.03119
2.26,0.05274
2.264,0.02754
2.268,0.01186
2.272,0.04151
2.276,-0.00307
2.28,0.03387
2.284,0.02366
2.288,0.03702
2.292,0.02987
2.296,0.05751
2.3,0.01172
2.304,0.02956
2.308,0.01535
2.312,0.02671
2.316,0.01302
2.32,0.01818
2.324,0.00353
2.328,0.00587
2.332,0.02412
2.336,0.00303
2.34,-0.00349
2.344,-0.04384
2.348,-0.12738
2.352,-0.10409
2.356,-0.05704
2.36,0.06681
2.364,0.22751
2.368,0.45745
2.372,0.68905
2.376,0.84757
2.38,0.98896
2.384,1.03402
2.388,0.94197
2.392,0.73252
2.396,0.52543
2.4,0.30144
2.404,0.09638
2.408,-0.03451
2.412,-0.12767
2.416,-0.1749
2.42,-0.12672
2.424,-0.10356
2.428,-0.07067
2.432,-0.00864
2.436,0.00676
2.44,0.0317
2.444,0.01226
2.448,0.00288
2.452,0.00635
2.456,0.01893
2.46,0.03666
2.464,0.01275
2.468,0.03116
2.472,0.05648
2.476,0.04014
2.48,0.01155
2.484,-0.01071
2.488,0.03089
2.492,0.01044
2.496,0.0145
2.5,0.0375
2.504,0.0115
2.508,0.02503
2.512,0.02013
2.516,0.01768
2.52,0.03904
2.524,0.02819
2.528,0.04226
2.532,0.03427
2.536,0.06141
2.54,0.00726
2.544,0.0235
2.548,0.02814
2.552,0.0514
2.556,0.05695
2.56,0.04124
2.564,0.00693
2.568,0.02744
2.572,0.06769
2.576,0.04202
2.58,0.07332
2.584,0.04436
2.588,0.03119
2.592,0.08734
2.596,0.0931
2.6,0.10613
2.604,0.11919
2.608,0.14307
2.612,0.14404
2.616,0.13065
2.62,0.14381
2.624,0.15577
2.628,0.17771
2.632,0.20095
2.636,0.20537
2.64,0.19881
2.644,0.20565
2.648,0.26275
2.652,0.22313
2.656,0.2397
2.66,0.25726
2.664,0.25083
2.668,0.26005
2.672,0.22591
2.676,0.25182
2.68,0.23471
2.684,0.23535
2.688,0.19644
2.692,0.19308
2.696,0.16673
2.7,0.17589
2.704,0.1309
2.708,0.1687
2.712,0.11444
2.716,0.11239
2.72,0.1304
2.724,0.10051
2.728,0.1086
2.732,0.09493
2.736,0.08312
2.74,0.04321
2.744,0.05072
2.748,0.05214
2.752,0.02885
2.756,0.03843
2.76,0.02768
2.764,0.03439
2.768,0.01611
2.772,0.02452
2.776,0.02506
2.78,0.0285
2.784,0.01893
2.788,0.03195
2.792,0.033
2.796,0.01046
2.8,0.04218
2.804,0.02818
2.808,0.02367
2.812,0.00119
2.816,0.02563
2.82,0.01776
2.824,0.01915
2.828,0.02681
2.832,0.0001
2.836,0.00984
2.84,-0.00138
2.844,0.01552
2.848,0.01405
2.852,0.00924
2.856,0.02264
2.86,0.01625
2.864,0.05384
2.868,-0.00713
2.872,0.01435
2.876,0.00457
2.88,0.01584
2.884,0.02754
2.888,0.00527
2.892,0.00679
2.896,0.02459
2.9,0.00731
2.904,0.01456
2.908,0.00293
2.912,0.03868
2.916,0.00621
2.92,-0.00961
2.924,-0.02979
2.928,0.03034
2.932,0.00705
2.936,0.00693
2.94,0.00838
2.944,0.00986
2.948,0.00991
2.952,0.01756
2.956,0.02029
2.96,0.04324
2.964,-0.00321
2.968,0.02405
2.972,-0.00495
2.976,0.0141
2.98,0.00751
2.984,-0.02419
2.988,0.00864
2.992,0.00322
2.996,0.01939
3.0,0.02148
3.004,0.03638
3.008,0.0247
3.012,0.01202
3.016,-0.01035
3.02,0.03554
3.024,0.01447
3.028,0.01125
3.032,0.00365
3.036,0.01662
3.04,0.00678
3.044,-0.00037
3.048,0.01401
3.052,-0.00891
3.056,0.01784
3.06,0.01069
3.064,-0.01112
3.068,0.03879
3.072,0.02962
3.076,0.03884
3.08,0.0356
3.084,0.05221
3.088,0.08084
3.092,0.0454
3.096,0.06608
3.1,0.10226
3.104,0.07751
3.108,0.12092
3.112,0.12244
3.116,0.11709
3.12,0.11078
3.124,0.08819
3.128,0.09054
3.132,0.06876
3.136,0.06764
3.14,0.04883
3.144,0.04038
3.148,0.01831
3.152,0.01884
3.156,-0.00618
3.16,0.00773
3.164,-0.00585
3.168,0.04035
3.172,0.03284
3.176,0.01687
3.18,0.01231
3.184,0.00672
3.188,-0.01687
3.192,0.01165
3.196,0.00092
3.2,0.00952
3.204,0.02067
3.208,0.00052
3.212,-0.00279
3.216,0.03869
3.22,0.01554
3.224,0.00627
3.228,-0.03707
3.232,-0.06301
3.236,-0.05656
3.24,-0.11641
3.244,-0.0932
3.248,-0.01172
3.252,0.14201
3.256,0.32793
3.26,0.51352
3.264,0.76394
3.268,0.92523
3.272,0.99395
3.276,0.99004
3.28,0.83455
3.284,0.65347
3.288,0.4011
3.292,0.20346
3.296,0.02211
3.3,-0.09687
3.304,-0.17809
3.308,-0.1377
3.312,-0.11639
3.316,-0.08254
3.32,-0.02271
3.324,0.00969
3.328,0.0027
3.332,0.02347
3.336,0.00344
3.34,-0.00228
3.344,0.00249
3.348,-0.00061
3.352,0.02619
3.356,0.01658
3.36,-0.00808
3.364,0.01428
3.368,0.00908
3.372,0.00792
3.376,0.01193
3.38,0.01516
3.384,0.0163
3.388,-0.00964
3.392,0.01537
3.396,-0.0044
3.4,0.01586
3.404,0.03433
3.408,-0.00924
3.412,-1e-05
3.416,0.03702
3.42,0.00977
3.424,0.0047
3.428,0.02849
3.432,0.00141
3.436,-0.0055
3.44,0.03262
3.444,-0.00197
3.448,0.0086
3.452,0.01209
3.456,0.03317
3.46,0.00634
3.464,0.03169
3.468,0.04995
3.472,0.00556
3.476,0.03775
3.48,0.06721
3.484,0.06622
3.488,0.06958
3.492,0.0723
3.496,0.0922
3.5,0.10989
3.504,0.11363
3.508,0.11374
3.512,0.14889
3.516,0.13914
3.52,0.17402
3.524,0.16437
3.528,0.17829
3.532,0.18681
3.536,0.19896
3.54,0.23761
3.544,0.20547
3.548,0.2195
3.552,0.19009
3.556,0.21656
3.56,0.20539
3.564,0.22667
3.568,0.20827
3.572,0.17724
3.576,0.17713
3.58,0.17112
3.584,0.16264
3.588,0.15511
3.592,0.1313
3.596,0.1222
3.6,0.14122
3.604,0.10862
3.608,0.09429
3.612,0.07504
3.616,0.07449
3.62,0.10462
3.624,0.07969
3.628,0.05141
3.632,0.06047
3.636,0.01477
3.64,0.05481
3.644,0.03407
3.648,0.01028
3.652,0.00527
3.656,0.0007
3.66,0.00031
3.664,0.0057
3.668,-0.00303
3.672,0.00094
3.676,0.02395
3.68,0.01252
3.684,0.00865
3.688,-0.01658
3.692,-0.0045
3.696,-0.00475
3.7,0.00323
3.704,-0.01189
3.708,0.01577
3.712,0.00321
3.716,0.00665
3.72,-0.00633
3.724,-0.01608
3.728,0.0154
3.732,0.02904
3.736,0.03333
3.74,0.03728
3.744,0.07665
3.748,0.06781
3.752,0.1043
3.756,0.09078
3.76,0.07866
3.764,0.07181
3.768,0.08619
3.772,0.07647
3.776,0.04843
3.78,0.01417
3.784,0.04028
3.788,0.01008
3.792,0.02486
3.796,0.03777
3.8,0.00206
3.804,-0.02059
3.808,-0.04019
3.812,0.00973
3.816,-0.02911
3.82,-0.00637
3.824,-0.04373
3.828,-0.01639
3.832,-0.00772
3.836,-0.00388
3.84,-0.01346
3.844,-0.00585
3.848,-0.01409
3.852,-0.02263
3.856,-0.01884
3.86,0.04096
3.864,-0.00275
3.868,-0.01233
3.872,-0.04791
3.876,-0.06195
3.88,-0.08385
3.884,-0.10353
3.888,-0.15186
3.892,-0.07784
3.896,0.03252
3.9,0.21693
3.904,0.40265
3.908,0.64777
3.912,0.82399
3.916,0.95192
3.92,0.9998
3.924,0.87524
3.928,0.72731
3.932,0.50107
3.936,0.26303
3.94,0.0821
3.944,-0.07605
3.948,-0.18259
3.952,-0.17066
3.956,-0.19232
3.96,-0.11482
3.964,-0.06597
3.968,-0.07757
3.972,-0.01882
3.976,-0.04356
3.98,-0.02131
3.984,-0.00718
3.988,-0.01119
3.992,-0.03069
3.996,-0.00134
4.0,-0.01142
4.004,-0.00424
4.008,-0.01181
4.012,-0.03341
4.016,-0.00574
4.02,-0.00368
4.024,-0.034
4.028,-0.02854
4.032,0.00125
4.036,-0.01405
4.04,-0.04927
4.044,-0.02383
4.048,-0.0134
4.052,-0.01629
4.056,-0.01072
4.06,-6e-05
4.064,-0.04482
4.068,-0.02923
4.072,-0.00471
4.076,-0.00709
4.08,-0.01494
4.084,-0.00652
4.088,0.00025
4.092,-0.0186
4.096,-0.00206
4.1,0.02978
4.104,0.0183
4.108,-0.00757
4.112,0.02442
4.116,0.0249
4.12,0.02737
4.124,0.06881
4.128,0.02409
4.132,0.07624
4.136,0.07984
4.14,0.07164
4.144,0.09203
4.148,0.09611
4.152,0.10583
4.156,0.14135
4.16,0.14281
4.164,0.14792
4.168,0.15632
4.172,0.16775
4.176,0.18375
4.18,0.15695
4.184,0.19327
4.188,0.20158
4.192,0.18532
4.196,0.19318
4.2,0.19939
4.204,0.19844
4.208,0.2117
4.212,0.16275
4.216,0.1795
4.22,0.17379
4.224,0.16347
4.228,0.17632
4.232,0.16649
4.236,0.12591
4.24,0.09992
4.244,0.12738
4.248,0.13712
4.252,0.11653
4.256,0.07477
4.26,0.09013
4.264,0.0731
4.268,0.04002
4.272,0.02795
4.276,0.05578
4.28,0.03832
4.284,0.03824
4.288,0.01208
4.292,-0.02868
4.296,-0.00929
4.3,-0.00206
4.304,0.00167
4.308,-0.05154
4.312,-0.01595
4.316,-0.02959
4.32,-0.0341
4.324,0.0097
4.328,-0.01868
4.332,-0.0337
4.336,-0.01606
4.34,-0.05998
4.344,-0.05527
4.348,-0.04773
4.352,-0.02811
4.356,-0.03392
4.36,-0.0122
4.364,-0.04063
4.368,0.00786
4.372,-0.02771
4.376,-0.01151
4.38,-0.01526
4.384,-0.02149
4.388,-0.03515
4.392,-0.00042
4.396,-0.03364
4.4,-0.01671
4.404,-0.02427
4.408,-0.0215
4.412,-0.01336
4.416,-0.01957
4.42,-0.00534
4.424,-0.0031
4.428,-0.03921
4.432,-0.01469
4.436,-0.03078
4.44,0.01868
4.444,-0.02402
4.448,0.00499
4.452,-0.0358
4.456,-0.03607
4.46,-0.03264
4.464,-0.02434
4.468,-0.01146
4.472,-0.02957
4.476,-0.01302
4.48,-0.04732
4.484,-0.02678
4.488,-0.02979
4.492,-0.02565
4.496,-0.01313
4.5,-0.03402
4.504,-0.0046
4.508,-0.012
4.512,-0.03637
4.516,-0.02245
4.52,-0.0467
4.524,-0.01235
4.528,-0.03187
4.532,-0.03215
4.536,-0.01283
4.54,-0.02598
4.544,-0.02741
4.548,-0.03188
4.552,-0.01904
4.556,-0.03251
4.56,0.00333
4.564,-0.02803
4.568,-0.01903
4.572,-0.04403
4.576,-0.01016
4.58,-0.01355
4.584,-0.00806
4.588,-0.01426
4.592,0.02868
4.596,-0.00772
4.6,0.03837
4.604,0.0541
4.608,0.07338
4.612,0.05118
4.616,0.07697
4.62,0.08171
4.624,0.06576
4.628,0.06548
4.632,0.06052
4.636,0.04528
4.64,0.00667
4.644,0.01552
4.648,0.01409
4.652,-0.02811
4.656,0.00364
4.66,-0.01456
4.664,-0.04713
4.668,-0.01705
4.672,-0.03423
4.676,-0.03682
4.68,-0.06618
4.684,-0.01839
4.688,-0.00397
4.692,-0.05006
4.696,-0.05586
4.7,-0.04906
4.704,-0.04922
4.708,-0.03918
4.712,-0.02946
4.716,-0.04284
4.72,-0.02755
4.724,-0.00833
4.728,-0.02325
4.732,-0.03884
4.736,-0.05234
4.74,-0.0914
4.744,-0.13026
4.748,-0.17375
4.752,-0.11178
4.756,-0.0055
4.76,0.17282
4.764,0.37302
4.768,0.55195
4.772,0.7495
4.776,0.89628
4.78,0.95288
4.784,0.93416
4.788,0.74329
4.792,0.53075
4.796,0.27977
4.8,0.10118
4.804,-0.08862
4.808,-0.15431
4.812,-0.19947
4.816,-0.1775
4.82,-0.14988
4.824,-0.09476
4.828,-0.07315
4.832,-0.03078
4.836,-0.03861
4.84,-0.02838
4.844,-0.04033
4.848,-0.02156
4.852,-0.02868
4.856,0.0003
4.86,-0.06026
4.864,-0.0562
4.868,-0.03184
4.872,-0.02728
4.876,-0.01539
4.88,-0.05182
4.884,-0.01173
4.888,-0.0384
4.892,-0.01811
4.896,-0.03463
4.9,-0.00778
4.904,-0.06288
4.908,-0.05217
4.912,-0.01218
4.916,-0.01746
4.92,-0.01674
4.924,-0.03986
4.928,-0.02931
4.932,-0.04301
4.936,-0.00449
4.94,-0.04396
4.944,-0.04173
4.948,-0.02281
4.952,-0.00467
4.956,-0.02162
4.96,-0.02048
4.964,-0.02706
4.968,-0.01623
4.972,-0.01439
4.976,0.02755
4.98,-0.00204
4.984,0.00459
4.988,0.01039
4.992,0.05809
4.996,0.05475
5.0,0.07473
5.004,0.06126
5.008,0.05925
5.012,0.09148
5.016,0.11899
5.02,0.12852
5.024,0.15275
5.028,0.1129
5.032,0.1827
5.036,0.14274
5.04,0.18019
5.044,0.2172
5.048,0.16529
5.052,0.20359
5.056,0.19722
5.06,0.18368
5.064,0.17513
5.068,0.14513
5.072,0.17326
5.076,0.17387
5.08,0.15527
5.084,0.14438
5.088,0.15308
5.092,0.13799
5.096,0.14248
5.1,0.07686
5.104,0.14162
5.108,0.0972
5.112,0.04148
5.116,0.07959
5.12,0.04519
5.124,0.03732
5.128,0.03093
5.132,0.03691
5.136,0.00166
5.14,0.00848
5.144,0.00976
5.148,-0.00871
5.152,0.04644
5.156,-0.01525
5.16,-0.02587
5.164,-0.00661
5.168,-0.03372
5.172,-0.0222
5.176,-0.02542
5.18,-0.03878
5.184,-0.02722
5.188,-0.02741
5.192,-0.03222
5.196,-0.03265
5.2,-0.02596
5.204,-0.02544
5.208,0.00111
5.212,-0.02006
5.216,-0.01834
5.22,-0.03341
5.224,-0.04699
5.228,-0.03484
5.232,-0.02016
5.236,-0.02364
5.24,-0.04952
5.244,-0.0197
5.248,-0.02902
5.252,-0.0213
5.256,-0.04791
5.26,-0.04913
5.264,-0.02069
5.268,-0.01875
5.272,-0.04644
5.276,-0.00607
5.28,-0.04825
5.284,-0.00383
5.288,-0.01442
5.292,0.01344
5.296,0.02685
5.3,0.03521
5.304,0.0596
5.308,0.05929
5.312,0.03291
5.316,0.06676
5.32,0.07212
5.324,0.0967
5.328,0.07515
5.332,0.06615
5.336,0.02597
5.34,0.03269
5.344,0.04938
5.348,0.02305
5.352,0.01691
5.356,-0.03703
5.36,-0.01076
5.364,-0.00012
5.368,-0.04036
5.372,-0.00552
5.376,-0.02033
5.38,-0.0402
5.384,-0.01561
5.388,-0.0412
5.392,-0.01613
5.396,-0.02159
5.4,-0.03725
5.404,-0.02305
5.408,-0.05369
5.412,-0.05374
5.416,0.00806
5.42,-0.02474
5.424,-0.00488
5.428,-0.03811
5.432,-0.04243
5.436,-0.03499
5.44,-0.09307
5.444,-0.11303
5.448,-0.13834
5.452,-0.10976
5.456,-0.02631
5.46,0.07437
5.464,0.28555
5.468,0.48245
5.472,0.70017
5.476,0.86704
5.48,0.97792
5.484,0.955
5.488,0.83371
5.492,0.62039
5.496,0.39418
5.5,0.15754
5.504,-0.02417
5.508,-0.14538
5.512,-0.19354
5.516,-0.22592
5.52,-0.19991
5.524,-0.13418
5.528,-0.08478
5.532,-0.06305
5.536,-0.04676
5.54,-0.0524
5.544,-0.00439
5.548,-0.02587
5.552,-0.02155
5.556,-0.01668
5.56,-0.03314
5.564,-0.02118
5.568,-0.01893
5.572,-0.02728
5.576,-0.02803
5.58,-0.02747
5.584,-0.01849
5.588,-0.01901
5.592,-0.02548
5.596,-0.03731
5.6,-0.03289
5.604,-0.01286
5.608,0.00938
5.612,-0.03226
5.616,-0.03178
5.62,-0.04738
5.624,-0.03372
5.628,-0.01648
5.632,-0.02251
5.636,-0.02783
5.64,-0.0176
5.644,-0.01877
5.648,-0.0474
5.652,-0.04403
5.656,-0.02916
5.66,-0.01927
5.664,0.00079
5.668,-0.00416
5.672,0.02499
5.676,0.00811
5.68,0.01659
5.684,0.00587
5.688,0.03814
5.692,0.0289
5.696,0.06442
5.7,0.07236
5.704,0.0767
5.708,0.09069
5.712,0.11569
5.716,0.10848
5.72,0.0973
5.724,0.14505
5.728,0.15018
5.732,0.14531
5.736,0.14301
5.74,0.21216
5.744,0.19846
5.748,0.20681
5.752,0.17973
5.756,0.20557
5.76,0.20403
5.764,0.21623
5.768,0.21026
5.772,0.25112
5.776,0.25269
5.78,0.22448
5.784,0.23828
5.788,0.24871
5.792,0.24926
5.796,0.25709
5.8,0.22344
5.804,0.21475
5.808,0.21629
5.812,0.1955
5.816,0.14615
5.82,0.11483
5.824,0.1109
5.828,0.10876
5.832,0.05398
5.836,0.03904
5.84,0.06404
5.844,0.03532
5.848,0.03177
5.852,0.02737
5.856,0.01839
5.86,-0.01293
5.864,-0.00703
5.868,-0.02405
5.872,-0.0256
5.876,0.00039
5.88,-0.0176
5.884,-0.0245
5.888,-0.0366
5.892,-0.02493
5.896,-0.03215
5.9,0.00488
5.904,-0.03072
5.908,-0.04196
5.912,-0.03195
5.916,-0.05421
5.92,-0.08307
5.924,-0.10069
5.928,-0.13765
5.932,-0.08933
5.936,-0.01918
5.94,0.09615
5.944,0.31669
5.948,0.5279
5.952,0.70462
5.956,0.86665
5.96,0.99022
5.964,0.92634
5.968,0.79026
5.972,0.6094
5.976,0.35323
5.98,0.14978
5.984,-0.0106
5.988,-0.13608
5.992,-0.16195
5.996,-0.19432
6.0,-0.1462
6.004,-0.10522
6.008,-0.05217
6.012,-0.04099
6.016,-0.02576
6.02,-0.02107
6.024,0.00334
6.028,-0.00818
6.032,-0.04068
6.036,-0.02053
6.04,-0.01255
6.044,-0.01223
6.048,-0.02253
6.052,-0.04007
6.056,-0.00833
6.06,0.0026
6.064,-0.02606
6.068,-0.00137
6.072,-0.00833
6.076,-0.00045
6.08,-0.03098
6.084,0.00075
6.088,-0.01783
6.092,-0.0383
6.096,-0.00189
6.1,0.00159
6.104,-0.00091
6.108,-0.02439
6.112,-0.02649
6.116,-0.01479
6.12,-0.01328
6.124,-4e-05
6.128,0.01614
6.132,-0.01813
6.136,-0.03482
6.14,0.00696
6.144,0.00474
6.148,0.01884
6.152,0.02927
6.156,0.02541
6.16,0.03492
6.164,0.03559
6.168,0.05877
6.172,0.04605
6.176,0.04168
6.18,0.06231
6.184,0.06077
6.188,0.10587
6.192,0.10164
6.196,0.11064
6.2,0.13301
6.204,0.13838
6.208,0.15543
6.212,0.16571
6.216,0.199
6.22,0.18787
6.224,0.20616
6.228,0.22722
6.232,0.17905
6.236,0.18772
6.24,0.21751
6.244,0.22058
6.248,0.19576
6.252,0.17072
6.256,0.18587
6.26,0.2013
6.264,0.17335
6.268,0.18275
6.272,0.1532
6.276,0.14256
6.28,0.14399
6.284,0.11022
6.288,0.12418
6.292,0.07175
6.296,0.09782
6.3,0.03309
6.304,0.04472
6.308,0.0559
6.312,0.05439
6.316,0.03896
6.32,0.03695
6.324,0.04481
6.328,0.02332
6.332,0.01411
6.336,0.03152
6.34,0.02608
6.344,-0.0006
6.348,0.01058
6.352,-0.00807
6.356,0.00465
6.36,0.00757
6.364,-0.02218
6.368,-0.00777
6.372,-0.00994
6.376,-0.0097
6.38,-0.02711
6.384,-0.02855
6.388,0.00184
6.392,-0.00858
6.396,-0.02828
6.4,-0.02856
6.404,-0.03088
6.408,-0.0141
6.412,-0.06058
6.416,-0.00976
6.42,-0.03107
6.424,-0.02064
6.428,-0.01363
6.432,-0.01108
6.436,-0.00995
6.44,0.00621
6.444,-0.0093
6.448,-0.0108
6.452,-0.00997
6.456,-0.04117
6.46,-0.00453
6.464,-0.02472
6.468,0.01055
6.472,-0.02877
6.476,0.00738
6.48,-0.00112
6.484,-0.0298
6.488,-0.0149
6.492,0.03479
6.496,0.03615
6.5,0.02972
6.504,-0.03124
6.508,-0.00064
6.512,0.00974
6.516,0.03116
6.52,0.02098
6.524,0.0304
6.528,0.05556
6.532,0.08748
6.536,0.0519
6.54,0.07856
6.544,0.06801
6.548,0.09398
6.552,0.07818
6.556,0.09099
6.56,0.06775
6.564,0.074
6.568,0.05208
6.572,0.02784
6.576,0.02775
6.58,0.0171
6.584,0.01689
6.588,0.02181
6.592,0.00744
6.596,-0.01341
6.6,0.01002
6.604,0.02039
6.608,-0.00047
6.612,0.00282
6.616,-0.00145
6.62,-0.0172
6.624,-0.00757
6.628,-0.01757
6.632,-0.00674
6.636,0.00284
6.64,-0.00908
6.644,0.01071
6.648,-0.01985
6.652,-0.00604
6.656,-0.01594
6.66,-0.00132
6.664,-0.05173
6.668,-0.09368
6.672,-0.10589
6.676,-0.10202
6.68,-0.06649
6.684,0.06705
6.688,0.25183
6.692,0.43741
6.696,0.6536
6.7,0.88512
6.704,0.97032
6.708,0.98141
6.712,0.89584
6.716,0.72892
6.72,0.49672
6.724,0.27632
6.728,0.06333
6.732,-0.07044
6.736,-0.13223
6.74,-0.16763
6.744,-0.14721
6.748,-0.10377
6.752,-0.03697
6.756,-0.04775
6.76,-0.00386
6.764,-0.01862
6.768,-0.02589
6.772,0.00853
6.776,-0.02354
6.78,0.00564
6.784,0.01395
6.788,0.02484
6.792,0.01174
6.796,0.00314
6.8,0.00568
6.804,-0.02673
6.808,-0.02257
6.812,0.01947
6.816,0.01427
6.82,-0.01058
6.824,0.00141
6.828,0.01413
6.832,0.01042
6.836,-0.00724
6.84,0.00554
6.844,-0.01864
6.848,-0.01094
6.852,0.00713
6.856,0.00466
6.86,-0.01295
6.864,0.00729
6.868,0.0098
6.872,-2e-05
6.876,0.0143
6.88,0.00512
6.884,0.0112
6.888,0.0607
6.892,0.03215
6.896,0.0171
6.9,0.00662
6.904,0.06092
6.908,0.04555
6.912,0.07829
6.916,0.06129
6.92,0.04881
6.924,0.08897
6.928,0.13505
6.932,0.10445
6.936,0.14371
6.94,0.13381
6.944,0.16972
6.948,0.1793
6.952,0.15707
6.956,0.17661
6.96,0.20618
6.964,0.19787
6.968,0.19424
6.972,0.20641
6.976,0.2118
6.98,0.2485
6.984,0.20625
6.988,0.21938
6.992,0.20344
6.996,0.22411
7.0,0.23275
7.004,0.21092
7.008,0.18529
7.012,0.20142
7.016,0.162
7.02,0.17738
7.024,0.13954
7.028,0.18099
7.032,0.1417
7.036,0.14005
7.04,0.10459
7.044,0.12811
7.048,0.10758
7.052,0.10771
7.056,0.06357
7.06,0.07871
7.064,0.03529
7.068,0.05449
7.072,0.04596
7.076,0.03488
7.08,0.02336
7.084,0.00902
7.088,0.03096
7.092,0.03523
7.096,0.0241
7.1,0.03024
7.104,0.00725
7.108,-0.01132
7.112,0.03766
7.116,0.01854
7.12,0.01151
7.124,0.01397
7.128,0.00822
7.132,-0.00159
7.136,-0.01852
7.14,0.01057
7.144,-0.0021
7.148,0.02192
7.152,0.00884
7.156,0.02326
7.16,0.04424
7.164,-0.00333
7.168,0.03206
7.172,-0.00093
7.176,0.012
7.18,0.00941
7.184,0.02685
7.188,0.01646
7.192,-0.00562
7.196,0.01054
7.2,0.0137
7.204,0.02441
7.208,-0.00471
7.212,-0.02631
7.216,0.02656
7.22,0.02496
7.224,0.00862
7.228,-0.02672
7.232,0.03179
7.236,0.02366
7.24,0.01906
7.244,0.05779
7.248,0.05515
7.252,0.03897
7.256,0.07438
7.26,0.08502
7.264,0.094
7.268,0.11212
7.272,0.09766
7.276,0.13305
7.28,0.09544
7.284,0.10777
7.288,0.1264
7.292,0.10215
7.296,0.1059
7.3,0.04851
7.304,0.05808
7.308,0.04026
7.312,0.04976
7.316,0.03902
7.32,0.02669
7.324,0.02814
7.328,0.02227
7.332,0.02114
7.336,0.01429
7.34,0.01979
7.344,-0.00179
7.348,0.02063
7.352,0.01387
7.356,-0.00595
7.36,0.01564
7.364,0.01863
7.368,-0.02072
7.372,0.0174
7.376,0.00911
7.38,0.0092
7.384,0.02926
7.388,0.01599
7.392,-0.01465
7.396,-0.02584
7.4,-0.08307
7.404,-0.07501
7.408,-0.088
7.412,-0.01923
7.416,0.10606
7.42,0.27635
7.424,0.51527
7.428,0.69256
7.432,0.86931
7.436,1.0294
7.44,1.018
7.444,0.88556
7.448,0.71402
7.452,0.49736
7.456,0.30091
7.46,0.08733
7.464,-0.08773
7.468,-0.13034
7.472,-0.17455
7.476,-0.09924
7.48,-0.09717
7.484,-0.04969
7.488,0.00645
7.492,-0.00863
7.496,0.00498
7.5,0.0049
7.504,0.02754
7.508,0.03646
7.512,0.01976
7.516,0.00898
7.52,-0.00307
7.524,0.02314
7.528,-0.00877
7.532,0.03065
7.536,0.02101
7.54,0.0123
7.544,0.01134
7.548,0.0283
7.552,0.03041
7.556,0.02774
7.56,0.01466
7.564,0.02061
7.568,0.02888
7.572,-0.00242
7.576,0.03792
7.58,0.02032
7.584,0.04175
7.588,0.02864
7.592,-0.01099
7.596,0.02033
7.6,0.00431
7.604,0.04808
7.608,0.03867
7.612,0.02039
7.616,0.02573
7.62,0.04003
7.624,0.0507
7.628,0.0446
7.632,0.05457
7.636,0.07895
7.64,0.06702
7.644,0.08513
7.648,0.09017
7.652,0.07619
7.656,0.10263
7.66,0.11374
7.664,0.13655
7.668,0.12377
7.672,0.15455
7.676,0.18043
7.68,0.16904
7.684,0.18114
7.688,0.23064
7.692,0.191
7.696,0.21924
7.7,0.21185
7.704,0.24027
7.708,0.23672
7.712,0.25622
7.716,0.25037
7.72,0.23923
7.724,0.2337
7.728,0.22066
7.732,0.25245
7.736,0.2365
7.74,0.23461
7.744,0.18617
7.748,0.21112
7.752,0.19298
7.756,0.17481
7.76,0.16602
7.764,0.16122
7.768,0.12719
7.772,0.14614
7.776,0.12337
7.78,0.08743
7.784,0.12587
7.788,0.0967
7.792,0.08865
7.796,0.09999
7.8,0.0984
7.804,0.05374
7.808,0.06042
7.812,0.047
7.816,0.07232
7.82,0.02802
7.824,0.01806
7.828,0.02227
7.832,0.02539
7.836,0.03864
7.84,0.05749
7.844,0.0393
7.848,0.03678
7.852,0.03148
7.856,0.04623
7.86,0.03677
7.864,0.00631
7.868,0.06042
7.872,0.01899
7.876,0.03244
7.88,0.03323
7.884,0.04863
7.888,0.02957
7.892,0.02327
7.896,0.03898
7.9,0.0518
7.904,0.09473
7.908,0.07407
7.912,0.10314
7.916,0.10086
7.92,0.11585
7.924,0.12633
7.928,0.08704
7.932,0.12877
7.936,0.11854
7.94,0.11275
7.944,0.12103
7.948,0.09913
7.952,0.06927
7.956,0.08218
7.96,0.06332
7.964,0.07196
7.968,0.03361
7.972,0.05492
7.976,0.0403
7.98,0.04826
7.984,0.03035
7.988,0.04432
7.992,0.04332
7.996,0.02732
8.0,0.02165
8.004,0.03112
8.008,0.05073
8.012,0.01961
8.016,0.03996
8.02,0.00406
8.024,0.03812
8.028,0.03507
8.032,0.05246
8.036,0.0267
8.04,0.00994
8.044,0.03723
8.048,-0.00796
8.052,-0.01622
8.056,-0.03304
8.06,-0.07248
8.064,-0.05888
8.068,-0.03691
8.072,0.09935
8.076,0.26512
8.08,0.51002
8.084,0.71461
8.088,0.87612
8.092,1.00741
8.096,1.03523
8.1,0.91658
8.104,0.75032
8.108,0.49536
8.112,0.29368
8.116,0.08354
8.12,-0.04702
8.124,-0.12636
8.128,-0.12394
8.132,-0.1154
8.136,-0.05723
8.14,-0.01344
8.144,-0.00569
8.148,0.03303
8.152,-0.0099
8.156,0.03089
8.16,0.02559
8.164,0.04549
8.168,0.03115
8.172,0.02372
8.176,0.01954
8.18,0.0534
8.184,0.04261
8.188,0.02411
8.192,0.03693
8.196,0.0045
8.2,0.03256
8.204,-0.00148
8.208,0.03507
8.212,0.02454
8.216,0.04448
8.22,0.04144
8.224,0.01325
8.228,0.03186
8.232,0.01486
8.236,0.03488
8.24,0.03352
8.244,0.04864
8.248,0.0213
8.252,0.06329
8.256,0.05853
8.26,0.02802
8.264,0.05715
8.268,0.0427
8.272,0.05115
8.276,0.05747
8.28,0.07547
8.284,0.05863
8.288,0.04153
8.292,0.06362
8.296,0.07098
8.3,0.0446
8.304,0.10459
8.308,0.11651
8.312,0.11823
8.316,0.12055
8.32,0.12979
8.324,0.11943
8.328,0.18592
8.332,0.18367
8.336,0.17172
8.34,0.21104
8.344,0.20922
8.348,0.22223
8.352,0.25456
8.356,0.24196
8.36,0.22869
8.364,0.25109
8.368,0.25304
8.372,0.27607
8.376,0.23608
8.38,0.24484
8.384,0.2424
8.388,0.24848
8.392,0.23084
8.396,0.21547
8.4,0.20639
8.404,0.18807
8.408,0.18846
8.412,0.16172
8.416,0.14129
8.42,0.13875
8.424,0.17603
8.428,0.13383
8.432,0.11312
8.436,0.13378
8.44,0.10598
8.444,0.09484
8.448,0.08786
8.452,0.06538
8.456,0.06783
8.46,0.0521
8.464,0.04437
8.468,0.05008
8.472,0.03535
8.476,0.05192
8.48,0.04648
8.484,0.05082
8.488,0.04082
8.492,0.03739
8.496,0.02694
8.5,0.06766
8.504,0.02442
8.508,0.04557
8.512,0.04002
8.516,0.00625
8.52,0.02279
8.524,0.06597
8.528,0.04218
8.532,0.04309
8.536,0.02111
8.54,0.02122
8.544,0.03606
8.548,0.0133
8.552,0.01617
8.556,0.04259
8.56,0.04967
8.564,0.04132
8.568,0.01245
8.572,0.04879
8.576,0.0214
8.58,0.04229
8.584,0.02914
8.588,0.00829
8.592,0.06118
8.596,0.02581
8.6,0.02869
8.604,0.02233
8.608,0.01876
8.612,0.04726
8.616,0.03179
8.62,0.03301
8.624,0.02336
8.628,0.00944
8.632,0.01779
8.636,0.00769
8.64,0.03345
8.644,0.03801
8.648,0.02499
8.652,0.04025
8.656,0.03386
8.66,0.01584
8.664,0.06465
8.668,0.05852
8.672,0.09522
8.676,0.07199
8.68,0.0839
8.684,0.10089
8.688,0.13143
8.692,0.10175
8.696,0.11061
8.7,0.10437
8.704,0.14088
8.708,0.10568
8.712,0.13015
8.716,0.10807
8.72,0.07333
8.724,0.08885
8.728,0.04644
8.732,0.04326
8.736,0.03792
8.74,0.02066
8.744,0.04087
8.748,0.02974
8.752,0.00984
8.756,0.03499
8.76,0.0703
8.764,0.02795
8.768,0.03714
8.772,0.0326
8.776,-0.00365
8.78,0.04264
8.784,0.0247
8.788,0.02528
8.792,0.02988
8.796,0.03958
8.8,0.03269
8.804,0.04032
8.808,0.01417
8.812,0.01824
8.816,-0.02417
8.82,-0.05375
8.824,-0.1126
8.828,-0.04435
8.832,0.00373
8.836,0.136
8.84,0.37444
8.844,0.58712
8.848,0.7893
8.852,0.95382
8.856,1.02908
8.86,1.00107
8.864,0.85186
8.868,0.62145
8.872,0.39761
8.876,0.18771
8.88,0.03307
8.884,-0.10025
8.888,-0.12443
8.892,-0.11598
8.896,-0.08208
8.9,-0.06659
8.904,-0.02416
8.908,0.00698
8.912,0.02312
8.916,0.05312
8.92,0.01465
8.924,0.02575
8.928,0.01204
8.932,0.02093
8.936,0.03759
8.94,0.03494
8.944,0.02513
8.948,0.01942
8.952,0.0342
8.956,0.04759
8.96,0.04336
8.964,0.01911
8.968,0.02609
8.972,0.01344
8.976,0.02337
8.98,0.02979
8.984,0.03901
8.988,0.02099
8.992,0.01716
8.996,0.02444
9.0,0.0169
9.004,0.02095
9.008,0.02776
9.012,0.00027
9.016,0.02178
9.02,0.0066
9.024,0.06387
9.028,0.02404
9.032,0.04413
9.036,0.0556
9.04,0.04253
9.044,0.05128
9.048,0.07653
9.052,0.07413
9.056,0.05856
9.06,0.05301
9.064,0.08461
9.068,0.1146
9.072,0.10969
9.076,0.11916
9.08,0.12405
9.084,0.13353
9.088,0.15515
9.092,0.15946
9.096,0.19211
9.1,0.17969
9.104,0.22294
9.108,0.21697
9.112,0.19539
9.116,0.19668
9.12,0.23526
9.124,0.22095
9.128,0.27136
9.132,0.23309
9.136,0.21432
9.14,0.21914
9.144,0.25354
9.148,0.1962
9.152,0.22361
9.156,0.22688
9.16,0.20208
9.164,0.19876
9.168,0.20439
9.172,0.19475
9.176,0.17961
9.18,0.15876
9.184,0.17283
9.188,0.13986
9.192,0.12949
9.196,0.13464
9.2,0.10703
9.204,0.10106
9.208,0.06397
9.212,0.06674
9.216,0.09384
9.22,0.06548
9.224,0.06598
9.228,0.02852
9.232,0.0504
9.236,0.03466
9.24,0.03816
9.244,0.01257
9.248,0.03456
9.252,0.01734
9.256,0.02432
9.26,0.03623
9.264,0.0028
9.268,0.02106
9.272,0.01958
9.276,0.02723
9.28,0.0019
9.284,0.00473
9.288,0.03853
9.292,0.01501
9.296,0.02966
9.3,0.01297
9.304,0.02691
9.308,-0.00054
9.312,-0.00635
9.316,0.00434
9.32,0.03841
9.324,0.01941
9.328,0.04135
9.332,0.02153
9.336,0.00702
9.34,0.00881
9.344,0.00054
9.348,0.02642
9.352,0.03069
9.356,0.02312
9.36,0.02266
9.364,-0.00167
9.368,0.02287
9.372,0.02026
9.376,0.02537
9.38,0.03042
9.384,0.0084
9.388,0.04565
9.392,0.02472
9.396,0.02481
9.4,0.02904
9.404,0.03475
9.408,0.02753
9.412,0.06447
9.416,0.06771
9.42,0.07712
9.424,0.09921
9.428,0.11068
9.432,0.09586
9.436,0.12294
9.44,0.10828
9.444,0.10084
9.448,0.08805
9.452,0.12306
9.456,0.06988
9.46,0.08975
9.464,0.08976
9.468,0.06825
9.472,0.06258
9.476,0.05578
9.48,0.05398
9.484,0.0433
9.488,0.0308
9.492,0.0448
9.496,0.02084
9.5,0.00472
9.504,0.02864
9.508,0.01898
9.512,-0.00261
9.516,0.01359
9.52,0.00021
9.524,0.0002
9.528,0.0269
9.532,0.00158
9.536,0.00788
9.54,0.04225
9.544,0.01619
9.548,0.00867
9.552,0.01269
9.556,-0.00515
9.56,-0.0268
9.564,-0.06232
9.568,-0.08468
9.572,-0.1235
9.576,-0.08629
9.58,-0.00363
9.584,0.15212
9.588,0.34465
9.592,0.57188
9.596,0.78442
9.6,0.92472
9.604,1.01746
9.608,0.97322
9.612,0.84475
9.616,0.63662
9.62,0.40409
9.624,0.17618
9.628,0.01249
9.632,-0.11088
9.636,-0.13538
9.64,-0.15395
9.644,-0.14046
9.648,-0.07322
9.652,-0.06048
9.656,0.01142
9.66,0.00773
9.664,-0.00167
9.668,0.01841
9.672,0.00089
9.676,-0.01241
9.68,0.02259
9.684,0.00849
9.688,-0.00425
9.692,0.03423
9.696,0.03695
9.7,0.00322
9.704,0.00763
9.708,0.01144
9.712,0.03932
9.716,0.0311
9.72,0.03534
9.724,0.01127
9.728,0.02016
9.732,0.01013
9.736,0.00565
9.74,0.02631
9.744,0.00917
9.748,0.01545
9.752,0.01707
9.756,0.01275
9.76,0.01996
9.764,0.0132
9.768,0.01594
9.772,0.00557
9.776,0.04283
9.78,0.0139
9.784,0.01817
9.788,0.00874
9.792,0.03577
9.796,0.02986
9.8,0.0414
9.804,0.04116
9.808,0.06017
9.812,0.05234
9.816,0.08265
9.82,0.07245
9.824,0.11472
9.828,0.1211
9.832,0.0793
9.836,0.12669
9.84,0.15854
9.844,0.17667
9.848,0.17594
9.852,0.18576
9.856,0.19105
9.86,0.21866
9.864,0.18909
9.868,0.22416
9.872,0.21518
9.876,0.23475
9.88,0.22977
9.884,0.23041
9.888,0.22239
9.892,0.20639
9.896,0.20941
9.9,0.19966
9.904,0.19902
9.908,0.19164
9.912,0.18789
9.916,0.16202
9.92,0.14597
9.924,0.15162
9.928,0.13447
9.932,0.17566
9.936,0.10912
9.94,0.12727
9.944,0.13732
9.948,0.08394
9.952,0.07645
9.956,0.08303
9.96,0.05483
9.964,0.04587
9.968,0.03402
9.972,0.03636
9.976,0.03561
9.98,0.01112
9.984,-0.01108
9.988,0.03398
9.992,-0.01144
9.996,-0.01476
