t_seg,ecg_mV
0.0,0.00095
0.004,0.01654
0.008,0.01569
0.012,-0.00179
0.016,0.00708
0.02,-0.0052
0.024,0.0222
0.028,0.01502
0.032,0.00766
0.036,0.00722
0.04,-0.0024
0.044,0.00382
0.048,-0.00631
0.052,0.01657
0.056,0.01378
0.06,-0.03272
0.064,0.00228
0.068,0.01729
0.072,0.0288
0.076,0.01137
0.08,-0.00656
0.084,0.01083
0.088,0.01736
0.092,0.00025
0.096,0.01911
0.1,0.02612
0.104,0.02235
0.108,-0.02403
0.112,0.02871
0.116,0.00038
0.12,0.00953
0.124,0.01877
0.128,0.02956
0.132,0.01419
0.136,0.04034
0.14,0.00745
0.144,0.00836
0.148,0.00601
0.152,0.00963
0.156,0.01541
0.16,0.01859
0.164,0.0342
0.168,0.03017
0.172,0.01622
0.176,0.0254
0.18,0.00257
0.184,0.02008
0.188,0.01326
0.192,0.05032
0.196,0.01891
0.2,0.01917
0.204,0.01053
0.208,0.05372
0.212,-0.00137
0.216,0.02257
0.22,0.02895
0.224,0.02127
0.228,0.03294
0.232,0.03977
0.236,0.04457
0.24,0.03474
0.244,0.08306
0.248,0.09191
0.252,0.09825
0.256,0.11195
0.26,0.12316
0.264,0.10142
0.268,0.10414
0.272,0.06778
0.276,0.07132
0.28,0.05202
0.284,0.06241
0.288,0.07817
0.292,0.04378
0.296,0.01131
0.3,0.01034
0.304,0.03997
0.308,0.03746
0.312,0.02424
0.316,0.01655
0.32,0.01768
0.324,0.00861
0.328,0.02159
0.332,0.02436
0.336,0.03279
0.34,0.03296
0.344,0.02709
0.348,0.01024
0.352,0.02116
0.356,0.03682
0.36,-0.00267
0.364,0.01691
0.368,0.00473
0.372,0.00642
0.376,-0.01131
0.38,-0.00405
0.384,-0.0861
0.388,-0.08455
0.392,-0.09385
0.396,-0.07716
0.4,0.06465
0.404,0.22004
0.408,0.41687
0.412,0.6326
0.416,0.85261
0.42,0.96658
0.424,1.01681
0.428,0.96827
0.432,0.80129
0.436,0.5848
0.44,0.36508
0.444,0.13051
0.448,-0.01386
0.452,-0.12369
0.456,-0.15518
0.46,-0.1166
0.464,-0.08351
0.468,-0.03077
0.472,-0.01292
0.476,-0.02216
0.48,0.00568
0.484,0.03505
0.488,0.01305
0.492,0.03683
0.496,0.0377
0.5,0.034
0.504,0.00421
0.508,0.044
0.512,0.00293
0.516,0.00468
0.52,-0.00246
0.524,0.02462
0.528,0.00577
0.532,0.03135
0.536,0.0118
0.54,0.0112
0.544,0.01968
0.548,0.04937
0.552,0.0337
0.556,0.04127
0.56,0.004
0.564,0.00856
0.568,0.00489
0.572,0.03153
0.576,0.0174
0.58,0.03337
0.584,0.04226
0.588,0.04496
0.592,0.01926
0.596,0.04552
0.6,0.06593
0.604,0.02774
0.608,0.03758
0.612,0.04368
0.616,0.06048
0.62,0.03924
0.624,0.05609
0.628,0.09147
0.632,0.09157
0.636,0.1027
0.64,0.10283
0.644,0.08218
0.648,0.12221
0.652,0.10948
0.656,0.14793
0.66,0.15248
0.664,0.19374
0.668,0.1717
0.672,0.21309
0.676,0.20692
0.68,0.18418
0.684,0.22422
0.688,0.22796
0.692,0.23083
0.696,0.22972
0.7,0.24607
0.704,0.26664
0.708,0.23453
0.712,0.26496
0.716,0.21346
0.72,0.24101
0.724,0.24194
0.728,0.18851
0.732,0.21613
0.736,0.18309
0.74,0.1882
0.744,0.16632
0.748,0.15008
0.752,0.14692
0.756,0.14461
0.76,0.12805
0.764,0.13005
0.768,0.13014
0.772,0.09516
0.776,0.07629
0.78,0.06707
0.784,0.06356
0.788,0.04294
0.792,0.04122
0.796,0.0476
0.8,0.05645
0.804,0.05808
0.808,0.0371
0.812,0.04363
0.816,0.03128
0.82,0.02719
0.824,0.03637
0.828,-0.00173
0.832,0.02247
0.836,0.02179
0.84,0.03687
0.844,0.0414
0.848,0.02087
0.852,0.03883
0.856,-0.01368
0.86,0.01212
0.864,0.05327
0.868,0.01842
0.872,0.03951
0.876,0.03062
0.88,0.02201
0.884,0.03629
0.888,0.06612
0.892,0.06246
0.896,0.06503
0.9,0.07591
0.904,0.07908
0.908,0.09016
0.912,0.13843
0.916,0.12489
0.92,0.13279
0.924,0.11546
0.928,0.13709
0.932,0.09536
0.936,0.12808
0.94,0.09085
0.944,0.09348
0.948,0.12145
0.952,0.08166
0.956,0.05417
0.96,0.05781
0.964,0.06134
0.968,0.05883
0.972,0.02682
0.976,0.00451
0.98,0.04518
0.984,0.02622
0.988,0.03632
0.992,0.02567
0.996,0.03586
1.0,0.02945
1.004,0.01446
1.008,0.01413
1.012,0.04075
1.016,0.04931
1.02,0.02251
1.024,0.03802
1.028,0.0463
1.032,0.0659
1.036,0.01884
1.04,0.00854
1.044,-0.03421
1.048,-0.07668
1.052,-0.07873
1.056,-0.06616
1.06,0.05604
1.064,0.18989
1.068,0.38538
1.072,0.59115
1.076,0.82939
1.08,0.96387
1.084,1.02507
1.088,0.97756
1.092,0.83941
1.096,0.60765
1.1,0.35562
1.104,0.1723
1.108,0.03368
1.112,-0.08062
1.116,-0.14055
1.12,-0.14707
1.124,-0.11398
1.128,-0.02892
1.132,-0.03983
1.136,-0.0124
1.14,0.03124
1.144,0.02647
1.148,0.01434
1.152,0.02267
1.156,0.02579
1.16,0.01092
1.164,0.03094
1.168,0.02574
1.172,0.02109
1.176,0.00307
1.18,0.03112
1.184,0.02453
1.188,0.02492
1.192,0.02143
1.196,0.03879
1.2,0.04044
1.204,0.02776
1.208,0.02947
1.212,0.03911
1.216,0.00976
1.22,0.01375
1.224,0.04605
1.228,0.02248
1.232,0.05442
1.236,0.02435
1.24,0.01943
1.244,0.04008
1.248,0.04275
1.252,0.04479
1.256,0.05272
1.26,0.03069
1.264,0.0605
1.268,0.06322
1.272,0.07691
1.276,0.04744
1.28,0.0498
1.284,0.0667
1.288,0.06771
1.292,0.08155
1.296,0.07969
1.3,0.11345
1.304,0.13244
1.308,0.15149
1.312,0.13856
1.316,0.12164
1.32,0.17642
1.324,0.20506
1.328,0.21831
1.332,0.18963
1.336,0.19664
1.34,0.22546
1.344,0.22546
1.348,0.22479
1.352,0.22308
1.356,0.23512
1.36,0.25962
1.364,0.25773
1.368,0.25505
1.372,0.25038
1.376,0.26634
1.38,0.25146
1.384,0.23159
1.388,0.19889
1.392,0.22655
1.396,0.18393
1.4,0.20601
1.404,0.19428
1.408,0.16519
1.412,0.16441
1.416,0.16149
1.42,0.1451
1.424,0.11727
1.428,0.12038
1.432,0.08912
1.436,0.09362
1.44,0.09312
1.444,0.09354
1.448,0.07757
1.452,0.04602
1.456,0.06017
1.46,0.05353
1.464,0.0691
1.468,0.05565
1.472,0.05199
1.476,0.04267
1.48,0.04662
1.484,0.03448
1.488,0.03258
1.492,0.04942
1.496,0.03074
1.5,0.05489
1.504,0.04206
1.508,0.02749
1.512,0.02519
1.516,0.01293
1.52,0.06462
1.524,0.02713
1.528,0.04434
1.532,0.0287
1.536,0.02087
1.54,0.05267
1.544,0.0327
1.548,0.05042
1.552,0.04745
1.556,0.04116
1.56,0.0722
1.564,0.05646
1.568,0.08391
1.572,0.07469
1.576,0.11653
1.58,0.10736
1.584,0.13
1.588,0.13679
1.592,0.13247
1.596,0.14679
1.6,0.11801
1.604,0.06952
1.608,0.10563
1.612,0.0578
1.616,0.0492
1.62,0.05792
1.624,0.05388
1.628,0.06165
1.632,0.03726
1.636,0.02049
1.64,0.04008
1.644,0.03187
1.648,-0.00455
1.652,0.03541
1.656,0.03739
1.66,0.04702
1.664,0.04274
1.668,0.03559
1.672,0.02115
1.676,0.05334
1.68,0.04934
1.684,0.05461
1.688,0.0167
1.692,0.05192
1.696,0.03887
1.7,-0.00779
1.704,-0.03064
1.708,-0.05403
1.712,-0.07233
1.716,-0.08755
1.72,-0.00991
1.724,0.10246
1.728,0.2454
1.732,0.41858
1.736,0.69001
1.74,0.86128
1.744,1.00737
1.748,1.03693
1.752,0.96184
1.756,0.76067
1.76,0.57801
1.764,0.32327
1.768,0.12421
1.772,-0.02054
1.776,-0.11137
1.78,-0.10835
1.784,-0.11016
1.788,-0.07797
1.792,-0.03166
1.796,-0.00618
1.8,0.00703
1.804,-0.0
1.808,0.03102
1.812,0.04195
1.816,0.03966
1.82,0.03234
1.824,0.02112
1.828,0.0376
1.832,0.03413
1.836,0.03839
1.84,0.05657
1.844,0.01972
1.848,0.05923
1.852,0.04638
1.856,0.02139
1.86,0.01466
1.864,0.02622
1.868,0.03338
1.872,0.02828
1.876,0.04085
1.88,0.01574
1.884,0.01935
1.888,0.00744
1.892,0.02678
1.896,0.02921
1.9,0.01149
1.904,0.02277
1.908,0.03656
1.912,0.02982
1.916,0.03024
1.92,0.03787
1.924,0.04069
1.928,0.04093
1.932,0.06078
1.936,0.05817
1.94,0.06118
1.944,0.08667
1.948,0.06982
1.952,0.07672
1.956,0.08302
1.96,0.10507
1.964,0.07371
1.968,0.12311
1.972,0.16071
1.976,0.13939
1.98,0.13862
1.984,0.17578
1.988,0.1856
1.992,0.18941
1.996,0.19172
2.0,0.22684
2.004,0.21195
2.008,0.23662
2.012,0.2296
2.016,0.22694
2.02,0.23433
2.024,0.26101
2.028,0.26641
2.032,0.23894
2.036,0.23491
2.04,0.24512
2.044,0.23367
2.048,0.22677
2.052,0.22648
2.056,0.21157
2.06,0.19639
2.064,0.17126
2.068,0.18202
2.072,0.13692
2.076,0.13207
2.08,0.14607
2.084,0.12448
2.088,0.09719
2.092,0.08406
2.096,0.0913
2.1,0.08674
2.104,0.08172
2.108,0.04768
2.112,0.05901
2.116,0.08588
2.12,0.03635
2.124,0.03498
2.128,0.06056
2.132,0.03662
2.136,0.01849
2.14,0.01696
2.144,0.02791
2.148,0.03185
2.152,0.03488
2.156,0.03762
2.16,0.01731
2.164,0.02326
2.168,0.04264
2.172,0.03709
2.176,0.01867
2.18,0.01341
2.184,0.06209
2.188,0.04855
2.192,0.04929
2.196,0.01103
2.2,0.03309
2.204,-0.01609
2.208,0.01335
2.212,0.02999
2.216,0.01897
2.22,0.0371
2.224,0.02825
2.228,0.01546
2.232,0.03557
2.236,0.03149
2.24,0.05782
2.244,0.04664
2.248,0.0446
2.252,0.04343
2.256,0.07059
2.26,0.11195
2.264,0.12368
2.268,0.11242
2.272,0.14619
2.276,0.11865
2.28,0.1109
2.284,0.11648
2.288,0.06936
2.292,0.10204
2.296,0.07659
2.3,0.06765
2.304,0.0449
2.308,0.05737
2.312,0.03378
2.316,0.03967
2.32,0.03382
2.324,0.00498
2.328,0.03684
2.332,0.00563
2.336,-0.00414
2.34,0.01864
2.344,0.06294
2.348,0.03027
2.352,0.02267
2.356,0.01885
2.36,0.04445
2.364,0.03648
2.368,0.02201
2.372,0.00058
2.376,0.00471
2.38,0.02017
2.384,-0.00774
2.388,-0.02777
2.392,-0.03753
2.396,-0.09596
2.4,-0.1108
2.404,-0.09017
2.408,0.00245
2.412,0.15087
2.416,0.34632
2.42,0.54344
2.424,0.78642
2.428,0.95885
2.432,1.02868
2.436,0.97778
2.44,0.86416
2.444,0.63327
2.448,0.38333
2.452,0.20273
2.456,-0.01717
2.46,-0.10808
2.464,-0.15397
2.468,-0.17611
2.472,-0.12195
2.476,-0.04222
2.48,-0.04936
2.484,-0.01045
2.488,0.00809
2.492,0.01107
2.496,0.01673
2.5,0.01912
2.504,0.01222
2.508,0.00326
2.512,0.01332
2.516,0.01891
2.52,0.03628
2.524,0.03343
2.528,0.0363
2.532,0.02779
2.536,0.00261
2.54,-0.00917
2.544,0.00396
2.548,0.05121
2.552,0.01081
2.556,-0.01803
2.56,0.02337
2.564,0.0002
2.568,0.01285
2.572,0.00963
2.576,0.0204
2.58,0.00641
2.584,0.027
2.588,0.00918
2.592,0.02646
2.596,0.03626
2.6,0.01041
2.604,0.00986
2.608,0.02907
2.612,0.0248
2.616,0.06196
2.62,0.06045
2.624,0.02159
2.628,0.05828
2.632,0.0263
2.636,0.06074
2.64,0.07049
2.644,0.05933
2.648,0.12759
2.652,0.06244
2.656,0.12033
2.66,0.14328
2.664,0.14633
2.668,0.15984
2.672,0.13942
2.676,0.17051
2.68,0.1773
2.684,0.17116
2.688,0.18574
2.692,0.19974
2.696,0.23681
2.7,0.22438
2.704,0.23898
2.708,0.22495
2.712,0.25178
2.716,0.20406
2.72,0.23406
2.724,0.20757
2.728,0.18002
2.732,0.2117
2.736,0.19559
2.74,0.20496
2.744,0.17437
2.748,0.18377
2.752,0.17145
2.756,0.13997
2.76,0.14693
2.764,0.12627
2.768,0.12413
2.772,0.08938
2.776,0.09032
2.78,0.08738
2.784,0.04616
2.788,0.0556
2.792,0.04799
2.796,0.03606
2.8,0.05711
2.804,0.02553
2.808,0.04859
2.812,0.05158
2.816,0.01685
2.82,-0.00448
2.824,0.03687
2.828,0.01756
2.832,0.01251
2.836,0.03407
2.84,0.02729
2.844,0.00501
2.848,-0.00895
2.852,0.0003
2.856,0.03368
2.86,0.00319
2.864,0.00715
2.868,0.01445
2.872,-0.00161
2.876,0.00544
2.88,-0.01377
2.884,0.01226
2.888,-0.01103
2.892,-0.01977
2.896,-0.00261
2.9,-0.00491
2.904,-0.00054
2.908,0.00585
2.912,0.00547
2.916,-0.00147
2.92,-0.00176
2.924,0.00392
2.928,0.03173
2.932,0.03647
2.936,0.01987
2.94,-0.0027
2.944,0.01101
2.948,0.01219
2.952,0.00548
2.956,-0.00726
2.96,-0.00659
2.964,0.00553
2.968,0.00662
2.972,0.00277
2.976,0.0076
2.98,0.01851
2.984,0.03404
2.988,0.00557
2.992,0.01625
2.996,0.04087
3.0,0.02433
3.004,0.04331
3.008,0.0418
3.012,0.0813
3.016,0.09036
3.02,0.08251
3.024,0.10657
3.028,0.09369
3.032,0.11218
3.036,0.09473
3.04,0.08256
3.044,0.08177
3.048,0.07334
3.052,0.03389
3.056,0.05603
3.06,0.03617
3.064,0.04321
3.068,0.00196
3.072,0.02911
3.076,0.00419
3.08,-0.00095
3.084,-0.00229
3.088,-0.01763
3.092,0.00099
3.096,-0.00444
3.1,-0.00268
3.104,-0.00051
3.108,0.01255
3.112,-0.00242
3.116,-0.00986
3.12,0.0113
3.124,0.00222
3.128,0.01182
3.132,-0.01478
3.136,0.01909
3.14,-0.02516
3.144,-0.02622
3.148,-0.06632
3.152,-0.11999
3.156,-0.09519
3.16,-0.07906
3.164,0.04319
3.168,0.15104
3.172,0.35723
3.176,0.58933
3.18,0.77556
3.184,0.94504
3.188,1.00277
3.192,0.9127
3.196,0.77549
3.2,0.55269
3.204,0.3475
3.208,0.14522
3.212,-0.01205
3.216,-0.1399
3.22,-0.16667
3.224,-0.17709
3.228,-0.11644
3.232,-0.07336
3.236,-0.04099
3.24,0.00188
3.244,0.00056
3.248,-0.00221
3.252,-0.00249
3.256,-0.0069
3.26,-0.00067
3.264,-0.01672
3.268,-0.03167
3.272,-0.00184
3.276,-0.02199
3.28,-0.0135
3.284,-0.01235
3.288,-0.02426
3.292,-0.00426
3.296,0.00346
3.3,0.00546
3.304,-0.00789
3.308,0.00029
3.312,-0.02195
3.316,-0.00891
3.32,-0.01387
3.324,0.02537
3.328,-0.00519
3.332,-0.01642
3.336,-0.0193
3.34,0.01062
3.344,-0.00833
3.348,0.01006
3.352,0.00267
3.356,-0.03372
3.36,0.01823
3.364,0.01618
3.368,-0.00414
3.372,0.01897
3.376,0.01652
3.38,0.03734
3.384,0.01512
3.388,0.0108
3.392,0.06375
3.396,0.06551
3.4,0.06881
3.404,0.0475
3.408,0.07337
3.412,0.09699
3.416,0.08146
3.42,0.12595
3.424,0.12261
3.428,0.15106
3.432,0.14737
3.436,0.16672
3.44,0.18114
3.444,0.20013
3.448,0.1985
3.452,0.20478
3.456,0.20477
3.46,0.20309
3.464,0.19165
3.468,0.19913
3.472,0.19505
3.476,0.18329
3.48,0.19341
3.484,0.18291
3.488,0.17156
3.492,0.17804
3.496,0.15065
3.5,0.15229
3.504,0.12883
3.508,0.10559
3.512,0.12811
3.516,0.09915
3.52,0.11049
3.524,0.07385
3.528,0.10785
3.532,0.0719
3.536,0.0505
3.54,0.04639
3.544,0.04158
3.548,0.05123
3.552,0.02784
3.556,0.02316
3.56,-0.02416
3.564,-0.0167
3.568,0.03209
3.572,0.00666
3.576,0.00208
3.58,-0.0106
3.584,-0.0136
3.588,-0.00419
3.592,0.0144
3.596,-8e-05
3.6,-0.0088
3.604,-0.02417
3.608,-0.01547
3.612,-0.00892
3.616,-0.02785
3.62,-0.01612
3.624,-0.02774
3.628,-0.02539
3.632,-0.01305
3.636,0.00881
3.64,-0.01147
3.644,0.00279
3.648,-0.00648
3.652,-0.01097
3.656,-0.0357
3.66,-0.00717
3.664,-0.0236
3.668,-0.02057
3.672,0.00194
3.676,-0.0091
3.68,0.00017
3.684,-0.01177
3.688,-0.00495
3.692,-0.01371
3.696,0.00899
3.7,-0.00442
3.704,-0.01299
3.708,-0.00621
3.712,-0.02395
3.716,-0.01752
3.72,0.01743
3.724,0.01402
3.728,-0.00521
3.732,0.00778
3.736,0.00849
3.74,0.04622
3.744,0.0583
3.748,0.03776
3.752,0.07002
3.756,0.07261
3.76,0.07237
3.764,0.06371
3.768,0.06591
3.772,0.06362
3.776,0.08713
3.78,0.02503
3.784,0.01567
3.788,0.00547
3.792,0.02783
3.796,0.00225
3.8,-0.00652
3.804,-0.00756
3.808,-0.02893
3.812,-0.01567
3.816,-0.02687
3.82,-0.01852
3.824,-0.01818
3.828,-0.02181
3.832,-0.0457
3.836,-0.03547
3.84,-0.01442
3.844,-0.03632
3.848,0.00653
3.852,-0.0184
3.856,-0.01225
3.86,-0.05644
3.864,-0.02261
3.868,-0.01773
3.872,-0.03851
3.876,-0.05687
3.88,-0.1105
3.884,-0.16352
3.888,-0.12855
3.892,-0.06345
3.896,0.07941
3.9,0.23401
3.904,0.48204
3.908,0.67038
3.912,0.84811
3.916,0.96078
3.92,0.9659
3.924,0.83552
3.928,0.65437
3.932,0.45035
3.936,0.19835
3.94,0.00216
3.944,-0.10845
3.948,-0.19128
3.952,-0.19458
3.956,-0.17744
3.96,-0.12414
3.964,-0.08929
3.968,-0.03827
3.972,-0.06374
3.976,-0.03591
3.98,-0.04407
3.984,-0.05151
3.988,-0.02119
3.992,0.00794
3.996,-0.03214
4.0,-0.03111
4.004,-0.0132
4.008,-0.02814
4.012,-0.03214
4.016,-0.00583
4.02,-0.0396
4.024,0.00483
4.028,-0.00492
4.032,-0.03402
4.036,-0.01267
4.04,-0.03101
4.044,-0.02958
4.048,-0.02202
4.052,-0.03694
4.056,-0.01941
4.06,-0.0302
4.064,-0.01464
4.068,-0.01639
4.072,-0.02332
4.076,-0.01402
4.08,0.00567
4.084,0.00326
4.088,-0.00853
4.092,-0.03089
4.096,-0.01667
4.1,-0.00758
4.104,0.00084
4.108,-0.00521
4.112,0.02205
4.116,0.01662
4.12,0.03762
4.124,0.00688
4.128,0.04248
4.132,0.04141
4.136,0.05016
4.14,0.06819
4.144,0.09129
4.148,0.08928
4.152,0.12305
4.156,0.12013
4.16,0.10122
4.164,0.14212
4.168,0.14403
4.172,0.14212
4.176,0.18369
4.18,0.17958
4.184,0.17344
4.188,0.18263
4.192,0.19014
4.196,0.23091
4.2,0.18353
4.204,0.17529
4.208,0.16845
4.212,0.17186
4.216,0.15685
4.22,0.1796
4.224,0.16393
4.228,0.14955
4.232,0.14893
4.236,0.11885
4.24,0.11579
4.244,0.13445
4.248,0.09139
4.252,0.08368
4.256,0.05367
4.26,0.0627
4.264,0.05215
4.268,0.02756
4.272,0.01777
4.276,0.05127
4.28,0.04122
4.284,0.00514
4.288,0.00928
4.292,-0.00561
4.296,-0.03214
4.3,-0.00374
4.304,-0.01146
4.308,-0.03891
4.312,-0.01006
4.316,-0.01947
4.32,-0.04983
4.324,-0.02319
4.328,-0.05673
4.332,-0.02665
4.336,-0.01388
4.34,-0.03995
4.344,-0.03136
4.348,-0.01451
4.352,-0.03294
4.356,-0.02509
4.36,-0.03687
4.364,-0.04758
4.368,-0.03487
4.372,-0.02917
4.376,-0.04031
4.38,-0.05144
4.384,-0.02795
4.388,-0.03542
4.392,-0.0405
4.396,-0.0269
4.4,-0.01161
4.404,-0.03172
4.408,-0.04089
4.412,-0.03195
4.416,-0.04286
4.42,-0.0443
4.424,-0.0112
4.428,-0.04186
4.432,0.00387
4.436,-0.04348
4.44,-0.00797
4.444,-0.04914
4.448,-0.02609
4.452,-0.03004
4.456,-0.04679
4.46,-0.04355
4.464,-0.01941
4.468,-0.05509
4.472,-0.03379
4.476,-0.03455
4.48,-0.01883
4.484,-0.03127
4.488,-0.0328
4.492,-0.03146
4.496,-0.00566
4.5,0.01801
4.504,0.01741
4.508,0.02791
4.512,0.01793
4.516,0.04607
4.52,0.06313
4.524,0.03714
4.528,0.05594
4.532,0.07298
4.536,0.0546
4.54,0.04061
4.544,0.05203
4.548,0.04387
4.552,0.0198
4.556,0.02377
4.56,-0.00331
4.564,-0.02931
4.568,-0.00479
4.572,-0.02799
4.576,-0.03064
4.58,-0.05495
4.584,-0.01589
4.588,-0.03414
4.592,-0.0176
4.596,-0.02324
4.6,-0.0359
4.604,-0.0364
4.608,-0.02495
4.612,-0.0255
4.616,-0.02439
4.62,-0.02869
4.624,-0.04161
4.628,-0.04675
4.632,-0.02721
4.636,-0.0355
4.64,-0.02171
4.644,-0.00918
4.648,-0.06337
4.652,-0.12445
4.656,-0.16455
4.66,-0.13337
4.664,-0.09843
4.668,0.06756
4.672,0.25601
4.676,0.40367
4.68,0.66865
4.684,0.83812
4.688,0.95691
4.692,0.9684
4.696,0.87549
4.7,0.68969
4.704,0.44879
4.708,0.19888
4.712,0.01501
4.716,-0.1094
4.72,-0.19031
4.724,-0.18974
4.728,-0.17295
4.732,-0.12954
4.736,-0.07641
4.74,-0.06484
4.744,-0.01912
4.748,-0.00571
4.752,-0.04189
4.756,-0.03819
4.76,-0.03385
4.764,-0.02803
4.768,-0.03125
4.772,-0.01866
4.776,-0.03773
4.78,-0.03865
4.784,-0.03235
4.788,0.00843
4.792,-0.0341
4.796,-0.03661
4.8,-0.0508
4.804,-0.02697
4.808,-0.02725
4.812,-0.00299
4.816,-0.04908
4.82,-0.01662
4.824,-0.01273
4.828,-0.04665
4.832,-0.02705
4.836,-0.03059
4.84,-0.00331
4.844,-0.0314
4.848,-0.04186
4.852,-0.02503
4.856,-0.02602
4.86,-0.01061
4.864,-0.03289
4.868,-0.01588
4.872,-0.01268
4.876,0.00975
4.88,0.02279
4.884,-0.00243
4.888,0.00801
4.892,0.02262
4.896,0.00992
4.9,0.07156
4.904,0.0512
4.908,0.07677
4.912,0.05363
4.916,0.08559
4.92,0.06726
4.924,0.09922
4.928,0.12636
4.932,0.15699
4.936,0.14067
4.94,0.15212
4.944,0.14858
4.948,0.16367
4.952,0.17982
4.956,0.14367
4.96,0.13371
4.964,0.18283
4.968,0.16678
4.972,0.214
4.976,0.18557
4.98,0.18866
4.984,0.18351
4.988,0.18068
4.992,0.17829
4.996,0.16375
5.0,0.11007
5.004,0.11764
5.008,0.14384
5.012,0.11964
5.016,0.10032
5.02,0.09782
5.024,0.06038
5.028,0.06277
5.032,0.07433
5.036,0.03038
5.04,0.05179
5.044,0.05827
5.048,0.01694
5.052,0.02486
5.056,0.02974
5.06,0.01985
5.064,-0.00615
5.068,0.00459
5.072,-0.00971
5.076,-0.01192
5.08,-0.01284
5.084,-0.0316
5.088,-0.06034
5.092,-0.03241
5.096,-0.02364
5.1,-0.01484
5.104,-0.00792
5.108,-0.03273
5.112,-0.00555
5.116,-0.02757
5.12,-0.03075
5.124,-0.02325
5.128,-0.02783
5.132,-0.05197
5.136,-0.0461
5.14,-0.02468
5.144,-0.03457
5.148,-0.03896
5.152,-0.00709
5.156,-0.04207
5.16,-0.02805
5.164,-0.03388
5.168,0.00083
5.172,-0.02579
5.176,-0.0364
5.18,-0.03159
5.184,-0.05442
5.188,-0.00212
5.192,-0.02956
5.196,0.00016
5.2,-0.02021
5.204,-0.0248
5.208,-0.02692
5.212,-0.01858
5.216,-0.0174
5.22,-0.02267
5.224,-0.02142
5.228,-0.01804
5.232,-0.00873
5.236,0.01604
5.24,0.0026
5.244,0.02728
5.248,0.05568
5.252,0.04489
5.256,0.05495
5.26,0.06706
5.264,0.07358
5.268,0.06335
5.272,0.0793
5.276,0.0492
5.28,0.06408
5.284,0.03944
5.288,0.03385
5.292,0.00432
5.296,0.01881
5.3,0.01003
5.304,-0.03288
5.308,-0.01664
5.312,-0.01336
5.316,-0.01039
5.32,-0.03675
5.324,-0.02911
5.328,-0.03116
5.332,-0.02532
5.336,-0.0163
5.34,-0.01965
5.344,-0.00938
5.348,-0.03171
5.352,-0.03127
5.356,-0.04265
5.36,-0.03748
5.364,-0.02951
5.368,-0.0228
5.372,-0.0162
5.376,-0.00563
5.38,-0.01152
5.384,-0.09687
5.388,-0.12597
5.392,-0.17002
5.396,-0.14104
5.4,-0.04096
5.404,0.08076
5.408,0.24056
5.412,0.4882
5.416,0.6784
5.42,0.8258
5.424,0.97584
5.428,0.96411
5.432,0.84218
5.436,0.67097
5.44,0.40538
5.444,0.20222
5.448,0.01974
5.452,-0.09961
5.456,-0.17569
5.46,-0.18482
5.464,-0.18674
5.468,-0.13794
5.472,-0.05962
5.476,-0.0358
5.48,-0.02928
5.484,-0.03275
5.488,-0.05169
5.492,-0.02771
5.496,-0.01296
5.5,-0.03146
5.504,-0.01562
5.508,-0.02831
5.512,-0.02187
5.516,-0.0142
5.52,-0.02574
5.524,-0.00445
5.528,-0.02482
5.532,-0.01216
5.536,-0.01431
5.54,-0.02431
5.544,-0.01086
5.548,-0.01033
5.552,-0.02959
5.556,-0.01886
5.56,-0.0271
5.564,-0.00842
5.568,-0.02391
5.572,-0.01494
5.576,-0.0081
5.58,-0.02031
5.584,-0.02881
5.588,-0.02913
5.592,-0.0124
5.596,-0.03924
5.6,-0.01274
5.604,0.0121
5.608,0.01272
5.612,0.00667
5.616,-0.02309
5.62,-0.00984
5.624,0.02533
5.628,0.06768
5.632,0.0355
5.636,0.05738
5.64,0.04197
5.644,0.06457
5.648,0.07517
5.652,0.10772
5.656,0.11092
5.66,0.09726
5.664,0.13812
5.668,0.13227
5.672,0.16008
5.676,0.11841
5.68,0.153
5.684,0.15705
5.688,0.15832
5.692,0.18059
5.696,0.20811
5.7,0.22968
5.704,0.20765
5.708,0.21085
5.712,0.20144
5.716,0.21355
5.72,0.21388
5.724,0.20337
5.728,0.1736
5.732,0.18987
5.736,0.15675
5.74,0.13328
5.744,0.13859
5.748,0.12772
5.752,0.12855
5.756,0.10176
5.76,0.08999
5.764,0.08238
5.768,0.06311
5.772,0.06479
5.776,0.05767
5.78,0.03436
5.784,0.04446
5.788,0.00916
5.792,0.01849
5.796,0.02425
5.8,-0.00311
5.804,0.00228
5.808,0.02839
5.812,-0.04692
5.816,0.02381
5.82,-0.01802
5.824,-0.01282
5.828,-0.00464
5.832,-0.01833
5.836,-0.02056
5.84,0.01655
5.844,-0.0427
5.848,-0.00808
5.852,-0.02603
5.856,-0.0267
5.86,-0.00958
5.864,-0.01467
5.868,0.00461
5.872,-0.04206
5.876,-0.02291
5.88,-0.04211
5.884,-0.00303
5.888,-0.01842
5.892,-0.02329
5.896,-0.01353
5.9,-0.00013
5.904,-0.00675
5.908,0.00911
5.912,-0.00746
5.916,0.0071
5.92,0.00278
5.924,-0.00531
5.928,-0.0234
5.932,0.01369
5.936,-0.00976
5.94,0.00805
5.944,-0.02737
5.948,0.01633
5.952,0.02017
5.956,-0.00426
5.96,0.0116
5.964,0.04621
5.968,0.02391
5.972,0.05498
5.976,0.08811
5.98,0.09023
5.984,0.10791
5.988,0.08504
5.992,0.07917
5.996,0.08772
6.0,0.08437
6.004,0.07815
6.008,0.04512
6.012,0.06467
6.016,0.02925
6.02,0.00792
6.024,0.00547
6.028,0.01408
6.032,-0.02249
6.036,-0.00571
6.04,0.0114
6.044,-0.01549
6.048,-0.00425
6.052,-0.01095
6.056,-0.005
6.06,-0.01582
6.064,0.01774
6.068,-0.01568
6.072,-0.00504
6.076,0.00155
6.08,-0.00649
6.084,0.01036
6.088,-0.01504
6.092,-0.00311
6.096,-0.02762
6.1,-0.0075
6.104,-0.02893
6.108,-0.03858
6.112,-0.06038
6.116,-0.11615
6.12,-0.1198
6.124,-0.09852
6.128,-0.00053
6.132,0.13582
6.136,0.3688
6.14,0.59018
6.144,0.78768
6.148,0.94955
6.152,0.97522
6.156,0.92793
6.16,0.77052
6.164,0.55183
6.168,0.32394
6.172,0.13792
6.176,-0.03978
6.18,-0.13993
6.184,-0.17216
6.188,-0.14328
6.192,-0.1283
6.196,-0.07374
6.2,-0.05393
6.204,-0.04614
6.208,-0.01582
6.212,-0.0126
6.216,-0.00915
6.22,-0.0108
6.224,-0.01985
6.228,0.01131
6.232,0.00274
6.236,-0.01186
6.24,0.00287
6.244,-0.01285
6.248,0.01069
6.252,-0.01629
6.256,-0.01124
6.26,0.02005
6.264,-0.00758
6.268,-0.02524
6.272,0.01615
6.276,-0.00252
6.28,0.00063
6.284,-0.0249
6.288,-0.04535
6.292,-0.00201
6.296,0.00704
6.3,0.01075
6.304,0.00353
6.308,0.00405
6.312,-0.02669
6.316,-0.00729
6.32,-0.01747
6.324,0.01272
6.328,0.0301
6.332,0.0122
6.336,0.00548
6.34,0.00807
6.344,0.00459
6.348,0.0381
6.352,0.05326
6.356,0.0492
6.36,0.06691
6.364,0.06836
6.368,0.0838
6.372,0.07486
6.376,0.0925
6.38,0.0877
6.384,0.12369
6.388,0.13793
6.392,0.136
6.396,0.16729
6.4,0.14252
6.404,0.18783
6.408,0.16911
6.412,0.21665
6.416,0.20242
6.42,0.20901
6.424,0.21511
6.428,0.20588
6.432,0.23354
6.436,0.2244
6.44,0.20408
6.444,0.23018
6.448,0.20347
6.452,0.21677
6.456,0.20335
6.46,0.17374
6.464,0.13985
6.468,0.17769
6.472,0.14055
6.476,0.13435
6.48,0.13762
6.484,0.13788
6.488,0.11209
6.492,0.09107
6.496,0.08934
6.5,0.06561
6.504,0.05023
6.508,0.05289
6.512,0.04206
6.516,0.03978
6.52,0.06953
6.524,0.02043
6.528,0.03033
6.532,-0.00078
6.536,0.03197
6.54,0.02722
6.544,0.00707
6.548,0.00347
6.552,0.04849
6.556,0.0173
6.56,0.00512
6.564,-0.01196
6.568,0.00409
6.572,0.00818
6.576,0.02868
6.58,-0.0126
6.584,0.03853
6.588,0.03779
6.592,0.0079
6.596,0.02376
6.6,0.01855
6.604,0.00356
6.608,0.01695
6.612,0.04433
6.616,-0.00696
6.62,-0.00197
6.624,0.00183
6.628,0.01565
6.632,0.02294
6.636,0.02193
6.64,0.04151
6.644,0.0072
6.648,0.03957
6.652,0.04834
6.656,0.05464
6.66,0.06244
6.664,0.09523
6.668,0.08372
6.672,0.09592
6.676,0.0993
6.68,0.12532
6.684,0.08324
6.688,0.10625
6.692,0.10134
6.696,0.08123
6.7,0.08121
6.704,0.07409
6.708,0.02826
6.712,0.04134
6.716,0.01302
6.72,0.02403
6.724,0.01525
6.728,0.03584
6.732,0.02028
6.736,0.00632
6.74,-0.00288
6.744,0.01872
6.748,0.0197
6.752,0.00034
6.756,0.02194
6.76,0.014
6.764,0.02093
6.768,0.00094
6.772,0.01816
6.776,0.00861
6.78,0.01781
6.784,0.01624
6.788,0.01424
6.792,-0.00351
6.796,-0.00364
6.8,-0.04125
6.804,-0.05516
6.808,-0.08755
6.812,-0.12083
6.816,-0.07821
6.82,0.02657
6.824,0.17592
6.828,0.39227
6.832,0.64128
6.836,0.78722
6.84,0.95793
6.844,1.02592
6.848,0.95368
6.852,0.79528
6.856,0.58083
6.86,0.3309
6.864,0.13722
6.868,-0.01809
6.872,-0.10669
6.876,-0.16142
6.88,-0.13204
6.884,-0.09709
6.888,-0.09088
6.892,-0.03559
6.896,0.00096
6.9,-0.00383
6.904,0.01708
6.908,0.01486
6.912,0.02384
6.916,0.01926
6.92,0.02481
6.924,-0.01174
6.928,0.02555
6.932,0.01717
6.936,0.05594
6.94,0.01732
6.944,0.0227
6.948,0.01292
6.952,0.00656
6.956,0.01989
6.96,0.02707
6.964,0.02847
6.968,-0.00036
6.972,0.0108
6.976,0.02616
6.98,0.02053
6.984,0.02463
6.988,-0.00945
6.992,0.03722
6.996,0.01973
7.0,-0.00898
7.004,0.01673
7.008,0.00551
7.012,0.00967
7.016,0.03265
7.02,0.03427
7.024,0.05212
7.028,0.01054
7.032,0.06585
7.036,0.05192
7.04,0.05851
7.044,0.07381
7.048,0.07697
7.052,0.07961
7.056,0.07506
7.06,0.10087
7.064,0.10757
7.068,0.128
7.072,0.09561
7.076,0.14284
7.08,0.16443
7.084,0.19357
7.088,0.19267
7.092,0.19954
7.096,0.1778
7.1,0.21828
7.104,0.21905
7.108,0.23866
7.112,0.20542
7.116,0.22665
7.12,0.20582
7.124,0.25564
7.128,0.24793
7.132,0.22265
7.136,0.21053
7.14,0.22542
7.144,0.19958
7.148,0.22408
7.152,0.20395
7.156,0.18515
7.16,0.18508
7.164,0.1573
7.168,0.13404
7.172,0.13405
7.176,0.12268
7.18,0.12195
7.184,0.09484
7.188,0.09484
7.192,0.10085
7.196,0.08805
7.2,0.07226
7.204,0.0694
7.208,0.04513
7.212,0.04734
7.216,0.01997
7.22,0.01863
7.224,0.03196
7.228,0.03263
7.232,0.05239
7.236,0.01056
7.24,0.02951
7.244,0.02566
7.248,0.02832
7.252,0.05224
7.256,-0.00074
7.26,0.01918
7.264,0.0182
7.268,0.02532
7.272,0.04524
7.276,-0.0034
7.28,-0.00298
7.284,0.04809
7.288,0.03482
7.292,-0.00503
7.296,0.02363
7.3,0.03236
7.304,-0.00159
7.308,0.04373
7.312,0.03294
7.316,0.02009
7.32,0.03733
7.324,0.02491
7.328,0.0303
7.332,0.01091
7.336,0.03391
7.34,0.01976
7.344,0.01033
7.348,-0.00186
7.352,0.0184
7.356,0.01993
7.36,-0.00649
7.364,0.02727
7.368,0.01307
7.372,0.02851
7.376,0.02695
7.38,-0.00011
7.384,0.01097
7.388,0.02406
7.392,0.0177
7.396,0.04027
7.4,0.02847
7.404,0.03572
7.408,0.01598
7.412,0.0507
7.416,0.04268
7.42,0.04184
7.424,0.04386
7.428,0.03625
7.432,0.06418
7.436,0.05986
7.44,0.03694
7.444,0.07967
7.448,0.11402
7.452,0.08534
7.456,0.103
7.46,0.11361
7.464,0.10176
7.468,0.12648
7.472,0.1303
7.476,0.10255
7.48,0.08978
7.484,0.07576
7.488,0.11267
7.492,0.07643
7.496,0.11208
7.5,0.06364
7.504,0.04924
7.508,0.03367
7.512,0.04382
7.516,0.03079
7.52,0.01884
7.524,0.03233
7.528,0.01518
7.532,0.05407
7.536,0.03364
7.54,0.01597
7.544,0.02817
7.548,0.03343
7.552,0.02141
7.556,0.02046
7.56,0.01009
7.564,0.00931
7.568,0.03019
7.572,0.01686
7.576,0.01157
7.58,0.02939
7.584,-0.00387
7.588,-0.01398
7.592,-0.05674
7.596,-0.0974
7.6,-0.09612
7.604,-0.01731
7.608,0.10901
7.612,0.30903
7.616,0.50832
7.62,0.72979
7.624,0.87802
7.628,1.00591
7.632,1.01334
7.636,0.92748
7.64,0.7251
7.644,0.45893
7.648,0.23791
7.652,0.08972
7.656,-0.10001
7.66,-0.11235
7.664,-0.12972
7.668,-0.10319
7.672,-0.08801
7.676,-0.02443
7.68,0.02034
7.684,-0.00483
7.688,0.03003
7.692,0.04172
7.696,0.0351
7.7,0.04427
7.704,0.02502
7.708,0.06653
7.712,0.03078
7.716,0.00465
7.72,0.02377
7.724,0.02199
7.728,0.02845
7.732,0.0249
7.736,0.0119
7.74,0.01545
7.744,0.03281
7.748,0.04937
7.752,0.02409
7.756,0.05522
7.76,0.01311
7.764,0.03726
7.768,0.03541
7.772,0.04511
7.776,0.03846
7.78,0.03769
7.784,0.03823
7.788,0.03733
7.792,0.02537
7.796,0.02629
7.8,0.04428
7.804,0.04262
7.808,0.03962
7.812,0.039
7.816,0.04435
7.82,0.06409
7.824,0.06867
7.828,0.09949
7.832,0.07148
7.836,0.08728
7.84,0.12828
7.844,0.10846
7.848,0.12223
7.852,0.15421
7.856,0.14039
7.86,0.15082
7.864,0.18209
7.868,0.16964
7.872,0.15712
7.876,0.19621
7.88,0.21742
7.884,0.21114
7.888,0.21421
7.892,0.22884
7.896,0.25464
7.9,0.25028
7.904,0.23597
7.908,0.22247
7.912,0.24039
7.916,0.2351
7.92,0.2242
7.924,0.27445
7.928,0.24199
7.932,0.20829
7.936,0.21805
7.94,0.21545
7.944,0.19605
7.948,0.17056
7.952,0.16025
7.956,0.13944
7.96,0.14555
7.964,0.15737
7.968,0.12328
7.972,0.13176
7.976,0.12096
7.98,0.10784
7.984,0.11195
7.988,0.09041
7.992,0.06181
7.996,0.07751
8.0,0.07132
8.004,0.0362
8.008,0.06194
8.012,0.03864
8.016,0.04582
8.02,0.03008
8.024,0.03154
8.028,0.06153
8.032,0.04553
8.036,0.05946
8.04,0.021
8.044,0.03507
8.048,0.03317
8.052,0.05093
8.056,0.01043
8.06,0.01946
8.064,0.03851
8.068,0.00295
8.072,0.0385
8.076,0.03524
8.08,0.03669
8.084,0.05203
8.088,0.05516
8.092,0.05795
8.096,0.08723
8.1,0.08758
8.104,0.08479
8.108,0.10854
8.112,0.11814
8.116,0.13839
8.12,0.13521
8.124,0.1278
8.128,0.11363
8.132,0.11772
8.136,0.13247
8.14,0.09966
8.144,0.08383
8.148,0.0572
8.152,0.08312
8.156,0.04035
8.16,0.06928
8.164,0.02722
8.168,0.04987
8.172,0.03632
8.176,0.03665
8.18,0.02163
8.184,0.04128
8.188,0.02163
8.192,0.02556
8.196,0.03784
8.2,0.00424
8.204,0.04533
8.208,0.04598
8.212,0.01493
8.216,0.04437
8.22,0.02305
8.224,0.01505
8.228,0.02635
8.232,0.02942
8.236,0.02464
8.24,0.00837
8.244,-0.02525
8.248,-0.06135
8.252,-0.08841
8.256,-0.0551
8.26,0.05063
8.264,0.16984
8.268,0.3992
8.272,0.58919
8.276,0.8046
8.28,0.95287
8.284,1.01189
8.288,0.98815
8.292,0.83873
8.296,0.59704
8.3,0.39661
8.304,0.18884
8.308,0.0101
8.312,-0.09349
8.316,-0.13256
8.32,-0.1089
8.324,-0.07557
8.328,-0.05172
8.332,-0.00662
8.336,-0.01714
8.34,-0.01273
8.344,0.04561
8.348,0.01618
8.352,0.03309
8.356,0.03411
8.36,-0.00026
8.364,0.0376
8.368,0.02203
8.372,0.00943
8.376,-0.01624
8.38,0.03501
8.384,0.00713
8.388,0.02664
8.392,0.02171
8.396,0.03443
8.4,0.03239
8.404,0.06278
8.408,0.02968
8.412,0.02874
8.416,0.025
8.42,0.02625
8.424,0.0575
8.428,0.01315
8.432,0.00588
8.436,0.02475
8.44,0.03371
8.444,0.04182
8.448,0.05213
8.452,0.03432
8.456,0.05
8.46,0.04923
8.464,0.0575
8.468,0.04217
8.472,0.04912
8.476,0.07826
8.48,0.07689
8.484,0.07367
8.488,0.09682
8.492,0.08815
8.496,0.07967
8.5,0.109
8.504,0.12367
8.508,0.15298
8.512,0.13859
8.516,0.12576
8.52,0.18308
8.524,0.15342
8.528,0.17258
8.532,0.1896
8.536,0.21869
8.54,0.22245
8.544,0.22999
8.548,0.25517
8.552,0.2404
8.556,0.25116
8.56,0.2359
8.564,0.24061
8.568,0.26114
8.572,0.2237
8.576,0.25537
8.58,0.24275
8.584,0.21502
8.588,0.21855
8.592,0.20433
8.596,0.2116
8.6,0.19681
8.604,0.18312
8.608,0.14673
8.612,0.16523
8.616,0.12712
8.62,0.12719
8.624,0.09446
8.628,0.11456
8.632,0.10752
8.636,0.07168
8.64,0.08385
8.644,0.06192
8.648,0.08722
8.652,0.04416
8.656,0.05271
8.66,0.03353
8.664,0.06536
8.668,0.07178
8.672,0.04312
8.676,0.02522
8.68,0.04712
8.684,0.02224
8.688,0.02504
8.692,0.03301
8.696,0.01245
8.7,0.01695
8.704,0.02123
8.708,0.01939
8.712,0.01872
8.716,0.0385
8.72,-0.00523
8.724,0.02993
8.728,0.03232
8.732,0.01176
8.736,0.01859
8.74,0.00753
8.744,0.01674
8.748,0.035
8.752,0.02691
8.756,0.04127
8.76,0.01821
8.764,0.01783
8.768,0.02141
8.772,0.01699
8.776,0.01188
8.78,0.05685
8.784,0.03466
8.788,0.03145
8.792,0.02917
8.796,0.03125
8.8,0.00812
8.804,0.01857
8.808,0.01746
8.812,0.01047
8.816,0.02504
8.82,-0.0132
8.824,0.03443
8.828,0.00816
8.832,0.04017
8.836,0.04433
8.84,0.04011
8.844,0.00953
8.848,0.00795
8.852,0.01913
8.856,0.01762
8.86,0.0308
8.864,0.00907
8.868,0.05975
8.872,0.03202
8.876,0.05331
8.88,-0.00461
8.884,0.02608
8.888,0.02292
8.892,0.03578
8.896,0.02416
8.9,0.05161
8.904,0.09339
8.908,0.09493
8.912,0.10331
8.916,0.13212
8.92,0.13764
8.924,0.13991
8.928,0.10068
8.932,0.09592
8.936,0.11801
8.94,0.09794
8.944,0.08718
8.948,0.06151
8.952,0.06447
8.956,0.05658
8.96,0.05713
8.964,0.04072
8.968,0.02964
8.972,0.01955
8.976,0.02198
8.98,0.02935
8.984,0.03488
8.988,0.03454
8.992,0.0282
8.996,0.00669
9.0,0.02888
9.004,0.00145
9.008,0.03342
9.012,0.0082
9.016,0.01506
9.02,0.04216
9.024,0.01375
9.028,0.0459
9.032,0.0091
9.036,0.00127
9.04,0.00536
9.044,0.00404
9.048,-0.06883
9.052,-0.08553
9.056,-0.1087
9.06,-0.05602
9.064,0.1248
9.068,0.30446
9.072,0.49262
9.076,0.69139
9.08,0.89636
9.084,1.0137
9.088,0.99278
9.092,0.88075
9.096,0.66473
9.1,0.46362
9.104,0.25125
9.108,0.06016
9.112,-0.07479
9.116,-0.12924
9.12,-0.1414
9.124,-0.09953
9.128,-0.05857
9.132,-0.03751
9.136,-0.031
9.14,-0.0136
9.144,0.00203
9.148,0.00561
9.152,0.00395
9.156,0.0022
9.16,0.02188
9.164,0.00636
9.168,0.02546
9.172,0.03758
9.176,0.00697
9.18,-0.00348
9.184,0.01087
9.188,-0.0
9.192,0.01212
9.196,0.01569
9.2,0.0223
9.204,0.03364
9.208,0.02834
9.212,0.01534
9.216,0.03761
9.22,0.01894
9.224,0.01086
9.228,0.00943
9.232,0.01455
9.236,0.01519
9.24,0.04316
9.244,0.02998
9.248,0.04094
9.252,0.01194
9.256,0.013
9.26,0.02914
9.264,0.00324
9.268,0.05062
9.272,0.02531
9.276,0.06068
9.28,0.04452
9.284,0.06488
9.288,0.01356
9.292,0.10079
9.296,0.07638
9.3,0.08135
9.304,0.11151
9.308,0.10281
9.312,0.09925
9.316,0.13175
9.32,0.13239
9.324,0.16726
9.328,0.16926
9.332,0.18323
9.336,0.19053
9.34,0.20135
9.344,0.21314
9.348,0.19879
9.352,0.22285
9.356,0.22313
9.36,0.23516
9.364,0.24964
9.368,0.23216
9.372,0.25518
9.376,0.22392
9.38,0.21133
9.384,0.24518
9.388,0.22325
9.392,0.18208
9.396,0.19094
9.4,0.1751
9.404,0.16778
9.408,0.15791
9.412,0.13499
9.416,0.14459
9.42,0.12093
9.424,0.10502
9.428,0.10835
9.432,0.06505
9.436,0.0838
9.44,0.07369
9.444,0.03475
9.448,0.0657
9.452,0.03943
9.456,0.03252
9.46,0.00789
9.464,0.0348
9.468,0.02829
9.472,0.00055
9.476,0.02035
9.48,0.03499
9.484,-0.00485
9.488,0.01454
9.492,-0.00111
9.496,0.02369
9.5,0.02399
9.504,0.00757
9.508,0.02336
9.512,0.04606
9.516,0.01081
9.52,0.04917
9.524,0.05458
9.528,0.06886
9.532,0.08888
9.536,0.09469
9.54,0.09735
9.544,0.08757
9.548,0.1083
9.552,0.10998
9.556,0.11153
9.56,0.07977
9.564,0.07998
9.568,0.0662
9.572,0.07588
9.576,0.05355
9.58,0.06865
9.584,0.01317
9.588,0.02981
9.592,0.0123
9.596,0.02046
9.6,-0.02554
9.604,0.002
9.608,0.03503
9.612,-0.02591
9.616,0.00195
9.62,-0.00606
9.624,0.04452
9.628,0.02376
9.632,-0.00457
9.636,0.01887
9.64,0.00565
9.644,-0.0036
9.648,-0.02065
9.652,0.02381
9.656,0.00388
9.66,0.00539
9.664,-0.00379
9.668,-0.03241
9.672,-0.09563
9.676,-0.122
9.68,-0.14842
9.684,-0.0647
9.688,0.07061
9.692,0.23787
9.696,0.46959
9.7,0.665
9.704,0.82743
9.708,0.99521
9.712,0.98927
9.716,0.90598
9.72,0.72036
9.724,0.47144
9.728,0.23033
9.732,0.08755
9.736,-0.07781
9.74,-0.14887
9.744,-0.18674
9.748,-0.11286
9.752,-0.1121
9.756,-0.07727
9.76,-0.0353
9.764,-0.04105
9.768,-0.01863
9.772,0.01343
9.776,-0.02571
9.78,-8e-05
9.784,0.00188
9.788,-0.0138
9.792,0.01109
9.796,0.00122
9.8,0.00233
9.804,-0.02364
9.808,-0.0179
9.812,-0.00422
9.816,-0.01124
9.82,-0.01064
9.824,-0.00026
9.828,-0.00122
9.832,0.02812
9.836,-0.00597
9.84,-0.00924
9.844,-0.00156
9.848,-0.02317
9.852,-0.01237
9.856,-0.03317
9.86,0.02234
9.864,0.00757
9.868,0.00282
9.872,0.00725
9.876,-0.02536
9.88,-0.00325
9.884,0.01427
9.888,0.02973
9.892,0.03087
9.896,0.04298
9.9,0.03642
9.904,0.01453
9.908,0.01333
9.912,0.04324
9.916,0.02641
9.92,0.02208
9.924,0.07245
9.928,0.08362
9.932,0.08742
9.936,0.0916
9.94,0.11713
9.944,0.11161
9.948,0.14039
9.952,0.14396
9.956,0.16376
9.96,0.17417
9.964,0.17826
9.968,0.20323
9.972,0.18457
9.976,0.19989
9.98,0.23723
9.984,0.1915
9.988,0.20682
9.992,0.19935
9.996,0.20385
