t_seg,ecg_mV
0.0,-0.02581
0.004,-0.0344
0.008,0.01679
0.012,-0.00339
0.016,-0.03034
0.02,-0.02944
0.024,-0.03976
0.028,-0.01611
0.032,-0.02208
0.036,-0.02768
0.04,-0.02627
0.044,-0.03203
0.048,-0.02009
0.052,-0.01264
0.056,-0.04097
0.06,-0.00924
0.064,-0.01726
0.068,-0.05261
0.072,-0.01487
0.076,-0.015
0.08,0.01217
0.084,-0.03613
0.088,-0.01008
0.092,-0.0268
0.096,0.00408
0.1,-0.02326
0.104,-0.0423
0.108,-0.03961
0.112,-0.02061
0.116,-0.0344
0.12,-0.02275
0.124,-0.03142
0.128,-0.0579
0.132,-0.04764
0.136,-0.01555
0.14,-0.0161
0.144,-0.03266
0.148,-0.02089
0.152,-0.03505
0.156,-0.01373
0.16,-0.02443
0.164,-0.00396
0.168,-0.01631
0.172,-0.02684
0.176,-0.01025
0.18,-0.0002
0.184,0.00333
0.188,0.00663
0.192,0.03028
0.196,0.01952
0.2,0.03084
0.204,0.05215
0.208,0.05238
0.212,0.06482
0.216,0.06359
0.22,0.075
0.224,0.06773
0.228,0.04903
0.232,0.05185
0.236,0.06703
0.24,0.02513
0.244,-0.00781
0.248,0.01033
0.252,0.00666
0.256,-0.02318
0.26,-0.04215
0.264,-0.02922
0.268,-0.02909
0.272,-0.02978
0.276,-0.01423
0.28,-0.04163
0.284,-0.00939
0.288,-0.05315
0.292,-0.04666
0.296,-0.0464
0.3,-0.01136
0.304,-0.03793
0.308,-0.00942
0.312,-0.0265
0.316,-0.00915
0.32,-0.02048
0.324,0.00166
0.328,-0.03956
0.332,-0.05718
0.336,-0.06443
0.34,-0.10209
0.344,-0.14575
0.348,-0.13038
0.352,-0.04376
0.356,0.08298
0.36,0.23279
0.364,0.45534
0.368,0.72394
0.372,0.85651
0.376,0.98652
0.38,0.95481
0.384,0.84737
0.388,0.62789
0.392,0.42884
0.396,0.17248
0.4,0.02412
0.404,-0.11286
0.408,-0.16314
0.412,-0.19993
0.416,-0.16552
0.42,-0.11317
0.424,-0.07437
0.428,-0.0646
0.432,-0.0682
0.436,-0.03982
0.44,-0.02605
0.444,-0.00725
0.448,-0.03837
0.452,-0.06378
0.456,-0.02735
0.46,-0.01462
0.464,-0.06014
0.468,-0.00917
0.472,-0.03471
0.476,-0.03007
0.48,-0.02488
0.484,-0.02433
0.488,-0.03557
0.492,0.00832
0.496,-0.03454
0.5,-0.03622
0.504,-0.0322
0.508,-0.03137
0.512,-0.01712
0.516,-0.01615
0.52,-0.03284
0.524,-0.02402
0.528,0.00431
0.532,-0.017
0.536,0.00357
0.54,-0.01546
0.544,-0.01246
0.548,0.00717
0.552,-0.02854
0.556,0.00524
0.56,-0.02406
0.564,-0.00866
0.568,0.01341
0.572,0.00503
0.576,0.02233
0.58,-0.01636
0.584,0.02371
0.588,0.02116
0.592,0.03853
0.596,0.05138
0.6,0.07429
0.604,0.07402
0.608,0.10709
0.612,0.13279
0.616,0.12802
0.62,0.1248
0.624,0.13533
0.628,0.12721
0.632,0.13681
0.636,0.17623
0.64,0.18765
0.644,0.18421
0.648,0.18244
0.652,0.16144
0.656,0.20411
0.66,0.1887
0.664,0.20362
0.668,0.17996
0.672,0.18795
0.676,0.17232
0.68,0.17331
0.684,0.18684
0.688,0.13126
0.692,0.12053
0.696,0.13275
0.7,0.11765
0.704,0.09479
0.708,0.07336
0.712,0.09235
0.716,0.05537
0.72,0.03879
0.724,0.0342
0.728,0.02437
0.732,0.03216
0.736,0.0371
0.74,0.00858
0.744,0.00113
0.748,-0.03955
0.752,-8e-05
0.756,0.00418
0.76,-0.00785
0.764,0.01875
0.768,-0.02243
0.772,-0.02593
0.776,-0.02111
0.78,-0.03243
0.784,-0.01736
0.788,-0.04004
0.792,-0.03525
0.796,-0.02944
0.8,-0.00494
0.804,-0.03596
0.808,-0.03905
0.812,-0.01185
0.816,-0.02505
0.82,-0.0441
0.824,-0.05087
0.828,-0.04082
0.832,-0.02663
0.836,-0.02719
0.84,-0.01314
0.844,-0.02051
0.848,-0.05442
0.852,-0.02766
0.856,-0.03017
0.86,-0.03165
0.864,-0.03092
0.868,-0.02529
0.872,-0.05459
0.876,-0.00267
0.88,-0.03061
0.884,-0.03456
0.888,-0.01065
0.892,-0.03303
0.896,-0.03455
0.9,-0.01773
0.904,-0.02702
0.908,-0.01304
0.912,-0.02211
0.916,-0.06321
0.92,-0.03719
0.924,-0.02659
0.928,-0.02162
0.932,0.00171
0.936,-0.03801
0.94,-0.02883
0.944,-0.0313
0.948,-0.05556
0.952,-0.02398
0.956,-0.03821
0.96,-0.01873
0.964,-0.03822
0.968,-0.02191
0.972,-0.03893
0.976,-0.01528
0.98,-0.03841
0.984,-0.01087
0.988,-0.02177
0.992,-0.00887
0.996,-0.0123
1.0,-0.01747
1.004,-0.01692
1.008,-0.05274
1.012,-0.04269
1.016,-0.02344
1.02,-0.02064
1.024,-0.02103
1.028,-0.06898
1.032,-0.01454
1.036,-0.04266
1.04,-0.0364
1.044,-0.03649
1.048,-0.02167
1.052,-0.02936
1.056,-0.06325
1.06,-0.01824
1.064,-0.00868
1.068,-0.027
1.072,-0.00867
1.076,-0.03533
1.08,-0.00958
1.084,-0.02841
1.088,-0.04118
1.092,-0.0362
1.096,-0.02986
1.1,-0.01195
1.104,-0.01757
1.108,-0.01558
1.112,-0.02209
1.116,-0.02892
1.12,-0.03607
1.124,-0.01976
1.128,-0.02645
1.132,-0.00645
1.136,-0.01586
1.14,-0.04195
1.144,-0.0191
1.148,-0.0344
1.152,-0.03929
1.156,-0.03377
1.16,-0.01713
1.164,-0.02961
1.168,0.0028
1.172,-0.03804
1.176,-0.02065
1.18,-0.03581
1.184,-0.0302
1.188,-0.00786
1.192,0.011
1.196,-0.01159
1.2,-0.03015
1.204,-0.03763
1.208,-0.04932
1.212,-0.00723
1.216,-0.02976
1.22,-0.04565
1.224,-0.00629
1.228,-0.00114
1.232,-0.02765
1.236,-0.0179
1.24,-0.03864
1.244,-0.0143
1.248,-0.02383
1.252,-0.01269
1.256,-0.02487
1.26,-0.06378
1.264,-0.03277
1.268,-0.05144
1.272,-0.03396
1.276,-0.03055
1.28,-0.01525
1.284,-0.03887
1.288,-0.04421
1.292,-0.03243
1.296,-0.02437
1.3,-0.02835
1.304,-0.04458
1.308,-0.04265
1.312,-0.03522
1.316,-0.01696
1.32,-0.00906
1.324,-0.01554
1.328,-0.01304
1.332,-0.00315
1.336,-0.03488
1.34,-0.02185
1.344,-0.03111
1.348,-0.03314
1.352,-0.01588
1.356,-0.02224
1.36,-0.01741
1.364,-0.02663
1.368,-0.01494
1.372,-0.00794
1.376,-0.01948
1.38,-0.01218
1.384,-0.02314
1.388,-0.02647
1.392,-0.02104
1.396,-0.00812
1.4,-0.01479
1.404,0.02336
1.408,0.03946
1.412,0.03822
1.416,0.04906
1.42,0.07756
1.424,0.05665
1.428,0.06909
1.432,0.08377
1.436,0.0725
1.44,0.05025
1.444,0.04548
1.448,0.04921
1.452,0.05069
1.456,0.01564
1.46,0.02512
1.464,0.00397
1.468,0.02165
1.472,0.03283
1.476,-0.03171
1.48,0.00637
1.484,-0.03749
1.488,0.00383
1.492,-0.01323
1.496,-0.0586
1.5,-0.00288
1.504,-0.01061
1.508,-0.01091
1.512,-0.02278
1.516,-0.02959
1.52,-0.01965
1.524,-0.02312
1.528,-0.01883
1.532,-0.02327
1.536,-0.02557
1.54,-0.03484
1.544,-0.04206
1.548,-0.07483
1.552,-0.06443
1.556,-0.1108
1.56,-0.13674
1.564,-0.10709
1.568,0.00642
1.572,0.1447
1.576,0.31987
1.58,0.5322
1.584,0.7466
1.588,0.90165
1.592,0.97454
1.596,0.93942
1.6,0.79271
1.604,0.56359
1.608,0.34565
1.612,0.14418
1.616,-0.01577
1.62,-0.1236
1.624,-0.19647
1.628,-0.17415
1.632,-0.13927
1.636,-0.1108
1.64,-0.06185
1.644,-0.04589
1.648,-0.05016
1.652,-0.01977
1.656,-0.01405
1.66,-0.00797
1.664,-0.0385
1.668,-0.01772
1.672,-0.02797
1.676,-0.03859
1.68,-0.00124
1.684,-0.00726
1.688,-0.0213
1.692,-0.04594
1.696,-0.01631
1.7,0.00279
1.704,-0.05072
1.708,0.00173
1.712,0.01171
1.716,-0.0278
1.72,-0.00311
1.724,-0.01785
1.728,0.01554
1.732,-0.02295
1.736,-0.00675
1.74,-0.01547
1.744,0.00968
1.748,-0.00305
1.752,-0.0132
1.756,0.00675
1.76,-0.02152
1.764,0.02274
1.768,-0.0086
1.772,-0.01568
1.776,0.03081
1.78,0.00774
1.784,0.00544
1.788,0.03274
1.792,0.01687
1.796,0.03055
1.8,0.04458
1.804,0.05799
1.808,0.05288
1.812,0.06618
1.816,0.08084
1.82,0.08057
1.824,0.10021
1.828,0.12494
1.832,0.14099
1.836,0.15938
1.84,0.16444
1.844,0.1697
1.848,0.16768
1.852,0.19243
1.856,0.20105
1.86,0.21464
1.864,0.18663
1.868,0.20998
1.872,0.22014
1.876,0.19651
1.88,0.1921
1.884,0.19185
1.888,0.1962
1.892,0.17884
1.896,0.18965
1.9,0.17719
1.904,0.15424
1.908,0.13668
1.912,0.15726
1.916,0.10424
1.92,0.11969
1.924,0.0877
1.928,0.05708
1.932,0.08362
1.936,0.08165
1.94,0.06479
1.944,0.05823
1.948,0.03014
1.952,0.04304
1.956,-0.00154
1.96,0.02665
1.964,0.02617
1.968,0.03472
1.972,0.01321
1.976,-0.00671
1.98,0.01552
1.984,0.01181
1.988,0.00691
1.992,0.01714
1.996,-0.00054
2.0,9e-05
2.004,0.01189
2.008,0.0057
2.012,-0.00565
2.016,-0.00979
2.02,-0.04716
2.024,0.00334
2.028,-0.01687
2.032,-0.00235
2.036,-0.04711
2.04,-0.01088
2.044,-0.00716
2.048,-0.00406
2.052,-0.03358
2.056,-0.01773
2.06,0.00207
2.064,-0.01415
2.068,-0.00547
2.072,-0.00633
2.076,0.00419
2.08,-0.003
2.084,-0.01743
2.088,0.00726
2.092,-0.00158
2.096,0.0144
2.1,-0.01411
2.104,0.01225
2.108,-0.00253
2.112,0.03414
2.116,0.02674
2.12,-0.01183
2.124,-0.00207
2.128,-0.03693
2.132,0.02962
2.136,-0.0244
2.14,-0.00322
2.144,-0.02333
2.148,-0.02105
2.152,0.00536
2.156,0.00691
2.16,0.00871
2.164,-0.03204
2.168,0.00095
2.172,0.00457
2.176,-0.00824
2.18,0.01453
2.184,-0.0099
2.188,-0.0169
2.192,-0.00463
2.196,-0.03295
2.2,0.02264
2.204,-0.00946
2.208,-0.04042
2.212,-0.0234
2.216,-0.01542
2.22,-0.03356
2.224,-0.00293
2.228,-0.00018
2.232,-0.02404
2.236,0.00681
2.24,-0.00129
2.244,-0.01553
2.248,-0.00511
2.252,0.0087
2.256,0.00137
2.26,-0.00628
2.264,-0.03766
2.268,-0.00044
2.272,-0.00987
2.276,-0.00809
2.28,0.01883
2.284,-0.00624
2.288,0.0008
2.292,-0.00395
2.296,-0.00214
2.3,-0.00849
2.304,0.00822
2.308,0.04833
2.312,-0.02332
2.316,-0.00704
2.32,0.00074
2.324,0.00494
2.328,0.01097
2.332,0.0058
2.336,-0.0045
2.34,-0.01881
2.344,0.00513
2.348,-0.04242
2.352,-0.01408
2.356,-0.01486
2.36,0.00478
2.364,-0.01547
2.368,0.00472
2.372,-0.00858
2.376,0.00653
2.38,-0.00826
2.384,0.02168
2.388,-0.00246
2.392,-0.00988
2.396,0.00686
2.4,0.00873
2.404,0.01948
2.408,-0.01072
2.412,-0.00172
2.416,-0.01719
2.42,0.00472
2.424,0.03253
2.428,-0.00732
2.432,-0.01069
2.436,-0.00761
2.44,-0.01939
2.444,0.0004
2.448,0.00782
2.452,0.02641
2.456,0.00727
2.46,0.00484
2.464,0.01756
2.468,0.03355
2.472,0.00656
2.476,-0.02805
2.48,0.00412
2.484,-0.00664
2.488,0.00765
2.492,-0.01024
2.496,-0.01787
2.5,-0.02014
2.504,0.00011
2.508,-0.01986
2.512,0.01349
2.516,-0.02779
2.52,0.03333
2.524,0.01069
2.528,0.01858
2.532,-0.00142
2.536,0.01725
2.54,0.01611
2.544,0.0259
2.548,0.01285
2.552,0.01364
2.556,0.0208
2.56,0.00467
2.564,0.01568
2.568,-0.00318
2.572,0.00318
2.576,0.01172
2.58,-0.0214
2.584,-0.01205
2.588,0.01067
2.592,-0.01811
2.596,-9e-05
2.6,-0.01838
2.604,0.02545
2.608,0.00556
2.612,0.00968
2.616,0.02618
2.62,0.01965
2.624,0.00401
2.628,-0.00385
2.632,0.02844
2.636,0.03485
2.64,0.0362
2.644,-0.00669
2.648,-0.00546
2.652,0.01747
2.656,0.01471
2.66,-0.01364
2.664,0.02625
2.668,0.00598
2.672,-0.02532
2.676,0.02155
2.68,0.0273
2.684,0.02409
2.688,-0.00762
2.692,0.00142
2.696,0.01738
2.7,0.01315
2.704,-0.00039
2.708,0.0134
2.712,-0.00602
2.716,0.00818
2.72,0.01435
2.724,0.01782
2.728,-0.01768
2.732,0.00559
2.736,0.03514
2.74,0.03847
2.744,0.01062
2.748,0.02741
2.752,0.01427
2.756,0.0322
2.76,0.0434
2.764,0.07062
2.768,0.05939
2.772,0.09654
2.776,0.10962
2.78,0.12534
2.784,0.1221
2.788,0.11562
2.792,0.13162
2.796,0.12855
2.8,0.08725
2.804,0.10344
2.808,0.06254
2.812,0.03366
2.816,0.06432
2.82,0.07456
2.824,0.02952
2.828,0.04674
2.832,0.04032
2.836,0.0089
2.84,0.01338
2.844,0.02302
2.848,0.0062
2.852,0.01843
2.856,0.05184
2.86,0.00731
2.864,0.00151
2.868,0.02686
2.872,0.01964
2.876,0.00106
2.88,0.03533
2.884,-0.0042
2.888,0.02899
2.892,0.02702
2.896,-0.00996
2.9,-0.01694
2.904,-0.05548
2.908,-0.06031
2.912,-0.07221
2.916,-0.09593
2.92,-0.06555
2.924,0.06448
2.928,0.1997
2.932,0.43397
2.936,0.62189
2.94,0.85679
2.944,0.96782
2.948,0.99968
2.952,0.90487
2.956,0.78093
2.96,0.53187
2.964,0.33255
2.968,0.1212
2.972,-0.01265
2.976,-0.12311
2.98,-0.15243
2.984,-0.15524
2.988,-0.11214
2.992,-0.05779
2.996,-0.01774
3.0,0.01262
3.004,0.04587
3.008,0.0316
3.012,0.02249
3.016,0.01139
3.02,-0.00778
3.024,0.01215
3.028,0.00169
3.032,0.006
3.036,0.01178
3.04,0.01218
3.044,0.02499
3.048,0.02059
3.052,0.01686
3.056,0.00997
3.06,0.0318
3.064,0.0346
3.068,0.01708
3.072,0.0083
3.076,0.00769
3.08,0.01441
3.084,0.00685
3.088,0.02284
3.092,0.02006
3.096,0.0436
3.1,0.02591
3.104,0.029
3.108,0.0034
3.112,0.03011
3.116,0.02167
3.12,0.03424
3.124,0.03665
3.128,0.06697
3.132,0.05728
3.136,0.02533
3.14,0.03606
3.144,0.06365
3.148,0.0672
3.152,0.07306
3.156,0.07428
3.16,0.06664
3.164,0.10456
3.168,0.10019
3.172,0.12854
3.176,0.14621
3.18,0.13183
3.184,0.16904
3.188,0.17354
3.192,0.19061
3.196,0.1849
3.2,0.19024
3.204,0.22007
3.208,0.22865
3.212,0.26023
3.216,0.23955
3.22,0.22237
3.224,0.23757
3.228,0.254
3.232,0.23795
3.236,0.23955
3.24,0.24131
3.244,0.23102
3.248,0.22111
3.252,0.17689
3.256,0.17963
3.26,0.18592
3.264,0.17831
3.268,0.17441
3.272,0.13529
3.276,0.12118
3.28,0.12507
3.284,0.12423
3.288,0.10009
3.292,0.12841
3.296,0.08521
3.3,0.07106
3.304,0.085
3.308,0.0625
3.312,0.05629
3.316,0.03867
3.32,0.03772
3.324,0.03413
3.328,0.0546
3.332,0.07115
3.336,0.03393
3.34,0.05493
3.344,0.06065
3.348,0.02741
3.352,0.0246
3.356,0.03005
3.36,0.05322
3.364,0.02003
3.368,-0.00664
3.372,0.05256
3.376,0.01385
3.38,0.01077
3.384,0.01424
3.388,0.02894
3.392,0.04867
3.396,0.0183
3.4,0.03136
3.404,0.01638
3.408,0.02173
3.412,0.02227
3.416,0.01474
3.42,0.00387
3.424,0.0157
3.428,0.01616
3.432,0.02057
3.436,0.00497
3.44,0.02675
3.444,0.03033
3.448,0.02957
3.452,0.03089
3.456,0.01578
3.46,-0.00196
3.464,0.03596
3.468,0.02605
3.472,0.04277
3.476,0.0177
3.48,0.05084
3.484,0.02314
3.488,0.03138
3.492,0.03403
3.496,0.03403
3.5,0.04421
3.504,0.04302
3.508,0.03323
3.512,0.01726
3.516,0.0065
3.52,0.04111
3.524,0.01246
3.528,0.00612
3.532,0.02818
3.536,0.03434
3.54,0.00333
3.544,0.01888
3.548,0.0142
3.552,0.04054
3.556,0.02725
3.56,0.00759
3.564,-0.0045
3.568,0.01154
3.572,0.02818
3.576,0.03646
3.58,0.02853
3.584,0.01178
3.588,0.06339
3.592,0.025
3.596,0.02058
3.6,0.02558
3.604,0.01494
3.608,-0.00478
3.612,0.03714
3.616,0.01583
3.62,0.01442
3.624,0.01911
3.628,0.05082
3.632,0.04906
3.636,0.0185
3.64,0.0357
3.644,0.03081
3.648,0.0354
3.652,0.04763
3.656,0.03775
3.66,0.02932
3.664,0.0428
3.668,0.03025
3.672,0.00366
3.676,0.02685
3.68,0.04339
3.684,0.04857
3.688,0.03251
3.692,0.01389
3.696,0.02501
3.7,0.03903
3.704,0.00425
3.708,0.03782
3.712,0.01933
3.716,0.02829
3.72,0.03648
3.724,0.04501
3.728,0.05464
3.732,0.00974
3.736,0.04543
3.74,0.03004
3.744,0.02519
3.748,0.08512
3.752,0.01118
3.756,0.05412
3.76,0.03441
3.764,0.00931
3.768,0.02443
3.772,0.03585
3.776,0.03204
3.78,0.02611
3.784,0.0107
3.788,0.02676
3.792,0.03742
3.796,0.01352
3.8,0.00815
3.804,0.01808
3.808,0.05669
3.812,0.0261
3.816,0.04719
3.82,0.02332
3.824,0.06515
3.828,0.0128
3.832,0.0374
3.836,0.05653
3.84,0.03089
3.844,0.04668
3.848,0.03653
3.852,0.01989
3.856,0.02944
3.86,-0.00266
3.864,0.03354
3.868,0.02933
3.872,-0.00172
3.876,0.00886
3.88,0.01795
3.884,0.0176
3.888,0.05185
3.892,0.01792
3.896,0.02973
3.9,0.04224
3.904,0.03939
3.908,0.0434
3.912,0.06445
3.916,0.07693
3.92,0.09911
3.924,0.08266
3.928,0.08671
3.932,0.09687
3.936,0.10436
3.94,0.13815
3.944,0.12713
3.948,0.11837
3.952,0.13176
3.956,0.11503
3.96,0.11208
3.964,0.13029
3.968,0.09116
3.972,0.08085
3.976,0.06146
3.98,0.07096
3.984,0.08075
3.988,0.05658
3.992,0.0518
3.996,0.01657
4.0,0.03669
4.004,0.05585
4.008,0.02767
4.012,0.04173
4.016,0.04894
4.02,0.03136
4.024,0.04401
4.028,0.03668
4.032,0.02877
4.036,0.01308
4.04,0.01659
4.044,0.01469
4.048,0.00131
4.052,0.01182
4.056,0.02655
4.06,0.01774
4.064,0.00847
4.068,-0.03668
4.072,-0.08096
4.076,-0.07839
4.08,-0.06279
4.084,0.01129
4.088,0.18936
4.092,0.38244
4.096,0.62753
4.1,0.80927
4.104,0.96755
4.108,1.03668
4.112,0.96177
4.116,0.84305
4.12,0.6429
4.124,0.36307
4.128,0.17187
4.132,0.0103
4.136,-0.10726
4.14,-0.12495
4.144,-0.13188
4.148,-0.08866
4.152,-0.08693
4.156,-0.0143
4.16,0.00699
4.164,0.01474
4.168,0.01761
4.172,0.03111
4.176,0.03353
4.18,0.03677
4.184,0.02598
4.188,0.04476
4.192,0.04133
4.196,0.04882
4.2,0.04289
4.204,0.05558
4.208,0.0142
4.212,0.02535
4.216,0.04318
4.22,0.05042
4.224,0.00999
4.228,0.0385
4.232,0.0218
4.236,0.04321
4.24,0.03187
4.244,0.01779
4.248,0.01944
4.252,0.02864
4.256,0.01999
4.26,0.04963
4.264,0.02214
4.268,0.04916
4.272,0.05387
4.276,0.05014
4.28,0.01249
4.284,0.04736
4.288,0.02438
4.292,0.05595
4.296,0.04646
4.3,0.05285
4.304,0.05818
4.308,0.05206
4.312,0.10339
4.316,0.10695
4.32,0.12138
4.324,0.10075
4.328,0.1084
4.332,0.14047
4.336,0.13597
4.34,0.12628
4.344,0.14991
4.348,0.20634
4.352,0.18624
4.356,0.20463
4.36,0.20441
4.364,0.21127
4.368,0.24213
4.372,0.24598
4.376,0.23318
4.38,0.25867
4.384,0.24244
4.388,0.28084
4.392,0.26783
4.396,0.22314
4.4,0.24248
4.404,0.22333
4.408,0.24529
4.412,0.2199
4.416,0.20394
4.42,0.20274
4.424,0.17297
4.428,0.1894
4.432,0.1945
4.436,0.18175
4.44,0.15317
4.444,0.12876
4.448,0.10753
4.452,0.12351
4.456,0.09709
4.46,0.09731
4.464,0.07628
4.468,0.061
4.472,0.06347
4.476,0.06577
4.48,0.03506
4.484,0.06461
4.488,0.06047
4.492,0.06136
4.496,0.0587
4.5,0.04759
4.504,0.07349
4.508,0.02498
4.512,0.03589
4.516,0.02011
4.52,0.02601
4.524,0.00626
4.528,0.02062
4.532,0.0392
4.536,0.01164
4.54,0.03701
4.544,0.0094
4.548,0.05326
4.552,0.04271
4.556,0.01473
4.56,0.00427
4.564,0.04097
4.568,0.01341
4.572,0.01735
4.576,0.02744
4.58,0.03382
4.584,0.03593
4.588,0.01894
4.592,0.01472
4.596,0.01683
4.6,0.02711
4.604,0.02209
4.608,0.00689
4.612,0.03975
4.616,0.01502
4.62,0.0144
4.624,0.02189
4.628,0.00421
4.632,0.01509
4.636,0.04801
4.64,0.00664
4.644,0.01832
4.648,0.00364
4.652,0.03051
4.656,0.06273
4.66,0.03592
4.664,0.05086
4.668,0.01225
4.672,0.00805
4.676,0.03979
4.68,0.03188
4.684,-0.00185
4.688,0.01196
4.692,0.01259
4.696,0.00877
4.7,0.03673
4.704,-0.00395
4.708,0.02718
4.712,0.02321
4.716,0.0141
4.72,0.03477
4.724,0.05443
4.728,0.03153
4.732,0.04329
4.736,0.03488
4.74,0.01189
4.744,0.04014
4.748,0.02116
4.752,0.01119
4.756,0.02436
4.76,0.05005
4.764,0.02774
4.768,0.03733
4.772,0.03027
4.776,0.03538
4.78,0.03233
4.784,0.02632
4.788,0.00139
4.792,0.01947
4.796,0.00798
4.8,0.0139
4.804,0.02489
4.808,-0.00355
4.812,0.02085
4.816,0.0205
4.82,0.00707
4.824,0.02524
4.828,0.01948
4.832,0.03187
4.836,0.0056
4.84,0.01423
4.844,0.01451
4.848,0.00828
4.852,0.01195
4.856,0.038
4.86,0.01358
4.864,0.02328
4.868,0.01822
4.872,0.02781
4.876,0.0323
4.88,0.01023
4.884,0.03546
4.888,0.03586
4.892,0.02069
4.896,0.02019
4.9,0.04823
4.904,-0.02167
4.908,0.0031
4.912,0.02931
4.916,0.01745
4.92,0.01159
4.924,0.02362
4.928,0.00127
4.932,0.04928
4.936,0.04194
4.94,0.01634
4.944,0.02728
4.948,0.00802
4.952,0.0131
4.956,0.00609
4.96,0.04571
4.964,0.04391
4.968,0.0186
4.972,0.03927
4.976,0.04029
4.98,0.00411
4.984,0.02769
4.988,0.04271
4.992,0.02175
4.996,0.05314
5.0,-0.00774
5.004,0.04288
5.008,0.0337
5.012,0.03389
5.016,0.01965
5.02,0.01191
5.024,0.00992
5.028,0.01402
5.032,0.03256
5.036,-0.00995
5.04,0.012
5.044,0.01505
5.048,0.03954
5.052,0.0334
5.056,0.04624
5.06,0.02509
5.064,0.03528
5.068,0.01975
5.072,0.01363
5.076,-0.00845
5.08,0.00423
5.084,0.00805
5.088,0.01396
5.092,0.01261
5.096,0.02967
5.1,0.02249
5.104,0.02656
5.108,0.0102
5.112,0.01143
5.116,0.02688
5.12,0.01603
5.124,0.01731
5.128,0.03202
5.132,-0.00529
5.136,0.00733
5.14,-0.00157
5.144,-0.00268
5.148,0.00923
5.152,0.00827
5.156,0.02326
5.16,-0.00034
5.164,0.03211
5.168,0.00822
5.172,0.00585
5.176,0.02505
5.18,0.00392
5.184,0.03157
5.188,0.00959
5.192,0.00572
5.196,0.0144
5.2,0.00534
5.204,0.01111
5.208,0.02963
5.212,-0.00434
5.216,-0.01527
5.22,-0.00848
5.224,0.02895
5.228,-0.01775
5.232,0.00107
5.236,0.01266
5.24,0.01452
5.244,0.0308
5.248,0.01047
5.252,0.02462
5.256,0.01889
5.26,0.04688
5.264,0.05519
5.268,0.06307
5.272,0.07236
5.276,0.0693
5.28,0.08955
5.284,0.13418
5.288,0.11032
5.292,0.08945
5.296,0.12166
5.3,0.11085
5.304,0.10667
5.308,0.09582
5.312,0.0722
5.316,0.06444
5.32,0.04255
5.324,0.04568
5.328,0.02213
5.332,-0.00542
5.336,0.01843
5.34,0.01421
5.344,0.01212
5.348,0.00845
5.352,0.00735
5.356,0.0181
5.36,0.01773
5.364,0.00127
5.368,0.00915
5.372,0.02204
5.376,0.03971
5.38,0.01324
5.384,0.02428
5.388,0.01239
5.392,0.01547
5.396,0.01902
5.4,0.01753
5.404,0.0111
5.408,0.00652
5.412,-0.0351
5.416,-0.07054
5.42,-0.08289
5.424,-0.10661
5.428,-0.07136
5.432,0.07948
5.436,0.24836
5.44,0.47158
5.444,0.65968
5.448,0.84204
5.452,0.98964
5.456,1.04271
5.46,0.89579
5.464,0.69335
5.468,0.50069
5.472,0.26017
5.476,0.07742
5.48,-0.06727
5.484,-0.1542
5.488,-0.14651
5.492,-0.11583
5.496,-0.06911
5.5,-0.04258
5.504,-0.02668
5.508,0.00873
5.512,0.03688
5.516,0.00891
5.52,0.01544
5.524,0.02198
5.528,0.01833
5.532,-0.00963
5.536,0.004
5.54,-0.00528
5.544,0.01073
5.548,-0.00553
5.552,-0.00067
5.556,0.00953
5.56,0.0094
5.564,0.01388
5.568,0.00526
5.572,0.00622
5.576,0.01948
5.58,0.0081
5.584,-0.00181
5.588,0.01575
5.592,0.02361
5.596,0.00054
5.6,0.00128
5.604,0.02794
5.608,0.03046
5.612,0.01565
5.616,-0.00878
5.62,-1e-05
5.624,0.0078
5.628,0.00803
5.632,0.00077
5.636,0.08619
5.64,0.04287
5.644,0.02087
5.648,0.02728
5.652,0.03536
5.656,0.03511
5.66,0.04479
5.664,0.06123
5.668,0.08412
5.672,0.09839
5.676,0.08299
5.68,0.09387
5.684,0.12108
5.688,0.11091
5.692,0.13418
5.696,0.14026
5.7,0.16712
5.704,0.17319
5.708,0.17741
5.712,0.20316
5.716,0.19542
5.72,0.22407
5.724,0.22599
5.728,0.23532
5.732,0.21779
5.736,0.22093
5.74,0.23408
5.744,0.22911
5.748,0.19681
5.752,0.20479
5.756,0.19202
5.76,0.19959
5.764,0.15562
5.768,0.1424
5.772,0.12709
5.776,0.13546
5.78,0.11519
5.784,0.1455
5.788,0.09465
5.792,0.10927
5.796,0.10495
5.8,0.08856
5.804,0.06802
5.808,0.0612
5.812,0.05426
5.816,0.02497
5.82,0.00354
5.824,0.03439
5.828,0.01205
5.832,0.02057
5.836,0.01224
5.84,-0.01125
5.844,0.01049
5.848,0.00553
5.852,0.02226
5.856,0.02525
5.86,0.00295
5.864,0.0029
5.868,0.02041
5.872,0.01479
5.876,0.0129
5.88,-0.01976
5.884,0.02405
5.888,-0.00373
5.892,-0.01125
5.896,-0.02905
5.9,-0.0185
5.904,-0.00494
5.908,-0.028
5.912,-0.00387
5.916,-0.00767
5.92,0.00175
5.924,-0.00685
5.928,-0.01624
5.932,-0.01851
5.936,-0.00694
5.94,0.00528
5.944,-0.00236
5.948,0.01505
5.952,-0.03316
5.956,0.01381
5.96,-0.00198
5.964,-0.02581
5.968,-0.03106
5.972,-0.0174
5.976,-0.02131
5.98,-0.01264
5.984,0.00112
5.988,-0.02228
5.992,-0.02739
5.996,-0.01218
6.0,-0.00404
6.004,-0.02728
6.008,0.01043
6.012,0.00263
6.016,-0.00683
6.02,0.00364
6.024,-0.00581
6.028,0.00065
6.032,-0.01133
6.036,0.00914
6.04,0.00838
6.044,0.00125
6.048,-0.01227
6.052,-0.02031
6.056,-0.00627
6.06,0.02537
6.064,0.01133
6.068,-0.0283
6.072,-0.03211
6.076,-0.03357
6.08,-0.02722
6.084,-0.00479
6.088,0.00391
6.092,0.01001
6.096,0.01674
6.1,-0.03182
6.104,-0.02236
6.108,0.01108
6.112,-0.01343
6.116,-0.03465
6.12,-0.03983
6.124,-0.02299
6.128,-0.00093
6.132,-0.00686
6.136,-0.00707
6.14,-0.00784
6.144,0.01114
6.148,-0.02485
6.152,-0.01102
6.156,0.00284
6.16,0.00951
6.164,-0.02648
6.168,-0.01198
6.172,-0.01256
6.176,-0.02236
6.18,0.01109
6.184,-0.01823
6.188,-0.0281
6.192,-0.01772
6.196,-0.0366
6.2,-0.02276
6.204,0.00472
6.208,0.00478
6.212,-0.01008
6.216,-0.01543
6.22,-0.02603
6.224,-0.01663
6.228,-0.01355
6.232,-0.00591
6.236,-0.0231
6.24,-0.02227
6.244,-0.02032
6.248,-0.00525
6.252,-0.03924
6.256,0.01056
6.26,-0.0206
6.264,0.02425
6.268,-0.01268
6.272,-0.02168
6.276,-0.0322
6.28,0.00771
6.284,-0.00888
6.288,0.0019
6.292,0.00732
6.296,0.00087
6.3,-0.01716
6.304,-0.03348
6.308,-0.0123
6.312,-0.02961
6.316,0.00933
6.32,-0.02112
6.324,0.00028
6.328,0.00854
6.332,-0.01144
6.336,-0.02609
6.34,-0.01433
6.344,-0.03079
6.348,-0.02926
6.352,-0.01693
6.356,-0.00651
6.36,-0.03429
6.364,-0.02671
6.368,-0.00936
6.372,-0.02461
6.376,-0.02186
6.38,-0.01316
6.384,-0.02835
6.388,-0.00399
6.392,-0.00147
6.396,-0.03709
6.4,-0.01171
6.404,-0.02963
6.408,-0.01688
6.412,-0.01422
6.416,-0.00414
6.42,0.0002
6.424,-0.02411
6.428,-0.00601
6.432,-0.02347
6.436,0.00694
6.44,-0.03679
6.444,-0.03832
6.448,-0.03266
6.452,-0.01597
6.456,-0.02567
6.46,-0.00197
6.464,-0.03054
6.468,-0.03287
6.472,-0.04145
6.476,-0.01287
6.48,-0.01549
6.484,-0.03499
6.488,-0.01485
6.492,-0.00703
6.496,-0.02997
6.5,-0.0273
6.504,-0.01294
6.508,-0.02476
6.512,0.01146
6.516,0.01092
6.52,-0.02481
6.524,-0.04175
6.528,-0.01112
6.532,-0.06333
6.536,-0.0182
6.54,-0.03844
6.544,-0.03864
6.548,-0.00954
6.552,-0.0179
6.556,0.01166
6.56,0.03764
6.564,-0.01397
6.568,0.01971
6.572,0.04537
6.576,0.0787
6.58,0.06347
6.584,0.06734
6.588,0.10224
6.592,0.09953
6.596,0.08045
6.6,0.06048
6.604,0.04859
6.608,0.03457
6.612,0.04231
6.616,-0.01361
6.62,0.01181
6.624,0.01155
6.628,0.00646
6.632,-0.01264
6.636,-0.01384
6.64,-0.00053
6.644,-0.0263
6.648,-0.02596
6.652,-0.00588
6.656,-0.01821
6.66,-0.01484
6.664,-0.02102
6.668,-0.06186
6.672,-0.00553
6.676,-0.05635
6.68,-0.04966
6.684,-0.03804
6.688,-0.01171
6.692,-0.02984
6.696,-0.01559
6.7,-0.04388
6.704,-0.05427
6.708,-0.07342
6.712,-0.10949
6.716,-0.14284
6.72,-0.12454
6.724,-0.06056
6.728,0.0909
6.732,0.24519
6.736,0.47558
6.74,0.68392
6.744,0.85531
6.748,0.96107
6.752,0.95399
6.756,0.84655
6.76,0.64545
6.764,0.40882
6.768,0.16177
6.772,-0.00912
6.776,-0.13356
6.78,-0.16981
6.784,-0.18748
6.788,-0.17823
6.792,-0.07802
6.796,-0.09959
6.8,-0.02458
6.804,-0.02406
6.808,-0.03008
6.812,-0.0218
6.816,-0.04798
6.82,-0.04174
6.824,-0.02494
6.828,-0.01871
6.832,-0.01968
6.836,-0.03581
6.84,0.00176
6.844,-0.00591
6.848,-0.03585
6.852,-0.0051
6.856,-0.04144
6.86,-0.04661
6.864,-0.03738
6.868,-0.04189
6.872,-0.02929
6.876,-0.0267
6.88,-3e-05
6.884,-0.03172
6.888,-0.02078
6.892,0.00219
6.896,-0.04009
6.9,0.00841
6.904,-0.0149
6.908,-0.03133
6.912,-0.04667
6.916,0.00422
6.92,-0.0191
6.924,-0.02547
6.928,-0.0066
6.932,-0.03063
6.936,0.02459
6.94,-0.00667
6.944,0.00314
6.948,0.04239
6.952,0.0143
6.956,0.04855
6.96,0.04894
6.964,0.05288
6.968,0.03004
6.972,0.09594
6.976,0.09212
6.98,0.07088
6.984,0.12911
6.988,0.1024
6.992,0.13448
6.996,0.13378
7.0,0.14989
7.004,0.16773
7.008,0.17539
7.012,0.18548
7.016,0.2017
7.02,0.20967
7.024,0.20453
7.028,0.19742
7.032,0.20012
7.036,0.20683
7.04,0.17343
7.044,0.1728
7.048,0.20505
7.052,0.17561
7.056,0.1496
7.06,0.1452
7.064,0.13687
7.068,0.12682
7.072,0.12601
7.076,0.11863
7.08,0.06581
7.084,0.0744
7.088,0.07765
7.092,0.0549
7.096,0.06188
7.1,0.03817
7.104,0.0142
7.108,-0.00408
7.112,-0.01887
7.116,-0.00365
7.12,0.00514
7.124,0.00972
7.128,-0.02606
7.132,-0.0223
7.136,-0.0348
7.14,-0.03144
7.144,-0.02591
7.148,-0.02568
7.152,-0.00894
7.156,-0.03721
7.16,-0.01712
7.164,-0.03261
7.168,-0.04686
7.172,-0.01477
7.176,-0.00491
7.18,-0.03167
7.184,-0.03873
7.188,-0.03785
7.192,-0.01651
7.196,-0.02504
7.2,-0.01726
7.204,-0.03611
7.208,-0.01869
7.212,-0.05001
7.216,-0.03041
7.22,-0.05697
7.224,-0.0221
7.228,-0.01234
7.232,-0.04357
7.236,-0.02135
7.24,-0.0288
7.244,-0.02581
7.248,-0.0288
7.252,-0.02872
7.256,-0.03617
7.26,-0.05612
7.264,-0.0314
7.268,-0.03045
7.272,-0.02618
7.276,-0.01077
7.28,-0.02974
7.284,-0.01649
7.288,-0.01802
7.292,-0.01238
7.296,-0.03951
7.3,-0.03892
7.304,-0.02269
7.308,-0.04872
7.312,-0.03677
7.316,-0.05167
7.32,-0.04576
7.324,-0.02631
7.328,-0.02407
7.332,-0.04308
7.336,-0.03845
7.34,-0.02001
7.344,-0.04303
7.348,-0.01387
7.352,-0.01579
7.356,-0.032
7.36,-0.01627
7.364,-0.00254
7.368,-0.00081
7.372,-0.03453
7.376,-0.0223
7.38,-0.01772
7.384,-0.03113
7.388,0.01125
7.392,-0.03929
7.396,0.00206
7.4,-0.0403
7.404,-0.03839
7.408,-0.02735
7.412,-0.03103
7.416,-0.01283
7.42,-0.00169
7.424,-0.03349
7.428,-0.01902
7.432,-0.03104
7.436,-0.02108
7.44,-0.01418
7.444,-0.00971
7.448,-0.01135
7.452,-0.01726
7.456,-0.02089
7.46,-0.02433
7.464,-0.0141
7.468,-0.02596
7.472,-0.04781
7.476,-0.0358
7.48,-0.02706
7.484,-0.02902
7.488,-0.03693
7.492,-0.03645
7.496,-0.02771
7.5,-0.04868
7.504,-0.01855
7.508,-0.06947
7.512,-0.04786
7.516,-0.04344
7.52,-0.02187
7.524,-0.04441
7.528,-0.02546
7.532,-0.01339
7.536,-0.01065
7.54,-0.03135
7.544,-0.01295
7.548,-0.05843
7.552,-0.03819
7.556,-0.04495
7.56,-0.02313
7.564,-0.04198
7.568,-0.03646
7.572,-0.0109
7.576,-0.04378
7.58,-0.01344
7.584,-0.01077
7.588,-0.03713
7.592,-0.03324
7.596,-0.03544
7.6,-0.04434
7.604,0.01022
7.608,-0.02619
7.612,-0.05506
7.616,-0.02543
7.62,-0.02136
7.624,0.00706
7.628,-0.03357
7.632,-0.04095
7.636,-0.04302
7.64,-0.01404
7.644,-0.02815
7.648,-0.04471
7.652,-0.03963
7.656,-0.00433
7.66,-0.03098
7.664,-0.03078
7.668,-0.00035
7.672,-0.02125
7.676,0.00445
7.68,-0.00744
7.684,0.03846
7.688,0.05073
7.692,0.04707
7.696,0.08291
7.7,0.07368
7.704,0.06328
7.708,0.07252
7.712,0.04073
7.716,0.039
7.72,0.03435
7.724,0.03312
7.728,0.01628
7.732,0.00574
7.736,0.02897
7.74,0.01469
7.744,-0.04148
7.748,-0.01017
7.752,-0.02227
7.756,-0.0223
7.76,-0.01982
7.764,-0.03262
7.768,-0.01318
7.772,-0.03988
7.776,-0.02422
7.78,-0.04485
7.784,-0.02147
7.788,-0.05246
7.792,-0.0311
7.796,-0.02249
7.8,0.0004
7.804,-0.03163
7.808,-0.0435
7.812,-0.04143
7.816,-0.05901
7.82,-0.08876
7.824,-0.13354
7.828,-0.15266
7.832,-0.14134
7.836,-0.07506
7.84,0.07366
7.844,0.25561
7.848,0.47808
7.852,0.68054
7.856,0.83165
7.86,0.97615
7.864,0.93612
7.868,0.84594
7.872,0.61992
7.876,0.40919
7.88,0.19961
7.884,0.00485
7.888,-0.10051
7.892,-0.20526
7.896,-0.15782
7.9,-0.15378
7.904,-0.13331
7.908,-0.07135
7.912,-0.06534
7.916,-0.03959
7.92,-0.04923
7.924,-0.00756
7.928,-0.03035
7.932,-0.03285
7.936,-0.00612
7.94,-0.06052
7.944,-0.05294
7.948,-0.02603
7.952,-0.02249
7.956,-0.04045
7.96,-0.04206
7.964,0.00965
7.968,-0.01478
7.972,-0.01809
7.976,-0.02437
7.98,-0.0131
7.984,-0.01299
7.988,-0.04021
7.992,-0.03194
7.996,-0.00892
8.0,-0.02383
8.004,-0.01309
8.008,-0.02824
8.012,-0.01143
8.016,0.00475
8.02,-0.01013
8.024,-0.03016
8.028,-0.02081
8.032,-0.01288
8.036,-0.01518
8.04,-0.01779
8.044,0.00391
8.048,0.01046
8.052,-0.00539
8.056,0.01643
8.06,0.01161
8.064,0.05158
8.068,0.00346
8.072,0.0437
8.076,0.04589
8.08,0.05265
8.084,0.09107
8.088,0.06954
8.092,0.08381
8.096,0.09619
8.1,0.10911
8.104,0.13217
8.108,0.13855
8.112,0.14058
8.116,0.1572
8.12,0.16369
8.124,0.19827
8.128,0.2092
8.132,0.18676
8.136,0.19679
8.14,0.23018
8.144,0.18817
8.148,0.15098
8.152,0.18912
8.156,0.15224
8.16,0.18822
8.164,0.19161
8.168,0.16855
8.172,0.13043
8.176,0.15742
8.18,0.11914
8.184,0.11347
8.188,0.10718
8.192,0.09701
8.196,0.08241
8.2,0.10194
8.204,0.06559
8.208,0.02135
8.212,0.01691
8.216,0.04544
8.22,0.01896
8.224,0.0452
8.228,0.02945
8.232,-0.00909
8.236,0.01404
8.24,-0.00062
8.244,0.02081
8.248,-0.05161
8.252,0.00465
8.256,-0.03763
8.26,-0.03226
8.264,-0.0111
8.268,-0.0127
8.272,0.00015
8.276,-0.0134
8.28,-0.00613
8.284,-0.03808
8.288,-0.03265
8.292,0.02141
8.296,-0.00639
8.3,-0.03052
8.304,0.00492
8.308,-0.00106
8.312,-0.036
8.316,0.00524
8.32,-0.03975
8.324,0.00314
8.328,-0.00764
8.332,-0.03651
8.336,-0.01202
8.34,-0.0084
8.344,-0.01158
8.348,-0.00885
8.352,-0.02237
8.356,-0.03372
8.36,-0.00565
8.364,-0.00282
8.368,-0.02056
8.372,-0.03212
8.376,-0.01891
8.38,-0.01994
8.384,-0.01924
8.388,0.00339
8.392,-0.02079
8.396,-0.0257
8.4,0.00383
8.404,0.00323
8.408,-0.02321
8.412,-0.02037
8.416,-0.01094
8.42,-0.00842
8.424,0.00775
8.428,-0.02186
8.432,-0.03397
8.436,-0.02168
8.44,-0.03807
8.444,-0.02126
8.448,-0.01327
8.452,-0.03073
8.456,-0.00991
8.46,-0.02193
8.464,-0.02522
8.468,-0.03239
8.472,-0.03375
8.476,-0.0131
8.48,-0.02604
8.484,-0.00908
8.488,-0.00059
8.492,-0.02523
8.496,-0.03184
8.5,-0.01504
8.504,-0.03961
8.508,-0.00057
8.512,-0.03016
8.516,-0.06785
8.52,-0.02791
8.524,-0.02049
8.528,-0.00938
8.532,0.00061
8.536,0.00086
8.54,-0.01843
8.544,0.00992
8.548,-0.05053
8.552,-0.0113
8.556,0.01414
8.56,-0.0023
8.564,-0.02152
8.568,-0.00895
8.572,-0.03298
8.576,-0.02277
8.58,-0.00636
8.584,-0.0069
8.588,-0.02314
8.592,-0.00909
8.596,-0.00844
8.6,-0.01757
8.604,0.00795
8.608,-0.01142
8.612,-0.0165
8.616,-0.01295
8.62,0.02315
8.624,-0.0244
8.628,0.01066
8.632,-0.03635
8.636,-0.03202
8.64,0.00324
8.644,-0.0128
8.648,-0.03151
8.652,-0.01357
8.656,0.00192
8.66,0.00773
8.664,-0.02104
8.668,-0.00409
8.672,-0.02629
8.676,-0.00099
8.68,-0.01138
8.684,0.01691
8.688,-0.00418
8.692,-0.01404
8.696,-0.00317
8.7,0.01364
8.704,0.00841
8.708,-0.02376
8.712,-0.01093
8.716,-0.03728
8.72,-0.01364
8.724,-0.01593
8.728,-0.00048
8.732,0.00379
8.736,-0.00242
8.74,0.00219
8.744,-0.00627
8.748,-0.0208
8.752,0.00793
8.756,-0.0088
8.76,-0.01615
8.764,-0.0225
8.768,-0.01043
8.772,-0.01216
8.776,0.00586
8.78,0.01708
8.784,0.00602
8.788,0.04879
8.792,0.0536
8.796,0.03683
8.8,0.09154
8.804,0.06244
8.808,0.10577
8.812,0.08043
8.816,0.09708
8.82,0.12482
8.824,0.11805
8.828,0.0731
8.832,0.05383
8.836,0.04508
8.84,0.01462
8.844,0.02402
8.848,0.02531
8.852,0.02631
8.856,0.01331
8.86,0.01299
8.864,0.00417
8.868,-0.03037
8.872,0.02113
8.876,-0.00262
8.88,0.01613
8.884,0.02385
8.888,0.00558
8.892,0.00656
8.896,-0.00331
8.9,-0.0142
8.904,-0.00337
8.908,-0.0019
8.912,-0.02497
8.916,0.01085
8.92,0.00484
8.924,-0.02905
8.928,-0.035
8.932,-0.07609
8.936,-0.08717
8.94,-0.11397
8.944,-0.10305
8.948,-0.0211
8.952,0.14698
8.956,0.33137
8.96,0.56738
8.964,0.75404
8.968,0.94672
8.972,0.97969
8.976,0.94711
8.98,0.81803
8.984,0.61805
8.988,0.37553
8.992,0.18239
8.996,-0.0106
9.0,-0.10367
9.004,-0.16956
9.008,-0.16703
9.012,-0.12295
9.016,-0.06619
9.02,-0.02634
9.024,-0.00417
9.028,-0.01637
9.032,-0.01683
9.036,0.01338
9.04,-0.01039
9.044,0.00295
9.048,-0.00168
9.052,-0.00861
9.056,0.00206
9.06,0.0013
9.064,0.01932
9.068,-0.00598
9.072,0.01929
9.076,-0.01311
9.08,-0.01559
9.084,-0.00295
9.088,0.00365
9.092,-0.00098
9.096,-0.00765
9.1,-0.00552
9.104,-0.01176
9.108,-0.01132
9.112,-0.0027
9.116,-0.00907
9.12,-0.01429
9.124,-0.00114
9.128,0.00636
9.132,-0.00097
9.136,0.02592
9.14,0.0288
9.144,-0.01957
9.148,0.01769
9.152,0.03113
9.156,0.01276
9.16,0.03173
9.164,0.02938
9.168,0.04729
9.172,0.03956
9.176,0.05578
9.18,0.05535
9.184,0.07934
9.188,0.07235
9.192,0.1062
9.196,0.11609
9.2,0.101
9.204,0.12043
9.208,0.12127
9.212,0.17412
9.216,0.15517
9.22,0.18542
9.224,0.22384
9.228,0.17268
9.232,0.20522
9.236,0.23205
9.24,0.21264
9.244,0.22187
9.248,0.22642
9.252,0.19318
9.256,0.19638
9.26,0.23837
9.264,0.23698
9.268,0.22781
9.272,0.20541
9.276,0.17413
9.28,0.19119
9.284,0.18892
9.288,0.16756
9.292,0.1414
9.296,0.15024
9.3,0.14221
9.304,0.10695
9.308,0.11828
9.312,0.0972
9.316,0.10023
9.32,0.08394
9.324,0.07624
9.328,0.06407
9.332,0.06918
9.336,0.03783
9.34,0.05897
9.344,0.02346
9.348,0.01248
9.352,0.02985
9.356,0.01253
9.36,0.02298
9.364,0.00905
9.368,0.00063
9.372,0.00671
9.376,0.01639
9.38,0.01727
9.384,0.00779
9.388,-0.00277
9.392,0.00977
9.396,0.00675
9.4,0.00584
9.404,0.00192
9.408,0.00694
9.412,-0.01246
9.416,0.01462
9.42,-0.01948
9.424,-0.00784
9.428,0.00769
9.432,0.01545
9.436,0.02675
9.44,0.00449
9.444,0.01812
9.448,0.02357
9.452,-0.00051
9.456,-0.01927
9.46,0.02726
9.464,-0.01439
9.468,0.01699
9.472,0.00108
9.476,0.0053
9.48,0.01988
9.484,0.00772
9.488,-0.00924
9.492,0.02624
9.496,0.01093
9.5,0.00509
9.504,0.01181
9.508,0.02149
9.512,0.04131
9.516,0.00164
9.52,0.01716
9.524,0.00197
9.528,0.01405
9.532,0.00149
9.536,0.02285
9.54,0.03389
9.544,0.00205
9.548,0.01483
9.552,0.02618
9.556,0.00924
9.56,0.00734
9.564,-0.00392
9.568,0.02616
9.572,0.01457
9.576,-0.00382
9.58,0.02284
9.584,0.02445
9.588,-0.02048
9.592,0.03413
9.596,-0.01614
9.6,0.02094
9.604,0.01608
9.608,0.03354
9.612,0.01456
9.616,0.01945
9.62,-6e-05
9.624,0.01974
9.628,-0.00265
9.632,0.02308
9.636,-0.02067
9.64,0.02431
9.644,-0.01393
9.648,0.01567
9.652,0.00108
9.656,0.01667
9.66,0.02303
9.664,-0.00106
9.668,0.01003
9.672,0.00239
9.676,0.00463
9.68,0.00544
9.684,0.03914
9.688,0.01493
9.692,0.01654
9.696,0.00952
9.7,0.02374
9.704,0.03218
9.708,-0.005
9.712,0.00379
9.716,0.00268
9.72,0.01327
9.724,-0.00138
9.728,0.00358
9.732,0.01632
9.736,0.02868
9.74,0.01637
9.744,0.04943
9.748,0.02557
9.752,0.03208
9.756,0.02896
9.76,0.01744
9.764,0.02192
9.768,0.01295
9.772,0.04386
9.776,0.01719
9.78,0.03949
9.784,0.0374
9.788,0.00565
9.792,0.02997
9.796,0.00384
9.8,0.06139
9.804,0.00648
9.808,0.00742
9.812,-0.00178
9.816,0.03905
9.82,0.04636
9.824,0.02701
9.828,0.03582
9.832,0.02524
9.836,0.02601
9.84,0.01138
9.844,0.00794
9.848,0.02317
9.852,0.03674
9.856,0.02635
9.86,0.00871
9.864,0.00553
9.868,-0.00811
9.872,-0.01069
9.876,0.01997
9.88,0.02431
9.884,0.02687
9.888,0.02233
9.892,0.01381
9.896,0.02195
9.9,0.02866
9.904,0.03469
9.908,0.0202
9.912,0.02482
9.916,0.01475
9.92,0.02763
9.924,0.00084
9.928,0.03519
9.932,-0.00768
9.936,-0.00181
9.94,0.01473
9.944,0.0326
9.948,0.00762
9.952,0.02137
9.956,0.02333
9.96,0.00265
9.964,0.02299
9.968,0.02375
9.972,-0.00669
9.976,0.01358
9.98,0.0495
9.984,0.02805
9.988,0.01147
9.992,0.03782
9.996,0.01112
