t_seg,ecg_mV
0.0,-0.03738
0.004,0.01055
0.008,-0.02514
0.012,0.00145
0.016,0.00384
0.02,0.01753
0.024,0.01211
0.028,-0.01562
0.032,0.0073
0.036,0.01668
0.04,0.02563
0.044,-0.00587
0.048,-0.00599
0.052,0.0063
0.056,-0.01595
0.06,0.01088
0.064,0.02158
0.068,-0.00619
0.072,0.0128
0.076,0.01398
0.08,0.02296
0.084,-0.00653
0.088,-0.01693
0.092,-0.0249
0.096,0.01004
0.1,0.02033
0.104,0.01016
0.108,0.01836
0.112,-0.00855
0.116,0.01429
0.12,-0.01864
0.124,-0.0073
0.128,-0.03043
0.132,0.00802
0.136,0.00081
0.14,-0.00709
0.144,0.0043
0.148,-0.01197
0.152,0.03409
0.156,-0.0082
0.16,0.03713
0.164,0.02018
0.168,0.01176
0.172,0.03267
0.176,0.01063
0.18,0.01136
0.184,0.02822
0.188,-0.00011
0.192,0.01561
0.196,0.05172
0.2,0.01117
0.204,-0.00722
0.208,-0.00772
0.212,-0.00834
0.216,0.00948
0.22,0.02414
0.224,0.02073
0.228,-0.00992
0.232,0.0193
0.236,0.03485
0.24,-0.00124
0.244,0.02622
0.248,0.0286
0.252,0.02814
0.256,-0.02811
0.26,0.01503
0.264,0.00676
0.268,0.00995
0.272,-0.00898
0.276,0.04567
0.28,0.00404
0.284,0.02425
0.288,0.02191
0.292,0.0066
0.296,0.01164
0.3,0.0314
0.304,-0.01026
0.308,-0.00923
0.312,0.00615
0.316,0.02396
0.32,2e-05
0.324,0.02531
0.328,0.00534
0.332,-0.01077
0.336,0.00776
0.34,-0.00145
0.344,0.01168
0.348,-0.01319
0.352,0.01741
0.356,0.0174
0.36,0.00319
0.364,-0.00554
0.368,2e-05
0.372,-0.01381
0.376,0.01671
0.38,-0.01232
0.384,-0.00163
0.388,-0.00038
0.392,0.03312
0.396,0.00504
0.4,0.01014
0.404,0.00155
0.408,0.03844
0.412,0.04678
0.416,0.01986
0.42,0.01484
0.424,0.0067
0.428,0.02446
0.432,0.01753
0.436,0.00547
0.44,-0.01525
0.444,0.00363
0.448,0.01221
0.452,0.01751
0.456,0.01745
0.46,0.01326
0.464,0.01158
0.468,0.00383
0.472,0.01904
0.476,-0.00378
0.48,0.00807
0.484,0.02423
0.488,0.02559
0.492,0.01349
0.496,0.00897
0.5,0.02543
0.504,0.03176
0.508,0.01201
0.512,0.0343
0.516,0.05712
0.52,0.04453
0.524,0.06961
0.528,0.07097
0.532,0.07683
0.536,0.10842
0.54,0.12297
0.544,0.1186
0.548,0.11946
0.552,0.11114
0.556,0.11821
0.56,0.1138
0.564,0.11243
0.568,0.10037
0.572,0.07824
0.576,0.04658
0.58,0.03318
0.584,0.02221
0.588,0.0456
0.592,0.02435
0.596,0.02622
0.6,0.02994
0.604,0.0213
0.608,0.00529
0.612,0.00904
0.616,0.02928
0.62,0.02414
0.624,-0.00034
0.628,0.01857
0.632,0.01901
0.636,0.04614
0.64,0.03036
0.644,0.00823
0.648,0.02119
0.652,-0.01162
0.656,-0.00731
0.66,0.00257
0.664,-0.02185
0.668,-0.02854
0.672,-0.06301
0.676,-0.10592
0.68,-0.02771
0.684,0.1012
0.688,0.26246
0.692,0.47126
0.696,0.69637
0.7,0.87635
0.704,1.00012
0.708,0.98635
0.712,0.91905
0.716,0.72643
0.72,0.51886
0.724,0.29432
0.728,0.07586
0.732,-0.08354
0.736,-0.139
0.74,-0.12997
0.744,-0.10603
0.748,-0.04934
0.752,-0.05698
0.756,0.00757
0.76,-0.02278
0.764,0.00324
0.768,-0.00636
0.772,0.01883
0.776,-0.00482
0.78,0.04513
0.784,0.01416
0.788,0.01663
0.792,0.02147
0.796,0.02393
0.8,0.00193
0.804,0.01137
0.808,-0.0019
0.812,0.03303
0.816,0.05267
0.82,0.01728
0.824,0.04131
0.828,0.01109
0.832,0.02845
0.836,0.01507
0.84,0.01072
0.844,0.04217
0.848,-0.01343
0.852,0.02319
0.856,0.03511
0.86,0.01711
0.864,0.01853
0.868,0.01964
0.872,0.0215
0.876,0.04512
0.88,0.07543
0.884,0.03618
0.888,0.03735
0.892,0.03842
0.896,0.0575
0.9,0.07105
0.904,0.05422
0.908,0.09979
0.912,0.05067
0.916,0.10063
0.92,0.10612
0.924,0.12488
0.928,0.11416
0.932,0.12961
0.936,0.14546
0.94,0.1701
0.944,0.15701
0.948,0.18769
0.952,0.20774
0.956,0.19923
0.96,0.20918
0.964,0.22238
0.968,0.23253
0.972,0.21487
0.976,0.24222
0.98,0.25398
0.984,0.28904
0.988,0.25346
0.992,0.23142
0.996,0.24917
1.0,0.25311
1.004,0.23014
1.008,0.20384
1.012,0.21931
1.016,0.20662
1.02,0.18418
1.024,0.18823
1.028,0.17763
1.032,0.18757
1.036,0.1546
1.04,0.13193
1.044,0.11097
1.048,0.12376
1.052,0.10638
1.056,0.0713
1.06,0.08999
1.064,0.08623
1.068,0.05705
1.072,0.04684
1.076,0.04638
1.08,0.03404
1.084,0.03817
1.088,0.0577
1.092,0.09042
1.096,0.03394
1.1,0.03603
1.104,0.02345
1.108,0.02567
1.112,0.01616
1.116,0.00566
1.12,0.02714
1.124,0.00332
1.128,0.03101
1.132,0.0305
1.136,0.03573
1.14,0.01839
1.144,0.02174
1.148,0.00289
1.152,0.01325
1.156,0.01307
1.16,0.04963
1.164,0.0291
1.168,0.0161
1.172,0.03221
1.176,0.0407
1.18,0.0211
1.184,0.02696
1.188,0.02012
1.192,0.04265
1.196,0.04126
1.2,0.00615
1.204,0.04369
1.208,0.02659
1.212,0.05622
1.216,0.04013
1.22,0.07311
1.224,0.06943
1.228,0.08312
1.232,0.05974
1.236,0.0836
1.24,0.08885
1.244,0.10827
1.248,0.11865
1.252,0.09677
1.256,0.12768
1.26,0.13318
1.264,0.11932
1.268,0.09195
1.272,0.09778
1.276,0.09945
1.28,0.07284
1.284,0.07321
1.288,0.03893
1.292,0.05149
1.296,0.00553
1.3,0.05582
1.304,0.04152
1.308,0.05265
1.312,0.04583
1.316,0.03953
1.32,0.01096
1.324,0.04516
1.328,0.02335
1.332,0.02795
1.336,0.02994
1.34,0.03897
1.344,0.03511
1.348,0.01942
1.352,0.0335
1.356,0.0491
1.36,0.02524
1.364,0.00769
1.368,-0.00226
1.372,-0.03058
1.376,-0.0918
1.38,-0.11876
1.384,-0.07195
1.388,-0.00908
1.392,0.17094
1.396,0.35862
1.4,0.58836
1.404,0.80456
1.408,0.93623
1.412,0.99866
1.416,1.00551
1.42,0.86652
1.424,0.67052
1.428,0.45155
1.432,0.19622
1.436,0.02816
1.44,-0.06515
1.444,-0.14482
1.448,-0.10066
1.452,-0.0606
1.456,-0.05752
1.46,-0.01511
1.464,0.00245
1.468,0.02071
1.472,0.03785
1.476,0.04975
1.48,0.00473
1.484,0.01265
1.488,0.01152
1.492,0.00829
1.496,0.04097
1.5,0.01967
1.504,0.03557
1.508,0.03495
1.512,0.04811
1.516,0.0474
1.52,0.0318
1.524,0.05384
1.528,0.02713
1.532,0.05152
1.536,0.02349
1.54,0.03354
1.544,0.02352
1.548,0.02394
1.552,0.02131
1.556,0.01371
1.56,0.03339
1.564,0.02879
1.568,0.04544
1.572,0.03901
1.576,0.0198
1.58,0.01095
1.584,0.05286
1.588,0.03795
1.592,0.05162
1.596,0.04419
1.6,0.06808
1.604,0.05986
1.608,0.05243
1.612,0.06917
1.616,0.06512
1.62,0.07706
1.624,0.07868
1.628,0.07985
1.632,0.1169
1.636,0.12309
1.64,0.14154
1.644,0.13881
1.648,0.18035
1.652,0.18186
1.656,0.16512
1.66,0.21996
1.664,0.19702
1.668,0.21087
1.672,0.21306
1.676,0.21632
1.68,0.1932
1.684,0.23031
1.688,0.24143
1.692,0.23437
1.696,0.24823
1.7,0.25128
1.704,0.25136
1.708,0.23741
1.712,0.21421
1.716,0.22449
1.72,0.23109
1.724,0.18181
1.728,0.2022
1.732,0.2154
1.736,0.18544
1.74,0.11932
1.744,0.12238
1.748,0.14354
1.752,0.11569
1.756,0.09854
1.76,0.10467
1.764,0.09013
1.768,0.09713
1.772,0.08936
1.776,0.07241
1.78,0.06502
1.784,0.02971
1.788,0.07766
1.792,0.05996
1.796,0.05709
1.8,0.04808
1.804,0.08791
1.808,0.03628
1.812,0.05873
1.816,0.04022
1.82,0.03805
1.824,0.02941
1.828,-0.00216
1.832,0.01259
1.836,0.0547
1.84,0.05077
1.844,0.05547
1.848,0.03146
1.852,0.05063
1.856,0.02866
1.86,0.01908
1.864,0.0312
1.868,0.02845
1.872,0.05092
1.876,0.00962
1.88,0.01748
1.884,0.04286
1.888,0.04747
1.892,0.00267
1.896,0.02717
1.9,0.00157
1.904,0.03495
1.908,0.03948
1.912,0.01709
1.916,0.01871
1.92,0.04624
1.924,0.03491
1.928,0.03787
1.932,0.01349
1.936,0.01435
1.94,0.04179
1.944,0.03691
1.948,0.02989
1.952,0.02789
1.956,0.02217
1.96,0.05639
1.964,0.0396
1.968,0.01899
1.972,0.04891
1.976,0.04905
1.98,0.01613
1.984,0.04084
1.988,0.03752
1.992,0.00147
1.996,0.03352
2.0,0.04393
2.004,0.00189
2.008,0.02789
2.012,0.02206
2.016,0.03295
2.02,0.04195
2.024,0.04976
2.028,0.02766
2.032,0.04967
2.036,0.04452
2.04,0.01514
2.044,0.03554
2.048,0.03969
2.052,0.02497
2.056,0.03286
2.06,0.03089
2.064,0.02786
2.068,0.05826
2.072,0.04863
2.076,0.0488
2.08,0.03134
2.084,0.04163
2.088,0.02872
2.092,0.04682
2.096,0.05881
2.1,0.04067
2.104,0.06941
2.108,0.0798
2.112,0.09859
2.116,0.09546
2.12,0.13281
2.124,0.10734
2.128,0.11018
2.132,0.13542
2.136,0.12861
2.14,0.11488
2.144,0.0757
2.148,0.06192
2.152,0.0726
2.156,0.05719
2.16,0.05707
2.164,0.06348
2.168,0.05049
2.172,0.02833
2.176,0.03391
2.18,0.02072
2.184,0.03428
2.188,0.01008
2.192,0.0442
2.196,0.04456
2.2,0.02281
2.204,0.02446
2.208,0.02369
2.212,0.01749
2.216,0.06286
2.22,0.02171
2.224,0.04479
2.228,0.02775
2.232,0.00958
2.236,0.01124
2.24,0.00925
2.244,-0.02271
2.248,-0.05902
2.252,-0.089
2.256,-0.09544
2.26,0.00362
2.264,0.11047
2.268,0.28931
2.272,0.48497
2.276,0.7071
2.28,0.9006
2.284,0.99593
2.288,0.99504
2.292,0.89679
2.296,0.69887
2.3,0.44784
2.304,0.24999
2.308,0.06116
2.312,-0.04804
2.316,-0.14737
2.32,-0.13929
2.324,-0.1365
2.328,-0.03395
2.332,-0.04076
2.336,0.00915
2.34,0.01137
2.344,0.01034
2.348,-0.00438
2.352,0.00561
2.356,0.0164
2.36,0.01481
2.364,0.02996
2.368,0.00614
2.372,0.01506
2.376,-0.00326
2.38,0.01188
2.384,0.02709
2.388,0.01914
2.392,0.0285
2.396,0.03681
2.4,0.0375
2.404,0.02123
2.408,-0.01694
2.412,0.02408
2.416,0.054
2.42,0.02737
2.424,-0.00854
2.428,0.00443
2.432,0.01996
2.436,0.00735
2.44,0.03718
2.444,0.02695
2.448,0.02817
2.452,0.02306
2.456,0.00429
2.46,0.06743
2.464,0.02022
2.468,0.03466
2.472,0.05425
2.476,0.0504
2.48,0.04858
2.484,0.06078
2.488,0.08413
2.492,0.10762
2.496,0.08352
2.5,0.10065
2.504,0.14034
2.508,0.10228
2.512,0.12961
2.516,0.16482
2.52,0.15435
2.524,0.13489
2.528,0.16115
2.532,0.19232
2.536,0.18792
2.54,0.21322
2.544,0.23518
2.548,0.23653
2.552,0.21822
2.556,0.21564
2.56,0.23052
2.564,0.23806
2.568,0.23275
2.572,0.24634
2.576,0.24877
2.58,0.22513
2.584,0.21232
2.588,0.21595
2.592,0.19866
2.596,0.19635
2.6,0.19801
2.604,0.16316
2.608,0.13902
2.612,0.13523
2.616,0.13825
2.62,0.10982
2.624,0.11093
2.628,0.10988
2.632,0.09044
2.636,0.07817
2.64,0.08502
2.644,0.06123
2.648,0.07395
2.652,0.0665
2.656,0.03942
2.66,0.02953
2.664,0.03754
2.668,0.06099
2.672,0.02655
2.676,0.03253
2.68,0.01923
2.684,0.04427
2.688,0.01208
2.692,0.00374
2.696,0.02473
2.7,0.01519
2.704,0.01911
2.708,0.0168
2.712,0.00599
2.716,0.02939
2.72,0.0221
2.724,0.02722
2.728,0.02066
2.732,0.01212
2.736,0.01907
2.74,0.03666
2.744,0.01535
2.748,0.02446
2.752,0.02277
2.756,0.05755
2.76,0.0286
2.764,0.03344
2.768,0.0357
2.772,0.04736
2.776,0.11193
2.78,0.09331
2.784,0.10284
2.788,0.1128
2.792,0.11425
2.796,0.1273
2.8,0.0974
2.804,0.11421
2.808,0.06776
2.812,0.06462
2.816,0.0694
2.82,0.0583
2.824,0.04244
2.828,0.05543
2.832,0.04173
2.836,0.0349
2.84,0.038
2.844,0.01516
2.848,0.00088
2.852,0.02611
2.856,0.01578
2.86,0.03453
2.864,0.00448
2.868,0.00745
2.872,0.01226
2.876,0.01168
2.88,-0.0007
2.884,0.0265
2.888,0.00685
2.892,0.00545
2.896,0.02043
2.9,0.01653
2.904,-0.01403
2.908,-0.02502
2.912,0.00535
2.916,-0.07208
2.92,-0.0906
2.924,-0.09619
2.928,-0.05783
2.932,0.05945
2.936,0.25527
2.94,0.47565
2.944,0.69069
2.948,0.86543
2.952,0.99874
2.956,0.99948
2.96,0.91691
2.964,0.69998
2.968,0.46824
2.972,0.26777
2.976,0.08396
2.98,-0.05993
2.984,-0.13419
2.988,-0.15327
2.992,-0.12297
2.996,-0.10928
3.0,-0.07369
3.004,0.00101
3.008,-0.00477
3.012,-0.00209
3.016,0.01841
3.02,-0.00417
3.024,-0.01477
3.028,0.00953
3.032,0.01392
3.036,0.02448
3.04,0.00959
3.044,0.04442
3.048,0.01917
3.052,0.01801
3.056,0.01486
3.06,0.00773
3.064,-0.00944
3.068,-0.01194
3.072,0.00207
3.076,0.01915
3.08,0.00248
3.084,0.02582
3.088,-0.00456
3.092,0.00601
3.096,0.0317
3.1,-0.0211
3.104,0.01826
3.108,0.00357
3.112,0.00804
3.116,0.03433
3.12,0.01292
3.124,0.01769
3.128,0.02515
3.132,0.02284
3.136,0.01193
3.14,0.04925
3.144,0.01804
3.148,0.02135
3.152,0.05396
3.156,0.03796
3.16,0.06424
3.164,0.07787
3.168,0.07491
3.172,0.10448
3.176,0.10323
3.18,0.09862
3.184,0.13463
3.188,0.1525
3.192,0.12896
3.196,0.13504
3.2,0.1807
3.204,0.18395
3.208,0.21559
3.212,0.20858
3.216,0.19862
3.22,0.21413
3.224,0.1965
3.228,0.23243
3.232,0.21813
3.236,0.23023
3.24,0.22075
3.244,0.22129
3.248,0.203
3.252,0.19518
3.256,0.20376
3.26,0.1908
3.264,0.19127
3.268,0.16931
3.272,0.14215
3.276,0.14233
3.28,0.13437
3.284,0.10913
3.288,0.12527
3.292,0.08447
3.296,0.1029
3.3,0.04908
3.304,0.04698
3.308,0.02946
3.312,0.04924
3.316,0.04367
3.32,0.03768
3.324,0.04571
3.328,0.01598
3.332,0.01831
3.336,0.05271
3.34,0.0227
3.344,0.00216
3.348,0.00235
3.352,-0.0001
3.356,-0.00056
3.36,-0.00629
3.364,0.02436
3.368,-0.01052
3.372,-0.02154
3.376,-0.01234
3.38,-0.02135
3.384,-0.00196
3.388,0.00523
3.392,0.00885
3.396,0.00626
3.4,-0.01472
3.404,-0.01331
3.408,-0.019
3.412,0.02306
3.416,-0.01293
3.42,-0.01139
3.424,0.02933
3.428,0.00843
3.432,-0.02111
3.436,-0.02078
3.44,0.00733
3.444,0.00303
3.448,-0.02022
3.452,-0.0081
3.456,-0.00526
3.46,0.00482
3.464,0.01301
3.468,0.00813
3.472,-0.01547
3.476,-0.01977
3.48,0.01025
3.484,0.00719
3.488,-0.00047
3.492,-0.02045
3.496,-0.01792
3.5,-0.00254
3.504,0.00245
3.508,-0.00779
3.512,-0.0048
3.516,0.00542
3.52,-0.00817
3.524,-0.00253
3.528,0.00674
3.532,-0.01393
3.536,0.00284
3.54,-0.009
3.544,-0.01242
3.548,0.00213
3.552,-0.02216
3.556,0.02418
3.56,-0.0027
3.564,0.02152
3.568,0.02366
3.572,0.03898
3.576,0.04708
3.58,0.04971
3.584,0.05143
3.588,0.06605
3.592,0.0479
3.596,0.07809
3.6,0.09119
3.604,0.08972
3.608,0.07351
3.612,0.09969
3.616,0.06452
3.62,0.04589
3.624,0.03479
3.628,0.0371
3.632,0.02562
3.636,0.01318
3.64,-0.01742
3.644,0.00653
3.648,-0.00774
3.652,-0.01766
3.656,-0.01438
3.66,-0.01376
3.664,0.00013
3.668,0.00996
3.672,0.01004
3.676,-0.01866
3.68,-0.01323
3.684,-0.00585
3.688,-0.00877
3.692,-0.0016
3.696,-0.00379
3.7,-0.01331
3.704,-0.0228
3.708,-0.0304
3.712,0.00804
3.716,-0.02858
3.72,-0.06759
3.724,-0.10706
3.728,-0.12985
3.732,-0.11
3.736,-0.02384
3.74,0.10355
3.744,0.28324
3.748,0.4602
3.752,0.69909
3.756,0.86467
3.76,0.97253
3.764,0.97125
3.768,0.84872
3.772,0.67024
3.776,0.40952
3.78,0.20667
3.784,0.03208
3.788,-0.09874
3.792,-0.146
3.796,-0.18642
3.8,-0.158
3.804,-0.11614
3.808,-0.05557
3.812,-0.05472
3.816,-0.04063
3.82,-0.03302
3.824,-0.00327
3.828,-0.00174
3.832,-0.0105
3.836,-0.02433
3.84,-0.01692
3.844,-0.02818
3.848,-0.03662
3.852,-0.01762
3.856,-0.02604
3.86,-0.0013
3.864,-7e-05
3.868,-0.02704
3.872,0.00184
3.876,-0.00016
3.88,-0.02801
3.884,-0.01694
3.888,-0.02909
3.892,0.00295
3.896,-0.02247
3.9,-0.01625
3.904,-0.01661
3.908,0.00098
3.912,-0.01736
3.916,-0.02535
3.92,-0.00292
3.924,-0.0197
3.928,0.0033
3.932,0.00294
3.936,-0.00899
3.94,-0.02636
3.944,0.02599
3.948,0.00988
3.952,0.01723
3.956,0.03559
3.96,0.02006
3.964,0.03367
3.968,0.04727
3.972,0.0973
3.976,0.05583
3.98,0.07772
3.984,0.07023
3.988,0.0928
3.992,0.09022
3.996,0.13342
4.0,0.12263
4.004,0.15561
4.008,0.1433
4.012,0.15597
4.016,0.17987
4.02,0.17218
4.024,0.18379
4.028,0.1698
4.032,0.21425
4.036,0.19622
4.04,0.17381
4.044,0.20455
4.048,0.21064
4.052,0.21903
4.056,0.2073
4.06,0.18985
4.064,0.191
4.068,0.15681
4.072,0.15388
4.076,0.14841
4.08,0.11132
4.084,0.11914
4.088,0.1064
4.092,0.0945
4.096,0.07875
4.1,0.06291
4.104,0.07309
4.108,0.06392
4.112,0.05413
4.116,0.03841
4.12,0.03635
4.124,0.03768
4.128,0.02479
4.132,-0.01373
4.136,-0.01144
4.14,-0.02334
4.144,-0.00222
4.148,0.00515
4.152,-0.00411
4.156,0.01236
4.16,-0.01569
4.164,-0.02225
4.168,-0.00442
4.172,0.03398
4.176,-0.00337
4.18,-0.036
4.184,-0.00555
4.188,-0.00655
4.192,-0.02586
4.196,-0.0496
4.2,-0.02913
4.204,-0.0326
4.208,-0.00305
4.212,-0.03182
4.216,-0.006
4.22,-0.01177
4.224,-0.0124
4.228,-0.02073
4.232,-0.02299
4.236,-0.0331
4.24,-0.02417
4.244,-0.0179
4.248,-0.02444
4.252,-0.01304
4.256,-0.02663
4.26,-0.02023
4.264,-0.02026
4.268,-0.00757
4.272,-0.01591
4.276,-0.01814
4.28,-0.05979
4.284,-0.02278
4.288,-0.00862
4.292,0.00429
4.296,-0.03297
4.3,-0.0328
4.304,-0.02057
4.308,-0.01125
4.312,-0.01238
4.316,-0.03055
4.32,-0.04325
4.324,-0.02022
4.328,-0.01258
4.332,-0.02997
4.336,0.00106
4.34,-0.04546
4.344,-0.0227
4.348,-0.01486
4.352,-0.013
4.356,-0.01239
4.36,-0.02222
4.364,-0.00409
4.368,0.00338
4.372,-0.03019
4.376,-0.01915
4.38,-0.00081
4.384,0.01055
4.388,0.00342
4.392,0.03243
4.396,0.03539
4.4,0.08386
4.404,0.06275
4.408,0.05761
4.412,0.06369
4.416,0.09472
4.42,0.06728
4.424,0.05788
4.428,0.06308
4.432,0.03963
4.436,0.04538
4.44,0.0225
4.444,0.01626
4.448,0.02243
4.452,0.00013
4.456,-0.00468
4.46,-0.0236
4.464,-0.03388
4.468,-0.01774
4.472,-0.03118
4.476,-0.02588
4.48,-0.02083
4.484,-0.01566
4.488,-0.0053
4.492,-0.0292
4.496,-0.01083
4.5,-0.01605
4.504,-0.02404
4.508,-0.01256
4.512,-0.0159
4.516,-0.00617
4.52,-0.02689
4.524,-0.0152
4.528,-0.05431
4.532,-0.05277
4.536,-0.12313
4.54,-0.15132
4.544,-0.12288
4.548,-0.03828
4.552,0.12208
4.556,0.2957
4.56,0.5018
4.564,0.74537
4.568,0.88548
4.572,0.9893
4.576,0.90935
4.58,0.80141
4.584,0.62968
4.588,0.35754
4.592,0.17414
4.596,-0.03815
4.6,-0.14447
4.604,-0.20072
4.608,-0.20131
4.612,-0.17509
4.616,-0.12055
4.62,-0.06986
4.624,-0.0655
4.628,-0.07778
4.632,-0.03821
4.636,-0.01376
4.64,-0.00711
4.644,-0.04468
4.648,-0.06497
4.652,-0.01834
4.656,-0.06087
4.66,-0.06829
4.664,-0.03988
4.668,-0.0462
4.672,-0.01334
4.676,-0.04168
4.68,-0.02828
4.684,-0.02611
4.688,-0.03688
4.692,-0.0139
4.696,-0.03665
4.7,-0.02708
4.704,-0.02232
4.708,-0.01578
4.712,-0.04685
4.716,-0.045
4.72,-0.06668
4.724,-0.0204
4.728,-0.00996
4.732,-0.04906
4.736,0.00189
4.74,-0.05751
4.744,-0.0278
4.748,0.00073
4.752,0.00329
4.756,-0.00595
4.76,-0.03157
4.764,0.02242
4.768,0.02324
4.772,-0.00803
4.776,0.02461
4.78,0.02733
4.784,0.03343
4.788,0.03241
4.792,0.03218
4.796,0.02778
4.8,0.08608
4.804,0.0759
4.808,0.11743
4.812,0.12955
4.816,0.12926
4.82,0.15909
4.824,0.13626
4.828,0.17109
4.832,0.15489
4.836,0.17942
4.84,0.19994
4.844,0.17179
4.848,0.20693
4.852,0.19874
4.856,0.1805
4.86,0.17868
4.864,0.17519
4.868,0.18499
4.872,0.18014
4.876,0.16553
4.88,0.15237
4.884,0.14741
4.888,0.11704
4.892,0.11086
4.896,0.09513
4.9,0.10014
4.904,0.06947
4.908,0.04524
4.912,0.06169
4.916,0.05801
4.92,0.04485
4.924,0.03884
4.928,0.03931
4.932,0.0489
4.936,-0.00126
4.94,-0.00632
4.944,-0.0136
4.948,0.01307
4.952,-0.00311
4.956,-0.05274
4.96,-0.02863
4.964,0.00245
4.968,-0.01059
4.972,-0.00836
4.976,-0.02756
4.98,-0.01024
4.984,-0.03056
4.988,-0.02289
4.992,-0.0279
4.996,-0.01471
5.0,-0.06422
5.004,-0.02868
5.008,-0.04748
5.012,-0.03058
5.016,-0.00396
5.02,-0.02746
5.024,0.00109
5.028,-0.03731
5.032,-0.03396
5.036,-0.04826
5.04,-0.0342
5.044,-0.05763
5.048,0.00588
5.052,-0.04174
5.056,-0.05304
5.06,-0.03914
5.064,-0.01023
5.068,-0.00452
5.072,-0.03544
5.076,-0.05677
5.08,-0.01393
5.084,-0.01818
5.088,-0.03564
5.092,-0.05281
5.096,-0.03966
5.1,-0.01752
5.104,-0.04835
5.108,-0.02616
5.112,-0.00474
5.116,-0.02787
5.12,-0.04346
5.124,-0.00713
5.128,-0.04658
5.132,-0.02949
5.136,-0.03602
5.14,-0.01383
5.144,-0.06372
5.148,-0.03995
5.152,-0.0359
5.156,-0.02243
5.16,-0.02031
5.164,-0.0152
5.168,-0.02928
5.172,-0.00787
5.176,-0.02064
5.18,-0.02749
5.184,-0.01145
5.188,-0.02219
5.192,-0.04591
5.196,-0.04478
5.2,-0.046
5.204,0.01202
5.208,-0.03384
5.212,-0.01097
5.216,-0.0469
5.22,-0.01568
5.224,-0.03747
5.228,-0.02277
5.232,-0.04139
5.236,-0.05585
5.24,-0.02311
5.244,-0.05401
5.248,-0.02221
5.252,-0.02498
5.256,-0.0426
5.26,-0.02977
5.264,-0.0427
5.268,-0.02172
5.272,-0.02525
5.276,0.01145
5.28,-0.02463
5.284,0.01407
5.288,0.04768
5.292,0.0403
5.296,0.06386
5.3,0.05354
5.304,0.05625
5.308,0.06731
5.312,0.0788
5.316,0.05738
5.32,0.05025
5.324,0.07574
5.328,0.04062
5.332,0.04688
5.336,6e-05
5.34,0.01722
5.344,-0.0206
5.348,-0.01068
5.352,-0.02622
5.356,-0.03207
5.36,-0.02596
5.364,-0.01888
5.368,-0.05946
5.372,-0.01279
5.376,-0.02487
5.38,-0.04757
5.384,-0.02941
5.388,-0.01045
5.392,-0.03997
5.396,-0.02982
5.4,-0.01797
5.404,0.00253
5.408,-0.04506
5.412,-0.0405
5.416,-0.0624
5.42,-0.03151
5.424,-0.05244
5.428,-0.09513
5.432,-0.13745
5.436,-0.14831
5.44,-0.10912
5.444,-0.028
5.448,0.09973
5.452,0.27227
5.456,0.47748
5.46,0.70314
5.464,0.84801
5.468,0.94878
5.472,0.92589
5.476,0.80461
5.48,0.61006
5.484,0.3987
5.488,0.17524
5.492,-0.02727
5.496,-0.13224
5.5,-0.16893
5.504,-0.17996
5.508,-0.17373
5.512,-0.10152
5.516,-0.07408
5.52,-0.03517
5.524,-0.03574
5.528,-0.01973
5.532,-0.00285
5.536,-0.03184
5.54,-0.01
5.544,-0.01843
5.548,-0.01685
5.552,-0.02335
5.556,-0.01724
5.56,-0.00338
5.564,-0.04692
5.568,-0.01899
5.572,-0.00624
5.576,-0.02614
5.58,-0.01258
5.584,-0.02777
5.588,-0.01166
5.592,-0.00766
5.596,-0.03259
5.6,-0.02329
5.604,-0.04201
5.608,-0.04303
5.612,-0.03133
5.616,-0.00834
5.62,-0.04838
5.624,-0.05307
5.628,-0.0243
5.632,-0.0093
5.636,-0.02127
5.64,-0.00411
5.644,0.02065
5.648,-0.02284
5.652,-0.01449
5.656,-0.00986
5.66,0.00357
5.664,-0.01686
5.668,0.05518
5.672,0.00941
5.676,0.03296
5.68,0.03867
5.684,0.06263
5.688,0.06433
5.692,0.08927
5.696,0.11011
5.7,0.10728
5.704,0.11733
5.708,0.12079
5.712,0.12791
5.716,0.14398
5.72,0.14883
5.724,0.17789
5.728,0.19644
5.732,0.19955
5.736,0.17996
5.74,0.19383
5.744,0.21164
5.748,0.2005
5.752,0.19149
5.756,0.18092
5.76,0.18202
5.764,0.19008
5.768,0.1951
5.772,0.17688
5.776,0.16094
5.78,0.16006
5.784,0.1462
5.788,0.12909
5.792,0.14092
5.796,0.12966
5.8,0.08098
5.804,0.08503
5.808,0.07499
5.812,0.07581
5.816,0.1017
5.82,0.0405
5.824,0.04078
5.828,0.00216
5.832,0.00881
5.836,0.01886
5.84,0.01524
5.844,0.0134
5.848,0.00419
5.852,0.00395
5.856,-0.00333
5.86,0.0239
5.864,-0.01407
5.868,-0.01571
5.872,-0.03264
5.876,-0.0144
5.88,-0.03534
5.884,0.0036
5.888,-0.00989
5.892,-0.0239
5.896,-0.02185
5.9,-0.03908
5.904,-0.01127
5.908,0.01814
5.912,-0.02839
5.916,-0.02012
5.92,-0.00475
5.924,-0.03292
5.928,-0.01817
5.932,-0.03318
5.936,-0.02324
5.94,-0.02451
5.944,-0.01377
5.948,-0.02776
5.952,-0.02512
5.956,-0.03524
5.96,-0.01789
5.964,-0.01429
5.968,-0.04543
5.972,-0.01055
5.976,-0.03388
5.98,-0.01148
5.984,-0.0509
5.988,-0.0368
5.992,0.00014
5.996,-0.02188
6.0,-0.00446
6.004,-0.01111
6.008,-0.01728
6.012,-0.01361
6.016,-0.01659
6.02,-0.02404
6.024,-0.01676
6.028,0.01159
6.032,-0.00187
6.036,0.01003
6.04,-0.02421
6.044,0.01882
6.048,0.04049
6.052,0.02512
6.056,0.03047
6.06,0.05487
6.064,0.08541
6.068,0.10465
6.072,0.0935
6.076,0.05559
6.08,0.09202
6.084,0.08035
6.088,0.08271
6.092,0.04465
6.096,0.06892
6.1,0.01538
6.104,0.01625
6.108,0.02611
6.112,0.00359
6.116,-0.01077
6.12,0.00369
6.124,-0.03137
6.128,-0.02526
6.132,-0.02497
6.136,0.01463
6.14,-0.02074
6.144,-0.03367
6.148,-0.01541
6.152,0.001
6.156,-0.01889
6.16,-0.021
6.164,-0.01048
6.168,-0.00856
6.172,-0.03592
6.176,-0.00396
6.18,0.0118
6.184,-0.03197
6.188,-0.02745
6.192,-0.06977
6.196,-0.09836
6.2,-0.11131
6.204,-0.10451
6.208,-0.06887
6.212,0.048
6.216,0.18426
6.22,0.39613
6.224,0.64636
6.228,0.84368
6.232,0.96875
6.236,0.99924
6.24,0.89434
6.244,0.72204
6.248,0.52662
6.252,0.25983
6.256,0.09193
6.26,-0.07968
6.264,-0.1645
6.268,-0.16938
6.272,-0.15834
6.276,-0.11403
6.28,-0.06485
6.284,-0.05161
6.288,-0.03711
6.292,-0.01194
6.296,-0.01016
6.3,-0.01208
6.304,0.01198
6.308,-9e-05
6.312,-0.01083
6.316,-0.01641
6.32,-0.0132
6.324,-0.00763
6.328,-0.00535
6.332,0.03441
6.336,-0.06032
6.34,0.00496
6.344,0.04492
6.348,0.00981
6.352,-0.02305
6.356,0.00595
6.36,0.01893
6.364,0.01006
6.368,0.01778
6.372,0.01848
6.376,-0.01482
6.38,-0.00692
6.384,0.00539
6.388,-0.01587
6.392,0.01349
6.396,0.00263
6.4,0.02125
6.404,-0.01327
6.408,0.00129
6.412,0.01481
6.416,0.00188
6.42,0.0355
6.424,0.0166
6.428,0.02074
6.432,0.03738
6.436,0.03173
6.44,0.04979
6.444,0.04108
6.448,0.09039
6.452,0.10579
6.456,0.09235
6.46,0.10537
6.464,0.11386
6.468,0.12928
6.472,0.13842
6.476,0.13333
6.48,0.14522
6.484,0.1912
6.488,0.18399
6.492,0.18417
6.496,0.18132
6.5,0.18821
6.504,0.22415
6.508,0.22007
6.512,0.23425
6.516,0.21921
6.52,0.22798
6.524,0.21022
6.528,0.22479
6.532,0.17412
6.536,0.19045
6.54,0.17623
6.544,0.17639
6.548,0.17793
6.552,0.15675
6.556,0.13297
6.56,0.12279
6.564,0.10567
6.568,0.13783
6.572,0.09527
6.576,0.07964
6.58,0.07863
6.584,0.06051
6.588,0.05912
6.592,0.03712
6.596,0.04625
6.6,0.03544
6.604,0.03323
6.608,0.02635
6.612,0.0102
6.616,0.01956
6.62,0.01399
6.624,0.01623
6.628,-0.00026
6.632,0.0016
6.636,0.01357
6.64,0.00875
6.644,0.00799
6.648,-0.00747
6.652,-0.00035
6.656,0.01513
6.66,-0.01292
6.664,-0.00562
6.668,0.00486
6.672,-0.01247
6.676,0.00445
6.68,-0.00689
6.684,-0.01019
6.688,0.00286
6.692,0.00442
6.696,-0.04165
6.7,-0.00472
6.704,0.00573
6.708,-0.01241
6.712,0.01541
6.716,-0.01784
6.72,0.00811
6.724,-0.00591
6.728,0.00837
6.732,-0.0097
6.736,0.00311
6.74,0.00051
6.744,-0.00033
6.748,-0.01588
6.752,0.01499
6.756,0.00497
6.76,0.00132
6.764,0.01795
6.768,0.02603
6.772,0.02656
6.776,0.01942
6.78,0.01324
6.784,-0.00675
6.788,0.00917
6.792,0.03382
6.796,-0.01646
6.8,-0.00443
6.804,0.01047
6.808,0.01193
6.812,0.01469
6.816,0.0064
6.82,0.02478
6.824,0.01805
6.828,0.02202
6.832,0.00712
6.836,0.02743
6.84,-0.01607
6.844,0.01246
6.848,0.00934
6.852,0.02697
6.856,0.01849
6.86,-0.01212
6.864,-0.00411
6.868,0.0139
6.872,0.03154
6.876,-0.01655
6.88,0.02597
6.884,0.01722
6.888,0.01368
6.892,-0.00661
6.896,-0.00567
6.9,-0.00128
6.904,0.00105
6.908,0.01143
6.912,0.00971
6.916,-0.01214
6.92,0.00762
6.924,0.03335
6.928,0.0294
6.932,0.02306
6.936,0.01393
6.94,0.06053
6.944,0.04198
6.948,0.04923
6.952,0.067
6.956,0.08783
6.96,0.1019
6.964,0.10564
6.968,0.10386
6.972,0.12726
6.976,0.11196
6.98,0.12875
6.984,0.12311
6.988,0.06692
6.992,0.05074
6.996,0.08176
7.0,0.04826
7.004,0.04607
7.008,0.0474
7.012,0.00824
7.016,0.04012
7.02,0.01404
7.024,0.00187
7.028,0.01295
7.032,0.00812
7.036,0.04502
7.04,0.01555
7.044,-0.02636
7.048,0.0054
7.052,0.02504
7.056,0.00742
7.06,0.07274
7.064,0.00935
7.068,0.03133
7.072,-0.00403
7.076,0.01259
7.08,-0.01019
7.084,0.02512
7.088,-0.03038
7.092,-0.05673
7.096,-0.0399
7.1,-0.12352
7.104,-0.08697
7.108,-0.02904
7.112,0.14684
7.116,0.29612
7.12,0.54842
7.124,0.75002
7.128,0.92167
7.132,1.01313
7.136,0.98128
7.14,0.84801
7.144,0.65579
7.148,0.43039
7.152,0.21749
7.156,0.00788
7.16,-0.09539
7.164,-0.16826
7.168,-0.14624
7.172,-0.10509
7.176,-0.07677
7.18,-0.03142
7.184,-0.02585
7.188,0.0072
7.192,0.01031
7.196,0.05454
7.2,-0.00756
7.204,0.01287
7.208,0.03818
7.212,0.00724
7.216,0.01073
7.22,0.01814
7.224,0.01834
7.228,0.01679
7.232,-0.01265
7.236,0.02841
7.24,-0.00811
7.244,0.02891
7.248,0.01339
7.252,0.00819
7.256,-0.00263
7.26,0.01874
7.264,-0.00315
7.268,0.00728
7.272,0.0105
7.276,-0.01227
7.28,0.01552
7.284,0.03014
7.288,0.03232
7.292,0.03817
7.296,0.03488
7.3,0.0083
7.304,0.01844
7.308,0.02088
7.312,0.05192
7.316,0.02875
7.32,0.03389
7.324,0.06399
7.328,0.03072
7.332,0.03205
7.336,0.06704
7.34,0.09145
7.344,0.08533
7.348,0.0731
7.352,0.10686
7.356,0.12001
7.36,0.12395
7.364,0.12335
7.368,0.16659
7.372,0.17539
7.376,0.17162
7.38,0.19819
7.384,0.19717
7.388,0.19353
7.392,0.19539
7.396,0.25134
7.4,0.24085
7.404,0.22951
7.408,0.25735
7.412,0.24006
7.416,0.22221
7.42,0.24795
7.424,0.24701
7.428,0.23107
7.432,0.21566
7.436,0.20432
7.44,0.21218
7.444,0.18695
7.448,0.1853
7.452,0.1924
7.456,0.15109
7.46,0.13839
7.464,0.13911
7.468,0.09586
7.472,0.11271
7.476,0.11706
7.48,0.10875
7.484,0.07977
7.488,0.07477
7.492,0.07776
7.496,0.0824
7.5,0.04095
7.504,0.04463
7.508,0.04582
7.512,0.02385
7.516,0.02253
7.52,0.0274
7.524,0.03485
7.528,0.04346
7.532,-0.01047
7.536,0.02439
7.54,0.03135
7.544,0.02156
7.548,0.04971
7.552,0.00271
7.556,0.03454
7.56,0.04222
7.564,0.03581
7.568,0.01671
7.572,0.03328
7.576,0.01053
7.58,0.0444
7.584,0.02765
7.588,0.01457
7.592,0.02639
7.596,-0.00577
7.6,0.01663
7.604,0.00987
7.608,0.0193
7.612,0.03177
7.616,0.01721
7.62,0.03786
7.624,0.01346
7.628,0.00782
7.632,0.02074
7.636,0.00602
7.64,0.01843
7.644,0.03559
7.648,0.02097
7.652,0.05432
7.656,0.0243
7.66,0.0128
7.664,0.06004
7.668,0.05356
7.672,0.04112
7.676,0.05352
7.68,0.04284
7.684,0.09452
7.688,0.07613
7.692,0.08313
7.696,0.11816
7.7,0.11403
7.704,0.1173
7.708,0.13203
7.712,0.10059
7.716,0.13241
7.72,0.09775
7.724,0.15166
7.728,0.07432
7.732,0.07897
7.736,0.05837
7.74,0.05544
7.744,0.06424
7.748,0.04347
7.752,0.03128
7.756,0.03111
7.76,0.0053
7.764,0.0524
7.768,0.02726
7.772,0.02445
7.776,0.01936
7.78,0.07548
7.784,0.02674
7.788,0.03479
7.792,0.01548
7.796,0.04105
7.8,0.01423
7.804,0.02794
7.808,0.03672
7.812,0.00717
7.816,0.01277
7.82,0.04151
7.824,0.02599
7.828,-0.01363
7.832,-0.05334
7.836,-0.09757
7.84,-0.07711
7.844,-0.02269
7.848,0.13021
7.852,0.32499
7.856,0.48285
7.86,0.72532
7.864,0.88717
7.868,1.0156
7.872,1.00372
7.876,0.91541
7.88,0.72276
7.884,0.52469
7.888,0.29186
7.892,0.06744
7.896,-0.05744
7.9,-0.12484
7.904,-0.13138
7.908,-0.09784
7.912,-0.0376
7.916,-0.01911
7.92,-0.00806
7.924,0.02239
7.928,0.02494
7.932,0.00795
7.936,0.02167
7.94,0.01631
7.944,0.02196
7.948,0.0268
7.952,0.02285
7.956,0.03459
7.96,0.02103
7.964,0.0208
7.968,-0.0177
7.972,0.02256
7.976,0.02931
7.98,0.02355
7.984,0.0549
7.988,0.04335
7.992,0.03913
7.996,0.0304
8.0,0.06327
8.004,0.01234
8.008,0.03043
8.012,-0.00275
8.016,0.03179
8.02,0.0424
8.024,0.02462
8.028,0.03006
8.032,0.01273
8.036,0.03261
8.04,0.0804
8.044,0.01888
8.048,0.04468
8.052,0.0562
8.056,0.066
8.06,0.04967
8.064,0.06993
8.068,0.09687
8.072,0.08394
8.076,0.07553
8.08,0.11374
8.084,0.11029
8.088,0.11667
8.092,0.11701
8.096,0.12918
8.1,0.11912
8.104,0.18079
8.108,0.18137
8.112,0.144
8.116,0.17877
8.12,0.23184
8.124,0.18296
8.128,0.21537
8.132,0.22006
8.136,0.25875
8.14,0.25961
8.144,0.22552
8.148,0.26775
8.152,0.23786
8.156,0.2587
8.16,0.27252
8.164,0.23142
8.168,0.22673
8.172,0.2066
8.176,0.22113
8.18,0.184
8.184,0.21718
8.188,0.18489
8.192,0.17403
8.196,0.15648
8.2,0.14375
8.204,0.17703
8.208,0.15447
8.212,0.10807
8.216,0.12111
8.22,0.07493
8.224,0.10308
8.228,0.08238
8.232,0.08926
8.236,0.0481
8.24,0.08765
8.244,0.04671
8.248,0.04331
8.252,0.04498
8.256,0.06261
8.26,0.01972
8.264,0.03208
8.268,0.03237
8.272,0.04581
8.276,0.00547
8.28,0.04416
8.284,0.00444
8.288,0.01935
8.292,0.00917
8.296,0.02439
8.3,0.02259
8.304,0.02734
8.308,0.03945
8.312,0.02641
8.316,0.04885
8.32,0.01878
8.324,0.01658
8.328,0.03951
8.332,0.03233
8.336,0.02491
8.34,0.0687
8.344,0.01363
8.348,0.05177
8.352,0.05028
8.356,0.01845
8.36,0.04137
8.364,0.04935
8.368,0.05982
8.372,0.02122
8.376,0.02946
8.38,0.04124
8.384,0.01389
8.388,0.01874
8.392,0.01348
8.396,0.02708
8.4,0.0247
8.404,-0.00731
8.408,0.02366
8.412,0.05108
8.416,0.01531
8.42,0.03211
8.424,0.04856
8.428,0.04835
8.432,0.05153
8.436,0.06444
8.44,0.03975
8.444,0.05697
8.448,0.07114
8.452,0.09193
8.456,0.05788
8.46,0.11176
8.464,0.10604
8.468,0.11541
8.472,0.12165
8.476,0.13713
8.48,0.08697
8.484,0.1028
8.488,0.11212
8.492,0.118
8.496,0.05875
8.5,0.06981
8.504,0.0888
8.508,0.06017
8.512,0.05907
8.516,0.06562
8.52,0.04566
8.524,0.02807
8.528,0.04064
8.532,0.02902
8.536,0.05216
8.54,0.01789
8.544,0.03143
8.548,0.0442
8.552,0.0358
8.556,0.01607
8.56,0.03855
8.564,0.05916
8.568,0.01807
8.572,0.02305
8.576,0.02573
8.58,0.02289
8.584,0.04191
8.588,0.03322
8.592,0.00115
8.596,-0.04827
8.6,-0.05775
8.604,-0.09951
8.608,-0.02613
8.612,0.0485
8.616,0.2293
8.62,0.41821
8.624,0.64104
8.628,0.83225
8.632,0.97716
8.636,1.01891
8.64,0.944
8.644,0.78211
8.648,0.58872
8.652,0.34409
8.656,0.17583
8.66,-0.01466
8.664,-0.10135
8.668,-0.14101
8.672,-0.12575
8.676,-0.11927
8.68,-0.01776
8.684,0.00235
8.688,0.00382
8.692,0.03034
8.696,0.03408
8.7,0.03176
8.704,0.02425
8.708,0.02605
8.712,0.03578
8.716,0.02065
8.72,0.01897
8.724,0.01694
8.728,0.03477
8.732,0.02702
8.736,0.04874
8.74,0.0411
8.744,-0.0008
8.748,0.01051
8.752,0.01081
8.756,0.04762
8.76,0.07757
8.764,0.01663
8.768,0.04245
8.772,0.01234
8.776,0.02048
8.78,0.0245
8.784,0.04379
8.788,0.03285
8.792,0.03332
8.796,0.04314
8.8,0.03683
8.804,0.04646
8.808,0.02542
8.812,0.02457
8.816,0.0398
8.82,0.06123
8.824,0.07082
8.828,0.0848
8.832,0.06625
8.836,0.06812
8.84,0.07318
8.844,0.10167
8.848,0.09516
8.852,0.0911
8.856,0.15165
8.86,0.12696
8.864,0.11951
8.868,0.15297
8.872,0.16684
8.876,0.18848
8.88,0.1963
8.884,0.20495
8.888,0.20829
8.892,0.21464
8.896,0.24384
8.9,0.24089
8.904,0.25749
8.908,0.22731
8.912,0.23344
8.916,0.24367
8.92,0.23202
8.924,0.25856
8.928,0.22381
8.932,0.23595
8.936,0.21689
8.94,0.22087
8.944,0.1893
8.948,0.1705
8.952,0.15412
8.956,0.17156
8.96,0.15555
8.964,0.15964
8.968,0.13282
8.972,0.17583
8.976,0.13021
8.98,0.11508
8.984,0.11705
8.988,0.09956
8.992,0.07439
8.996,0.06166
9.0,0.06521
9.004,0.08217
9.008,0.04368
9.012,0.04422
9.016,0.03654
9.02,0.05127
9.024,0.02633
9.028,0.02777
9.032,0.03006
9.036,0.03203
9.04,0.02601
9.044,0.04336
9.048,0.02197
9.052,0.03061
9.056,0.01055
9.06,0.02874
9.064,0.04172
9.068,0.05512
9.072,0.04438
9.076,0.01324
9.08,0.04091
9.084,0.02895
9.088,0.00545
9.092,0.01016
9.096,0.03886
9.1,0.03752
9.104,0.02771
9.108,0.01227
9.112,0.01623
9.116,0.00735
9.12,0.01813
9.124,0.01438
9.128,0.0294
9.132,0.02851
9.136,0.03352
9.14,0.03013
9.144,0.0118
9.148,0.03213
9.152,0.03789
9.156,0.01128
9.16,0.03601
9.164,0.04895
9.168,0.06679
9.172,0.04593
9.176,0.08162
9.18,0.09196
9.184,0.08656
9.188,0.12924
9.192,0.15211
9.196,0.13655
9.2,0.09553
9.204,0.12365
9.208,0.10841
9.212,0.1015
9.216,0.06725
9.22,0.07737
9.224,0.06352
9.228,0.03847
9.232,0.03625
9.236,0.00813
9.24,0.04258
9.244,0.00497
9.248,0.04575
9.252,0.04862
9.256,0.02637
9.26,0.02193
9.264,-0.00491
9.268,0.03028
9.272,0.01106
9.276,0.00888
9.28,0.02295
9.284,0.02687
9.288,0.03011
9.292,0.00745
9.296,0.00096
9.3,0.01214
9.304,-0.00294
9.308,0.00158
9.312,-0.0104
9.316,-0.04365
9.32,-0.05758
9.324,-0.12271
9.328,-0.05869
9.332,0.01826
9.336,0.17858
9.34,0.32168
9.344,0.56331
9.348,0.78125
9.352,0.92799
9.356,1.02253
9.36,0.99922
9.364,0.83541
9.368,0.64434
9.372,0.41904
9.376,0.18688
9.38,0.01649
9.384,-0.11366
9.388,-0.16061
9.392,-0.14625
9.396,-0.12052
9.4,-0.07795
9.404,-0.03837
9.408,0.01441
9.412,0.02029
9.416,0.04808
9.42,-0.00182
9.424,0.02831
9.428,0.01115
9.432,-0.00522
9.436,0.00118
9.44,-0.00184
9.444,0.02424
9.448,0.02307
9.452,-0.01972
9.456,0.02198
9.46,0.00241
9.464,0.02588
9.468,0.00494
9.472,0.03287
9.476,0.02146
9.48,0.01489
9.484,0.01354
9.488,0.01568
9.492,0.02172
9.496,0.02644
9.5,-0.00246
9.504,0.00584
9.508,0.00923
9.512,0.00497
9.516,0.02981
9.52,0.00049
9.524,0.01336
9.528,0.01771
9.532,0.00356
9.536,0.03225
9.54,0.01633
9.544,0.07624
9.548,0.0492
9.552,0.05411
9.556,0.06749
9.56,0.0739
9.564,0.05481
9.568,0.08559
9.572,0.07988
9.576,0.10518
9.58,0.09469
9.584,0.08106
9.588,0.13509
9.592,0.12262
9.596,0.16548
9.6,0.17146
9.604,0.18297
9.608,0.18798
9.612,0.18121
9.616,0.19027
9.62,0.21266
9.624,0.2319
9.628,0.25227
9.632,0.2224
9.636,0.2493
9.64,0.21692
9.644,0.19188
9.648,0.23409
9.652,0.20887
9.656,0.24015
9.66,0.20065
9.664,0.22139
9.668,0.18187
9.672,0.16037
9.676,0.13977
9.68,0.16219
9.684,0.14923
9.688,0.12743
9.692,0.10379
9.696,0.10421
9.7,0.08637
9.704,0.08371
9.708,0.05099
9.712,0.05311
9.716,0.04227
9.72,0.05868
9.724,0.03183
9.728,0.05527
9.732,0.02556
9.736,0.03907
9.74,0.02653
9.744,0.03168
9.748,0.01938
9.752,0.0205
9.756,0.02216
9.76,0.01527
9.764,-0.00375
9.768,-0.00033
9.772,0.01449
9.776,0.00913
9.78,0.02377
9.784,0.00199
9.788,-0.05773
9.792,0.011
9.796,0.00252
9.8,0.01856
9.804,0.00063
9.808,-0.00937
9.812,0.00489
9.816,0.00492
9.82,-0.00926
9.824,-0.00726
9.828,0.01712
9.832,0.00076
9.836,-0.02195
9.84,0.00907
9.844,-0.00869
9.848,0.03639
9.852,-0.00642
9.856,0.00903
9.86,0.00509
9.864,-0.01792
9.868,-0.00734
9.872,0.01973
9.876,0.02034
9.88,-0.00201
9.884,-0.00719
9.888,-0.00699
9.892,0.0157
9.896,-0.00545
9.9,-0.00772
9.904,0.01185
9.908,0.01955
9.912,0.0102
9.916,-0.00364
9.92,-0.0065
9.924,0.00254
9.928,0.0425
9.932,-0.02058
9.936,0.0043
9.94,0.01396
9.944,0.00758
9.948,-0.00581
9.952,0.00705
9.956,0.00198
9.96,0.01652
9.964,-0.00792
9.968,0.00835
9.972,0.01201
9.976,-0.01713
9.98,-0.00753
9.984,0.00031
9.988,0.01062
9.992,-0.00091
9.996,0.04399
