t_seg,ecg_mV
0.0,0.72444
0.004,0.92138
0.008,0.98612
0.012,0.97503
0.016,0.90192
0.02,0.67071
0.024,0.53388
0.028,0.24622
0.032,0.07287
0.036,-0.05111
0.04,-0.13618
0.044,-0.11503
0.048,-0.10462
0.052,-0.06668
0.056,-0.0997
0.06,-0.06584
0.064,-0.0273
0.068,-0.0571
0.072,0.00119
0.076,0.01927
0.08,0.01183
0.084,0.0739
0.088,0.06705
0.092,-0.00515
0.096,0.07074
0.1,-0.05946
0.104,-0.00274
0.108,0.05504
0.112,0.04923
0.116,0.02103
0.12,-0.02672
0.124,-0.02197
0.128,0.06695
0.132,0.0229
0.136,0.0253
0.14,0.08434
0.144,0.01227
0.148,0.03247
0.152,0.02135
0.156,-0.01849
0.16,0.05243
0.164,0.03044
0.168,0.02903
0.172,-0.00104
0.176,-0.01139
0.18,0.01731
0.184,0.02954
0.188,0.04883
0.192,0.06228
0.196,0.05842
0.2,0.09265
0.204,0.09438
0.208,0.07765
0.212,0.12589
0.216,0.10999
0.22,0.11273
0.224,0.11609
0.228,0.08047
0.232,0.10357
0.236,0.13553
0.24,0.10946
0.244,0.18692
0.248,0.12462
0.252,0.14513
0.256,0.2007
0.26,0.19098
0.264,0.27141
0.268,0.20741
0.272,0.24103
0.276,0.17824
0.28,0.23864
0.284,0.22664
0.288,0.22974
0.292,0.20968
0.296,0.27214
0.3,0.29046
0.304,0.21217
0.308,0.25551
0.312,0.20044
0.316,0.15203
0.32,0.25268
0.324,0.19098
0.328,0.16462
0.332,0.15833
0.336,0.20172
0.34,0.15703
0.344,0.0869
0.348,0.06158
0.352,0.12684
0.356,0.07481
0.36,0.03365
0.364,0.06027
0.368,0.04694
0.372,-0.00843
0.376,0.03466
0.38,-0.02127
0.384,0.06519
0.388,-0.01028
0.392,0.07485
0.396,0.05367
0.4,0.05733
0.404,0.05539
0.408,0.0073
0.412,0.07229
0.416,0.05919
0.42,-0.03543
0.424,-0.05698
0.428,0.02031
0.432,0.01245
0.436,0.01712
0.44,-0.01891
0.444,0.03729
0.448,0.0591
0.452,0.02985
0.456,0.0355
0.46,-0.05031
0.464,0.04748
0.468,-0.03846
0.472,-0.01414
0.476,0.0093
0.48,-0.00732
0.484,0.12074
0.488,-0.01831
0.492,0.04801
0.496,-0.02896
0.5,0.00316
0.504,0.09343
0.508,0.0267
0.512,0.08142
0.516,0.10466
0.52,0.08565
0.524,0.1494
0.528,0.02577
0.532,0.10638
0.536,0.11121
0.54,0.11081
0.544,0.12129
0.548,-0.02064
0.552,0.03414
0.556,0.03518
0.56,0.00497
0.564,0.06561
0.568,0.02758
0.572,-0.02961
0.576,0.01071
0.58,0.03773
0.584,0.09319
0.588,-0.00387
0.592,-0.03072
0.596,-0.04319
0.6,0.0456
0.604,0.0335
0.608,0.00371
0.612,-0.00254
0.616,-0.00554
0.62,0.00023
0.624,0.04648
0.628,-0.06733
0.632,0.02009
0.636,-0.02059
0.64,-0.023
0.644,-0.0818
0.648,-0.08181
0.652,-0.12818
0.656,-0.06757
0.66,-0.03355
0.664,0.14901
0.668,0.36913
0.672,0.58883
0.676,0.82733
0.68,0.92629
0.684,0.99244
0.688,0.88916
0.692,0.75708
0.696,0.5783
0.7,0.35995
0.704,0.09909
0.708,-0.01505
0.712,-0.11226
0.716,-0.20093
0.72,-0.15842
0.724,-0.12699
0.728,-0.08792
0.732,0.00826
0.736,0.01527
0.74,-0.02704
0.744,-0.0098
0.748,-0.00106
0.752,0.0136
0.756,0.06069
0.76,0.01153
0.764,-0.07254
0.768,-0.00145
0.772,0.02783
0.776,0.00569
0.78,-0.00321
0.784,-0.00495
0.788,-0.08694
0.792,0.02916
0.796,-0.03911
0.8,0.0116
0.804,-0.03423
0.808,0.02028
0.812,0.02399
0.816,0.04223
0.82,0.01208
0.824,-0.02466
0.828,0.02283
0.832,-0.02572
0.836,-0.04722
0.84,-0.04615
0.844,0.00164
0.848,-0.04213
0.852,2e-05
0.856,0.00583
0.86,0.07176
0.864,0.09777
0.868,0.02767
0.872,0.00697
0.876,0.01092
0.88,-0.02322
0.884,0.08538
0.888,0.00546
0.892,0.07403
0.896,0.08809
0.9,0.05209
0.904,0.04079
0.908,0.07527
0.912,0.14143
0.916,0.15671
0.92,0.11979
0.924,0.15599
0.928,0.15424
0.932,0.13823
0.936,0.12185
0.94,0.22277
0.944,0.20565
0.948,0.17645
0.952,0.26729
0.956,0.20929
0.96,0.20932
0.964,0.20549
0.968,0.25779
0.972,0.22784
0.976,0.24529
0.98,0.21163
0.984,0.18744
0.988,0.2049
0.992,0.13024
0.996,0.19343
1.0,0.14809
1.004,0.13545
1.008,0.10256
1.012,0.14416
1.016,0.09012
1.02,0.08196
1.024,0.08189
1.028,0.07604
1.032,0.03867
1.036,0.10306
1.04,0.02671
1.044,0.03914
1.048,0.04237
1.052,0.05037
1.056,-0.01722
1.06,0.01005
1.064,0.06755
1.068,-0.00653
1.072,-0.04865
1.076,-0.04089
1.08,0.01166
1.084,0.02549
1.088,0.00057
1.092,-0.00543
1.096,-0.0158
1.1,-0.02204
1.104,0.0425
1.108,-0.00729
1.112,0.00806
1.116,0.02489
1.12,-0.05619
1.124,-0.00083
1.128,-0.0245
1.132,0.07868
1.136,-0.00134
1.14,0.05199
1.144,-0.02837
1.148,-0.03086
1.152,0.02155
1.156,-0.0021
1.16,-0.01531
1.164,-0.00357
1.168,-0.02832
1.172,-0.03265
1.176,0.02118
1.18,-0.02373
1.184,-0.04071
1.188,0.03427
1.192,-0.00695
1.196,0.01249
1.2,-0.07506
1.204,-0.01644
1.208,-0.10439
1.212,0.01582
1.216,0.0215
1.22,0.00442
1.224,-0.07346
1.228,-0.06546
1.232,-0.02814
1.236,-0.01088
1.24,-0.05358
1.244,-0.04442
1.248,-0.01703
1.252,-0.03687
1.256,0.04073
1.26,-0.04572
1.264,-0.05652
1.268,-0.04215
1.272,-0.06962
1.276,-0.04262
1.28,-0.02902
1.284,0.02068
1.288,-0.02171
1.292,0.01242
1.296,-0.02939
1.3,-0.04508
1.304,0.03196
1.308,-0.04642
1.312,-0.02166
1.316,0.05112
1.32,0.01912
1.324,0.03891
1.328,-0.01261
1.332,-0.01435
1.336,0.02698
1.34,0.00845
1.344,-0.06662
1.348,-0.00071
1.352,-0.04953
1.356,0.02728
1.36,0.03413
1.364,0.02803
1.368,0.02638
1.372,0.01134
1.376,-0.02439
1.38,-0.07229
1.384,0.01245
1.388,-0.06512
1.392,-0.05037
1.396,0.00039
1.4,-0.03016
1.404,-0.0049
1.408,-0.02556
1.412,-0.07466
1.416,-0.03139
1.42,-0.01129
1.424,0.06105
1.428,0.00341
1.432,-0.00862
1.436,-0.03913
1.44,-0.0413
1.444,-0.04383
1.448,-0.0188
1.452,0.02678
1.456,0.00359
1.46,-0.08331
1.464,-0.01527
1.468,-0.03237
1.472,0.02442
1.476,0.00285
1.48,-0.04671
1.484,0.01011
1.488,0.01685
1.492,0.00393
1.496,0.02584
1.5,0.02735
1.504,-0.05015
1.508,-0.02174
1.512,-0.00569
1.516,-0.05615
1.52,0.02944
1.524,-0.033
1.528,-0.06405
1.532,-0.04442
1.536,-0.03402
1.54,-0.03457
1.544,-0.03246
1.548,0.01791
1.552,0.01957
1.556,-0.00464
1.56,0.03112
1.564,-0.08828
1.568,0.00506
1.572,-0.03877
1.576,-0.02904
1.58,0.01999
1.584,-0.01648
1.588,-0.00999
1.592,-0.02402
1.596,0.02707
1.6,-0.0692
1.604,-0.06241
1.608,-0.00201
1.612,-0.09552
1.616,-0.01125
1.62,0.03574
1.624,-0.00031
1.628,0.00157
1.632,-0.03131
1.636,0.02955
1.64,0.04069
1.644,0.0605
1.648,0.06908
1.652,0.12469
1.656,0.11325
1.66,0.0891
1.664,0.08698
1.668,0.09561
1.672,0.10501
1.676,0.13461
1.68,0.0763
1.684,0.04375
1.688,0.05454
1.692,0.0296
1.696,-0.0193
1.7,-0.04037
1.704,0.01057
1.708,-0.04681
1.712,-0.04848
1.716,0.01418
1.72,-0.01615
1.724,-0.00579
1.728,-0.01572
1.732,-0.03854
1.736,0.06958
1.74,-0.01166
1.744,-0.01676
1.748,-0.00379
1.752,-0.06818
1.756,0.03115
1.76,-0.05052
1.764,-0.05055
1.768,-0.05089
1.772,-0.06009
1.776,-0.03295
1.78,-0.09066
1.784,-0.16368
1.788,-0.19273
1.792,-0.09895
1.796,0.03479
1.8,0.14682
1.804,0.37739
1.808,0.57487
1.812,0.75259
1.816,0.94633
1.82,1.00164
1.824,0.98027
1.828,0.79332
1.832,0.5584
1.836,0.34011
1.84,0.12112
1.844,0.02999
1.848,-0.11114
1.852,-0.2063
1.856,-0.17731
1.86,-0.14449
1.864,-0.06345
1.868,-0.02852
1.872,-0.05868
1.876,-0.03449
1.88,-0.0281
1.884,-0.05912
1.888,0.00239
1.892,-0.01163
1.896,0.01899
1.9,-0.03125
1.904,-0.05644
1.908,-0.03176
1.912,-0.06884
1.916,0.0245
1.92,-0.04495
1.924,-0.03145
1.928,-0.05222
1.932,-0.01377
1.936,-0.01067
1.94,-0.04375
1.944,0.01055
1.948,-0.07726
1.952,-0.00896
1.956,0.0159
1.96,0.02725
1.964,0.02331
1.968,-0.05463
1.972,0.00618
1.976,-0.0537
1.98,-0.02219
1.984,-0.02008
1.988,0.00147
1.992,-0.02833
1.996,-0.0226
2.0,0.01406
2.004,0.02136
2.008,-0.06178
2.012,0.06073
2.016,0.0279
2.02,-0.00089
2.024,0.03934
2.028,0.11013
2.032,0.00225
2.036,0.0516
2.04,0.02474
2.044,0.09442
2.048,0.20288
2.052,0.10346
2.056,0.1102
2.06,0.14906
2.064,0.1079
2.068,0.13657
2.072,0.14188
2.076,0.16755
2.08,0.1306
2.084,0.15081
2.088,0.21922
2.092,0.20783
2.096,0.18045
2.1,0.16764
2.104,0.1181
2.108,0.2351
2.112,0.16996
2.116,0.13084
2.12,0.17186
2.124,0.16819
2.128,0.22024
2.132,0.13195
2.136,0.14937
2.14,0.10913
2.144,0.1447
2.148,0.05884
2.152,0.0835
2.156,0.11921
2.16,0.1183
2.164,0.12046
2.168,0.16676
2.172,0.14708
2.176,0.15855
2.18,0.05996
2.184,0.1236
2.188,0.10808
2.192,0.14803
2.196,0.09983
2.2,-0.00286
2.204,0.01092
2.208,0.03156
2.212,0.0642
2.216,-0.03056
2.22,0.05169
2.224,0.00294
2.228,-0.03784
2.232,0.00332
2.236,-0.03401
2.24,-0.04536
2.244,-0.02195
2.248,-0.02739
2.252,-0.02405
2.256,-0.04816
2.26,-0.09801
2.264,-0.02576
2.268,-0.03277
2.272,-0.0196
2.276,-0.06429
2.28,-0.04874
2.284,0.00646
2.288,-0.06316
2.292,-0.0315
2.296,-0.01697
2.3,-0.081
2.304,-0.1215
2.308,-0.09918
2.312,-0.14435
2.316,-0.01079
2.32,-0.00494
2.324,0.15164
2.328,0.31917
2.332,0.60229
2.336,0.81041
2.34,0.95149
2.344,0.97539
2.348,0.89487
2.352,0.74728
2.356,0.51521
2.36,0.25646
2.364,0.07755
2.368,-0.08776
2.372,-0.10425
2.376,-0.26569
2.38,-0.16121
2.384,-0.22044
2.388,-0.05704
2.392,-0.0264
2.396,-0.04803
2.4,-0.01262
2.404,-0.06276
2.408,-0.0129
2.412,0.04254
2.416,0.02259
2.42,-0.00513
2.424,-0.02992
2.428,-0.02022
2.432,-0.01185
2.436,-0.05999
2.44,0.03037
2.444,-0.07539
2.448,0.01126
2.452,-0.04385
2.456,-0.01636
2.46,0.00792
2.464,-0.03882
2.468,-0.03519
2.472,-0.03942
2.476,0.02108
2.48,-0.01543
2.484,-0.03653
2.488,-0.03349
2.492,-0.00374
2.496,-0.06623
2.5,-0.02649
2.504,0.01737
2.508,-0.00259
2.512,-0.03428
2.516,-0.02526
2.52,-0.02
2.524,-0.00194
2.528,-0.00231
2.532,0.02361
2.536,0.0076
2.54,-0.01946
2.544,0.03333
2.548,-0.0155
2.552,0.04079
2.556,0.04977
2.56,0.01675
2.564,0.0216
2.568,0.12806
2.572,0.04301
2.576,0.03171
2.58,0.11635
2.584,0.11378
2.588,0.1136
2.592,0.11404
2.596,0.22786
2.6,0.12949
2.604,0.1461
2.608,0.16123
2.612,0.18493
2.616,0.13276
2.62,0.19854
2.624,0.15709
2.628,0.15264
2.632,0.16617
2.636,0.17641
2.64,0.21289
2.644,0.19008
2.648,0.10145
2.652,0.23649
2.656,0.12004
2.66,0.07596
2.664,0.17462
2.668,0.08828
2.672,0.10319
2.676,0.00604
2.68,0.05901
2.684,0.03236
2.688,0.08454
2.692,0.08193
2.696,0.02962
2.7,0.08275
2.704,0.01765
2.708,0.04005
2.712,-0.02241
2.716,0.0301
2.72,-0.02801
2.724,-0.07989
2.728,-0.04406
2.732,-0.03152
2.736,0.00675
2.74,-0.03574
2.744,0.00757
2.748,0.0135
2.752,-0.0137
2.756,-0.04149
2.76,-0.01628
2.764,-0.09065
2.768,0.0747
2.772,-0.00494
2.776,0.00038
2.78,0.00153
2.784,-0.03357
2.788,-0.00702
2.792,-0.05002
2.796,-0.03782
2.8,-0.05369
2.804,-0.08234
2.808,-0.06369
2.812,0.04238
2.816,-0.02632
2.82,-0.01828
2.824,-0.00031
2.828,-0.05202
2.832,-0.02144
2.836,-0.022
2.84,-0.01851
2.844,-0.03739
2.848,-0.06768
2.852,-0.00265
2.856,-0.01974
2.86,-0.01381
2.864,0.01631
2.868,-0.07402
2.872,-0.06779
2.876,-0.01325
2.88,-0.04034
2.884,-0.07188
2.888,-0.02938
2.892,0.03102
2.896,0.02503
2.9,-0.03891
2.904,-0.04903
2.908,-0.06251
2.912,0.01875
2.916,-0.02162
2.92,-0.05468
2.924,-0.02843
2.928,-0.04721
2.932,-0.05585
2.936,-0.01919
2.94,-0.03633
2.944,-0.03955
2.948,-0.07566
2.952,-0.02215
2.956,-0.08719
2.96,-0.06422
2.964,-0.00775
2.968,0.02676
2.972,0.01874
2.976,0.00733
2.98,-0.00351
2.984,-0.05358
2.988,-0.02828
2.992,-0.06383
2.996,0.06654
3.0,-0.07404
3.004,-0.01511
3.008,0.0207
3.012,-0.02419
3.016,0.00126
3.02,-0.06757
3.024,0.07586
3.028,0.03538
3.032,0.05229
3.036,0.03211
3.04,0.09026
3.044,0.04165
3.048,0.0902
3.052,0.06103
3.056,0.09306
3.06,0.09442
3.064,0.03475
3.068,0.04524
3.072,0.05294
3.076,0.03786
3.08,0.00315
3.084,0.00181
3.088,0.06991
3.092,-0.04899
3.096,-0.02628
3.1,-0.0152
3.104,-0.03112
3.108,-0.04663
3.112,-0.00177
3.116,-0.0646
3.12,0.01351
3.124,0.01835
3.128,0.00221
3.132,-0.01967
3.136,-0.02064
3.14,-0.02808
3.144,-0.04696
3.148,-0.03176
3.152,-0.01635
3.156,-0.02448
3.16,-0.01217
3.164,0.03948
3.168,-0.02991
3.172,-0.0211
3.176,-0.11649
3.18,-0.10238
3.184,-0.13737
3.188,-0.04043
3.192,0.18525
3.196,0.26936
3.2,0.4788
3.204,0.75654
3.208,0.88723
3.212,0.95147
3.216,0.94648
3.22,0.74956
3.224,0.67019
3.228,0.34191
3.232,0.10894
3.236,-0.0069
3.24,-0.12583
3.244,-0.18665
3.248,-0.20871
3.252,-0.14261
3.256,-0.08665
3.26,-0.07006
3.264,-0.03216
3.268,-0.08342
3.272,-0.01556
3.276,-0.0304
3.28,-0.02713
3.284,-0.02369
3.288,0.0182
3.292,-0.0175
3.296,-0.03716
3.3,0.00655
3.304,-0.07065
3.308,-0.02555
3.312,-0.09919
3.316,-0.05009
3.32,0.01403
3.324,-0.03945
3.328,-0.07149
3.332,-0.05344
3.336,-0.01394
3.34,-0.05534
3.344,-0.01546
3.348,-0.01004
3.352,-0.04536
3.356,0.01846
3.36,-0.03226
3.364,-0.03349
3.368,-0.00304
3.372,-0.06089
3.376,-0.0292
3.38,-0.04709
3.384,0.01856
3.388,0.05239
3.392,-0.03169
3.396,0.00674
3.4,-0.01002
3.404,0.01997
3.408,0.04162
3.412,0.01682
3.416,0.04394
3.42,0.06419
3.424,0.05652
3.428,0.01909
3.432,0.11304
3.436,0.07709
3.44,0.09268
3.444,0.07184
3.448,0.10165
3.452,0.16467
3.456,0.16033
3.46,0.16025
3.464,0.13733
3.468,0.16621
3.472,0.18867
3.476,0.20506
3.48,0.22081
3.484,0.15672
3.488,0.18453
3.492,0.17526
3.496,0.22531
3.5,0.24583
3.504,0.19088
3.508,0.20506
3.512,0.16878
3.516,0.20319
3.52,0.16309
3.524,0.13639
3.528,0.15142
3.532,0.12743
3.536,0.13263
3.54,0.13169
3.544,0.0956
3.548,0.07997
3.552,0.09721
3.556,0.0578
3.56,0.07862
3.564,0.0609
3.568,0.10116
3.572,0.02832
3.576,-0.01962
3.58,0.08282
3.584,-0.03479
3.588,-0.0256
3.592,-0.03531
3.596,0.01836
3.6,0.01828
3.604,-0.05349
3.608,0.01857
3.612,0.01717
3.616,-0.02396
3.62,-0.06116
3.624,0.00144
3.628,-0.01992
3.632,-0.00941
3.636,-0.04441
3.64,0.00792
3.644,-0.01277
3.648,-0.00347
3.652,0.00157
3.656,-0.03429
3.66,0.01603
3.664,-0.01724
3.668,-0.03676
3.672,-0.01519
3.676,0.02775
3.68,0.00035
3.684,-0.01297
3.688,-0.05119
3.692,-0.07141
3.696,-0.02682
3.7,-0.00998
3.704,0.034
3.708,-0.04686
3.712,-0.04796
3.716,-0.01747
3.72,-0.05125
3.724,-0.08841
3.728,-0.04583
3.732,0.02902
3.736,0.0228
3.74,-0.00928
3.744,-0.01644
3.748,-0.0309
3.752,-0.02037
3.756,0.01683
3.76,0.02161
3.764,-0.02077
3.768,0.00559
3.772,-0.00303
3.776,-0.04477
3.78,-0.00336
3.784,0.05896
3.788,-0.04775
3.792,0.04147
3.796,-0.00487
3.8,0.01923
3.804,-0.06412
3.808,0.00646
3.812,-0.05106
3.816,0.04455
3.82,0.01043
3.824,-0.03274
3.828,0.02268
3.832,0.01395
3.836,0.01737
3.84,0.0294
3.844,-0.01841
3.848,0.03819
3.852,0.04212
3.856,0.03577
3.86,0.06907
3.864,0.05259
3.868,0.13711
3.872,0.07627
3.876,0.05156
3.88,0.11038
3.884,0.10243
3.888,0.10186
3.892,0.08998
3.896,0.12012
3.9,0.05653
3.904,0.02609
3.908,0.12967
3.912,0.06317
3.916,-0.05175
3.92,0.00235
3.924,-0.03762
3.928,0.04009
3.932,-0.06315
3.936,0.02554
3.94,-0.07801
3.944,0.02017
3.948,0.06137
3.952,0.01857
3.956,-0.03569
3.96,0.0368
3.964,0.0003
3.968,0.0429
3.972,0.01316
3.976,-0.03891
3.98,0.03753
3.984,-0.01501
3.988,-0.00642
3.992,-0.03906
3.996,-0.02258
4.0,-0.07725
4.004,-0.00369
4.008,-0.17865
4.012,-0.04974
4.016,-0.0237
4.02,0.09404
4.024,0.25869
4.028,0.47665
4.032,0.70636
4.036,0.86449
4.04,0.96759
4.044,1.00779
4.048,0.85088
4.052,0.71419
4.056,0.5138
4.06,0.24697
4.064,0.04939
4.068,-0.06761
4.072,-0.18431
4.076,-0.19707
4.08,-0.17741
4.084,-0.11051
4.088,-0.15716
4.092,0.01254
4.096,-0.02282
4.1,-0.01267
4.104,-0.0472
4.108,0.03096
4.112,-0.00218
4.116,-0.01825
4.12,-0.03662
4.124,0.01814
4.128,0.02604
4.132,0.02523
4.136,-0.01251
4.14,0.06149
4.144,0.03267
4.148,-0.03518
4.152,0.04496
4.156,0.05307
4.16,0.00146
4.164,-0.01361
4.168,-0.0008
4.172,-0.03418
4.176,0.06817
4.18,-0.03223
4.184,0.00162
4.188,0.02001
4.192,0.0586
4.196,-0.00592
4.2,0.06687
4.204,-0.02763
4.208,0.0113
4.212,0.01996
4.216,0.04754
4.22,-0.01093
4.224,0.03466
4.228,0.05692
4.232,0.06921
4.236,0.05551
4.24,0.09528
4.244,0.0596
4.248,0.09675
4.252,0.02799
4.256,0.12278
4.26,0.06281
4.264,0.08022
4.268,0.14737
4.272,0.14892
4.276,0.16083
4.28,0.13234
4.284,0.201
4.288,0.14093
4.292,0.17017
4.296,0.13598
4.3,0.20037
4.304,0.13785
4.308,0.23746
4.312,0.1376
4.316,0.2278
4.32,0.20059
4.324,0.2951
4.328,0.19585
4.332,0.20415
4.336,0.19492
4.34,0.22616
4.344,0.22176
4.348,0.18599
4.352,0.21103
4.356,0.17888
4.36,0.16626
4.364,0.10861
4.368,0.10956
4.372,0.12971
4.376,0.13127
4.38,0.15541
4.384,0.07673
4.388,0.08556
4.392,0.09048
4.396,0.04194
4.4,0.12419
4.404,0.10428
4.408,0.07748
4.412,0.07841
4.416,0.01346
4.42,0.0399
4.424,0.04307
4.428,0.02811
4.432,0.01874
4.436,0.06066
4.44,0.05769
4.444,0.05984
4.448,0.13505
4.452,0.08467
4.456,0.11898
4.46,0.09003
4.464,0.08695
4.468,0.12655
4.472,0.16436
4.476,0.13349
4.48,0.11366
4.484,0.02669
4.488,0.02429
4.492,0.06355
4.496,0.00168
4.5,-0.00754
4.504,-0.00401
4.508,0.01333
4.512,0.02256
4.516,0.02962
4.52,0.06836
4.524,0.01478
4.528,0.01135
4.532,-0.01962
4.536,0.01353
4.54,-0.01087
4.544,0.03632
4.548,0.05491
4.552,0.06311
4.556,-0.02377
4.56,-0.00645
4.564,-0.00277
4.568,0.03348
4.572,-0.05265
4.576,-0.01781
4.58,-0.0469
4.584,0.02647
4.588,-0.06818
4.592,-0.14619
4.596,-0.07582
4.6,-0.06947
4.604,0.03886
4.608,0.27151
4.612,0.46159
4.616,0.63031
4.62,0.89075
4.624,0.93187
4.628,0.96248
4.632,0.94697
4.636,0.80379
4.64,0.56539
4.644,0.31245
4.648,0.11119
4.652,0.0225
4.656,-0.0766
4.66,-0.19357
4.664,-0.16441
4.668,-0.10062
4.672,-0.08705
4.676,-0.04977
4.68,-0.01897
4.684,-0.01362
4.688,-0.01035
4.692,-0.03746
4.696,0.07533
4.7,-0.02242
4.704,0.02978
4.708,-0.01945
4.712,0.02374
4.716,0.01547
4.72,-0.00568
4.724,0.06328
4.728,0.01148
4.732,0.06256
4.736,0.01273
4.74,0.00716
4.744,0.02204
4.748,0.00586
4.752,0.02135
4.756,-0.02768
4.76,-0.00759
4.764,0.03848
4.768,0.05222
4.772,-0.00999
4.776,-0.04916
4.78,0.07041
4.784,0.03427
4.788,-0.00904
4.792,0.05653
4.796,0.01538
4.8,-0.01012
4.804,0.00355
4.808,0.04131
4.812,0.00027
4.816,-0.05635
4.82,0.04754
4.824,-0.01865
4.828,0.03801
4.832,0.06204
4.836,0.06856
4.84,0.12578
4.844,0.13518
4.848,0.05914
4.852,0.07393
4.856,0.06806
4.86,0.16113
4.864,0.14449
4.868,0.17513
4.872,0.20426
4.876,0.17456
4.88,0.21894
4.884,0.21006
4.888,0.25857
4.892,0.2347
4.896,0.19695
4.9,0.25073
4.904,0.19596
4.908,0.30819
4.912,0.19347
4.916,0.233
4.92,0.2369
4.924,0.19591
4.928,0.13942
4.932,0.18561
4.936,0.22038
4.94,0.23827
4.944,0.11909
4.948,0.19184
4.952,0.09848
4.956,0.12867
4.96,0.12652
4.964,0.08833
4.968,0.12866
4.972,0.06537
4.976,0.02417
4.98,0.06122
4.984,0.07688
4.988,0.03926
4.992,0.05616
4.996,0.07141
5.0,0.06417
5.004,0.09009
5.008,-0.02571
5.012,0.04544
5.016,0.02672
5.02,0.07462
5.024,0.02484
5.028,0.02946
5.032,-0.0018
5.036,0.06535
5.04,0.06864
5.044,0.00189
5.048,0.06436
5.052,0.01233
5.056,0.02456
5.06,0.07826
5.064,0.04344
5.068,-0.00201
5.072,-0.00058
5.076,0.01229
5.08,-0.00026
5.084,0.01401
5.088,-0.04858
5.092,0.10633
5.096,0.03367
5.1,0.00569
5.104,0.02544
5.108,0.00406
5.112,0.05751
5.116,0.02551
5.12,0.02816
5.124,0.03051
5.128,0.08425
5.132,0.02768
5.136,-0.02213
5.14,-0.03872
5.144,-0.01306
5.148,0.06318
5.152,0.09054
5.156,-0.02528
5.16,-0.01308
5.164,-0.00847
5.168,0.01172
5.172,0.00505
5.176,-0.0661
5.18,0.0694
5.184,0.0585
5.188,0.04595
5.192,0.02612
5.196,0.03825
5.2,0.02931
5.204,0.02828
5.208,-0.04606
5.212,0.03989
5.216,0.04906
5.22,-0.01737
5.224,0.03352
5.228,0.03148
5.232,0.05323
5.236,0.02171
5.24,0.05546
5.244,0.01074
5.248,0.05193
5.252,0.03986
5.256,0.01811
5.26,0.03305
5.264,-0.02031
5.268,0.03806
5.272,0.05351
5.276,0.02817
5.28,-0.05296
5.284,0.01437
5.288,0.0148
5.292,0.00887
5.296,0.05133
5.3,0.05484
5.304,-0.02507
5.308,0.03371
5.312,-0.00402
5.316,0.05896
5.32,0.00112
5.324,0.04344
5.328,-0.01905
5.332,-0.00849
5.336,0.06693
5.34,0.05883
5.344,0.05653
5.348,0.00852
5.352,0.06918
5.356,0.00236
5.36,0.06097
5.364,0.07765
5.368,0.04102
5.372,0.09684
5.376,0.07389
5.38,0.14123
5.384,0.14987
5.388,0.06094
5.392,0.05596
5.396,0.15391
5.4,0.11622
5.404,0.10425
5.408,0.12657
5.412,0.07451
5.416,0.0753
5.42,0.06706
5.424,0.09237
5.428,0.05147
5.432,0.07223
5.436,0.07747
5.44,0.06067
5.444,0.04693
5.448,0.02689
5.452,0.12027
5.456,0.0402
5.46,-0.00953
5.464,0.02483
5.468,0.06373
5.472,0.00312
5.476,0.02879
5.48,0.03446
5.484,-0.02219
5.488,0.02087
5.492,0.09106
5.496,0.03282
5.5,0.04627
5.504,0.06484
5.508,0.05482
5.512,0.0493
5.516,0.02753
5.52,-0.01895
5.524,-0.09587
5.528,-0.05138
5.532,-0.04171
5.536,-0.0065
5.54,0.18524
5.544,0.38115
5.548,0.56458
5.552,0.78235
5.556,0.98469
5.56,1.04147
5.564,0.93137
5.568,0.77349
5.572,0.59517
5.576,0.36164
5.58,0.19007
5.584,0.0065
5.588,-0.06243
5.592,-0.09879
5.596,-0.17684
5.6,-0.12637
5.604,-0.03642
5.608,-0.0238
5.612,0.00504
5.616,0.0006
5.62,0.05686
5.624,0.01303
5.628,0.06674
5.632,0.05633
5.636,-0.04692
5.64,0.03754
5.644,0.03514
5.648,0.0268
5.652,-0.00924
5.656,-0.0418
5.66,0.11612
5.664,0.01421
5.668,-0.01576
5.672,0.00638
5.676,0.01227
5.68,0.04244
5.684,-0.04311
5.688,0.06324
5.692,-0.01465
5.696,0.02282
5.7,0.05977
5.704,0.02775
5.708,0.06491
5.712,0.00919
5.716,0.04303
5.72,0.0101
5.724,0.06717
5.728,0.01524
5.732,0.06546
5.736,0.06553
5.74,0.03523
5.744,0.03197
5.748,0.0343
5.752,0.04047
5.756,0.10023
5.76,0.05335
5.764,0.05712
5.768,0.16487
5.772,0.09394
5.776,0.1534
5.78,0.10813
5.784,0.12579
5.788,0.14154
5.792,0.1253
5.796,0.13043
5.8,0.26041
5.804,0.21746
5.808,0.21151
5.812,0.1935
5.816,0.20825
5.82,0.20325
5.824,0.27504
5.828,0.27759
5.832,0.29175
5.836,0.27201
5.84,0.17697
5.844,0.25787
5.848,0.22397
5.852,0.26143
5.856,0.26826
5.86,0.17578
5.864,0.18068
5.868,0.25097
5.872,0.21108
5.876,0.23345
5.88,0.18181
5.884,0.11568
5.888,0.13326
5.892,0.1463
5.896,0.12958
5.9,0.0584
5.904,0.06941
5.908,0.10177
5.912,0.06814
5.916,0.0322
5.92,0.01882
5.924,0.00408
5.928,0.09038
5.932,0.0215
5.936,0.06146
5.94,-0.01659
5.944,0.05941
5.948,0.05392
5.952,0.03041
5.956,0.0938
5.96,0.09779
5.964,-0.02463
5.968,0.0336
5.972,0.04668
5.976,-0.0164
5.98,0.00191
5.984,0.00917
5.988,0.03834
5.992,0.02432
5.996,0.0774
6.0,0.01217
6.004,0.0834
6.008,0.01682
6.012,0.09179
6.016,-0.00956
6.02,0.05674
6.024,-0.02281
6.028,0.03461
6.032,0.04511
6.036,0.04137
6.04,0.04874
6.044,0.03253
6.048,0.04631
6.052,-0.03785
6.056,-0.04217
6.06,0.02607
6.064,0.02338
6.068,0.0264
6.072,0.02853
6.076,0.00426
6.08,0.04509
6.084,-0.00813
6.088,0.10293
6.092,-0.00447
6.096,0.00808
6.1,0.01865
6.104,-0.00563
6.108,0.03185
6.112,0.01595
6.116,0.03287
6.12,0.02365
6.124,0.01237
6.128,0.03692
6.132,0.04996
6.136,0.03136
6.14,0.03933
6.144,0.04693
6.148,1e-05
6.152,-0.00372
6.156,-0.00737
6.16,0.04905
6.164,0.07171
6.168,0.0288
6.172,0.12014
6.176,0.04984
6.18,0.11224
6.184,0.09101
6.188,0.11766
6.192,0.15271
6.196,0.17036
6.2,0.14982
6.204,0.11547
6.208,0.14643
6.212,0.10736
6.216,0.04392
6.22,0.08878
6.224,0.03047
6.228,0.09477
6.232,0.07739
6.236,0.01465
6.24,0.08572
6.244,0.00564
6.248,-0.03084
6.252,0.04031
6.256,0.02493
6.26,0.04333
6.264,0.01659
6.268,0.01159
6.272,0.05106
6.276,0.07165
6.28,-0.00941
6.284,0.02139
6.288,0.0105
6.292,0.00383
6.296,0.06106
6.3,-0.01002
6.304,0.02867
6.308,0.00587
6.312,-0.00583
6.316,-0.07199
6.32,-0.07085
6.324,-0.03967
6.328,-0.07196
6.332,0.11947
6.336,0.34298
6.34,0.50105
6.344,0.69639
6.348,0.89323
6.352,1.0171
6.356,0.99813
6.36,0.90646
6.364,0.67355
6.368,0.39529
6.372,0.289
6.376,0.07103
6.38,-0.03527
6.384,-0.09901
6.388,-0.11006
6.392,-0.05307
6.396,-0.12573
6.4,-0.05969
6.404,0.01754
6.408,0.01663
6.412,-0.0063
6.416,0.02125
6.42,0.07334
6.424,-0.00282
6.428,0.04501
6.432,-0.0265
6.436,0.02688
6.44,0.01441
6.444,-0.00279
6.448,0.1029
6.452,-0.01776
6.456,0.01138
6.46,0.07224
6.464,0.00096
6.468,0.08474
6.472,0.03549
6.476,0.06676
6.48,0.05748
6.484,0.08559
6.488,-0.00835
6.492,0.03007
6.496,-0.0262
6.5,0.00095
6.504,0.01613
6.508,0.04499
6.512,0.06091
6.516,0.03753
6.52,0.07384
6.524,-0.00295
6.528,-0.01878
6.532,0.00694
6.536,-0.00081
6.54,0.06621
6.544,0.08429
6.548,0.06613
6.552,0.05033
6.556,0.1143
6.56,0.0257
6.564,0.09698
6.568,0.11185
6.572,0.12308
6.576,0.19884
6.58,0.13323
6.584,0.16044
6.588,0.11635
6.592,0.16509
6.596,0.12751
6.6,0.20057
6.604,0.1838
6.608,0.16903
6.612,0.22193
6.616,0.15853
6.62,0.27074
6.624,0.14484
6.628,0.24737
6.632,0.23021
6.636,0.2234
6.64,0.24462
6.644,0.29605
6.648,0.21307
6.652,0.23865
6.656,0.16489
6.66,0.17652
6.664,0.24524
6.668,0.09853
6.672,0.16541
6.676,0.18616
6.68,0.11363
6.684,0.13898
6.688,0.1516
6.692,0.14461
6.696,0.08487
6.7,0.09832
6.704,0.11286
6.708,0.08115
6.712,0.03267
6.716,0.07226
6.72,0.01958
6.724,0.0524
6.728,0.03404
6.732,0.11003
6.736,0.03789
6.74,0.08298
6.744,0.03061
6.748,0.07918
6.752,0.05569
6.756,0.04821
6.76,0.04985
6.764,-0.02783
6.768,0.06673
6.772,0.0319
6.776,0.04708
6.78,0.01524
6.784,-0.0057
6.788,0.10031
6.792,-0.01439
6.796,-0.00394
6.8,0.00541
6.804,0.03327
6.808,0.09585
6.812,0.05129
6.816,0.04616
6.82,-0.01453
6.824,-0.04488
6.828,0.00761
6.832,-0.03499
6.836,0.01877
6.84,0.02208
6.844,0.04106
6.848,0.02186
6.852,-0.00409
6.856,0.04876
6.86,-0.01635
6.864,0.01478
6.868,0.04181
6.872,0.03829
6.876,0.01284
6.88,-0.0011
6.884,0.0089
6.888,0.02013
6.892,-0.01523
6.896,0.06123
6.9,0.00338
6.904,0.03765
6.908,0.04484
6.912,0.02118
6.916,0.01682
6.92,0.01459
6.924,0.06065
6.928,0.02599
6.932,-0.05912
6.936,0.05789
6.94,-0.0524
6.944,0.00625
6.948,0.06217
6.952,0.03093
6.956,0.04206
6.96,0.05859
6.964,0.01942
6.968,0.09269
6.972,0.11824
6.976,0.11419
6.98,0.15701
6.984,0.13042
6.988,0.1565
6.992,0.0731
6.996,0.08363
7.0,0.06421
7.004,0.09297
7.008,0.05488
7.012,0.0421
7.016,0.03167
7.02,0.05536
7.024,0.07839
7.028,-0.03532
7.032,0.00763
7.036,0.00722
7.04,0.09436
7.044,0.06008
7.048,-0.04049
7.052,0.02549
7.056,0.00834
7.06,0.04497
7.064,0.08327
7.068,0.01654
7.072,0.0705
7.076,0.01182
7.08,0.08225
7.084,-0.00416
7.088,-0.06338
7.092,-0.02761
7.096,0.0057
7.1,-0.07057
7.104,-0.11614
7.108,-0.09726
7.112,-0.08253
7.116,-0.06526
7.12,0.12556
7.124,0.3129
7.128,0.50021
7.132,0.79793
7.136,0.91809
7.14,0.99342
7.144,0.90714
7.148,0.79657
7.152,0.63559
7.156,0.38438
7.16,0.22429
7.164,0.01076
7.168,-0.11525
7.172,-0.19714
7.176,-0.15414
7.18,-0.16538
7.184,-0.06656
7.188,-0.06152
7.192,-0.0415
7.196,-0.00613
7.2,-0.01151
7.204,-0.02419
7.208,-0.01452
7.212,0.00021
7.216,0.02051
7.22,-0.03997
7.224,0.01807
7.228,0.04442
7.232,-0.01952
7.236,-0.02278
7.24,0.04595
7.244,-0.02076
7.248,0.02438
7.252,0.06156
7.256,0.01855
7.26,-0.02432
7.264,-0.00138
7.268,0.03426
7.272,0.00194
7.276,0.06192
7.28,-0.00502
7.284,0.01705
7.288,-0.00434
7.292,-0.01029
7.296,-0.02608
7.3,0.01908
7.304,0.00972
7.308,0.04613
7.312,0.02352
7.316,0.00671
7.32,-0.02398
7.324,-0.00735
7.328,0.02906
7.332,0.02376
7.336,0.09365
7.34,0.057
7.344,0.04203
7.348,0.08037
7.352,-0.01013
7.356,0.06088
7.36,0.08574
7.364,0.09014
7.368,0.07603
7.372,0.08418
7.376,0.16218
7.38,0.14375
7.384,0.17634
7.388,0.15971
7.392,0.21107
7.396,0.18735
7.4,0.19663
7.404,0.2415
7.408,0.2481
7.412,0.25455
7.416,0.17717
7.42,0.25046
7.424,0.20115
7.428,0.24971
7.432,0.18056
7.436,0.25541
7.44,0.20658
7.444,0.17407
7.448,0.17833
7.452,0.14227
7.456,0.14224
7.46,0.18675
7.464,0.16596
7.468,0.08623
7.472,0.09725
7.476,0.12483
7.48,0.1474
7.484,0.1024
7.488,0.0772
7.492,0.06961
7.496,0.02592
7.5,0.02474
7.504,0.04762
7.508,0.00832
7.512,0.02665
7.516,-0.03041
7.52,-0.00043
7.524,0.02009
7.528,5e-05
7.532,-0.00216
7.536,-0.04395
7.54,-0.02001
7.544,0.05342
7.548,0.01137
7.552,-0.02878
7.556,-0.05626
7.56,0.0158
7.564,-0.02423
7.568,0.04808
7.572,-0.05899
7.576,0.04169
7.58,0.07002
7.584,-0.05074
7.588,-0.03269
7.592,0.03244
7.596,-0.08132
7.6,-0.02612
7.604,0.03007
7.608,-0.08037
7.612,-0.02435
7.616,-0.07165
7.62,0.03863
7.624,0.03834
7.628,-0.01999
7.632,0.04789
7.636,-0.03001
7.64,0.03643
7.644,-0.02192
7.648,0.06261
7.652,-0.07595
7.656,0.02945
7.66,0.02966
7.664,9e-05
7.668,0.05591
7.672,0.03692
7.676,0.03634
7.68,0.08513
7.684,0.13374
7.688,0.10053
7.692,0.11183
7.696,0.09396
7.7,0.08422
7.704,0.0833
7.708,0.1688
7.712,0.08669
7.716,0.04947
7.72,0.15651
7.724,0.09345
7.728,0.05109
7.732,0.04338
7.736,0.06245
7.74,0.02887
7.744,-0.00161
7.748,0.02322
7.752,-0.01222
7.756,-0.0125
7.76,-0.04888
7.764,-0.04153
7.768,-0.00755
7.772,-0.02294
7.776,-0.04535
7.78,-0.02627
7.784,0.01552
7.788,-0.01837
7.792,0.06622
7.796,0.04442
7.8,-0.01626
7.804,0.01844
7.808,0.06707
7.812,-0.05969
7.816,-0.0158
7.82,-0.04142
7.824,-0.09419
7.828,-0.12059
7.832,-0.07708
7.836,-0.00367
7.84,0.13893
7.844,0.37131
7.848,0.59035
7.852,0.75924
7.856,1.04205
7.86,1.01432
7.864,0.95156
7.868,0.81264
7.872,0.50084
7.876,0.34739
7.88,0.08814
7.884,-0.02482
7.888,-0.14618
7.892,-0.16266
7.896,-0.1397
7.9,-0.17556
7.904,-0.101
7.908,-0.02781
7.912,-0.0005
7.916,-0.0089
7.92,-0.05176
7.924,-0.06234
7.928,-0.02607
7.932,-0.04175
7.936,0.02418
7.94,0.01512
7.944,-0.00436
7.948,0.00896
7.952,0.01475
7.956,0.01829
7.96,-0.03224
7.964,-0.04808
7.968,-0.02371
7.972,-0.04248
7.976,-0.02389
7.98,-0.03169
7.984,0.01418
7.988,0.01174
7.992,-0.00822
7.996,-0.074
8.0,0.05785
8.004,0.00634
8.008,-0.03506
8.012,0.02031
8.016,-0.04356
8.02,-0.02481
8.024,-0.02356
8.028,-0.05361
8.032,0.01225
8.036,0.02493
8.04,0.0103
8.044,0.00696
8.048,-0.0066
8.052,0.01487
8.056,0.03441
8.06,0.06649
8.064,0.10871
8.068,0.04391
8.072,0.05695
8.076,0.04262
8.08,0.06032
8.084,0.04956
8.088,0.09815
8.092,0.08987
8.096,0.07966
8.1,0.10066
8.104,0.20181
8.108,0.14445
8.112,0.10274
8.116,0.18251
8.12,0.14623
8.124,0.19483
8.128,0.16852
8.132,0.22297
8.136,0.22209
8.14,0.24527
8.144,0.2369
8.148,0.21093
8.152,0.16263
8.156,0.17796
8.16,0.16806
8.164,0.12739
8.168,0.11195
8.172,0.09819
8.176,0.21139
8.18,0.24122
8.184,0.16565
8.188,0.14938
8.192,0.13704
8.196,0.06683
8.2,0.09693
8.204,0.06779
8.208,0.08263
8.212,0.03094
8.216,0.00484
8.22,0.10269
8.224,-0.04765
8.228,-0.01458
8.232,0.0026
8.236,0.0052
8.24,-0.03986
8.244,0.03006
8.248,0.06681
8.252,-0.03046
8.256,0.03649
8.26,-0.0585
8.264,0.01491
8.268,0.00715
8.272,-0.03566
8.276,0.01523
8.28,-0.0074
8.284,-0.01102
8.288,-0.05447
8.292,-0.05853
8.296,-0.02374
8.3,0.0451
8.304,-0.01465
8.308,-0.05414
8.312,-0.02089
8.316,0.0398
8.32,-0.0473
8.324,0.04257
8.328,0.01333
8.332,-0.0482
8.336,-0.04138
8.34,0.0083
8.344,-0.02137
8.348,-0.05409
8.352,-0.01131
8.356,-0.04274
8.36,0.02154
8.364,0.02858
8.368,-0.02009
8.372,0.00663
8.376,-0.01221
8.38,-0.06236
8.384,-0.06921
8.388,-0.0641
8.392,-0.04949
8.396,-0.01743
8.4,-0.06619
8.404,-0.03362
8.408,-0.02972
8.412,0.00323
8.416,-0.04685
8.42,0.0053
8.424,-0.05676
8.428,-0.0379
8.432,-0.06156
8.436,0.01152
8.44,-0.0111
8.444,0.02188
8.448,-0.02054
8.452,-0.01629
8.456,-0.02106
8.46,0.03832
8.464,-0.08107
8.468,-0.10742
8.472,0.00236
8.476,0.01995
8.48,-0.00202
8.484,-0.02324
8.488,0.01705
8.492,0.00247
8.496,-0.03034
8.5,-0.0808
8.504,0.01515
8.508,0.03209
8.512,-0.02917
8.516,0.02311
8.52,-0.01296
8.524,-0.05948
8.528,-0.06089
8.532,0.06301
8.536,0.03398
8.54,0.00011
8.544,0.04632
8.548,0.04017
8.552,0.11372
8.556,0.09799
8.56,0.06081
8.564,0.09202
8.568,0.08049
8.572,0.04466
8.576,0.02785
8.58,-0.02572
8.584,0.02584
8.588,0.00488
8.592,0.02981
8.596,0.01375
8.6,0.05884
8.604,-0.10979
8.608,-0.02976
8.612,-0.04046
8.616,0.00584
8.62,0.0062
8.624,-0.09859
8.628,-0.00237
8.632,-0.04477
8.636,-0.04547
8.64,-0.03666
8.644,-0.01738
8.648,-0.02582
8.652,-0.03102
8.656,-0.01209
8.66,0.02868
8.664,0.03136
8.668,-0.04323
8.672,-0.02325
8.676,-0.0434
8.68,-0.07595
8.684,-0.11324
8.688,-0.09026
8.692,-0.14898
8.696,-0.02843
8.7,0.09427
8.704,0.23184
8.708,0.50619
8.712,0.6873
8.716,0.85029
8.72,0.98093
8.724,1.00725
8.728,0.87435
8.732,0.64605
8.736,0.39306
8.74,0.20592
8.744,0.03138
8.748,-0.10472
8.752,-0.20505
8.756,-0.14495
8.76,-0.09959
8.764,-0.12586
8.768,-0.07651
8.772,-0.06435
8.776,-0.05361
8.78,-0.0614
8.784,-0.08528
8.788,-0.06554
8.792,-0.10537
8.796,0.01818
8.8,0.0478
8.804,0.02384
8.808,-0.02691
8.812,-0.00574
8.816,-0.07929
8.82,-0.03384
8.824,0.01004
8.828,-0.05973
8.832,-0.04046
8.836,0.00142
8.84,-0.03869
8.844,-0.07098
8.848,-0.02462
8.852,-0.06354
8.856,-0.03972
8.86,-0.041
8.864,-0.05487
8.868,0.00226
8.872,0.00707
8.876,-0.0068
8.88,-0.0179
8.884,0.00094
8.888,-0.02217
8.892,-0.06607
8.896,0.01873
8.9,-0.01915
8.904,-0.02928
8.908,0.01778
8.912,0.03392
8.916,0.02783
8.92,-0.00075
8.924,0.08011
8.928,0.00419
8.932,0.01252
8.936,-0.00048
8.94,0.0026
8.944,0.05696
8.948,0.10177
8.952,0.13836
8.956,0.15711
8.96,0.11918
8.964,0.15403
8.968,0.16881
8.972,0.16272
8.976,0.17844
8.98,0.17228
8.984,0.15613
8.988,0.19323
8.992,0.12396
8.996,0.17149
9.0,0.15172
9.004,0.18143
9.008,0.16612
9.012,0.22376
9.016,0.1379
9.02,0.15777
9.024,0.13808
9.028,0.20407
9.032,0.18926
9.036,0.1128
9.04,0.10255
9.044,0.09578
9.048,0.09049
9.052,0.15166
9.056,0.04502
9.06,0.07608
9.064,0.0178
9.068,0.0864
9.072,0.06006
9.076,0.05137
9.08,0.07659
9.084,0.01868
9.088,-0.02193
9.092,0.02019
9.096,-0.0204
9.1,0.00462
9.104,-0.01444
9.108,0.01214
9.112,0.03992
9.116,-0.03164
9.12,-0.009
9.124,-0.01577
9.128,-0.0444
9.132,-0.05411
9.136,-0.00103
9.14,-0.03932
9.144,-0.0566
9.148,-0.01837
9.152,-0.03751
9.156,-0.0156
9.16,-0.02748
9.164,-0.03486
9.168,-0.04014
9.172,-0.03013
9.176,-0.01591
9.18,-0.01976
9.184,-0.00726
9.188,-0.01215
9.192,-0.04187
9.196,-0.04509
9.2,0.03801
9.204,-0.01464
9.208,-0.03468
9.212,0.00194
9.216,-0.06773
9.22,-0.05175
9.224,-0.09179
9.228,-0.05934
9.232,-0.03849
9.236,-0.01448
9.24,-0.03468
9.244,-0.02565
9.248,-0.02619
9.252,0.0033
9.256,-0.03701
9.26,0.01257
9.264,0.03603
9.268,-0.03941
9.272,-0.06124
9.276,-0.00739
9.28,-0.08524
9.284,-0.00346
9.288,-0.05142
9.292,0.00582
9.296,-0.05426
9.3,-0.04631
9.304,-0.06097
9.308,0.01313
9.312,-0.03154
9.316,0.00116
9.32,-0.10642
9.324,-0.00469
9.328,0.02562
9.332,-0.06603
9.336,-0.10513
9.34,0.03365
9.344,-0.0758
9.348,-0.05805
9.352,-0.03512
9.356,-0.04018
9.36,-0.02006
9.364,0.00848
9.368,0.01387
9.372,-0.00584
9.376,-0.03098
9.38,-0.06655
9.384,-0.05406
9.388,-0.09393
9.392,-0.00413
9.396,-0.00159
9.4,0.04363
9.404,0.04381
9.408,0.0156
9.412,-0.03978
9.416,-0.02881
9.42,-0.09648
9.424,0.05916
9.428,-0.00842
9.432,-0.01217
9.436,0.03411
9.44,0.01374
9.444,0.0158
9.448,0.02227
9.452,-0.03932
9.456,-0.03295
9.46,-0.02786
9.464,-0.01256
9.468,-0.02621
9.472,-0.03968
9.476,-0.04308
9.48,-0.06877
9.484,-0.03702
9.488,-0.04832
9.492,-0.00393
9.496,-0.07846
9.5,-0.07829
9.504,0.04317
9.508,-0.09403
9.512,-0.00425
9.516,-0.04629
9.52,-0.04796
9.524,-0.04043
9.528,-0.00832
9.532,0.03578
9.536,-0.07676
9.54,0.0551
9.544,-0.0023
9.548,0.00791
9.552,0.06671
9.556,0.01156
9.56,-0.05191
9.564,-0.02043
9.568,0.03778
9.572,0.00654
9.576,0.00655
9.58,0.03846
9.584,0.08278
9.588,0.05629
9.592,-0.01024
9.596,0.09706
9.6,0.02895
9.604,0.08096
9.608,0.01243
9.612,0.06875
9.616,-0.00272
9.62,0.02522
9.624,0.01366
9.628,0.0041
9.632,-0.006
9.636,0.02519
9.64,0.06955
9.644,-0.07044
9.648,0.04121
9.652,-0.07797
9.656,-0.03501
9.66,-0.10907
9.664,0.01389
9.668,-0.05313
9.672,0.01609
9.676,-0.08092
9.68,-0.0289
9.684,-0.03533
9.688,0.00115
9.692,-0.00121
9.696,0.00018
9.7,-0.05786
9.704,-0.08075
9.708,-0.09292
9.712,-0.12314
9.716,-0.11799
9.72,-0.05638
9.724,0.10872
9.728,0.17236
9.732,0.40247
9.736,0.69182
9.74,0.76482
9.744,0.98626
9.748,0.97877
9.752,0.8139
9.756,0.69235
9.76,0.44709
9.764,0.25016
9.768,0.03019
9.772,-0.13717
9.776,-0.11982
9.78,-0.15168
9.784,-0.13144
9.788,-0.12579
9.792,-0.05441
9.796,-0.06373
9.8,-0.04568
9.804,-0.00479
9.808,-0.023
9.812,0.01442
9.816,-0.01337
9.82,-0.04225
9.824,-0.0417
9.828,-0.04056
9.832,-0.07592
9.836,-0.07912
9.84,-0.03693
9.844,-0.02838
9.848,-0.03234
9.852,-0.0686
9.856,-0.05431
9.86,0.05844
9.864,0.04522
9.868,-0.03895
9.872,-0.03113
9.876,-0.00825
9.88,-0.05879
9.884,-0.01717
9.888,0.00644
9.892,0.02483
9.896,-0.10334
9.9,0.00496
9.904,-0.05097
9.908,-0.03154
9.912,-0.09179
9.916,-0.03387
9.92,0.00908
9.924,-0.01064
9.928,-0.05574
9.932,0.0499
9.936,-0.00024
9.94,-0.02036
9.944,-0.0031
9.948,0.09422
9.952,0.01403
9.956,0.04171
9.96,0.01325
9.964,0.02739
9.968,0.08751
9.972,0.0647
9.976,0.13158
9.98,0.13098
9.984,0.17592
9.988,0.11791
9.992,0.16085
9.996,0.16541
