t_seg,ecg_mV
0.0,0.01552
0.004,0.02005
0.008,-0.06304
0.012,-0.0311
0.016,-0.0009
0.02,-0.04799
0.024,0.02543
0.028,0.06834
0.032,0.00784
0.036,0.03798
0.04,-0.02998
0.044,-0.03931
0.048,-0.00579
0.052,0.03238
0.056,-0.00678
0.06,0.04152
0.064,-0.02545
0.068,-0.04237
0.072,0.01282
0.076,0.02512
0.08,-0.0642
0.084,0.07413
0.088,0.0266
0.092,-0.02444
0.096,0.05586
0.1,-0.01236
0.104,0.08375
0.108,-0.02182
0.112,0.00945
0.116,0.03236
0.12,-0.03589
0.124,0.02879
0.128,0.06853
0.132,0.00394
0.136,-0.02183
0.14,-0.04222
0.144,0.02798
0.148,-0.02686
0.152,0.01452
0.156,-0.07118
0.16,0.02047
0.164,0.00042
0.168,0.03309
0.172,0.08594
0.176,0.00257
0.18,0.00439
0.184,0.06229
0.188,0.06111
0.192,0.03251
0.196,0.04792
0.2,0.02593
0.204,0.05604
0.208,0.02851
0.212,0.07136
0.216,0.13329
0.22,0.05144
0.224,0.08599
0.228,0.17193
0.232,0.1056
0.236,0.09537
0.24,0.06682
0.244,0.07594
0.248,0.02794
0.252,0.04654
0.256,0.05174
0.26,0.05528
0.264,0.04976
0.268,-0.05285
0.272,-0.00206
0.276,-0.02583
0.28,0.02571
0.284,0.03848
0.288,-0.0129
0.292,0.00199
0.296,0.04404
0.3,-0.00201
0.304,0.02747
0.308,0.00472
0.312,-0.01515
0.316,0.02591
0.32,0.00176
0.324,-0.01248
0.328,-0.02836
0.332,-0.00797
0.336,0.0331
0.34,-0.04508
0.344,-0.02487
0.348,-0.12145
0.352,-0.1191
0.356,0.01262
0.36,0.02472
0.364,0.01768
0.368,0.30374
0.372,0.45351
0.376,0.72546
0.38,0.90976
0.384,0.99824
0.388,1.00032
0.392,0.90595
0.396,0.6387
0.4,0.3962
0.404,0.18562
0.408,-0.01149
0.412,-0.03937
0.416,-0.15042
0.42,-0.14847
0.424,-0.21198
0.428,-0.00291
0.432,-0.06341
0.436,-0.0456
0.44,-0.09698
0.444,0.00514
0.448,0.02336
0.452,0.06031
0.456,-0.00342
0.46,-0.01057
0.464,-0.00412
0.468,-0.04127
0.472,-0.00408
0.476,0.04779
0.48,-0.01302
0.484,-0.02434
0.488,0.03394
0.492,0.03544
0.496,0.04046
0.5,0.01998
0.504,-0.01032
0.508,0.05194
0.512,-0.00438
0.516,0.02689
0.52,-0.02718
0.524,-0.01757
0.528,-0.00679
0.532,-0.01165
0.536,0.02626
0.54,0.00166
0.544,-0.00517
0.548,-0.00538
0.552,-0.08402
0.556,0.01569
0.56,0.06347
0.564,-0.03235
0.568,0.06106
0.572,0.01794
0.576,0.04386
0.58,0.09254
0.584,0.08469
0.588,-0.00177
0.592,0.11153
0.596,0.11047
0.6,0.11283
0.604,0.14158
0.608,0.14988
0.612,0.14756
0.616,0.18432
0.62,0.16123
0.624,0.21266
0.628,0.22929
0.632,0.1809
0.636,0.18248
0.64,0.17423
0.644,0.23702
0.648,0.22622
0.652,0.2122
0.656,0.17746
0.66,0.21475
0.664,0.2376
0.668,0.18492
0.672,0.17385
0.676,0.24723
0.68,0.22822
0.684,0.26557
0.688,0.29413
0.692,0.19507
0.696,0.23809
0.7,0.19395
0.704,0.23687
0.708,0.18639
0.712,0.20023
0.716,0.17934
0.72,0.15919
0.724,0.1563
0.728,0.23831
0.732,0.21387
0.736,0.2094
0.74,0.1145
0.744,0.1209
0.748,0.13083
0.752,0.06274
0.756,0.11335
0.76,0.12365
0.764,0.01857
0.768,0.05526
0.772,0.03743
0.776,0.04418
0.78,0.02149
0.784,-0.00065
0.788,0.01144
0.792,0.02012
0.796,-0.01397
0.8,-0.04736
0.804,-0.0092
0.808,0.00697
0.812,0.04799
0.816,0.01309
0.82,0.02971
0.824,0.07472
0.828,0.04666
0.832,0.03474
0.836,0.01585
0.84,0.00857
0.844,0.01531
0.848,-0.08276
0.852,-0.07192
0.856,-0.09517
0.86,-0.05549
0.864,-0.04233
0.868,0.13823
0.872,0.30047
0.876,0.50754
0.88,0.71684
0.884,0.8872
0.888,1.00308
0.892,0.93707
0.896,0.95092
0.9,0.73636
0.904,0.50219
0.908,0.21447
0.912,0.02515
0.916,-0.09105
0.92,-0.06089
0.924,-0.16292
0.928,-0.07651
0.932,-0.089
0.936,0.00245
0.94,-0.01107
0.944,0.03294
0.948,0.01541
0.952,-0.06547
0.956,0.01173
0.96,-0.01493
0.964,0.00562
0.968,0.01759
0.972,0.04649
0.976,-0.00919
0.98,0.03918
0.984,0.0275
0.988,0.0332
0.992,0.04812
0.996,-0.01581
1.0,-0.02694
1.004,0.04346
1.008,0.0413
1.012,0.00713
1.016,0.12795
1.02,0.06002
1.024,0.0246
1.028,0.06965
1.032,0.01912
1.036,0.02775
1.04,-0.02629
1.044,0.0226
1.048,0.00337
1.052,0.0265
1.056,0.05355
1.06,0.07607
1.064,0.07659
1.068,0.0251
1.072,0.08888
1.076,0.12188
1.08,0.02547
1.084,0.01209
1.088,0.08496
1.092,0.04411
1.096,0.11837
1.1,0.12117
1.104,0.09336
1.108,0.11044
1.112,0.0931
1.116,0.07338
1.12,0.15109
1.124,0.16565
1.128,0.14405
1.132,0.15104
1.136,0.19475
1.14,0.21338
1.144,0.25311
1.148,0.19609
1.152,0.23866
1.156,0.24823
1.16,0.25599
1.164,0.30838
1.168,0.26727
1.172,0.20878
1.176,0.27878
1.18,0.21445
1.184,0.2881
1.188,0.18644
1.192,0.19671
1.196,0.26632
1.2,0.20251
1.204,0.21646
1.208,0.1593
1.212,0.20878
1.216,0.22204
1.22,0.15831
1.224,0.1084
1.228,0.2054
1.232,0.16371
1.236,0.0802
1.24,0.14161
1.244,0.09264
1.248,0.14247
1.252,0.07273
1.256,0.01764
1.26,0.02215
1.264,0.00358
1.268,0.05413
1.272,-0.00793
1.276,0.11354
1.28,0.05928
1.284,-0.05653
1.288,0.00973
1.292,0.07418
1.296,0.02242
1.3,-0.02705
1.304,0.06124
1.308,-0.01008
1.312,-0.01457
1.316,-0.02935
1.32,-0.03077
1.324,0.05525
1.328,0.04781
1.332,0.07346
1.336,0.05701
1.34,0.06289
1.344,0.12275
1.348,0.05222
1.352,0.04789
1.356,0.12054
1.36,0.13118
1.364,0.07435
1.368,0.10071
1.372,0.1563
1.376,0.09323
1.38,0.10463
1.384,0.09352
1.388,0.09416
1.392,0.05117
1.396,0.08035
1.4,0.02409
1.404,0.07229
1.408,0.0539
1.412,0.01264
1.416,-0.01435
1.42,0.02389
1.424,0.01155
1.428,0.07523
1.432,0.02488
1.436,0.06601
1.44,0.0234
1.444,-0.03193
1.448,-0.00339
1.452,0.04029
1.456,-0.00722
1.46,0.08186
1.464,0.0486
1.468,0.02472
1.472,0.04563
1.476,0.07036
1.48,0.05794
1.484,-0.01113
1.488,-0.03881
1.492,-0.09341
1.496,-0.08927
1.5,-0.05493
1.504,0.11128
1.508,0.36584
1.512,0.52145
1.516,0.75903
1.52,0.88819
1.524,1.03239
1.528,1.01499
1.532,0.93561
1.536,0.65295
1.54,0.51428
1.544,0.21612
1.548,0.0789
1.552,0.01059
1.556,-0.14457
1.56,-0.10174
1.564,-0.13069
1.568,-0.0488
1.572,-0.04191
1.576,-0.01337
1.58,-0.00417
1.584,-0.03747
1.588,0.07714
1.592,0.03528
1.596,0.06801
1.6,0.05895
1.604,0.03355
1.608,0.09931
1.612,0.03734
1.616,-0.00663
1.62,0.03162
1.624,0.05835
1.628,0.05058
1.632,0.05717
1.636,0.00291
1.64,-0.03289
1.644,0.04435
1.648,0.03686
1.652,0.04258
1.656,0.00483
1.66,0.03848
1.664,0.07548
1.668,0.03771
1.672,-0.0258
1.676,-0.00573
1.68,0.05926
1.684,0.05528
1.688,0.03963
1.692,0.05991
1.696,0.06974
1.7,0.08436
1.704,0.0388
1.708,0.10751
1.712,0.01757
1.716,0.08175
1.72,0.11486
1.724,0.02896
1.728,0.02512
1.732,0.03487
1.736,0.0223
1.74,0.10655
1.744,0.13135
1.748,0.05896
1.752,0.13084
1.756,0.12584
1.76,0.14998
1.764,0.15503
1.768,0.14335
1.772,0.18477
1.776,0.17536
1.78,0.23959
1.784,0.16414
1.788,0.24557
1.792,0.24524
1.796,0.22261
1.8,0.2544
1.804,0.26493
1.808,0.25267
1.812,0.27097
1.816,0.23145
1.82,0.28295
1.824,0.27422
1.828,0.26171
1.832,0.14862
1.836,0.22263
1.84,0.11827
1.844,0.15358
1.848,0.11732
1.852,0.13806
1.856,0.1451
1.86,0.11893
1.864,0.15116
1.868,0.11047
1.872,0.13249
1.876,0.17712
1.88,0.10122
1.884,0.05762
1.888,0.08918
1.892,0.06003
1.896,0.07342
1.9,0.03049
1.904,-0.0147
1.908,0.04088
1.912,0.04532
1.916,0.0165
1.92,0.10451
1.924,-0.01043
1.928,0.06401
1.932,0.07259
1.936,0.05549
1.94,0.07689
1.944,0.10404
1.948,-0.0109
1.952,0.0915
1.956,0.04683
1.96,0.04336
1.964,0.13072
1.968,0.08132
1.972,0.05161
1.976,0.16016
1.98,0.14026
1.984,0.11928
1.988,0.10186
1.992,0.07706
1.996,0.07193
2.0,0.13223
2.004,0.1062
2.008,0.0884
2.012,-0.00942
2.016,0.04838
2.02,0.00655
2.024,0.04969
2.028,0.04185
2.032,0.00453
2.036,0.03312
2.04,0.03687
2.044,0.0105
2.048,-0.00995
2.052,0.04129
2.056,0.09981
2.06,0.02253
2.064,0.06002
2.068,0.09992
2.072,0.01019
2.076,0.03634
2.08,0.01826
2.084,0.02742
2.088,0.07092
2.092,-0.00914
2.096,-0.00623
2.1,0.04303
2.104,-0.06507
2.108,-0.01053
2.112,-0.02214
2.116,-0.00687
2.12,0.04267
2.124,0.27671
2.128,0.43094
2.132,0.67115
2.136,0.86287
2.14,0.95041
2.144,0.96367
2.148,0.90418
2.152,0.8226
2.156,0.52972
2.16,0.28442
2.164,0.10335
2.168,-0.07192
2.172,-0.12074
2.176,-0.15027
2.18,-0.09627
2.184,-0.02618
2.188,-0.00949
2.192,0.05275
2.196,0.00909
2.2,0.06361
2.204,0.10194
2.208,0.07644
2.212,-0.00339
2.216,0.01237
2.22,-0.00962
2.224,0.09214
2.228,-0.03811
2.232,0.05407
2.236,0.00558
2.24,-0.00174
2.244,0.02489
2.248,0.05973
2.252,0.05216
2.256,-0.01645
2.26,0.02262
2.264,0.06791
2.268,-0.03886
2.272,0.04088
2.276,0.05314
2.28,0.03333
2.284,0.01387
2.288,0.07754
2.292,0.01204
2.296,0.06026
2.3,0.03511
2.304,0.03234
2.308,0.02541
2.312,0.03667
2.316,0.09286
2.32,-0.0085
2.324,0.10296
2.328,0.02973
2.332,0.06583
2.336,0.04961
2.34,0.00237
2.344,0.04219
2.348,0.08764
2.352,0.09145
2.356,0.11952
2.36,0.11816
2.364,0.11649
2.368,0.10969
2.372,0.10603
2.376,0.15136
2.38,0.13843
2.384,0.17156
2.388,0.16757
2.392,0.22442
2.396,0.26353
2.4,0.23968
2.404,0.21791
2.408,0.20934
2.412,0.23095
2.416,0.21528
2.42,0.26247
2.424,0.28275
2.428,0.26973
2.432,0.32012
2.436,0.22495
2.44,0.24477
2.444,0.26343
2.448,0.21997
2.452,0.18594
2.456,0.20002
2.46,0.24457
2.464,0.21133
2.468,0.11761
2.472,0.14596
2.476,0.07801
2.48,0.20719
2.484,0.09235
2.488,0.10544
2.492,0.03885
2.496,0.13251
2.5,0.11857
2.504,0.07269
2.508,0.08921
2.512,0.05572
2.516,0.10692
2.52,0.00182
2.524,0.06753
2.528,0.0141
2.532,0.03985
2.536,0.03485
2.54,-0.03039
2.544,-0.03335
2.548,0.07101
2.552,-0.00109
2.556,-0.00601
2.56,-0.01779
2.564,0.02573
2.568,0.03694
2.572,0.04881
2.576,0.03928
2.58,0.06476
2.584,0.06102
2.588,0.08138
2.592,0.1337
2.596,0.16619
2.6,0.11067
2.604,0.11743
2.608,0.16524
2.612,0.16609
2.616,0.13211
2.62,0.12336
2.624,0.05424
2.628,0.05769
2.632,0.07657
2.636,0.04632
2.64,0.05244
2.644,0.0244
2.648,-0.05385
2.652,-0.00075
2.656,0.02533
2.66,0.02922
2.664,0.07152
2.668,0.01382
2.672,-0.02393
2.676,0.0556
2.68,0.06006
2.684,-0.01061
2.688,0.00489
2.692,0.01473
2.696,0.00525
2.7,0.07363
2.704,0.01206
2.708,-0.03447
2.712,0.00952
2.716,-0.00819
2.72,0.03834
2.724,-0.08442
2.728,-0.08479
2.732,-0.08814
2.736,-0.00932
2.74,0.00731
2.744,0.17253
2.748,0.38328
2.752,0.66187
2.756,0.81007
2.76,0.93411
2.764,1.01699
2.768,0.90567
2.772,0.83951
2.776,0.61991
2.78,0.33029
2.784,0.13339
2.788,-0.02714
2.792,-0.10403
2.796,-0.1465
2.8,-0.18514
2.804,-0.0723
2.808,-0.02119
2.812,0.04425
2.816,0.00136
2.82,0.04908
2.824,-0.00158
2.828,0.10808
2.832,0.09195
2.836,0.07763
2.84,0.04172
2.844,0.08296
2.848,0.11744
2.852,0.07002
2.856,0.17412
2.86,0.0478
2.864,0.09859
2.868,0.10472
2.872,0.13668
2.876,0.047
2.88,0.0109
2.884,0.13499
2.888,0.06622
2.892,0.03158
2.896,0.0593
2.9,0.00523
2.904,-0.03425
2.908,-0.03737
2.912,0.02283
2.916,0.01389
2.92,0.01438
2.924,0.02824
2.928,-0.01692
2.932,0.00864
2.936,-0.00296
2.94,0.01556
2.944,0.07171
2.948,0.02418
2.952,0.0252
2.956,0.01689
2.96,0.01949
2.964,0.03454
2.968,0.06051
2.972,0.02801
2.976,0.05201
2.98,-0.01999
2.984,-0.01281
2.988,0.03683
2.992,0.16717
2.996,0.41192
3.0,0.6768
3.004,0.88454
3.008,1.0495
3.012,1.17516
3.016,1.13387
3.02,1.12245
3.024,0.9391
3.028,0.66059
3.032,0.40109
3.036,0.24799
3.04,0.12143
3.044,0.02658
3.048,0.05697
3.052,0.07804
3.056,0.14197
3.06,0.11953
3.064,0.19474
3.068,0.17293
3.072,0.17363
3.076,0.12707
3.08,0.26621
3.084,0.15565
3.088,0.13016
3.092,0.09814
3.096,0.10674
3.1,0.14996
3.104,0.09984
3.108,0.0108
3.112,0.13261
3.116,0.09401
3.12,0.11254
3.124,0.01477
3.128,-0.00181
3.132,0.07222
3.136,-0.02579
3.14,-0.0077
3.144,0.04695
3.148,-0.00091
3.152,0.0901
3.156,0.03879
3.16,0.00693
3.164,0.02608
3.168,-0.02305
3.172,0.061
3.176,0.02612
3.18,0.07185
3.184,0.02264
3.188,0.04214
3.192,-0.00117
3.196,0.01896
3.2,-0.02159
3.204,0.02519
3.208,0.05901
3.212,0.10269
3.216,0.06907
3.22,0.07528
3.224,0.05321
3.228,0.07912
3.232,0.06851
3.236,0.19198
3.24,0.18742
3.244,0.0981
3.248,0.18085
3.252,0.1521
3.256,0.15471
3.26,0.20324
3.264,0.21177
3.268,0.2477
3.272,0.16197
3.276,0.27754
3.28,0.17561
3.284,0.21565
3.288,0.21717
3.292,0.23052
3.296,0.27439
3.3,0.22334
3.304,0.2134
3.308,0.22079
3.312,0.20093
3.316,0.19912
3.32,0.24888
3.324,0.22647
3.328,0.15175
3.332,0.14641
3.336,0.10884
3.34,0.18308
3.344,0.15311
3.348,0.06207
3.352,0.08222
3.356,0.09286
3.36,0.10339
3.364,0.09258
3.368,0.06729
3.372,0.02094
3.376,0.05098
3.38,0.05813
3.384,0.09519
3.388,0.0394
3.392,0.05178
3.396,0.02585
3.4,0.05086
3.404,0.09928
3.408,0.00806
3.412,0.10155
3.416,0.08427
3.42,0.0639
3.424,0.16944
3.428,0.04854
3.432,0.07352
3.436,0.16606
3.44,0.16934
3.444,0.04861
3.448,0.10196
3.452,0.05387
3.456,-0.04476
3.46,0.03994
3.464,0.06122
3.468,-0.02582
3.472,0.05623
3.476,0.0524
3.48,-0.00601
3.484,0.00948
3.488,-0.01858
3.492,0.03223
3.496,0.05456
3.5,0.03285
3.504,0.03407
3.508,-0.04048
3.512,0.04606
3.516,-0.01828
3.52,-0.07102
3.524,0.01013
3.528,0.02302
3.532,-0.01049
3.536,-0.00554
3.54,-0.05058
3.544,-0.07594
3.548,-0.0061
3.552,-0.02227
3.556,-0.10569
3.56,-0.09611
3.564,-0.17527
3.568,-0.03967
3.572,0.04378
3.576,0.14224
3.58,0.26032
3.584,0.34635
3.588,0.43246
3.592,0.53056
3.596,0.4755
3.6,0.37415
3.604,0.24396
3.608,0.11282
3.612,-0.02269
3.616,-0.11848
3.62,-0.18494
3.624,-0.22204
3.628,-0.1658
3.632,-0.07391
3.636,-0.09105
3.64,-0.02903
3.644,0.03901
3.648,-0.03106
3.652,-0.04443
3.656,-0.01288
3.66,-0.00923
3.664,0.00646
3.668,-0.0255
3.672,0.02064
3.676,-0.00149
3.68,0.04286
3.684,0.03472
3.688,0.03143
3.692,-0.00659
3.696,0.03867
3.7,-0.04519
3.704,-0.05498
3.708,-0.01136
3.712,0.04622
3.716,-0.01993
3.72,-0.04383
3.724,-0.00734
3.728,-0.03297
3.732,-0.02906
3.736,-0.02207
3.74,-0.00045
3.744,-0.00639
3.748,0.00483
3.752,0.00678
3.756,-0.03522
3.76,0.01552
3.764,0.04653
3.768,0.01215
3.772,0.03057
3.776,-0.02573
3.78,0.08726
3.784,0.02091
3.788,0.06471
3.792,0.03618
3.796,0.06271
3.8,0.06466
3.804,0.00742
3.808,0.08979
3.812,0.09103
3.816,0.1093
3.82,0.0934
3.824,0.14747
3.828,0.06872
3.832,0.19784
3.836,0.18461
3.84,0.16358
3.844,0.1718
3.848,0.17946
3.852,0.22131
3.856,0.23183
3.86,0.21328
3.864,0.24479
3.868,0.22671
3.872,0.32823
3.876,0.24579
3.88,0.3104
3.884,0.35363
3.888,0.31485
3.892,0.33305
3.896,0.31142
3.9,0.27781
3.904,0.26783
3.908,0.19632
3.912,0.12686
3.916,0.13303
3.92,0.19346
3.924,0.17343
3.928,0.11199
3.932,0.06142
3.936,0.03572
3.94,0.11417
3.944,0.00673
3.948,0.04394
3.952,0.07296
3.956,0.07355
3.96,0.03682
3.964,-0.04372
3.968,0.01443
3.972,0.00403
3.976,0.07848
3.98,0.00264
3.984,0.06083
3.988,-0.01198
3.992,-0.0127
3.996,0.04048
4.0,-0.05881
4.004,-0.13492
4.008,-0.14131
4.012,-0.06789
4.016,-0.10472
4.02,0.03053
4.024,0.04059
4.028,0.29772
4.032,0.55948
4.036,0.70308
4.04,0.88652
4.044,0.98838
4.048,0.8524
4.052,0.78604
4.056,0.57411
4.06,0.33844
4.064,0.0981
4.068,-0.02037
4.072,-0.11601
4.076,-0.18173
4.08,-0.20946
4.084,-0.16766
4.088,-0.05206
4.092,-0.06839
4.096,-0.03074
4.1,-0.03242
4.104,0.01051
4.108,-0.05384
4.112,0.06164
4.116,-0.01357
4.12,0.03204
4.124,-0.01132
4.128,-0.07506
4.132,-0.03701
4.136,0.05313
4.14,0.0205
4.144,0.01579
4.148,-0.00898
4.152,0.00114
4.156,-0.00349
4.16,0.01067
4.164,0.01187
4.168,0.02508
4.172,0.0342
4.176,-0.03177
4.18,-0.02244
4.184,0.03747
4.188,-0.02062
4.192,-0.08085
4.196,0.02837
4.2,-0.00225
4.204,0.02891
4.208,-0.01849
4.212,-0.00651
4.216,0.01307
4.22,0.00996
4.224,0.03807
4.228,-0.01029
4.232,0.01081
4.236,0.04088
4.24,0.05305
4.244,-0.03096
4.248,0.0404
4.252,0.04654
4.256,0.03246
4.26,-0.0214
4.264,0.11063
4.268,0.07032
4.272,0.02744
4.276,0.03548
4.28,0.05696
4.284,0.12035
4.288,0.09302
4.292,0.1259
4.296,0.15619
4.3,0.19066
4.304,0.11908
4.308,0.1725
4.312,0.2306
4.316,0.18928
4.32,0.1275
4.324,0.21349
4.328,0.22258
4.332,0.19357
4.336,0.18754
4.34,0.16349
4.344,0.18975
4.348,0.17841
4.352,0.15213
4.356,0.17568
4.36,0.06104
4.364,0.12736
4.368,0.10828
4.372,0.148
4.376,0.06174
4.38,0.12667
4.384,0.12388
4.388,0.11271
4.392,0.03452
4.396,0.07941
4.4,0.02305
4.404,-0.00794
4.408,0.03644
4.412,-0.02036
4.416,-0.03878
4.42,0.03376
4.424,-0.01988
4.428,0.0393
4.432,-0.04813
4.436,-0.02456
4.44,0.00627
4.444,-0.02954
4.448,-0.01219
4.452,-0.01456
4.456,0.01463
4.46,-0.02005
4.464,-0.04572
4.468,0.0099
4.472,-0.02045
4.476,0.00565
4.48,-0.05983
4.484,0.04139
4.488,-0.01581
4.492,-0.03278
4.496,-0.01034
4.5,0.00298
4.504,0.02584
4.508,0.01262
4.512,0.01961
4.516,-0.09867
4.52,-0.00291
4.524,-0.01088
4.528,-0.03516
4.532,0.05786
4.536,0.02599
4.54,0.0219
4.544,-0.04743
4.548,-0.01814
4.552,0.02537
4.556,0.02816
4.56,0.07963
4.564,0.10073
4.568,0.00912
4.572,0.02893
4.576,0.10667
4.58,0.1255
4.584,0.12391
4.588,0.09629
4.592,0.05376
4.596,0.07279
4.6,0.03914
4.604,-0.02619
4.608,0.00269
4.612,0.01576
4.616,-0.03909
4.62,-0.06558
4.624,-0.03268
4.628,0.05038
4.632,-0.04819
4.636,-0.01174
4.64,-0.06827
4.644,-0.00515
4.648,-0.01727
4.652,-0.04806
4.656,-0.06482
4.66,0.0014
4.664,-0.03089
4.668,-0.0384
4.672,-0.0271
4.676,-0.01751
4.68,-0.03753
4.684,-0.04541
4.688,-0.04342
4.692,-0.08557
4.696,-0.07444
4.7,-0.12906
4.704,-0.0987
4.708,-0.17125
4.712,-0.00569
4.716,0.18804
4.72,0.4494
4.724,0.5212
4.728,0.72834
4.732,0.93545
4.736,0.94683
4.74,0.88831
4.744,0.77637
4.748,0.49307
4.752,0.3234
4.756,0.07488
4.76,-0.07126
4.764,-0.15012
4.768,-0.21779
4.772,-0.18875
4.776,-0.105
4.78,-0.08336
4.784,-0.08511
4.788,-0.02139
4.792,-0.03909
4.796,0.0108
4.8,-0.0186
4.804,-0.03199
4.808,0.01961
4.812,-0.022
4.816,-0.04725
4.82,0.02636
4.824,-0.01092
4.828,0.00691
4.832,-0.01651
4.836,-0.10059
4.84,-0.03017
4.844,-0.05089
4.848,0.01767
4.852,-0.0584
4.856,-0.01195
4.86,-0.03723
4.864,0.01568
4.868,-0.03755
4.872,-0.04767
4.876,-0.03541
4.88,0.02057
4.884,-0.00337
4.888,-0.05192
4.892,0.04361
4.896,-0.00746
4.9,-0.03654
4.904,-0.03769
4.908,-0.02084
4.912,-0.02276
4.916,-0.062
4.92,-0.02489
4.924,0.02359
4.928,0.02013
4.932,-0.0104
4.936,-0.014
4.94,-0.03545
4.944,0.03549
4.948,0.09021
4.952,0.04187
4.956,0.01905
4.96,0.06543
4.964,0.10818
4.968,0.1504
4.972,0.10743
4.976,0.13252
4.98,0.1335
4.984,0.14042
4.988,0.15531
4.992,0.16172
4.996,0.08334
5.0,0.18331
5.004,0.25345
5.008,0.12352
5.012,0.13583
5.016,0.13778
5.02,0.20244
5.024,0.13455
5.028,0.13227
5.032,0.16833
5.036,0.18068
5.04,0.1821
5.044,0.1665
5.048,0.1017
5.052,0.13526
5.056,0.13148
5.06,0.12456
5.064,0.03717
5.068,0.12089
5.072,0.08
5.076,0.09915
5.08,0.06169
5.084,0.0845
5.088,0.09397
5.092,0.0257
5.096,0.08703
5.1,0.12505
5.104,0.13307
5.108,0.04551
5.112,0.06054
5.116,0.0491
5.12,0.04254
5.124,0.02134
5.128,0.04283
5.132,0.02752
5.136,-0.02381
5.14,-0.07042
5.144,-0.00738
5.148,-0.03856
5.152,0.02429
5.156,0.04448
5.16,-0.058
5.164,-0.04603
5.168,-0.0756
5.172,-0.05894
5.176,0.03696
5.18,-0.0905
5.184,-0.0089
5.188,-0.03804
5.192,-0.04458
5.196,-0.04415
5.2,-0.01038
5.204,-0.0566
5.208,-0.00047
5.212,0.00049
5.216,-0.12353
5.22,-0.07361
5.224,-0.09048
5.228,-0.11173
5.232,-0.14581
5.236,-0.01868
5.24,0.0794
5.244,0.28862
5.248,0.4635
5.252,0.71789
5.256,0.93049
5.26,0.98319
5.264,0.95672
5.268,0.77971
5.272,0.64442
5.276,0.39628
5.28,0.16244
5.284,0.05047
5.288,-0.13802
5.292,-0.23887
5.296,-0.17275
5.3,-0.17717
5.304,-0.11328
5.308,-0.06537
5.312,-0.079
5.316,0.00045
5.32,-0.05142
5.324,-0.00853
5.328,-0.05104
5.332,-0.0112
5.336,-0.04922
5.34,-0.06569
5.344,0.06605
5.348,-1e-05
5.352,-0.11123
5.356,-0.01642
5.36,-0.01368
5.364,-0.03226
5.368,-0.08212
5.372,-0.03554
5.376,-0.01655
5.38,-0.00254
5.384,-0.05237
5.388,-0.07157
5.392,-0.02855
5.396,-0.05121
5.4,0.0103
5.404,0.01488
5.408,-0.04301
5.412,-0.03392
5.416,-0.01564
5.42,-0.01648
5.424,-0.01064
5.428,-0.05956
5.432,-0.0104
5.436,-0.04626
5.44,-0.01567
5.444,0.01397
5.448,-0.02505
5.452,0.01168
5.456,-0.04332
5.46,0.09516
5.464,0.09634
5.468,0.01599
5.472,0.09725
5.476,0.13762
5.48,0.09438
5.484,0.08579
5.488,0.09744
5.492,0.12991
5.496,0.02155
5.5,0.12064
5.504,0.15211
5.508,0.13747
5.512,0.14057
5.516,0.15643
5.52,0.21132
5.524,0.10287
5.528,0.23896
5.532,0.2197
5.536,0.21914
5.54,0.20814
5.544,0.13783
5.548,0.18989
5.552,0.25556
5.556,0.15929
5.56,0.14522
5.564,0.12128
5.568,0.1133
5.572,0.15027
5.576,0.08104
5.58,0.10243
5.584,0.06838
5.588,0.10656
5.592,0.13299
5.596,0.12182
5.6,0.02488
5.604,0.05615
5.608,0.04606
5.612,0.01157
5.616,0.05876
5.62,0.06772
5.624,-0.0006
5.628,0.06381
5.632,0.07675
5.636,0.00937
5.64,-0.00101
5.644,0.08134
5.648,0.07071
5.652,0.07524
5.656,0.09451
5.66,0.07682
5.664,0.08169
5.668,0.04575
5.672,0.03964
5.676,0.00866
5.68,0.07553
5.684,0.02158
5.688,0.00523
5.692,-0.02817
5.696,-0.03493
5.7,-0.01926
5.704,0.0241
5.708,-0.02747
5.712,-0.07795
5.716,0.00059
5.72,0.00811
5.724,-0.08954
5.728,-0.03241
5.732,-0.01878
5.736,-0.04816
5.74,0.00441
5.744,-0.066
5.748,0.02318
5.752,0.04417
5.756,-0.05684
5.76,-0.02376
5.764,-0.07326
5.768,-0.06624
5.772,-0.03054
5.776,-0.01572
5.78,-0.03608
5.784,-0.04209
5.788,-0.10834
5.792,-0.13632
5.796,-0.09638
5.8,-0.00834
5.804,0.13763
5.808,0.40339
5.812,0.58156
5.816,0.88256
5.82,0.83088
5.824,0.9093
5.828,0.9346
5.832,0.75831
5.836,0.53659
5.84,0.35841
5.844,0.0477
5.848,-0.02579
5.852,-0.20407
5.856,-0.18811
5.86,-0.17183
5.864,-0.15895
5.868,-0.08168
5.872,-0.10189
5.876,-0.07906
5.88,-0.03279
5.884,-0.07269
5.888,-0.02695
5.892,-0.05841
5.896,0.00634
5.9,-0.00803
5.904,2e-05
5.908,0.05671
5.912,-0.03301
5.916,-0.05046
5.92,-0.05759
5.924,0.01204
5.928,-0.01189
5.932,-0.07586
5.936,-0.06087
5.94,0.0237
5.944,0.04087
5.948,0.02675
5.952,-0.03157
5.956,-0.0674
5.96,-0.01858
5.964,-0.02362
5.968,-0.02561
5.972,0.00359
5.976,-0.069
5.98,-0.00475
5.984,-0.0679
5.988,0.01282
5.992,0.01886
5.996,-0.05323
6.0,-0.08624
6.004,-0.01976
6.008,-0.07174
6.012,0.11685
6.016,0.00378
6.02,0.0425
6.024,-0.01642
6.028,-0.00852
6.032,0.05928
6.036,0.05738
6.04,0.03702
6.044,0.0464
6.048,0.06063
6.052,0.04766
6.056,0.09148
6.06,0.06791
6.064,0.06544
6.068,0.1103
6.072,0.09053
6.076,0.17461
6.08,0.23226
6.084,0.14405
6.088,0.1584
6.092,0.19041
6.096,0.19855
6.1,0.25169
6.104,0.17421
6.108,0.21512
6.112,0.23163
6.116,0.24802
6.12,0.20763
6.124,0.19754
6.128,0.12203
6.132,0.15513
6.136,0.13907
6.14,0.16563
6.144,0.19633
6.148,0.21473
6.152,0.14275
6.156,0.12154
6.16,0.09416
6.164,0.16306
6.168,0.11064
6.172,0.08809
6.176,0.08937
6.18,0.14106
6.184,0.14799
6.188,0.12383
6.192,0.12083
6.196,0.12232
6.2,0.09413
6.204,0.02601
6.208,0.11461
6.212,0.0802
6.216,0.01233
6.22,-0.02281
6.224,-0.02471
6.228,0.02135
6.232,0.00384
6.236,-0.06023
6.24,-0.00766
6.244,-0.07039
6.248,-0.08615
6.252,-0.04055
6.256,-0.06111
6.26,0.01711
6.264,-0.01907
6.268,-0.07015
6.272,-0.05738
6.276,-0.05369
6.28,0.00989
6.284,0.04193
6.288,-0.06858
6.292,-0.00285
6.296,-0.06516
6.3,-0.10797
6.304,-0.18813
6.308,-0.1341
6.312,-0.10116
6.316,-0.01596
6.32,0.17126
6.324,0.31067
6.328,0.54071
6.332,0.79259
6.336,0.94741
6.34,1.02435
6.344,0.94473
6.348,0.83956
6.352,0.6336
6.356,0.36539
6.36,0.1444
6.364,0.01737
6.368,-0.11479
6.372,-0.16785
6.376,-0.22811
6.38,-0.13738
6.384,-0.08632
6.388,-0.08688
6.392,0.04823
6.396,-0.01114
6.4,0.02004
6.404,0.03016
6.408,-0.04213
6.412,0.01718
6.416,-0.06176
6.42,-0.00931
6.424,-0.02126
6.428,-0.02959
6.432,-0.01123
6.436,-0.01147
6.44,0.03952
6.444,0.06706
6.448,-0.0453
6.452,0.00155
6.456,-0.00973
6.46,0.02281
6.464,-0.02844
6.468,-0.01021
6.472,0.01121
6.476,0.00407
6.48,-0.0274
6.484,-0.00602
6.488,-0.00687
6.492,0.03739
6.496,0.03543
6.5,-0.0004
6.504,-0.04911
6.508,0.07922
6.512,0.01518
6.516,-0.0178
6.52,-0.01963
6.524,-0.00142
6.528,-0.01464
6.532,0.06737
6.536,0.09913
6.54,0.09473
6.544,0.04859
6.548,0.08582
6.552,0.15209
6.556,0.14794
6.56,0.17306
6.564,0.22728
6.568,0.16541
6.572,0.23191
6.576,0.18954
6.58,0.23286
6.584,0.18859
6.588,0.20313
6.592,0.18637
6.596,0.27769
6.6,0.18299
6.604,0.20641
6.608,0.17504
6.612,0.2187
6.616,0.27369
6.62,0.19332
6.624,0.21604
6.628,0.24673
6.632,0.21576
6.636,0.21657
6.64,0.22166
6.644,0.16643
6.648,0.18815
6.652,0.12685
6.656,0.12035
6.66,0.14538
6.664,0.1557
6.668,0.1166
6.672,0.07206
6.676,0.1017
6.68,-0.01427
6.684,0.06058
6.688,-0.05989
6.692,-0.03161
6.696,-0.03937
6.7,-0.02528
6.704,0.0822
6.708,0.25635
6.712,0.48793
6.716,0.6573
6.72,0.83581
6.724,0.95503
6.728,0.99934
6.732,0.89488
6.736,0.72296
6.74,0.53303
6.744,0.27698
6.748,0.00339
6.752,-0.15739
6.756,-0.17496
6.76,-0.227
6.764,-0.15713
6.768,-0.12539
6.772,-0.03637
6.776,-0.00663
6.78,-0.0369
6.784,0.00115
6.788,-0.01367
6.792,-0.01415
6.796,0.00022
6.8,-0.01084
6.804,-0.03636
6.808,0.08936
6.812,-0.00079
6.816,0.07378
6.82,0.0443
6.824,-0.03979
6.828,0.03421
6.832,0.02174
6.836,0.03399
6.84,-0.04863
6.844,-0.0105
6.848,0.04546
6.852,-0.00263
6.856,-0.00108
6.86,0.00021
6.864,-0.00308
6.868,-0.01915
6.872,-0.00196
6.876,-0.02575
6.88,0.04085
6.884,-0.06687
6.888,0.02701
6.892,0.00591
6.896,-0.02409
6.9,0.05013
6.904,0.05842
6.908,-0.05112
6.912,0.01102
6.916,-0.00727
6.92,-0.02002
6.924,0.02482
6.928,0.06229
6.932,0.04331
6.936,0.0168
6.94,0.06574
6.944,0.11934
6.948,0.11078
6.952,0.06538
6.956,0.09625
6.96,0.06939
6.964,0.1626
6.968,0.15677
6.972,0.12413
6.976,0.14841
6.98,0.18536
6.984,0.1354
6.988,0.24971
6.992,0.21807
6.996,0.21258
7.0,0.26401
7.004,0.25721
7.008,0.25143
7.012,0.22439
7.016,0.26333
7.02,0.21149
7.024,0.20684
7.028,0.18861
7.032,0.20582
7.036,0.17866
7.04,0.19217
7.044,0.15884
7.048,0.09433
7.052,0.12719
7.056,0.1199
7.06,0.12071
7.064,0.10814
7.068,0.04929
7.072,0.13217
7.076,0.11774
7.08,0.06009
7.084,0.07325
7.088,0.02471
7.092,0.0519
7.096,0.06667
7.1,0.04292
7.104,-0.00286
7.108,0.04723
7.112,0.09376
7.116,0.00664
7.12,0.04151
7.124,0.06717
7.128,0.09185
7.132,0.05479
7.136,0.07281
7.14,0.08734
7.144,0.15677
7.148,0.11471
7.152,0.09921
7.156,0.0932
7.16,0.09599
7.164,0.1494
7.168,0.06775
7.172,0.04889
7.176,0.04909
7.18,0.0415
7.184,0.03662
7.188,0.07563
7.192,0.05078
7.196,0.0031
7.2,0.05729
7.204,-0.01237
7.208,0.01461
7.212,-0.02298
7.216,-0.00518
7.22,-0.00885
7.224,0.09806
7.228,0.01347
7.232,0.04043
7.236,0.04867
7.24,0.0512
7.244,-0.01941
7.248,0.02528
7.252,0.00408
7.256,-0.00123
7.26,0.0092
7.264,0.01404
7.268,-0.02297
7.272,-0.02804
7.276,-0.09538
7.28,-0.12029
7.284,-0.11343
7.288,-0.03568
7.292,0.08785
7.296,0.23263
7.3,0.34543
7.304,0.45719
7.308,0.59876
7.312,0.63382
7.316,0.60336
7.32,0.50617
7.324,0.37259
7.328,0.20852
7.332,0.08247
7.336,0.00261
7.34,-0.12815
7.344,-0.18555
7.348,-0.08936
7.352,-0.12826
7.356,0.00421
7.36,0.01601
7.364,0.01274
7.368,0.01824
7.372,0.06614
7.376,0.07531
7.38,0.11744
7.384,0.07409
7.388,0.05259
7.392,0.08568
7.396,0.1096
7.4,0.1368
7.404,0.15353
7.408,0.09284
7.412,0.11182
7.416,0.0912
7.42,0.1043
7.424,0.09001
7.428,0.05502
7.432,0.10915
7.436,0.08819
7.44,0.10528
7.444,0.04329
7.448,0.06086
7.452,0.06432
7.456,0.01506
7.46,0.04246
7.464,0.01315
7.468,0.04663
7.472,-0.01993
7.476,-0.02063
7.48,-0.00845
7.484,0.02776
7.488,0.06504
7.492,0.03572
7.496,-0.00066
7.5,0.04245
7.504,0.05724
7.508,0.08494
7.512,0.07743
7.516,0.04934
7.52,0.01284
7.524,0.02853
7.528,-0.04548
7.532,-0.04754
7.536,0.05804
7.54,0.22549
7.544,0.38022
7.548,0.61334
7.552,0.82675
7.556,1.04467
7.56,1.20096
7.564,1.21267
7.568,1.11244
7.572,0.9783
7.576,0.67446
7.58,0.4965
7.584,0.27912
7.588,0.19653
7.592,0.09121
7.596,0.04062
7.6,0.16962
7.604,0.19943
7.608,0.18338
7.612,0.1535
7.616,0.15167
7.62,0.17274
7.624,0.18923
7.628,0.24552
7.632,0.1622
7.636,0.10271
7.64,0.04978
7.644,0.10377
7.648,0.12751
7.652,0.1143
7.656,0.07951
7.66,0.09155
7.664,0.03176
7.668,0.03879
7.672,0.06431
7.676,0.13639
7.68,0.00508
7.684,0.02538
7.688,0.0351
7.692,0.06184
7.696,0.03128
7.7,0.03106
7.704,0.02687
7.708,-0.02219
7.712,-0.01105
7.716,0.12062
7.72,0.06557
7.724,0.0555
7.728,-0.01679
7.732,0.02056
7.736,0.05276
7.74,0.02115
7.744,-0.00982
7.748,0.07049
7.752,0.02961
7.756,0.08977
7.76,0.07837
7.764,0.09998
7.768,0.06737
7.772,0.11955
7.776,0.10675
7.78,0.1059
7.784,0.12492
7.788,0.11167
7.792,0.12475
7.796,0.1173
7.8,0.13616
7.804,0.19229
7.808,0.19696
7.812,0.15198
7.816,0.22705
7.82,0.19625
7.824,0.22841
7.828,0.20712
7.832,0.19582
7.836,0.30529
7.84,0.18073
7.844,0.25306
7.848,0.19092
7.852,0.28649
7.856,0.18577
7.86,0.27212
7.864,0.15323
7.868,0.23424
7.872,0.16674
7.876,0.11205
7.88,0.16778
7.884,0.1051
7.888,0.10941
7.892,0.13896
7.896,0.17188
7.9,0.16175
7.904,0.08326
7.908,0.0941
7.912,0.09467
7.916,0.05966
7.92,0.04962
7.924,0.05704
7.928,0.09287
7.932,0.11769
7.936,0.01324
7.94,0.04035
7.944,0.01503
7.948,0.07488
7.952,0.03013
7.956,-0.00925
7.96,0.10143
7.964,0.06104
7.968,0.06592
7.972,0.02143
7.976,-0.01374
7.98,0.11085
7.984,0.02661
7.988,0.01733
7.992,0.04343
7.996,0.08316
8.0,0.02652
8.004,0.02485
8.008,0.00495
8.012,-0.02177
8.016,0.01615
8.02,0.0075
8.024,-0.01886
8.028,0.02724
8.032,0.0987
8.036,0.05422
8.04,0.01624
8.044,0.01829
8.048,0.036
8.052,0.01665
8.056,-0.03931
8.06,0.05682
8.064,0.02983
8.068,0.0289
8.072,0.03367
8.076,0.03321
8.08,0.0632
8.084,0.10174
8.088,0.05028
8.092,-0.03329
8.096,-0.03267
8.1,0.02699
8.104,0.04011
8.108,0.00924
8.112,0.07132
8.116,0.02319
8.12,0.00174
8.124,-0.01706
8.128,-0.02078
8.132,0.07037
8.136,0.05592
8.14,0.02427
8.144,0.00957
8.148,0.02281
8.152,0.09347
8.156,0.1328
8.16,0.0752
8.164,0.14917
8.168,0.12283
8.172,0.13136
8.176,0.12448
8.18,0.16965
8.184,0.14028
8.188,0.07338
8.192,0.04192
8.196,0.0683
8.2,0.06977
8.204,0.05462
8.208,0.0008
8.212,0.0936
8.216,0.02052
8.22,0.07195
8.224,0.0817
8.228,0.02911
8.232,0.06394
8.236,0.04043
8.24,0.05314
8.244,0.04039
8.248,0.01411
8.252,0.05068
8.256,0.04229
8.26,0.07734
8.264,0.01757
8.268,0.0462
8.272,0.02115
8.276,0.06673
8.28,0.01678
8.284,0.07214
8.288,0.05177
8.292,-0.05243
8.296,-0.11456
8.3,-0.01674
8.304,-0.00883
8.308,0.06973
8.312,0.30976
8.316,0.51333
8.32,0.70936
8.324,0.86452
8.328,0.98332
8.332,1.03069
8.336,0.93504
8.34,0.77374
8.344,0.53418
8.348,0.27648
8.352,0.11309
8.356,-0.10685
8.36,-0.19932
8.364,-0.14136
8.368,-0.12911
8.372,-0.06226
8.376,-0.01217
8.38,0.00633
8.384,0.06273
8.388,0.03283
8.392,0.03142
8.396,-0.00368
8.4,0.05809
8.404,0.06718
8.408,-0.01645
8.412,0.07061
8.416,0.04089
8.42,-0.01573
8.424,0.02457
8.428,0.0151
8.432,0.03194
8.436,0.00777
8.44,0.07967
8.444,0.03084
8.448,0.00928
8.452,0.0758
8.456,0.02341
8.46,0.10039
8.464,0.04979
8.468,0.0593
8.472,0.05044
8.476,0.05332
8.48,0.02755
8.484,0.1067
8.488,0.14229
8.492,0.15115
8.496,0.22733
8.5,0.15544
8.504,0.16363
8.508,0.13598
8.512,0.17821
8.516,0.11276
8.52,0.14564
8.524,0.16451
8.528,0.1359
8.532,0.11188
8.536,0.10756
8.54,0.1332
8.544,0.12788
8.548,0.09497
8.552,0.0945
8.556,0.11529
8.56,0.11855
8.564,0.18092
8.568,0.20027
8.572,0.13195
8.576,0.14248
8.58,0.30281
8.584,0.2736
8.588,0.25389
8.592,0.22074
8.596,0.23417
8.6,0.27615
8.604,0.25135
8.608,0.25024
8.612,0.20894
8.616,0.19154
8.62,0.22232
8.624,0.17313
8.628,0.10993
8.632,0.12644
8.636,0.1378
8.64,0.30328
8.644,0.52452
8.648,0.68905
8.652,0.92194
8.656,1.04141
8.66,1.13423
8.664,1.0843
8.668,0.98276
8.672,0.8206
8.676,0.53981
8.68,0.36361
8.684,0.14003
8.688,0.0088
8.692,-0.10983
8.696,-0.10093
8.7,-0.10801
8.704,-0.05671
8.708,0.02393
8.712,0.0663
8.716,0.00098
8.72,0.05683
8.724,0.03821
8.728,0.016
8.732,0.00099
8.736,0.02477
8.74,-0.00778
8.744,0.03416
8.748,-0.02152
8.752,0.03181
8.756,0.06669
8.76,0.07464
8.764,0.00106
8.768,0.08798
8.772,-0.01411
8.776,-0.01375
8.78,0.00032
8.784,0.00732
8.788,-0.01194
8.792,0.03594
8.796,0.054
8.8,0.01776
8.804,0.04806
8.808,0.04127
8.812,0.04632
8.816,0.02931
8.82,0.03623
8.824,0.01441
8.828,0.02622
8.832,0.05468
8.836,-0.01505
8.84,-0.01939
8.844,0.07428
8.848,0.02463
8.852,0.05134
8.856,0.08151
8.86,0.05047
8.864,0.03693
8.868,0.08046
8.872,0.01538
8.876,0.11208
8.88,0.08773
8.884,0.12155
8.888,0.16716
8.892,0.12333
8.896,0.21722
8.9,0.17688
8.904,0.20621
8.908,0.18978
8.912,0.18105
8.916,0.21943
8.92,0.22412
8.924,0.15653
8.928,0.24254
8.932,0.19424
8.936,0.27887
8.94,0.24928
8.944,0.24491
8.948,0.26743
8.952,0.27761
8.956,0.25518
8.96,0.24074
8.964,0.20981
8.968,0.23519
8.972,0.22517
8.976,0.19554
8.98,0.18523
8.984,0.12176
8.988,0.15633
8.992,0.09208
8.996,0.13604
9.0,0.08026
9.004,0.13066
9.008,0.08469
9.012,0.10084
9.016,0.13226
9.02,0.07965
9.024,0.0329
9.028,0.11311
9.032,0.10342
9.036,0.04549
9.04,0.07279
9.044,0.03406
9.048,0.04402
9.052,0.09613
9.056,0.02771
9.06,0.03204
9.064,0.06287
9.068,0.00452
9.072,-0.00357
9.076,-0.04654
9.08,0.03683
9.084,0.03277
9.088,0.05672
9.092,0.01958
9.096,0.04517
9.1,0.03338
9.104,-0.01694
9.108,0.062
9.112,0.02904
9.116,0.00024
9.12,0.0499
9.124,0.06714
9.128,-0.04491
9.132,0.02376
9.136,0.0754
9.14,0.07134
9.144,-0.02698
9.148,0.01711
9.152,-0.0123
9.156,-0.03646
9.16,-0.00575
9.164,0.02031
9.168,0.05668
9.172,0.01248
9.176,0.02403
9.18,0.02556
9.184,-0.00262
9.188,0.00104
9.192,0.01915
9.196,0.00346
9.2,0.02129
9.204,-0.00976
9.208,0.03581
9.212,0.01299
9.216,0.06178
9.22,0.02208
9.224,0.13246
9.228,0.0282
9.232,0.05119
9.236,0.0807
9.24,0.08962
9.244,0.13617
9.248,0.04199
9.252,0.09175
9.256,0.06892
9.26,0.12271
9.264,0.1142
9.268,0.08672
9.272,0.07825
9.276,0.14886
9.28,0.09584
9.284,0.056
9.288,0.10295
9.292,0.11374
9.296,0.07975
9.3,0.00027
9.304,0.0278
9.308,0.00069
9.312,0.05871
9.316,0.01235
9.32,0.04794
9.324,0.01343
9.328,0.04099
9.332,0.02993
9.336,0.02144
9.34,0.00472
9.344,0.02447
9.348,0.0352
9.352,0.02246
9.356,-0.0197
9.36,0.03736
9.364,0.04171
9.368,0.0306
9.372,-0.02987
9.376,0.01457
9.38,0.01564
9.384,-0.00492
9.388,-0.04282
9.392,-0.14163
9.396,-0.15984
9.4,-0.02137
9.404,0.07257
9.408,0.21131
9.412,0.378
9.416,0.58393
9.42,0.81535
9.424,0.95981
9.428,1.05787
9.432,0.92896
9.436,0.79886
9.44,0.58093
9.444,0.32237
9.448,0.07965
9.452,-0.04668
9.456,-0.1446
9.46,-0.19414
9.464,-0.12975
9.468,-0.1234
9.472,0.01564
9.476,-0.03585
9.48,0.00525
9.484,-0.03129
9.488,-0.0011
9.492,-0.01248
9.496,-0.06597
9.5,-0.02497
9.504,0.02812
9.508,0.10683
9.512,0.02972
9.516,0.03479
9.52,0.04023
9.524,0.00556
9.528,0.01046
9.532,-0.01008
9.536,-0.01048
9.54,0.08102
9.544,-0.01853
9.548,0.01364
9.552,-0.00762
9.556,0.01214
9.56,-0.0258
9.564,0.07938
9.568,0.03902
9.572,0.01483
9.576,-0.00459
9.58,0.05972
9.584,-0.04453
9.588,0.00598
9.592,-0.03387
9.596,0.02044
9.6,0.00353
9.604,0.15041
9.608,0.09823
9.612,0.13918
9.616,0.04026
9.62,0.10161
9.624,0.02842
9.628,0.05963
9.632,0.07088
9.636,0.11116
9.64,0.10717
9.644,0.16908
9.648,0.16809
9.652,0.11634
9.656,0.15346
9.66,0.16386
9.664,0.25245
9.668,0.26788
9.672,0.27368
9.676,0.3124
9.68,0.31469
9.684,0.29213
9.688,0.30223
9.692,0.26303
9.696,0.2
9.7,0.29455
9.704,0.2869
9.708,0.24883
9.712,0.24287
9.716,0.22197
9.72,0.23561
9.724,0.19128
9.728,0.26298
9.732,0.18749
9.736,0.2564
9.74,0.23114
9.744,0.21927
9.748,0.15073
9.752,0.17327
9.756,0.15636
9.76,0.14791
9.764,0.07512
9.768,0.06533
9.772,0.09056
9.776,0.01149
9.78,0.0758
9.784,0.01732
9.788,0.06339
9.792,0.0274
9.796,0.0217
9.8,0.01768
9.804,-0.08223
9.808,-0.11926
9.812,-0.01623
9.816,0.0471
9.82,0.33093
9.824,0.44908
9.828,0.66882
9.832,0.85498
9.836,1.02835
9.84,0.99739
9.844,0.90463
9.848,0.62389
9.852,0.50686
9.856,0.27049
9.86,0.04452
9.864,-0.07404
9.868,-0.07715
9.872,-0.168
9.876,-0.1644
9.88,-0.05237
9.884,0.023
9.888,0.01138
9.892,0.00614
9.896,0.00918
9.9,0.03569
9.904,0.03896
9.908,-0.02495
9.912,-0.05212
9.916,-0.02288
9.92,0.00379
9.924,0.03732
9.928,0.03411
9.932,-0.01858
9.936,-0.01758
9.94,0.02204
9.944,0.01034
9.948,0.01104
9.952,0.00374
9.956,-0.02806
9.96,0.05009
9.964,-0.00555
9.968,-0.00475
9.972,-0.03131
9.976,-0.01358
9.98,0.01756
9.984,-0.01029
9.988,-0.00682
9.992,-0.00608
9.996,-0.00604
