t_seg,ecg_mV
0.0,0.01614
0.004,-0.00608
0.008,0.0308
0.012,-0.00902
0.016,0.01055
0.02,-0.00333
0.024,-0.08696
0.028,-0.09966
0.032,-0.1201
0.036,-0.05207
0.04,0.05498
0.044,0.25291
0.048,0.42789
0.052,0.62997
0.056,0.7989
0.06,0.96481
0.064,0.95131
0.068,0.92954
0.072,0.77365
0.076,0.50033
0.08,0.27985
0.084,0.09981
0.088,-0.06089
0.092,-0.15298
0.096,-0.1742
0.1,-0.13764
0.104,-0.10263
0.108,-0.05079
0.112,-0.04411
0.116,-0.0085
0.12,0.02751
0.124,-0.03153
0.128,0.0263
0.132,-0.00062
0.136,0.01059
0.14,-0.014
0.144,-0.00778
0.148,-0.01378
0.152,0.00716
0.156,-0.01213
0.16,-0.00691
0.164,-0.00702
0.168,0.01237
0.172,0.00476
0.176,-0.00183
0.18,-0.02034
0.184,-0.0047
0.188,0.0058
0.192,0.03439
0.196,-0.00304
0.2,0.02363
0.204,0.02283
0.208,0.01597
0.212,0.00074
0.216,0.01047
0.22,0.02145
0.224,-0.01575
0.228,-0.00552
0.232,0.00899
0.236,-0.00251
0.24,-0.00176
0.244,0.00902
0.248,0.00644
0.252,0.02485
0.256,0.05664
0.26,0.05737
0.264,0.02806
0.268,0.01284
0.272,0.05177
0.276,0.08797
0.28,0.07154
0.284,0.08537
0.288,0.08291
0.292,0.10407
0.296,0.14421
0.3,0.15418
0.304,0.13902
0.308,0.14473
0.312,0.20001
0.316,0.19235
0.32,0.19383
0.324,0.18659
0.328,0.18142
0.332,0.19645
0.336,0.22559
0.34,0.20326
0.344,0.23674
0.348,0.18236
0.352,0.18166
0.356,0.18243
0.36,0.18808
0.364,0.19571
0.368,0.20088
0.372,0.16113
0.376,0.13979
0.38,0.13176
0.384,0.1282
0.388,0.12716
0.392,0.13556
0.396,0.1084
0.4,0.0651
0.404,0.06668
0.408,0.06419
0.412,0.04176
0.416,0.05423
0.42,0.05705
0.424,0.02997
0.428,0.01751
0.432,0.04398
0.436,0.00911
0.44,0.00262
0.444,0.01786
0.448,0.00444
0.452,0.00391
0.456,-0.00864
0.46,-0.00714
0.464,-0.01988
0.468,0.0017
0.472,0.0043
0.476,0.00523
0.48,-0.02006
0.484,-0.01413
0.488,-0.02369
0.492,-0.01574
0.496,-0.01306
0.5,-0.01892
0.504,-0.04615
0.508,0.00068
0.512,-0.01223
0.516,-0.03089
0.52,-0.01967
0.524,-0.04156
0.528,-0.00705
0.532,-0.00612
0.536,-0.00417
0.54,0.00105
0.544,-0.01743
0.548,-0.01154
0.552,-0.02415
0.556,-0.02678
0.56,-0.03131
0.564,0.00734
0.568,-0.02423
0.572,-0.01238
0.576,-0.01681
0.58,-0.03527
0.584,-0.01552
0.588,0.00053
0.592,-0.01434
0.596,-0.01014
0.6,0.00455
0.604,-0.0184
0.608,-0.03049
0.612,-0.04363
0.616,-0.0076
0.62,-0.00631
0.624,-0.00355
0.628,-0.01043
0.632,-0.00414
0.636,-0.01589
0.64,-0.03673
0.644,-0.0095
0.648,0.00508
0.652,-0.02154
0.656,-0.01422
0.66,-0.01102
0.664,-0.00012
0.668,0.0118
0.672,0.00465
0.676,-0.01748
0.68,-0.01515
0.684,0.00254
0.688,0.01937
0.692,-0.02968
0.696,-0.00098
0.7,-0.00438
0.704,0.01371
0.708,-0.01964
0.712,0.00867
0.716,0.01219
0.72,-0.00514
0.724,0.03194
0.728,0.07761
0.732,0.06406
0.736,0.07351
0.74,0.06063
0.744,0.05672
0.748,0.08413
0.752,0.11551
0.756,0.08269
0.76,0.08461
0.764,0.05556
0.768,0.04489
0.772,0.05511
0.776,0.00215
0.78,0.02019
0.784,0.01235
0.788,0.01141
0.792,-0.01352
0.796,-0.00203
0.8,-0.01505
0.804,-0.02175
0.808,-0.02346
0.812,-0.01304
0.816,-0.02796
0.82,0.01349
0.824,-0.01693
0.828,-0.02006
0.832,-0.03375
0.836,-0.01003
0.84,-0.02326
0.844,0.00934
0.848,-0.02025
0.852,-0.00987
0.856,-0.05221
0.86,-0.03213
0.864,-0.07736
0.868,-0.07231
0.872,-0.11586
0.876,-0.12133
0.88,-0.06403
0.884,0.03415
0.888,0.17323
0.892,0.40423
0.896,0.60805
0.9,0.805
0.904,0.95274
0.908,0.97535
0.912,0.94334
0.916,0.74905
0.92,0.49704
0.924,0.29325
0.928,0.09518
0.932,-0.06945
0.936,-0.14547
0.94,-0.17847
0.944,-0.16054
0.948,-0.14889
0.952,-0.09828
0.956,-0.07459
0.96,-0.04232
0.964,-0.01948
0.968,-0.02996
0.972,-0.0177
0.976,-0.02331
0.98,-0.01762
0.984,-0.02982
0.988,-0.02411
0.992,-0.01797
0.996,-0.02763
1.0,-0.02728
1.004,-0.02662
1.008,-0.0101
1.012,-0.00788
1.016,-0.03965
1.02,-0.02299
1.024,-0.03367
1.028,-0.04407
1.032,-0.00135
1.036,-0.01922
1.04,-0.02343
1.044,-0.03886
1.048,-0.04129
1.052,-0.02101
1.056,-0.00557
1.06,-0.01952
1.064,-0.02608
1.068,0.00513
1.072,-0.02541
1.076,0.00934
1.08,0.01969
1.084,-0.04042
1.088,-0.00192
1.092,-4e-05
1.096,0.02371
1.1,-0.00321
1.104,0.01411
1.108,0.00449
1.112,0.01252
1.116,0.02943
1.12,0.04101
1.124,0.07067
1.128,0.07405
1.132,0.07795
1.136,0.09819
1.14,0.0793
1.144,0.1193
1.148,0.14268
1.152,0.10738
1.156,0.14571
1.16,0.14681
1.164,0.16861
1.168,0.1613
1.172,0.19654
1.176,0.21007
1.18,0.18281
1.184,0.16973
1.188,0.22061
1.192,0.20159
1.196,0.19151
1.2,0.20397
1.204,0.17886
1.208,0.17681
1.212,0.14739
1.216,0.1531
1.22,0.11402
1.224,0.13549
1.228,0.12895
1.232,0.11484
1.236,0.10719
1.24,0.05708
1.244,0.06318
1.248,0.05957
1.252,0.06384
1.256,0.06885
1.26,0.00558
1.264,-0.01434
1.268,0.02125
1.272,0.01793
1.276,0.02939
1.28,0.00118
1.284,-0.00112
1.288,0.02443
1.292,-0.0182
1.296,-0.00682
1.3,-0.05082
1.304,-0.03846
1.308,-0.01843
1.312,-0.01853
1.316,-0.01804
1.32,-0.0371
1.324,-0.01743
1.328,-0.05267
1.332,-0.01414
1.336,-0.02639
1.34,-0.02659
1.344,-0.03075
1.348,-0.01631
1.352,-0.02188
1.356,-0.00728
1.36,-0.04397
1.364,-0.01892
1.368,-0.04961
1.372,-0.02504
1.376,-0.03847
1.38,-0.03247
1.384,-0.01701
1.388,-0.02903
1.392,-0.02393
1.396,-0.02986
1.4,-0.03576
1.404,-0.02665
1.408,-0.02852
1.412,-0.03061
1.416,-0.00299
1.42,-0.01707
1.424,-0.01829
1.428,-0.03479
1.432,-0.00175
1.436,-0.00883
1.44,0.0157
1.444,-0.02938
1.448,-0.03299
1.452,-0.03569
1.456,-0.03061
1.46,0.0087
1.464,-0.02636
1.468,-0.04727
1.472,-0.05485
1.476,-0.01318
1.48,-0.0184
1.484,-0.0097
1.488,-0.03429
1.492,-0.01165
1.496,-0.03861
1.5,-0.0163
1.504,-0.03513
1.508,-0.04939
1.512,-0.04813
1.516,-0.05405
1.52,-0.04806
1.524,-0.02198
1.528,-0.02887
1.532,-0.03126
1.536,-0.00038
1.54,-0.00507
1.544,-0.00607
1.548,0.04723
1.552,0.066
1.556,0.06442
1.56,0.05849
1.564,0.0731
1.568,0.06609
1.572,0.07205
1.576,0.0789
1.58,0.04663
1.584,0.02986
1.588,0.04689
1.592,0.02032
1.596,0.01992
1.6,-0.00772
1.604,0.00077
1.608,0.01222
1.612,-0.03949
1.616,-0.00286
1.62,-0.01187
1.624,-0.04013
1.628,-0.00211
1.632,-0.03353
1.636,-0.01047
1.64,-0.03196
1.644,-0.03693
1.648,-0.02028
1.652,-0.03208
1.656,-0.02499
1.66,-0.01494
1.664,-0.02373
1.668,-0.04347
1.672,-0.04179
1.676,-0.00538
1.68,-0.00078
1.684,-0.0506
1.688,-0.10214
1.692,-0.10922
1.696,-0.12761
1.7,-0.11161
1.704,-0.0532
1.708,0.06661
1.712,0.28545
1.716,0.49243
1.72,0.73052
1.724,0.86519
1.728,0.95969
1.732,0.93439
1.736,0.81819
1.74,0.60066
1.744,0.38088
1.748,0.15335
1.752,-0.02057
1.756,-0.1326
1.76,-0.19591
1.764,-0.17913
1.768,-0.16465
1.772,-0.10852
1.776,-0.08472
1.78,-0.06432
1.784,-0.04548
1.788,-0.05999
1.792,-0.04275
1.796,-0.03011
1.8,-0.03027
1.804,-0.04122
1.808,-0.06016
1.812,-0.02252
1.816,-0.02354
1.82,-0.05637
1.824,-0.04766
1.828,-0.0326
1.832,-0.00707
1.836,-0.0178
1.84,-0.03861
1.844,-0.01168
1.848,-0.0216
1.852,-0.01573
1.856,-0.01842
1.86,-0.03246
1.864,-0.02006
1.868,-0.03696
1.872,-0.01182
1.876,-0.04084
1.88,-0.07006
1.884,-0.04094
1.888,-0.02265
1.892,-0.01983
1.896,-0.02183
1.9,-0.02096
1.904,0.0004
1.908,-0.00777
1.912,-0.00616
1.916,0.01508
1.92,-0.00472
1.924,0.02685
1.928,0.01034
1.932,-0.02053
1.936,0.02838
1.94,0.01359
1.944,0.02365
1.948,0.02881
1.952,0.04279
1.956,0.07393
1.96,0.09324
1.964,0.06864
1.968,0.10438
1.972,0.13775
1.976,0.12388
1.98,0.1594
1.984,0.17182
1.988,0.1393
1.992,0.18137
1.996,0.15208
2.0,0.17664
2.004,0.18844
2.008,0.18183
2.012,0.17131
2.016,0.18153
2.02,0.17793
2.024,0.14922
2.028,0.155
2.032,0.16667
2.036,0.15505
2.04,0.15942
2.044,0.1772
2.048,0.124
2.052,0.09658
2.056,0.0719
2.06,0.10917
2.064,0.11099
2.068,0.05095
2.072,0.07054
2.076,0.02877
2.08,0.02404
2.084,0.0462
2.088,0.00538
2.092,0.01993
2.096,0.006
2.1,-0.02099
2.104,0.03191
2.108,0.01466
2.112,-0.05859
2.116,-0.02599
2.12,-0.03491
2.124,-0.00096
2.128,-0.01932
2.132,-0.02495
2.136,-0.01927
2.14,-0.03018
2.144,-0.0286
2.148,-0.03983
2.152,-0.02468
2.156,-0.00486
2.16,-0.03461
2.164,-0.02476
2.168,-0.03697
2.172,-0.01685
2.176,-0.01429
2.18,-0.03882
2.184,-0.02977
2.188,-0.0536
2.192,-0.03343
2.196,-0.03979
2.2,-0.03576
2.204,-0.02971
2.208,-0.02813
2.212,-0.02732
2.216,-0.03162
2.22,-0.02114
2.224,-0.05431
2.228,-0.00763
2.232,-0.02629
2.236,-0.00826
2.24,-0.01999
2.244,-0.02375
2.248,-0.04748
2.252,-0.03571
2.256,-0.04538
2.26,-0.03139
2.264,-0.0443
2.268,-0.01858
2.272,-0.02557
2.276,-0.04386
2.28,-0.02444
2.284,-0.02482
2.288,0.00666
2.292,-0.01773
2.296,-0.05916
2.3,-0.00836
2.304,-0.04565
2.308,-0.04234
2.312,-0.06161
2.316,-0.03663
2.32,-0.033
2.324,0.01889
2.328,-0.05901
2.332,-0.04521
2.336,-0.03008
2.34,-0.03885
2.344,-0.03099
2.348,-0.0326
2.352,-0.0215
2.356,-0.04709
2.36,-0.04455
2.364,-0.0259
2.368,-0.04449
2.372,-0.04933
2.376,-0.00814
2.38,-0.0155
2.384,-0.02065
2.388,-0.05974
2.392,-0.02013
2.396,-0.0143
2.4,-0.01153
2.404,0.00675
2.408,0.02246
2.412,0.01916
2.416,0.02722
2.42,0.05379
2.424,0.09197
2.428,0.05123
2.432,0.07733
2.436,0.04407
2.44,0.07936
2.444,0.07877
2.448,0.05119
2.452,0.04466
2.456,0.05418
2.46,0.02503
2.464,0.02554
2.468,0.03042
2.472,0.02167
2.476,-0.00545
2.48,-0.02525
2.484,-0.02821
2.488,-0.02788
2.492,-0.01415
2.496,-0.0176
2.5,-0.01097
2.504,-0.01411
2.508,-0.02109
2.512,-0.04586
2.516,-0.0409
2.52,-0.03331
2.524,-0.03694
2.528,-0.01836
2.532,-0.03046
2.536,-0.02878
2.54,0.01088
2.544,-0.04724
2.548,-0.01879
2.552,-0.03485
2.556,-0.06144
2.56,-0.07692
2.564,-0.12362
2.568,-0.1112
2.572,-0.03267
2.576,0.10111
2.58,0.27651
2.584,0.50959
2.588,0.72132
2.592,0.86586
2.596,0.95197
2.6,0.92269
2.604,0.80921
2.608,0.60446
2.612,0.37812
2.616,0.13651
2.62,-0.00663
2.624,-0.13681
2.628,-0.15846
2.632,-0.16014
2.636,-0.16538
2.64,-0.09994
2.644,-0.0622
2.648,-0.02568
2.652,-0.00911
2.656,-0.02385
2.66,0.0036
2.664,0.00148
2.668,-0.01629
2.672,-0.03694
2.676,-0.02798
2.68,-0.03589
2.684,-0.03509
2.688,-0.00849
2.692,-0.02378
2.696,-0.00371
2.7,-0.02382
2.704,-0.01299
2.708,-0.02273
2.712,-0.01036
2.716,-0.01999
2.72,-0.03023
2.724,-0.02343
2.728,0.01564
2.732,-0.03318
2.736,-0.01175
2.74,-0.00922
2.744,0.01063
2.748,-0.02319
2.752,-0.0176
2.756,0.00615
2.76,-0.02051
2.764,-0.01084
2.768,-0.01307
2.772,-0.02078
2.776,0.02514
2.78,0.01254
2.784,-0.01053
2.788,0.0251
2.792,0.01697
2.796,0.03485
2.8,0.03087
2.804,0.03655
2.808,0.06023
2.812,0.06593
2.816,0.10033
2.82,0.09746
2.824,0.11656
2.828,0.09366
2.832,0.12542
2.836,0.14642
2.84,0.10994
2.844,0.13888
2.848,0.16329
2.852,0.16562
2.856,0.17668
2.86,0.20299
2.864,0.18977
2.868,0.20891
2.872,0.1849
2.876,0.21067
2.88,0.21464
2.884,0.22479
2.888,0.20059
2.892,0.17947
2.896,0.17978
2.9,0.21691
2.904,0.14506
2.908,0.17153
2.912,0.13561
2.916,0.12287
2.92,0.14448
2.924,0.11258
2.928,0.0922
2.932,0.08012
2.936,0.07902
2.94,0.08829
2.944,0.05225
2.948,0.07004
2.952,0.03914
2.956,0.03749
2.96,0.02136
2.964,0.04442
2.968,0.0027
2.972,0.03628
2.976,0.01201
2.98,-0.00628
2.984,0.01886
2.988,0.01925
2.992,-0.03466
2.996,0.00948
3.0,0.00559
3.004,0.00704
3.008,0.00075
3.012,-0.01003
3.016,0.00117
3.02,-0.00323
3.024,-0.02404
3.028,0.02653
3.032,-0.02698
3.036,-0.01811
3.04,-0.02042
3.044,0.00478
3.048,-0.01079
3.052,-0.02302
3.056,-0.01648
3.06,-0.01325
3.064,-0.03354
3.068,-0.01038
3.072,-0.00634
3.076,-0.00498
3.08,-0.01222
3.084,0.00891
3.088,-0.00272
3.092,0.03166
3.096,0.01937
3.1,0.0074
3.104,-0.00405
3.108,-0.01497
3.112,0.02503
3.116,0.04989
3.12,0.06049
3.124,0.06557
3.128,0.096
3.132,0.07818
3.136,0.0839
3.14,0.07811
3.144,0.09223
3.148,0.08182
3.152,0.04395
3.156,0.09723
3.16,0.05335
3.164,0.05978
3.168,0.02642
3.172,0.02164
3.176,0.01884
3.18,0.00058
3.184,-0.00698
3.188,0.0116
3.192,0.01372
3.196,-0.00623
3.2,-0.01395
3.204,-0.00875
3.208,-0.0132
3.212,-0.01409
3.216,-0.00569
3.22,-0.02781
3.224,-0.00205
3.228,-0.00779
3.232,-0.02252
3.236,0.01322
3.24,0.02189
3.244,0.00084
3.248,0.00126
3.252,-0.02181
3.256,-0.01083
3.26,-0.05623
3.264,-0.12093
3.268,-0.13571
3.272,-0.09803
3.276,0.01791
3.28,0.16189
3.284,0.34144
3.288,0.54153
3.292,0.7649
3.296,0.9368
3.3,0.95891
3.304,0.90522
3.308,0.8186
3.312,0.59435
3.316,0.39794
3.32,0.16107
3.324,0.00777
3.328,-0.13915
3.332,-0.1791
3.336,-0.17635
3.34,-0.13358
3.344,-0.08521
3.348,-0.04539
3.352,-0.01377
3.356,-0.00049
3.36,0.012
3.364,-0.02287
3.368,0.01814
3.372,-0.0006
3.376,-0.0258
3.38,0.00277
3.384,0.00736
3.388,-0.02116
3.392,-0.02492
3.396,-0.02509
3.4,-0.01363
3.404,-0.03294
3.408,-0.00689
3.412,-0.00281
3.416,0.00147
3.42,0.01805
3.424,0.01453
3.428,-0.00964
3.432,0.01905
3.436,-0.01842
3.44,0.00489
3.444,0.02455
3.448,-0.01946
3.452,0.01777
3.456,0.02867
3.46,0.00983
3.464,0.03128
3.468,0.01349
3.472,-0.01386
3.476,0.04204
3.48,0.02059
3.484,0.03822
3.488,0.01473
3.492,0.05662
3.496,0.01627
3.5,0.06758
3.504,0.04984
3.508,0.06138
3.512,0.0643
3.516,0.09247
3.52,0.07214
3.524,0.10661
3.528,0.12841
3.532,0.1019
3.536,0.13888
3.54,0.1506
3.544,0.15449
3.548,0.1934
3.552,0.17611
3.556,0.21102
3.56,0.21379
3.564,0.19547
3.568,0.17444
3.572,0.20871
3.576,0.22998
3.58,0.23375
3.584,0.21958
3.588,0.24936
3.592,0.18585
3.596,0.21216
3.6,0.21621
3.604,0.21613
3.608,0.15
3.612,0.17851
3.616,0.16785
3.62,0.14363
3.624,0.15792
3.628,0.13155
3.632,0.11391
3.636,0.10603
3.64,0.1121
3.644,0.07806
3.648,0.06776
3.652,0.06468
3.656,0.04563
3.66,0.05217
3.664,0.0209
3.668,0.06415
3.672,0.03896
3.676,0.00321
3.68,0.02058
3.684,0.00818
3.688,0.00994
3.692,0.00486
3.696,0.01575
3.7,0.02432
3.704,0.02629
3.708,-0.00472
3.712,-0.0051
3.716,0.00181
3.72,-0.00834
3.724,0.00353
3.728,-0.00715
3.732,-0.0021
3.736,0.03176
3.74,-0.01333
3.744,0.02063
3.748,-0.0181
3.752,0.00111
3.756,0.01791
3.76,-0.00816
3.764,0.00284
3.768,-0.01796
3.772,0.01557
3.776,0.01981
3.78,-0.00467
3.784,0.01195
3.788,0.00577
3.792,0.02495
3.796,-0.00191
3.8,-0.01079
3.804,-0.00731
3.808,0.00443
3.812,0.00249
3.816,0.003
3.82,-0.01107
3.824,0.01282
3.828,0.00993
3.832,0.01116
3.836,-0.01524
3.84,0.00155
3.844,0.00966
3.848,0.0079
3.852,-0.00542
3.856,0.03851
3.86,0.01239
3.864,0.02484
3.868,0.02525
3.872,0.02366
3.876,0.06661
3.88,0.05472
3.884,0.08408
3.888,0.09652
3.892,0.10781
3.896,0.10575
3.9,0.1198
3.904,0.1023
3.908,0.11055
3.912,0.11599
3.916,0.10202
3.92,0.09313
3.924,0.07811
3.928,0.07025
3.932,0.0664
3.936,0.04669
3.94,0.03002
3.944,0.04241
3.948,0.02563
3.952,0.02509
3.956,0.04355
3.96,0.01737
3.964,0.0007
3.968,0.00683
3.972,-0.00485
3.976,-0.00299
3.98,0.02848
3.984,-0.00032
3.988,0.01379
3.992,-0.00897
3.996,0.00749
4.0,-0.0064
4.004,0.00881
4.008,-0.00904
4.012,0.03882
4.016,0.01318
4.02,-0.00181
4.024,-0.03761
4.028,-0.04154
4.032,-0.07177
4.036,-0.12497
4.04,-0.07078
4.044,0.09487
4.048,0.22305
4.052,0.40125
4.056,0.63677
4.06,0.8849
4.064,0.99735
4.068,1.01403
4.072,0.88431
4.076,0.74494
4.08,0.4948
4.084,0.28462
4.088,0.0913
4.092,-0.03911
4.096,-0.11827
4.1,-0.16154
4.104,-0.13393
4.108,-0.12027
4.112,-0.06841
4.116,-0.02502
4.12,-0.00933
4.124,-0.01889
4.128,-0.00329
4.132,0.0148
4.136,0.02632
4.14,0.00242
4.144,-0.01121
4.148,0.03743
4.152,0.03284
4.156,0.03132
4.16,0.00101
4.164,0.00324
4.168,0.02913
4.172,0.01312
4.176,0.01878
4.18,0.02591
4.184,0.02228
4.188,0.04135
4.192,0.04537
4.196,0.01304
4.2,0.02748
4.204,0.00017
4.208,0.02996
4.212,0.02249
4.216,0.02453
4.22,0.00575
4.224,-0.0048
4.228,0.02886
4.232,0.01521
4.236,0.04959
4.24,0.03082
4.244,0.00289
4.248,0.03993
4.252,0.03594
4.256,0.06772
4.26,0.04794
4.264,0.01623
4.268,0.05151
4.272,0.06756
4.276,0.0901
4.28,0.10636
4.284,0.11211
4.288,0.13239
4.292,0.12694
4.296,0.11719
4.3,0.14785
4.304,0.1551
4.308,0.18234
4.312,0.17351
4.316,0.20025
4.32,0.19182
4.324,0.22564
4.328,0.24014
4.332,0.22584
4.336,0.2169
4.34,0.24724
4.344,0.2363
4.348,0.21842
4.352,0.24637
4.356,0.2322
4.36,0.25862
4.364,0.19758
4.368,0.22375
4.372,0.21252
4.376,0.21403
4.38,0.19201
4.384,0.15159
4.388,0.17199
4.392,0.13398
4.396,0.12234
4.4,0.14443
4.404,0.1042
4.408,0.10328
4.412,0.09159
4.416,0.08201
4.42,0.09556
4.424,0.10922
4.428,0.05222
4.432,0.06159
4.436,0.06563
4.44,0.05513
4.444,0.03573
4.448,0.025
4.452,0.03388
4.456,0.02708
4.46,0.02533
4.464,0.02913
4.468,0.05632
4.472,0.03211
4.476,0.03791
4.48,0.02397
4.484,0.03063
4.488,0.02699
4.492,0.02043
4.496,0.03167
4.5,0.02622
4.504,0.04664
4.508,0.02042
4.512,0.02047
4.516,0.06182
4.52,0.00723
4.524,0.05463
4.528,0.01442
4.532,0.04826
4.536,0.04476
4.54,0.03126
4.544,0.01665
4.548,0.02815
4.552,0.01787
4.556,0.01875
4.56,0.02952
4.564,0.02457
4.568,0.0247
4.572,0.01959
4.576,0.02136
4.58,0.04875
4.584,0.03937
4.588,0.00194
4.592,0.03481
4.596,0.00554
4.6,0.0347
4.604,0.01513
4.608,0.02948
4.612,0.03422
4.616,0.02881
4.62,0.01951
4.624,0.01931
4.628,0.0317
4.632,0.02875
4.636,-0.0033
4.64,0.03429
4.644,0.01907
4.648,0.00613
4.652,0.01118
4.656,0.04325
4.66,0.03836
4.664,0.01723
4.668,0.02652
4.672,0.03758
4.676,0.02689
4.68,0.06145
4.684,0.06986
4.688,0.06447
4.692,0.06278
4.696,0.06589
4.7,0.10768
4.704,0.11628
4.708,0.08468
4.712,0.11801
4.716,0.1377
4.72,0.10839
4.724,0.12524
4.728,0.11495
4.732,0.12715
4.736,0.11532
4.74,0.07124
4.744,0.03407
4.748,0.07466
4.752,0.06333
4.756,0.02328
4.76,0.0342
4.764,0.03294
4.768,0.0406
4.772,0.02351
4.776,0.0186
4.78,0.03257
4.784,0.01493
4.788,0.03147
4.792,0.0515
4.796,0.00526
4.8,0.03432
4.804,0.01169
4.808,0.04168
4.812,0.02268
4.816,0.03346
4.82,-0.0058
4.824,0.01829
4.828,0.02467
4.832,0.0015
4.836,-0.03359
4.84,-0.06788
4.844,-0.08735
4.848,-0.05037
4.852,-0.01703
4.856,0.09062
4.86,0.25756
4.864,0.45839
4.868,0.71605
4.872,0.87765
4.876,0.99662
4.88,1.02018
4.884,0.92671
4.888,0.78077
4.892,0.53168
4.896,0.28509
4.9,0.10449
4.904,-0.03275
4.908,-0.11241
4.912,-0.10997
4.916,-0.09525
4.92,-0.06407
4.924,-0.03878
4.928,-0.00234
4.932,0.00736
4.936,0.03233
4.94,0.04348
4.944,0.03435
4.948,0.0404
4.952,0.02516
4.956,0.04796
4.96,0.02626
4.964,0.01602
4.968,0.00884
4.972,-0.00602
4.976,0.0205
4.98,0.06472
4.984,0.02895
4.988,0.0367
4.992,0.03998
4.996,0.01963
5.0,0.02778
5.004,0.01346
5.008,-0.00027
5.012,0.04363
5.016,-0.00071
5.02,0.05394
5.024,0.01455
5.028,0.02057
5.032,0.0337
5.036,0.04811
5.04,0.03081
5.044,0.01593
5.048,0.05374
5.052,0.06869
5.056,0.05592
5.06,0.04847
5.064,0.06575
5.068,0.05294
5.072,0.05949
5.076,0.08057
5.08,0.05854
5.084,0.07613
5.088,0.09999
5.092,0.09258
5.096,0.09819
5.1,0.1301
5.104,0.12809
5.108,0.14892
5.112,0.15417
5.116,0.17447
5.12,0.18195
5.124,0.20552
5.128,0.17157
5.132,0.22797
5.136,0.22923
5.14,0.22967
5.144,0.24609
5.148,0.23508
5.152,0.26272
5.156,0.25198
5.16,0.24283
5.164,0.26828
5.168,0.25277
5.172,0.24822
5.176,0.21154
5.18,0.22936
5.184,0.24482
5.188,0.21794
5.192,0.19806
5.196,0.17693
5.2,0.17648
5.204,0.18123
5.208,0.17871
5.212,0.16062
5.216,0.09193
5.22,0.0986
5.224,0.11167
5.228,0.0998
5.232,0.09518
5.236,0.08446
5.24,0.08184
5.244,0.07944
5.248,0.0519
5.252,0.05344
5.256,0.07125
5.26,0.03179
5.264,0.01844
5.268,0.06019
5.272,0.0468
5.276,0.045
5.28,0.01146
5.284,0.03295
5.288,0.03809
5.292,0.05607
5.296,0.0185
5.3,0.01176
5.304,0.05238
5.308,0.0164
5.312,0.03942
5.316,0.01385
5.32,0.04753
5.324,0.02931
5.328,0.00633
5.332,0.03033
5.336,0.0325
5.34,0.01724
5.344,0.0632
5.348,0.03701
5.352,0.0502
5.356,0.04026
5.36,0.06705
5.364,0.07672
5.368,0.05995
5.372,0.09659
5.376,0.08644
5.38,0.08386
5.384,0.11352
5.388,0.13248
5.392,0.10861
5.396,0.12747
5.4,0.12266
5.404,0.10235
5.408,0.13861
5.412,0.09025
5.416,0.09739
5.42,0.10979
5.424,0.06665
5.428,0.03365
5.432,0.06321
5.436,0.02198
5.44,0.02998
5.444,0.02196
5.448,0.03666
5.452,0.01765
5.456,0.02562
5.46,0.0278
5.464,0.0526
5.468,0.0135
5.472,0.05345
5.476,0.02927
5.48,0.0109
5.484,-0.00727
5.488,0.01095
5.492,0.02005
5.496,0.04397
5.5,0.04493
5.504,0.03158
5.508,-0.01295
5.512,-0.00955
5.516,-0.04334
5.52,-0.09259
5.524,-0.08646
5.528,-0.04292
5.532,0.10666
5.536,0.2801
5.54,0.47423
5.544,0.68712
5.548,0.88308
5.552,0.99014
5.556,1.03079
5.56,0.92906
5.564,0.74752
5.568,0.52716
5.572,0.28522
5.576,0.0959
5.58,-0.03998
5.584,-0.10403
5.588,-0.13358
5.592,-0.11891
5.596,-0.08614
5.6,-0.03561
5.604,0.01186
5.608,0.01732
5.612,0.00228
5.616,0.03931
5.62,0.02341
5.624,0.04162
5.628,0.0105
5.632,0.01885
5.636,0.00925
5.64,0.03212
5.644,0.01817
5.648,0.03884
5.652,0.02424
5.656,0.01808
5.66,0.04043
5.664,0.03454
5.668,-0.01295
5.672,0.02812
5.676,0.02593
5.68,0.03672
5.684,0.02397
5.688,0.02296
5.692,-0.0174
5.696,0.02043
5.7,0.04043
5.704,0.02646
5.708,0.01246
5.712,0.04885
5.716,0.03186
5.72,0.03373
5.724,0.03198
5.728,0.04277
5.732,0.05604
5.736,0.03843
5.74,0.03887
5.744,0.05314
5.748,0.0459
5.752,0.069
5.756,0.06693
5.76,0.07488
5.764,0.08488
5.768,0.09253
5.772,0.12096
5.776,0.13119
5.78,0.12663
5.784,0.14935
5.788,0.15116
5.792,0.17714
5.796,0.15867
5.8,0.17089
5.804,0.17046
5.808,0.20931
5.812,0.2311
5.816,0.22749
5.82,0.23995
5.824,0.23378
5.828,0.2067
5.832,0.23708
5.836,0.25418
5.84,0.24455
5.844,0.2387
5.848,0.22041
5.852,0.20794
5.856,0.2241
5.86,0.1925
5.864,0.21041
5.868,0.17572
5.872,0.20147
5.876,0.17829
5.88,0.16331
5.884,0.13789
5.888,0.11452
5.892,0.11759
5.896,0.1313
5.9,0.1104
5.904,0.07231
5.908,0.05491
5.912,0.09649
5.916,0.08055
5.92,0.05975
5.924,0.07449
5.928,0.05411
5.932,0.053
5.936,0.02297
5.94,0.04243
5.944,0.02592
5.948,0.02851
5.952,0.02981
5.956,0.01811
5.96,0.04737
5.964,0.00552
5.968,0.02669
5.972,0.03019
5.976,0.008
5.98,0.02541
5.984,0.02741
5.988,0.03328
5.992,0.00415
5.996,0.02405
6.0,0.01572
6.004,0.0329
6.008,0.00672
6.012,0.04464
6.016,0.04816
6.02,0.0187
6.024,0.01587
6.028,0.03173
6.032,0.0256
6.036,0.02973
6.04,-0.01276
6.044,0.05613
6.048,0.01801
6.052,0.0096
6.056,-0.0014
6.06,0.03389
6.064,0.00676
6.068,0.02517
6.072,0.02069
6.076,0.01369
6.08,0.01495
6.084,0.01165
6.088,0.00806
6.092,0.01496
6.096,0.01822
6.1,0.00841
6.104,0.0142
6.108,-0.01067
6.112,0.01394
6.116,0.0346
6.12,0.03067
6.124,0.02976
6.128,0.0102
6.132,0.00457
6.136,0.01925
6.14,0.01984
6.144,0.00716
6.148,0.02881
6.152,-0.00659
6.156,0.01013
6.16,0.02416
6.164,0.03245
6.168,-0.00829
6.172,-0.00258
6.176,0.04098
6.18,0.01244
6.184,1e-05
6.188,0.06376
6.192,0.06817
6.196,0.03376
6.2,0.0629
6.204,0.07492
6.208,0.08529
6.212,0.09916
6.216,0.11764
6.22,0.11455
6.224,0.10985
6.228,0.09073
6.232,0.08773
6.236,0.09618
6.24,0.10366
6.244,0.07512
6.248,0.06935
6.252,0.0326
6.256,0.02486
6.26,0.03498
6.264,0.05354
6.268,0.02938
6.272,0.02223
6.276,0.03801
6.28,0.0108
6.284,0.01493
6.288,0.00376
6.292,0.02233
6.296,0.03105
6.3,-0.00864
6.304,-0.0123
6.308,0.00046
6.312,-0.00708
6.316,-0.00593
6.32,-0.00606
6.324,0.00926
6.328,-0.00163
6.332,-0.00999
6.336,0.00582
6.34,-0.02011
6.344,-0.03984
6.348,-0.1071
6.352,-0.12113
6.356,-0.0932
6.36,0.02403
6.364,0.1785
6.368,0.37531
6.372,0.59205
6.376,0.80117
6.38,0.96031
6.384,0.99627
6.388,0.98738
6.392,0.81318
6.396,0.57659
6.4,0.35909
6.404,0.15233
6.408,-0.00674
6.412,-0.12881
6.416,-0.17518
6.42,-0.1625
6.424,-0.12244
6.428,-0.08193
6.432,-0.04451
6.436,-0.01928
6.44,-0.00763
6.444,-0.00102
6.448,0.00451
6.452,-0.00168
6.456,0.01823
6.46,0.01271
6.464,0.03077
6.468,0.00363
6.472,0.00299
6.476,0.01139
6.48,0.03088
6.484,0.00641
6.488,-0.00326
6.492,2e-05
6.496,0.01915
6.5,-0.01244
6.504,-9e-05
6.508,-0.01068
6.512,-0.00027
6.516,0.03394
6.52,0.00782
6.524,0.01039
6.528,0.00682
6.532,-0.00692
6.536,0.02464
6.54,-0.00836
6.544,-0.00151
6.548,0.02719
6.552,0.02885
6.556,0.00179
6.56,0.00598
6.564,0.03107
6.568,0.04311
6.572,0.02684
6.576,0.03587
6.58,0.02609
6.584,0.07164
6.588,0.04193
6.592,0.0579
6.596,0.06269
6.6,0.10692
6.604,0.10935
6.608,0.10326
6.612,0.11137
6.616,0.12488
6.62,0.12657
6.624,0.13417
6.628,0.13177
6.632,0.1713
6.636,0.2011
6.64,0.20821
6.644,0.1851
6.648,0.21644
6.652,0.22005
6.656,0.20795
6.66,0.24326
6.664,0.2049
6.668,0.1957
6.672,0.20257
6.676,0.19454
6.68,0.19063
6.684,0.19557
6.688,0.21362
6.692,0.16604
6.696,0.18327
6.7,0.17246
6.704,0.12491
6.708,0.12359
6.712,0.1391
6.716,0.09365
6.72,0.1297
6.724,0.08458
6.728,0.08559
6.732,0.04533
6.736,0.0654
6.74,0.04316
6.744,0.01896
6.748,0.05193
6.752,0.06005
6.756,0.03694
6.76,0.04569
6.764,0.03702
6.768,0.02699
6.772,0.01237
6.776,0.01354
6.78,0.01729
6.784,0.01364
6.788,0.03416
6.792,0.00372
6.796,0.00562
6.8,-0.00196
6.804,0.02565
6.808,0.00706
6.812,-0.03053
6.816,-0.00505
6.82,0.01817
6.824,0.01334
6.828,-0.01872
6.832,-0.01052
6.836,-0.00426
6.84,-0.00023
6.844,0.01955
6.848,0.02456
6.852,0.00618
6.856,0.02961
6.86,0.01429
6.864,0.00581
6.868,0.00803
6.872,0.03036
6.876,0.0302
6.88,0.0415
6.884,0.05046
6.888,0.04491
6.892,0.08252
6.896,0.08648
6.9,0.10503
6.904,0.08723
6.908,0.07276
6.912,0.11667
6.916,0.04816
6.92,0.07588
6.924,0.0564
6.928,0.03608
6.932,0.04658
6.936,-0.00345
6.94,0.02697
6.944,0.01137
6.948,-0.0057
6.952,-0.00038
6.956,0.01854
6.96,-0.01688
6.964,0.01014
6.968,-0.00203
6.972,-0.00515
6.976,0.0036
6.98,-0.03465
6.984,-0.03249
6.988,-0.03657
6.992,-0.00127
6.996,0.00081
7.0,-0.00329
7.004,-0.0266
7.008,-0.00842
7.012,0.00721
7.016,-0.01517
7.02,-0.03373
7.024,-0.04324
7.028,-0.12035
7.032,-0.10293
7.036,-0.09618
7.04,0.001
7.044,0.14252
7.048,0.36583
7.052,0.56659
7.056,0.77424
7.06,0.93268
7.064,0.99674
7.068,0.95346
7.072,0.80582
7.076,0.58249
7.08,0.37298
7.084,0.15056
7.088,-0.02729
7.092,-0.10726
7.096,-0.1869
7.1,-0.12018
7.104,-0.13561
7.108,-0.10041
7.112,-0.05689
7.116,-0.03947
7.12,-0.01486
7.124,-0.01218
7.128,0.00238
7.132,0.0162
7.136,-0.0222
7.14,-0.0185
7.144,0.01224
7.148,-0.0015
7.152,-0.00406
7.156,0.00473
7.16,-0.01281
7.164,0.01414
7.168,0.01581
7.172,-0.01326
7.176,-0.01079
7.18,-0.00608
7.184,0.00923
7.188,0.03242
7.192,-0.03427
7.196,-0.00238
7.2,-0.01349
7.204,0.00205
7.208,-0.00652
7.212,-0.01961
7.216,-0.01845
7.22,0.0005
7.224,-0.00293
7.228,-0.03451
7.232,-0.01261
7.236,-0.00288
7.24,0.01926
7.244,0.01725
7.248,0.01309
7.252,0.02745
7.256,0.00226
7.26,0.02222
7.264,0.02844
7.268,0.04889
7.272,0.04396
7.276,0.06393
7.28,0.04142
7.284,0.06403
7.288,0.08836
7.292,0.14184
7.296,0.10176
7.3,0.11291
7.304,0.14117
7.308,0.1776
7.312,0.16282
7.316,0.15045
7.32,0.16313
7.324,0.1536
7.328,0.20682
7.332,0.22034
7.336,0.19715
7.34,0.19157
7.344,0.19761
7.348,0.18225
7.352,0.22646
7.356,0.20027
7.36,0.19528
7.364,0.18231
7.368,0.18065
7.372,0.17289
7.376,0.14075
7.38,0.14842
7.384,0.13552
7.388,0.1256
7.392,0.10189
7.396,0.09396
7.4,0.10741
7.404,0.08558
7.408,0.05062
7.412,0.0601
7.416,0.03265
7.42,0.04087
7.424,0.02261
7.428,0.02261
7.432,0.01927
7.436,0.00422
7.44,-0.00971
7.444,0.00387
7.448,-0.01063
7.452,-0.01636
7.456,0.00127
7.46,-0.0171
7.464,-0.00099
7.468,-0.02049
7.472,-0.02969
7.476,-0.0083
7.48,-0.02366
7.484,0.02181
7.488,-0.02509
7.492,-0.03111
7.496,-0.00951
7.5,-0.0092
7.504,-0.03257
7.508,0.00455
7.512,-0.01
7.516,-0.01068
7.52,-0.02058
7.524,-0.03525
7.528,-0.03375
7.532,-0.00017
7.536,-0.01809
7.54,-0.01722
7.544,-0.01295
7.548,0.01439
7.552,-0.00012
7.556,-0.00133
7.56,-0.03627
7.564,-0.02451
7.568,-0.01971
7.572,-0.02885
7.576,-0.03364
7.58,-0.05242
7.584,-0.03373
7.588,-0.00899
7.592,-0.01928
7.596,-0.02851
7.6,-0.02537
7.604,0.00337
7.608,0.01154
7.612,-0.01559
7.616,-0.00151
7.62,-0.00086
7.624,0.03577
7.628,0.0274
7.632,0.0264
7.636,0.065
7.64,0.03752
7.644,0.05261
7.648,0.08004
7.652,0.08678
7.656,0.06704
7.66,0.05838
7.664,0.05501
7.668,0.04399
7.672,0.02737
7.676,0.01464
7.68,0.00407
7.684,0.01326
7.688,-0.01777
7.692,-0.02607
7.696,0.00297
7.7,-0.01317
7.704,-0.00897
7.708,-0.03254
7.712,-0.03749
7.716,-0.03564
7.72,0.00691
7.724,-0.01464
7.728,-0.02523
7.732,-0.03601
7.736,0.0071
7.74,-0.03141
7.744,-0.00325
7.748,-0.04355
7.752,-0.03752
7.756,-0.02397
7.76,-0.02216
7.764,-0.06403
7.768,-0.07089
7.772,-0.12892
7.776,-0.13011
7.78,-0.1326
7.784,-0.04522
7.788,0.07585
7.792,0.24341
7.796,0.4965
7.8,0.68813
7.804,0.87864
7.808,0.96615
7.812,0.96421
7.816,0.85979
7.82,0.66533
7.824,0.4473
7.828,0.21067
7.832,-0.02542
7.836,-0.10428
7.84,-0.1927
7.844,-0.18955
7.848,-0.16159
7.852,-0.07763
7.856,-0.0957
7.86,-0.07432
7.864,-0.01994
7.868,-0.0407
7.872,-0.01461
7.876,-0.02804
7.88,-0.03911
7.884,-0.03631
7.888,-0.02648
7.892,-0.01828
7.896,-0.00816
7.9,-0.03436
7.904,-0.01479
7.908,-0.01329
7.912,-0.02359
7.916,-0.02166
7.92,-0.04218
7.924,-0.02308
7.928,-0.00964
7.932,-0.04173
7.936,-0.03491
7.94,-0.03214
7.944,-0.03359
7.948,-0.01413
7.952,-0.04017
7.956,-0.01845
7.96,-0.03022
7.964,0.00776
7.968,0.00458
7.972,-0.00836
7.976,-0.01715
7.98,-0.01415
7.984,-0.0012
7.988,-0.00681
7.992,0.0061
7.996,0.01752
8.0,-0.00298
8.004,0.01071
8.008,0.01474
8.012,0.02268
8.016,0.04394
8.02,0.04453
8.024,0.03526
8.028,0.08046
8.032,0.04739
8.036,0.08576
8.04,0.08825
8.044,0.09444
8.048,0.09952
8.052,0.12402
8.056,0.14291
8.06,0.13855
8.064,0.15707
8.068,0.20068
8.072,0.16937
8.076,0.19029
8.08,0.16386
8.084,0.18727
8.088,0.22497
8.092,0.19627
8.096,0.2088
8.1,0.17156
8.104,0.1643
8.108,0.17222
8.112,0.15318
8.116,0.15177
8.12,0.14347
8.124,0.15532
8.128,0.11111
8.132,0.12034
8.136,0.07394
8.14,0.10082
8.144,0.07205
8.148,0.08576
8.152,0.04943
8.156,0.03175
8.16,0.01949
8.164,0.011
8.168,0.01451
8.172,0.00635
8.176,-0.02002
8.18,-0.00231
8.184,0.01486
8.188,-0.01225
8.192,-0.01231
8.196,-0.01461
8.2,-0.00724
8.204,-0.01737
8.208,-0.01886
8.212,-0.02257
8.216,-0.03894
8.22,-0.01689
8.224,-0.0398
8.228,-0.02139
8.232,-0.03182
8.236,-0.02877
8.24,-0.00953
8.244,-0.01358
8.248,-0.00864
8.252,-0.02865
8.256,-0.03069
8.26,-0.03359
8.264,0.00467
8.268,-0.00333
8.272,-0.0422
8.276,-0.05098
8.28,-0.01629
8.284,-0.02579
8.288,-0.01153
8.292,-0.04662
8.296,-0.03869
8.3,-0.0149
8.304,-0.02613
8.308,-0.03791
8.312,-0.03916
8.316,-0.02572
8.32,-0.03867
8.324,-0.05962
8.328,-0.02079
8.332,-0.0166
8.336,-0.01503
8.34,-0.0371
8.344,-0.03242
8.348,-0.03969
8.352,-0.00296
8.356,-0.01521
8.36,-0.03246
8.364,-0.02467
8.368,-0.01399
8.372,-0.01686
8.376,-0.00227
8.38,0.01138
8.384,0.0488
8.388,0.04798
8.392,0.06687
8.396,0.05765
8.4,0.07824
8.404,0.05731
8.408,0.07349
8.412,0.07613
8.416,0.06205
8.42,0.06711
8.424,0.05113
8.428,0.04418
8.432,0.0192
8.436,0.00865
8.44,-0.02058
8.444,-0.00191
8.448,-0.0013
8.452,0.00773
8.456,0.00644
8.46,-0.04759
8.464,-0.03907
8.468,-0.03651
8.472,-0.03975
8.476,-0.03405
8.48,-0.04298
8.484,-0.03401
8.488,-0.0124
8.492,-0.05558
8.496,-0.02751
8.5,-0.03363
8.504,-0.03247
8.508,-0.02847
8.512,-0.03441
8.516,-0.02059
8.52,-0.04771
8.524,-0.07692
8.528,-0.09449
8.532,-0.14146
8.536,-0.1464
8.54,-0.10227
8.544,0.03295
8.548,0.20423
8.552,0.41787
8.556,0.61868
8.56,0.8074
8.564,0.91203
8.568,0.99029
8.572,0.8335
8.576,0.68284
8.58,0.48056
8.584,0.2742
8.588,0.06845
8.592,-0.08369
8.596,-0.19393
8.6,-0.19761
8.604,-0.18447
8.608,-0.15278
8.612,-0.08089
8.616,-0.07617
8.62,-0.04106
8.624,-0.04029
8.628,-0.03074
8.632,-0.03916
8.636,-0.04496
8.64,-0.02126
8.644,-0.02396
8.648,-0.02939
8.652,-0.04069
8.656,-0.02329
8.66,-0.03458
8.664,-0.05752
8.668,-0.01907
8.672,-0.03828
8.676,-0.05027
8.68,-0.05451
8.684,-0.00872
8.688,-0.02806
8.692,-0.00492
8.696,-0.02477
8.7,-0.04909
8.704,-0.04682
8.708,-0.00961
8.712,-0.03671
8.716,-0.05886
8.72,-0.02223
8.724,-0.02764
8.728,-0.02126
8.732,-0.00293
8.736,-0.04126
8.74,-0.02318
8.744,0.00638
8.748,0.02226
8.752,0.0374
8.756,0.00963
8.76,0.00903
8.764,0.0211
8.768,-0.00167
8.772,0.01818
8.776,0.03852
8.78,0.04407
8.784,0.06951
8.788,0.05839
8.792,0.07333
8.796,0.09307
8.8,0.06858
8.804,0.09539
8.808,0.10887
8.812,0.12916
8.816,0.14599
8.82,0.14219
8.824,0.16924
8.828,0.17213
8.832,0.13772
8.836,0.19085
8.84,0.21317
8.844,0.17932
8.848,0.21105
8.852,0.23556
8.856,0.20046
8.86,0.17912
8.864,0.13663
8.868,0.19018
8.872,0.14698
8.876,0.13662
8.88,0.1144
8.884,0.13096
8.888,0.11807
8.892,0.1342
8.896,0.07745
8.9,0.05533
8.904,0.07696
8.908,0.07134
8.912,0.00735
8.916,0.05734
8.92,0.00508
8.924,0.02358
8.928,0.03551
8.932,0.00772
8.936,0.00777
8.94,0.01092
8.944,-0.0063
8.948,-0.01443
8.952,-0.01694
8.956,0.00953
8.96,-0.03672
8.964,-0.02142
8.968,-0.02967
8.972,-0.02421
8.976,-0.02626
8.98,-0.06578
8.984,0.00375
8.988,-0.03498
8.992,-0.04136
8.996,-0.05654
9.0,-0.02098
9.004,-0.05387
9.008,-0.04256
9.012,-0.02697
9.016,-0.04719
9.02,-0.00554
9.024,-0.04834
9.028,-0.03492
9.032,-0.01302
9.036,-0.02822
9.04,-0.03412
9.044,-0.01747
9.048,-0.00701
9.052,-0.00949
9.056,-0.02149
9.06,-0.0228
9.064,-0.04831
9.068,-0.00196
9.072,-0.01994
9.076,-0.03829
9.08,-0.04231
9.084,-0.01311
9.088,-0.03308
9.092,-0.03413
9.096,-0.01615
9.1,-0.0433
9.104,-0.02913
9.108,-0.02892
9.112,-0.02975
9.116,-0.03396
9.12,-0.02603
9.124,-0.02702
9.128,-0.02246
9.132,-0.00664
9.136,-0.03991
9.14,-0.01926
9.144,-0.03283
9.148,-0.04618
9.152,-0.02794
9.156,-0.01212
9.16,-0.02798
9.164,-0.0347
9.168,-0.02315
9.172,-0.04242
9.176,-0.0114
9.18,-0.04233
9.184,-0.03087
9.188,-0.03972
9.192,-0.02917
9.196,0.00475
9.2,-0.04777
9.204,-0.02482
9.208,-0.03243
9.212,-0.01462
9.216,-0.03706
9.22,-0.00272
9.224,-0.0169
9.228,-0.05902
9.232,-0.02209
9.236,-0.03734
9.24,-0.04353
9.244,-0.03701
9.248,-0.04356
9.252,-0.03018
9.256,-0.01565
9.26,-0.03802
9.264,-0.00969
9.268,-0.02382
9.272,-0.02825
9.276,-0.00187
9.28,-0.03966
9.284,-0.00864
9.288,-0.00022
9.292,-0.00706
9.296,-0.02114
9.3,-0.01264
9.304,-0.03798
9.308,-0.01134
9.312,-0.03226
9.316,-0.02336
9.32,-0.0052
9.324,-0.03104
9.328,0.00288
9.332,-0.04308
9.336,-0.01163
9.34,0.00138
9.344,-0.02077
9.348,0.00847
9.352,0.01588
9.356,0.01012
9.36,0.00989
9.364,0.06712
9.368,0.05767
9.372,0.05578
9.376,0.06825
9.38,0.07106
9.384,0.09752
9.388,0.06132
9.392,0.06822
9.396,0.06891
9.4,0.08305
9.404,0.04762
9.408,0.04239
9.412,0.02235
9.416,0.05572
9.42,-0.00048
9.424,0.00657
9.428,0.0108
9.432,0.02031
9.436,-0.014
9.44,-0.03071
9.444,-0.01459
9.448,-0.01472
9.452,-0.01443
9.456,-0.03035
9.46,-0.00101
9.464,0.00447
9.468,-0.00149
9.472,-0.00869
9.476,-0.02213
9.48,-0.00367
9.484,-0.00633
9.488,-0.04285
9.492,0.01514
9.496,0.00543
9.5,-0.05419
9.504,-0.03058
9.508,-0.07275
9.512,-0.12789
9.516,-0.12246
9.52,-0.12851
9.524,-0.02906
9.528,0.12361
9.532,0.28363
9.536,0.50672
9.54,0.73535
9.544,0.8527
9.548,0.97005
9.552,0.96631
9.556,0.84273
9.56,0.60491
9.564,0.39002
9.568,0.17122
9.572,0.02197
9.576,-0.14118
9.58,-0.19096
9.584,-0.17077
9.588,-0.13918
9.592,-0.10711
9.596,-0.07568
9.6,-0.04046
9.604,-0.0323
9.608,0.00152
9.612,-0.0098
9.616,-0.02861
9.62,-0.02124
9.624,-0.02358
9.628,-0.00468
9.632,-0.00863
9.636,-0.01226
9.64,-0.01149
9.644,-0.01332
9.648,-0.02279
9.652,-0.03479
9.656,-0.01184
9.66,-0.00556
9.664,-0.02508
9.668,0.00251
9.672,0.00316
9.676,-0.04111
9.68,-0.01477
9.684,-0.01542
9.688,-0.0271
9.692,-0.03925
9.696,-0.02326
9.7,0.0193
9.704,-0.01023
9.708,-0.0256
9.712,-0.02802
9.716,7e-05
9.72,0.00632
9.724,-0.00856
9.728,0.00811
9.732,-0.01595
9.736,0.02337
9.74,0.01964
9.744,0.01428
9.748,0.04272
9.752,0.05342
9.756,0.06304
9.76,0.06395
9.764,0.05825
9.768,0.09714
9.772,0.09641
9.776,0.08233
9.78,0.12093
9.784,0.14489
9.788,0.1383
9.792,0.14528
9.796,0.1549
9.8,0.15621
9.804,0.17222
9.808,0.17425
9.812,0.18241
9.816,0.21839
9.82,0.24134
9.824,0.18322
9.828,0.20919
9.832,0.20525
9.836,0.19715
9.84,0.18611
9.844,0.17967
9.848,0.17115
9.852,0.15142
9.856,0.16026
9.86,0.17527
9.864,0.16643
9.868,0.15568
9.872,0.12862
9.876,0.13318
9.88,0.11423
9.884,0.10045
9.888,0.06788
9.892,0.08564
9.896,0.06309
9.9,0.0678
9.904,0.03338
9.908,0.02747
9.912,0.02723
9.916,0.02997
9.92,0.01128
9.924,0.00615
9.928,0.02574
9.932,0.00038
9.936,0.00981
9.94,-0.00181
9.944,0.005
9.948,-0.01102
9.952,0.00479
9.956,-0.03212
9.96,-0.00674
9.964,-0.01051
9.968,-0.00597
9.972,-0.00924
9.976,-0.00127
9.98,-0.01013
9.984,-0.02326
9.988,-0.00071
9.992,-0.00215
9.996,0.0106
