t_seg,ecg_mV
0.0,0.08308
0.004,0.08337
0.008,0.06886
0.012,0.05481
0.016,0.04602
0.02,0.06109
0.024,0.0263
0.028,0.02532
0.032,0.0135
0.036,0.00412
0.04,0.00788
0.044,-0.01613
0.048,0.0227
0.052,-0.00614
0.056,0.00083
0.06,-0.01581
0.064,-0.03443
0.068,0.0002
0.072,-0.01349
0.076,-0.01221
0.08,-0.02088
0.084,-0.01361
0.088,-0.00854
0.092,-0.02235
0.096,-0.00145
0.1,-0.0214
0.104,-0.03817
0.108,-0.02022
0.112,-0.01591
0.116,-0.0358
0.12,-0.06595
0.124,-0.10705
0.128,-0.11418
0.132,-0.1285
0.136,-0.04851
0.14,0.11088
0.144,0.29314
0.148,0.50202
0.152,0.7167
0.156,0.89401
0.16,0.99754
0.164,0.95193
0.168,0.85096
0.172,0.62117
0.176,0.39823
0.18,0.1864
0.184,-0.02226
0.188,-0.10844
0.192,-0.197
0.196,-0.1737
0.2,-0.13597
0.204,-0.13807
0.208,-0.07505
0.212,-0.03023
0.216,-0.03141
0.22,-0.00584
0.224,-0.01396
0.228,-0.0221
0.232,-0.01798
0.236,-0.00804
0.24,-0.02025
0.244,-0.00311
0.248,-0.0282
0.252,-0.00418
0.256,-0.05356
0.26,0.01371
0.264,-0.01864
0.268,-0.05603
0.272,-0.02693
0.276,-0.03522
0.28,-0.00602
0.284,-0.00723
0.288,-0.03061
0.292,-0.01371
0.296,-0.00155
0.3,0.00932
0.304,-0.01649
0.308,-0.00436
0.312,-0.04023
0.316,-0.01034
0.32,-0.04351
0.324,0.00439
0.328,-0.02337
0.332,0.00642
0.336,-0.01631
0.34,0.00217
0.344,-0.00355
0.348,-0.01053
0.352,-0.0037
0.356,-0.00909
0.36,0.03438
0.364,0.02252
0.368,0.04416
0.372,0.04093
0.376,0.04664
0.38,0.08256
0.384,0.10471
0.388,0.09692
0.392,0.10929
0.396,0.13261
0.4,0.12898
0.404,0.10905
0.408,0.13499
0.412,0.17982
0.416,0.16863
0.42,0.16054
0.424,0.18042
0.428,0.18856
0.432,0.21008
0.436,0.20532
0.44,0.20806
0.444,0.16451
0.448,0.18607
0.452,0.19566
0.456,0.15528
0.46,0.18297
0.464,0.20464
0.468,0.15397
0.472,0.17263
0.476,0.1412
0.48,0.11941
0.484,0.11606
0.488,0.12105
0.492,0.08568
0.496,0.07408
0.5,0.08751
0.504,0.08015
0.508,0.02701
0.512,0.02578
0.516,0.06246
0.52,0.0186
0.524,0.03382
0.528,0.02507
0.532,0.00835
0.536,0.02357
0.54,0.00252
0.544,-0.00757
0.548,0.01156
0.552,-0.00356
0.556,0.00631
0.56,7e-05
0.564,-0.00084
0.568,-0.0168
0.572,-0.00607
0.576,-0.01609
0.58,-0.04625
0.584,-0.0116
0.588,-0.02901
0.592,-0.00881
0.596,-0.01775
0.6,-0.04477
0.604,-0.02182
0.608,0.00055
0.612,-0.03853
0.616,-0.02817
0.62,-0.01754
0.624,-0.01726
0.628,-0.00918
0.632,-0.02178
0.636,-0.01891
0.64,0.0025
0.644,-0.03673
0.648,-0.03079
0.652,-0.01831
0.656,-0.03691
0.66,-0.00643
0.664,0.00735
0.668,-0.00992
0.672,-0.02915
0.676,-0.02937
0.68,-0.0209
0.684,-0.03287
0.688,-0.04011
0.692,-0.00767
0.696,-0.01862
0.7,-0.02136
0.704,-0.01183
0.708,-0.0292
0.712,-0.02985
0.716,-0.04593
0.72,-0.02622
0.724,-0.04078
0.728,-0.02085
0.732,-0.02968
0.736,-0.01781
0.74,-0.00441
0.744,-0.01355
0.748,-0.02496
0.752,-0.03951
0.756,-0.02015
0.76,-0.00243
0.764,-0.00877
0.768,-0.03649
0.772,-0.04693
0.776,-0.02814
0.78,-0.03163
0.784,-0.00479
0.788,-0.02993
0.792,-0.03652
0.796,-0.0418
0.8,-0.03014
0.804,-0.04029
0.808,-0.0285
0.812,-0.0373
0.816,-0.04707
0.82,-0.0124
0.824,-0.03969
0.828,-0.05202
0.832,-0.04546
0.836,-0.03999
0.84,-0.04595
0.844,-0.01604
0.848,-0.03534
0.852,-0.04682
0.856,-0.01613
0.86,-0.04845
0.864,-0.03891
0.868,-0.01798
0.872,-0.01491
0.876,-0.04119
0.88,-0.04846
0.884,-0.02421
0.888,-0.04137
0.892,-0.04111
0.896,-0.02678
0.9,-0.02016
0.904,-0.0176
0.908,-0.03057
0.912,-0.01717
0.916,0.01551
0.92,-0.04584
0.924,-0.02079
0.928,-0.03841
0.932,-0.02336
0.936,-0.04542
0.94,-0.03677
0.944,-0.03369
0.948,-0.02223
0.952,-0.00452
0.956,-0.06373
0.96,-0.0264
0.964,-0.02476
0.968,-0.03629
0.972,-0.03994
0.976,-0.00944
0.98,-0.01964
0.984,-0.01207
0.988,0.00733
0.992,0.02957
0.996,0.03114
1.0,0.04278
1.004,0.00045
1.008,0.0849
1.012,0.05181
1.016,0.09395
1.02,0.07895
1.024,0.0603
1.028,0.05751
1.032,0.06899
1.036,0.04512
1.04,0.03272
1.044,0.02797
1.048,-0.00655
1.052,0.00147
1.056,0.00464
1.06,0.00333
1.064,-0.03534
1.068,-0.01751
1.072,-0.01199
1.076,-0.01189
1.08,-0.02252
1.084,-0.00708
1.088,-0.0088
1.092,-0.05369
1.096,-0.02818
1.1,-0.03008
1.104,-0.01748
1.108,-0.02728
1.112,-0.05463
1.116,-0.0259
1.12,-0.03414
1.124,-0.02585
1.128,-0.03779
1.132,-0.04815
1.136,-0.06261
1.14,-0.07528
1.144,-0.1042
1.148,-0.13946
1.152,-0.14765
1.156,-0.03935
1.16,0.09562
1.164,0.28857
1.168,0.51634
1.172,0.72097
1.176,0.88834
1.18,0.96685
1.184,0.93692
1.188,0.77958
1.192,0.59809
1.196,0.37801
1.2,0.15009
1.204,-0.04055
1.208,-0.14775
1.212,-0.20375
1.216,-0.1669
1.22,-0.14934
1.224,-0.13327
1.228,-0.07692
1.232,-0.05925
1.236,-0.01912
1.24,-0.02037
1.244,-0.05525
1.248,-0.03162
1.252,0.00126
1.256,-0.03991
1.26,-0.02372
1.264,-0.03497
1.268,-0.0425
1.272,-0.04949
1.276,-0.03029
1.28,-0.02193
1.284,-0.01283
1.288,-0.04963
1.292,-0.03726
1.296,-0.03763
1.3,-0.02951
1.304,-0.05322
1.308,-0.03452
1.312,-0.0385
1.316,-0.01844
1.32,0.00662
1.324,-0.03509
1.328,-0.02701
1.332,-0.02031
1.336,-0.02941
1.34,-0.02319
1.344,-0.05576
1.348,-0.03495
1.352,-0.01324
1.356,-0.01193
1.36,-0.0021
1.364,0.00672
1.368,-0.00155
1.372,-0.01523
1.376,0.00121
1.38,0.02079
1.384,0.03142
1.388,0.03221
1.392,0.05641
1.396,0.06443
1.4,0.04403
1.404,0.06196
1.408,0.09477
1.412,0.10581
1.416,0.12591
1.42,0.11835
1.424,0.13571
1.428,0.1453
1.432,0.14402
1.436,0.15245
1.44,0.15786
1.444,0.16464
1.448,0.19477
1.452,0.20633
1.456,0.19262
1.46,0.19152
1.464,0.23044
1.468,0.22533
1.472,0.20477
1.476,0.16773
1.48,0.17457
1.484,0.16045
1.488,0.1909
1.492,0.141
1.496,0.12714
1.5,0.11874
1.504,0.11365
1.508,0.0938
1.512,0.08599
1.516,0.07018
1.52,0.07972
1.524,0.03911
1.528,0.0437
1.532,0.0315
1.536,0.02012
1.54,0.00903
1.544,-0.00661
1.548,-0.02265
1.552,-0.00224
1.556,-0.04215
1.56,0.00341
1.564,-0.01104
1.568,0.01292
1.572,0.00419
1.576,-0.02868
1.58,-0.01875
1.584,-0.01276
1.588,-0.02356
1.592,-0.00451
1.596,-0.00057
1.6,-0.02649
1.604,-0.03209
1.608,-0.02021
1.612,-0.02255
1.616,-0.00194
1.62,-0.03177
1.624,-0.02005
1.628,-0.02074
1.632,-0.03475
1.636,-0.03805
1.64,-0.03546
1.644,-0.03759
1.648,-0.02082
1.652,-0.03857
1.656,-0.00435
1.66,-0.02963
1.664,-0.01924
1.668,-0.03253
1.672,-0.04347
1.676,-0.02508
1.68,-0.03648
1.684,-0.03872
1.688,-0.02618
1.692,-0.04844
1.696,0.00465
1.7,-0.01583
1.704,-0.01108
1.708,-0.02109
1.712,-0.02903
1.716,-0.01132
1.72,0.0044
1.724,-0.00766
1.728,0.00519
1.732,-0.04673
1.736,-0.03708
1.74,-0.01397
1.744,-0.02589
1.748,-0.01874
1.752,-0.03917
1.756,-0.01632
1.76,-0.01201
1.764,-0.00716
1.768,-0.0277
1.772,-0.01492
1.776,-0.01221
1.78,-0.00027
1.784,-0.01679
1.788,-0.0221
1.792,-0.02473
1.796,-0.02652
1.8,-0.01162
1.804,-0.02386
1.808,-0.02719
1.812,-0.0127
1.816,-0.0362
1.82,-0.02549
1.824,-0.03574
1.828,-0.06334
1.832,-0.01244
1.836,-0.02668
1.84,-0.04139
1.844,-0.02319
1.848,-0.03801
1.852,-0.03225
1.856,-0.00628
1.86,-0.05069
1.864,-0.02637
1.868,-0.01821
1.872,-0.04234
1.876,-0.03811
1.88,-0.02404
1.884,-0.00613
1.888,-0.02517
1.892,-0.01066
1.896,-0.03052
1.9,-0.00833
1.904,-0.00572
1.908,-0.0319
1.912,-0.01895
1.916,-0.00672
1.92,-0.03128
1.924,-0.03572
1.928,0.00295
1.932,-0.02222
1.936,-0.00631
1.94,-0.06816
1.944,-0.02176
1.948,-0.02757
1.952,-0.02809
1.956,-0.05447
1.96,0.00316
1.964,-0.03519
1.968,-0.03117
1.972,-0.0324
1.976,-0.03316
1.98,-0.01627
1.984,-0.02279
1.988,-0.02344
1.992,0.02844
1.996,0.01612
2.0,0.0377
2.004,0.04608
2.008,0.04941
2.012,0.04752
2.016,0.06914
2.02,0.04855
2.024,0.08026
2.028,0.1031
2.032,0.08318
2.036,0.03713
2.04,0.05067
2.044,0.05221
2.048,0.02786
2.052,0.01267
2.056,0.0149
2.06,-0.01664
2.064,-0.00991
2.068,-0.0159
2.072,-0.03627
2.076,-0.0257
2.08,-0.03684
2.084,-0.02311
2.088,-0.01029
2.092,-0.03366
2.096,-0.05161
2.1,-0.03063
2.104,-0.0164
2.108,-0.03303
2.112,-0.01856
2.116,-0.00152
2.12,-0.02165
2.124,-0.01156
2.128,-0.04529
2.132,-0.02673
2.136,-0.01548
2.14,-0.05713
2.144,-0.07074
2.148,-0.11656
2.152,-0.13353
2.156,-0.12838
2.16,-0.06914
2.164,0.07416
2.168,0.26266
2.172,0.43974
2.176,0.64416
2.18,0.8524
2.184,1.00135
2.188,0.9368
2.192,0.85975
2.196,0.66673
2.2,0.45593
2.204,0.22363
2.208,0.02749
2.212,-0.12942
2.216,-0.16898
2.22,-0.16408
2.224,-0.14514
2.228,-0.10746
2.232,-0.04739
2.236,-0.04914
2.24,-0.03968
2.244,-0.02973
2.248,-0.02617
2.252,-0.02092
2.256,-0.01262
2.26,-0.02284
2.264,-0.01725
2.268,0.00064
2.272,-0.02418
2.276,-0.03321
2.28,-0.00848
2.284,-0.05363
2.288,-0.01014
2.292,0.00541
2.296,-0.0126
2.3,0.00185
2.304,-0.03825
2.308,-0.02679
2.312,-0.05019
2.316,-0.02419
2.32,-0.00992
2.324,-0.01716
2.328,-0.0296
2.332,0.00317
2.336,-0.0147
2.34,-0.02187
2.344,-0.02783
2.348,-0.01641
2.352,0.01092
2.356,-0.00167
2.36,0.01986
2.364,0.00833
2.368,0.01773
2.372,0.00483
2.376,0.03605
2.38,0.00435
2.384,0.01574
2.388,0.01728
2.392,0.04675
2.396,0.02206
2.4,0.07204
2.404,0.06312
2.408,0.10284
2.412,0.08962
2.416,0.08724
2.42,0.15185
2.424,0.13261
2.428,0.12842
2.432,0.15228
2.436,0.19407
2.44,0.18027
2.444,0.17738
2.448,0.19415
2.452,0.19445
2.456,0.19972
2.46,0.21071
2.464,0.21571
2.468,0.2009
2.472,0.17526
2.476,0.20237
2.48,0.20312
2.484,0.17465
2.488,0.20114
2.492,0.17635
2.496,0.17049
2.5,0.16459
2.504,0.14413
2.508,0.12337
2.512,0.11416
2.516,0.12463
2.52,0.1109
2.524,0.10442
2.528,0.07929
2.532,0.05383
2.536,0.05963
2.54,0.03687
2.544,0.03902
2.548,0.03771
2.552,0.04141
2.556,0.00403
2.56,-0.00165
2.564,0.03333
2.568,0.02887
2.572,0.02083
2.576,0.00126
2.58,0.01385
2.584,-0.01307
2.588,0.00431
2.592,-0.01026
2.596,-0.00758
2.6,0.00167
2.604,-0.00057
2.608,0.00183
2.612,-0.00791
2.616,-0.01571
2.62,0.00155
2.624,0.00677
2.628,-0.01216
2.632,-0.0109
2.636,0.00215
2.64,0.01443
2.644,0.03592
2.648,-0.01917
2.652,-0.007
2.656,-0.01083
2.66,0.01256
2.664,0.00227
2.668,-0.04287
2.672,0.00114
2.676,0.00556
2.68,-0.01709
2.684,0.00821
2.688,0.01026
2.692,0.00648
2.696,-0.00304
2.7,-0.00453
2.704,-0.01296
2.708,-0.00812
2.712,-0.03814
2.716,0.00073
2.72,0.004
2.724,-0.01634
2.728,-0.01151
2.732,-0.01154
2.736,0.00026
2.74,-0.00434
2.744,0.01215
2.748,-0.00854
2.752,-0.01485
2.756,-0.02717
2.76,0.005
2.764,-0.0043
2.768,-0.00066
2.772,-0.01798
2.776,-0.00727
2.78,0.00798
2.784,0.01192
2.788,-0.00865
2.792,-0.00773
2.796,0.00182
2.8,0.02789
2.804,-0.01449
2.808,-0.02032
2.812,0.00927
2.816,-0.00357
2.82,0.00519
2.824,-0.0024
2.828,0.03231
2.832,-0.00727
2.836,0.0063
2.84,-0.01843
2.844,0.00176
2.848,-0.01473
2.852,-0.00055
2.856,-0.00256
2.86,0.02087
2.864,-0.01191
2.868,0.02604
2.872,-0.02192
2.876,0.01147
2.88,-0.00081
2.884,0.00233
2.888,-0.01941
2.892,0.00011
2.896,0.00823
2.9,0.03991
2.904,0.02656
2.908,0.06088
2.912,0.05725
2.916,0.07474
2.92,0.07843
2.924,0.08613
2.928,0.07784
2.932,0.11453
2.936,0.0862
2.94,0.0992
2.944,0.09683
2.948,0.05882
2.952,0.08782
2.956,0.04013
2.96,0.02766
2.964,0.04677
2.968,0.0268
2.972,-0.00378
2.976,-0.00332
2.98,0.03545
2.984,0.0126
2.988,0.03422
2.992,0.01928
2.996,0.00334
3.0,0.01773
3.004,-0.01652
3.008,-0.0149
3.012,-0.00613
3.016,0.01256
3.02,0.00171
3.024,0.01432
3.028,0.02918
3.032,0.01052
3.036,0.00378
3.04,0.02104
3.044,-0.03544
3.048,0.027
3.052,-0.035
3.056,-0.05848
3.06,-0.11503
3.064,-0.1018
3.068,-0.04852
3.072,0.08572
3.076,0.22956
3.08,0.43252
3.084,0.68221
3.088,0.85746
3.092,0.95951
3.096,1.01204
3.1,0.91493
3.104,0.72906
3.108,0.52249
3.112,0.26949
3.116,0.09379
3.12,-0.06444
3.124,-0.18407
3.128,-0.17128
3.132,-0.12034
3.136,-0.11182
3.14,-0.08936
3.144,-0.00792
3.148,-0.0169
3.152,0.00294
3.156,0.00901
3.16,-0.0061
3.164,0.00721
3.168,-0.02529
3.172,0.02741
3.176,0.02402
3.18,0.01574
3.184,-0.00291
3.188,0.01601
3.192,0.01161
3.196,0.03182
3.2,-0.00301
3.204,0.02245
3.208,0.0286
3.212,-0.01115
3.216,0.01602
3.22,0.03805
3.224,0.01203
3.228,0.00958
3.232,0.03501
3.236,-0.00925
3.24,0.00353
3.244,0.02213
3.248,0.04303
3.252,0.00129
3.256,0.04586
3.26,0.00562
3.264,0.0052
3.268,0.04593
3.272,0.04413
3.276,0.02203
3.28,0.04833
3.284,0.0535
3.288,0.07254
3.292,0.02742
3.296,0.08561
3.3,0.05385
3.304,0.06471
3.308,0.09273
3.312,0.10307
3.316,0.08651
3.32,0.11232
3.324,0.1284
3.328,0.13825
3.332,0.15272
3.336,0.18277
3.34,0.16478
3.344,0.17759
3.348,0.19926
3.352,0.21801
3.356,0.19538
3.36,0.23218
3.364,0.25946
3.368,0.2277
3.372,0.23954
3.376,0.23318
3.38,0.25631
3.384,0.23741
3.388,0.2088
3.392,0.20979
3.396,0.21832
3.4,0.21042
3.404,0.1793
3.408,0.2021
3.412,0.14748
3.416,0.15984
3.42,0.13974
3.424,0.1356
3.428,0.08496
3.432,0.1202
3.436,0.10395
3.44,0.10594
3.444,0.09822
3.448,0.05247
3.452,0.08706
3.456,0.01732
3.46,0.04291
3.464,0.03419
3.468,0.05682
3.472,0.04418
3.476,0.02342
3.48,0.00371
3.484,0.01632
3.488,0.01518
3.492,0.02318
3.496,0.00507
3.5,0.01339
3.504,0.00591
3.508,0.03028
3.512,0.03226
3.516,0.02998
3.52,0.0068
3.524,0.04685
3.528,-0.00216
3.532,0.02804
3.536,0.02022
3.54,0.00603
3.544,0.01589
3.548,-0.01458
3.552,0.01383
3.556,0.01814
3.56,0.02974
3.564,-0.00116
3.568,0.02092
3.572,0.02131
3.576,0.01992
3.58,0.01997
3.584,0.01646
3.588,0.03626
3.592,0.02218
3.596,0.04821
3.6,0.03368
3.604,0.01456
3.608,0.00281
3.612,-0.0067
3.616,0.01321
3.62,0.02975
3.624,0.00797
3.628,0.02815
3.632,0.0319
3.636,0.03975
3.64,0.00488
3.644,0.0143
3.648,0.00514
3.652,0.01348
3.656,0.01643
3.66,0.03069
3.664,0.00997
3.668,0.04334
3.672,0.01823
3.676,0.02294
3.68,0.01471
3.684,0.02714
3.688,0.06851
3.692,0.037
3.696,-0.00437
3.7,0.00751
3.704,0.04233
3.708,0.0375
3.712,0.01165
3.716,0.00951
3.72,0.02135
3.724,0.01418
3.728,0.03138
3.732,0.02519
3.736,0.00987
3.74,-0.00904
3.744,0.01007
3.748,0.04234
3.752,0.03204
3.756,0.03526
3.76,0.02619
3.764,0.0378
3.768,0.0065
3.772,0.00121
3.776,0.00423
3.78,0.0178
3.784,0.02059
3.788,0.01603
3.792,0.05007
3.796,0.03951
3.8,-0.00479
3.804,0.04776
3.808,0.0237
3.812,0.01273
3.816,0.03826
3.82,0.03913
3.824,0.01838
3.828,0.03912
3.832,0.04209
3.836,0.052
3.84,0.07749
3.844,0.05839
3.848,0.07314
3.852,0.09335
3.856,0.09485
3.86,0.10892
3.864,0.11743
3.868,0.15319
3.872,0.11771
3.876,0.11775
3.88,0.11312
3.884,0.09639
3.888,0.08631
3.892,0.10608
3.896,0.06728
3.9,0.06791
3.904,0.05918
3.908,0.03302
3.912,0.03947
3.916,0.007
3.92,0.02923
3.924,0.04267
3.928,0.03945
3.932,0.03577
3.936,0.03245
3.94,0.01857
3.944,0.0147
3.948,0.00036
3.952,0.01706
3.956,0.02834
3.96,0.02012
3.964,0.03131
3.968,0.01858
3.972,0.03281
3.976,0.03328
3.98,0.00774
3.984,0.01384
3.988,-0.01791
3.992,-0.04434
3.996,-0.08908
4.0,-0.09794
4.004,-0.02693
4.008,0.11302
4.012,0.31482
4.016,0.51071
4.02,0.73894
4.024,0.90522
4.028,1.01287
4.032,1.00259
4.036,0.91361
4.04,0.74841
4.044,0.49304
4.048,0.24269
4.052,0.04483
4.056,-0.07312
4.06,-0.10867
4.064,-0.15379
4.068,-0.10613
4.072,-0.06173
4.076,-0.02496
4.08,0.03862
4.084,-0.00381
4.088,0.03205
4.092,0.04705
4.096,0.038
4.1,0.01996
4.104,0.01826
4.108,0.0173
4.112,0.02838
4.116,-0.00164
4.12,0.0115
4.124,0.04679
4.128,0.03348
4.132,0.04126
4.136,0.04712
4.14,0.03486
4.144,0.04948
4.148,0.0191
4.152,0.0297
4.156,0.01938
4.16,0.03558
4.164,0.02432
4.168,0.01778
4.172,0.03042
4.176,0.02776
4.18,0.03014
4.184,0.03469
4.188,0.02729
4.192,0.0301
4.196,0.03611
4.2,0.049
4.204,0.05615
4.208,0.03923
4.212,0.03708
4.216,0.09146
4.22,0.06423
4.224,0.06371
4.228,0.08078
4.232,0.0925
4.236,0.08402
4.24,0.11
4.244,0.10414
4.248,0.10222
4.252,0.09826
4.256,0.1345
4.26,0.14738
4.264,0.14453
4.268,0.17162
4.272,0.21587
4.276,0.19236
4.28,0.19529
4.284,0.22018
4.288,0.22007
4.292,0.23294
4.296,0.23013
4.3,0.23563
4.304,0.22888
4.308,0.24552
4.312,0.25845
4.316,0.22978
4.32,0.25086
4.324,0.20885
4.328,0.23502
4.332,0.23867
4.336,0.18813
4.34,0.21474
4.344,0.20423
4.348,0.17528
4.352,0.14046
4.356,0.15717
4.36,0.16098
4.364,0.13132
4.368,0.13984
4.372,0.09906
4.376,0.12505
4.38,0.13149
4.384,0.11872
4.388,0.0752
4.392,0.08663
4.396,0.08066
4.4,0.07217
4.404,0.04687
4.408,0.03814
4.412,0.05826
4.416,0.02645
4.42,0.03186
4.424,0.03992
4.428,0.04966
4.432,0.04943
4.436,0.00576
4.44,0.03231
4.444,0.01578
4.448,0.02615
4.452,0.04512
4.456,0.03316
4.46,0.01565
4.464,0.04094
4.468,0.03562
4.472,0.01563
4.476,0.01024
4.48,0.02102
4.484,0.05708
4.488,0.00541
4.492,0.01997
4.496,0.02156
4.5,0.01623
4.504,0.02427
4.508,0.0216
4.512,0.02287
4.516,0.03693
4.52,0.05337
4.524,-0.00045
4.528,0.04499
4.532,0.0132
4.536,0.03772
4.54,0.01737
4.544,0.04455
4.548,0.04693
4.552,0.03509
4.556,0.01534
4.56,0.03319
4.564,0.02951
4.568,0.03838
4.572,0.02794
4.576,0.0185
4.58,0.02038
4.584,0.03688
4.588,0.04685
4.592,0.02134
4.596,0.0228
4.6,0.01251
4.604,0.03377
4.608,0.0341
4.612,0.02922
4.616,0.04906
4.62,0.03974
4.624,0.03589
4.628,0.04892
4.632,0.02775
4.636,0.02803
4.64,0.01093
4.644,0.02987
4.648,0.038
4.652,0.0425
4.656,0.04406
4.66,0.04808
4.664,0.02758
4.668,0.02547
4.672,0.03698
4.676,0.01229
4.68,0.0329
4.684,0.05079
4.688,0.01922
4.692,0.0434
4.696,0.02944
4.7,0.0002
4.704,0.05953
4.708,0.01108
4.712,0.01972
4.716,0.07149
4.72,0.03175
4.724,0.01058
4.728,0.03159
4.732,0.03649
4.736,0.02515
4.74,0.04372
4.744,0.05181
4.748,0.05689
4.752,0.06619
4.756,0.0457
4.76,0.07909
4.764,0.09875
4.768,0.09715
4.772,0.1144
4.776,0.12312
4.78,0.11835
4.784,0.13117
4.788,0.12843
4.792,0.11289
4.796,0.12192
4.8,0.12025
4.804,0.08037
4.808,0.07826
4.812,0.0794
4.816,0.04774
4.82,0.04798
4.824,0.06597
4.828,0.06028
4.832,0.03114
4.836,0.03109
4.84,0.03455
4.844,0.03952
4.848,0.03133
4.852,0.05118
4.856,0.02409
4.86,0.03224
4.864,0.02887
4.868,0.0195
4.872,0.01334
4.876,0.04383
4.88,0.02196
4.884,0.00259
4.888,0.03051
4.892,0.02607
4.896,0.04986
4.9,-0.00778
4.904,0.00871
4.908,-0.03776
4.912,-0.05754
4.916,-0.10369
4.92,-0.04105
4.924,0.06649
4.928,0.28716
4.932,0.48107
4.936,0.68502
4.94,0.91187
4.944,0.99489
4.948,1.00268
4.952,0.95205
4.956,0.7644
4.96,0.5065
4.964,0.28885
4.968,0.1127
4.972,-0.05407
4.976,-0.1259
4.98,-0.13751
4.984,-0.11617
4.988,-0.095
4.992,-0.02907
4.996,-0.01375
5.0,0.01714
5.004,0.01051
5.008,0.02354
5.012,0.01224
5.016,0.03153
5.02,0.03343
5.024,0.03877
5.028,0.0354
5.032,0.04053
5.036,0.01571
5.04,0.02073
5.044,0.02116
5.048,0.00979
5.052,0.01892
5.056,0.01428
5.06,-0.00643
5.064,0.00708
5.068,0.02289
5.072,0.03684
5.076,0.05964
5.08,-0.00894
5.084,0.01369
5.088,0.00525
5.092,0.00495
5.096,0.0187
5.1,0.02925
5.104,0.02305
5.108,0.01438
5.112,0.04598
5.116,0.02372
5.12,0.04889
5.124,0.02931
5.128,0.03276
5.132,0.05641
5.136,0.05356
5.14,0.06184
5.144,0.0677
5.148,0.08669
5.152,0.07197
5.156,0.07323
5.16,0.08825
5.164,0.12552
5.168,0.11406
5.172,0.13272
5.176,0.13956
5.18,0.15659
5.184,0.18222
5.188,0.17583
5.192,0.15668
5.196,0.17832
5.2,0.22077
5.204,0.22177
5.208,0.24169
5.212,0.23566
5.216,0.24075
5.22,0.24383
5.224,0.26423
5.228,0.23984
5.232,0.26166
5.236,0.20519
5.24,0.24158
5.244,0.23131
5.248,0.20609
5.252,0.19142
5.256,0.17476
5.26,0.20224
5.264,0.19417
5.268,0.17793
5.272,0.15408
5.276,0.16091
5.28,0.13356
5.284,0.12819
5.288,0.09593
5.292,0.09177
5.296,0.09082
5.3,0.06692
5.304,0.05933
5.308,0.05685
5.312,0.04984
5.316,0.04787
5.32,0.06384
5.324,0.04939
5.328,0.03683
5.332,0.03322
5.336,0.03198
5.34,0.03328
5.344,0.06138
5.348,0.00424
5.352,-0.00732
5.356,0.04503
5.36,0.0107
5.364,0.01845
5.368,0.03253
5.372,0.02213
5.376,0.03148
5.38,0.03011
5.384,0.03293
5.388,0.02106
5.392,0.02573
5.396,0.02053
5.4,0.00763
5.404,0.00783
5.408,0.01514
5.412,0.01146
5.416,0.01581
5.42,0.02432
5.424,0.00605
5.428,0.01141
5.432,0.02267
5.436,-0.00938
5.44,0.01982
5.444,0.02158
5.448,0.02223
5.452,0.00355
5.456,0.03034
5.46,0.00616
5.464,0.01621
5.468,0.00831
5.472,0.00443
5.476,0.02869
5.48,0.04564
5.484,0.03734
5.488,0.01743
5.492,0.03644
5.496,0.01718
5.5,0.0326
5.504,0.01565
5.508,-0.00028
5.512,0.02363
5.516,-0.00095
5.52,0.02382
5.524,0.01418
5.528,0.03974
5.532,0.01032
5.536,0.03587
5.54,0.02755
5.544,0.01774
5.548,0.0072
5.552,0.00219
5.556,0.03188
5.56,0.01195
5.564,0.01872
5.568,0.02496
5.572,-0.01997
5.576,0.00297
5.58,0.02197
5.584,-0.00097
5.588,0.02482
5.592,0.01775
5.596,0.00642
5.6,0.04601
5.604,0.00159
5.608,0.02905
5.612,-0.0013
5.616,0.00961
5.62,0.03382
5.624,0.01188
5.628,0.02698
5.632,0.01512
5.636,0.03329
5.64,0.03816
5.644,0.00501
5.648,-0.00982
5.652,0.03076
5.656,0.00992
5.66,0.01478
5.664,0.03613
5.668,0.02043
5.672,0.03815
5.676,0.01071
5.68,0.00967
5.684,-0.01384
5.688,0.03213
5.692,0.00125
5.696,0.01048
5.7,-0.00383
5.704,0.00436
5.708,-0.0167
5.712,0.01843
5.716,0.03188
5.72,0.01997
5.724,-0.00089
5.728,0.0205
5.732,0.02599
5.736,0.01837
5.74,0.01187
5.744,0.01829
5.748,0.03636
5.752,0.02669
5.756,0.03244
5.76,-0.00057
5.764,0.02911
5.768,-0.00881
5.772,0.01146
5.776,0.01742
5.78,0.00184
5.784,0.00293
5.788,0.02964
5.792,0.00892
5.796,0.00263
5.8,0.01479
5.804,0.01568
5.808,0.01151
5.812,0.02789
5.816,0.0062
5.82,0.00888
5.824,0.00193
5.828,0.02542
5.832,6e-05
5.836,0.01826
5.84,-0.0072
5.844,0.01368
5.848,0.02265
5.852,0.05042
5.856,0.06438
5.86,0.0752
5.864,0.09233
5.868,0.0713
5.872,0.07973
5.876,0.11042
5.88,0.12531
5.884,0.12158
5.888,0.08145
5.892,0.12377
5.896,0.09706
5.9,0.06153
5.904,0.05453
5.908,0.05739
5.912,0.06706
5.916,0.04534
5.92,0.02053
5.924,0.02985
5.928,-0.00107
5.932,0.03124
5.936,0.01338
5.94,0.0176
5.944,0.00598
5.948,-0.00775
5.952,0.0199
5.956,-0.00875
5.96,0.00346
5.964,0.0218
5.968,0.031
5.972,-0.00197
5.976,0.0418
5.98,0.00964
5.984,-0.00347
5.988,-0.01744
5.992,0.02716
5.996,-0.01668
6.0,-0.04596
6.004,-0.07656
6.008,-0.11622
6.012,-0.09688
6.016,-0.03023
6.02,0.10954
6.024,0.25154
6.028,0.52129
6.032,0.70329
6.036,0.9329
6.04,0.97529
6.044,0.9925
6.048,0.8612
6.052,0.69545
6.056,0.43149
6.06,0.23215
6.064,0.02281
6.068,-0.11611
6.072,-0.17599
6.076,-0.1454
6.08,-0.13534
6.084,-0.09558
6.088,-0.06342
6.092,-0.04244
6.096,0.00696
6.1,0.02448
6.104,0.03474
6.108,-3e-05
6.112,-0.00381
6.116,-0.01333
6.12,0.02637
6.124,0.00197
6.128,-0.01452
6.132,-0.01542
6.136,-0.03228
6.14,-0.00245
6.144,0.00132
6.148,-0.00515
6.152,-0.00795
6.156,0.01554
6.16,-0.00758
6.164,-0.03779
6.168,0.00848
6.172,-0.00574
6.176,0.02274
6.18,0.00766
6.184,0.02811
6.188,0.00422
6.192,0.02198
6.196,-0.01476
6.2,-0.00243
6.204,-0.02588
6.208,0.02169
6.212,0.01053
6.216,-0.00532
6.22,0.04042
6.224,0.01195
6.228,0.01544
6.232,0.05596
6.236,0.05752
6.24,0.03925
6.244,0.04864
6.248,0.07514
6.252,0.05879
6.256,0.08716
6.26,0.08788
6.264,0.06956
6.268,0.09751
6.272,0.11023
6.276,0.15576
6.28,0.13042
6.284,0.15031
6.288,0.16766
6.292,0.16644
6.296,0.19401
6.3,0.19145
6.304,0.21661
6.308,0.20576
6.312,0.19984
6.316,0.19058
6.32,0.21557
6.324,0.23003
6.328,0.216
6.332,0.19894
6.336,0.18206
6.34,0.18662
6.344,0.17069
6.348,0.18037
6.352,0.14118
6.356,0.14915
6.36,0.16589
6.364,0.12378
6.368,0.1398
6.372,0.13847
6.376,0.11392
6.38,0.10617
6.384,0.08403
6.388,0.07114
6.392,0.02797
6.396,0.07909
6.4,0.0468
6.404,0.0409
6.408,0.05444
6.412,0.01824
6.416,0.02565
6.42,-0.00866
6.424,-0.00535
6.428,0.03688
6.432,0.00112
6.436,-0.00395
6.44,0.01308
6.444,0.02075
6.448,0.01269
6.452,0.00133
6.456,0.0128
6.46,-0.00699
6.464,-0.00055
6.468,-0.03046
6.472,0.0369
6.476,-0.01163
6.48,-0.0189
6.484,-0.00459
6.488,-0.01211
6.492,-0.01269
6.496,-0.01976
6.5,-0.03468
6.504,-0.00547
6.508,-0.00092
6.512,-0.01173
6.516,0.00756
6.52,-0.02384
6.524,0.00943
6.528,0.0018
6.532,-0.01176
6.536,-0.03415
6.54,-0.02084
6.544,-0.01289
6.548,-0.00059
6.552,-0.02332
6.556,-0.0119
6.56,-0.02212
6.564,0.00584
6.568,-0.01839
6.572,0.00301
6.576,0.00087
6.58,-4e-05
6.584,0.00078
6.588,-0.01142
6.592,-0.01132
6.596,0.00508
6.6,-0.00442
6.604,0.00216
6.608,-0.02016
6.612,0.0086
6.616,-0.02669
6.62,0.00012
6.624,0.00982
6.628,-0.01848
6.632,-0.01073
6.636,-0.01181
6.64,-0.00471
6.644,-0.00195
6.648,-0.01009
6.652,0.015
6.656,-0.00751
6.66,-0.00244
6.664,-0.02278
6.668,-0.007
6.672,-0.02058
6.676,-0.03841
6.68,0.00318
6.684,-0.03054
6.688,-0.05629
6.692,-0.00214
6.696,-0.01174
6.7,-0.01144
6.704,0.01267
6.708,-0.01412
6.712,-0.00179
6.716,-0.00229
6.72,-0.01894
6.724,-0.01627
6.728,-0.03075
6.732,-0.04332
6.736,-0.0031
6.74,0.01735
6.744,-0.03305
6.748,0.01145
6.752,-0.03042
6.756,-0.02025
6.76,-0.02719
6.764,-0.02144
6.768,-0.00095
6.772,-0.03634
6.776,0.00522
6.78,0.01736
6.784,0.03168
6.788,0.00783
6.792,0.02508
6.796,0.05563
6.8,0.01354
6.804,0.06401
6.808,0.07043
6.812,0.08935
6.816,0.06837
6.82,0.06545
6.824,0.11054
6.828,0.07778
6.832,0.0384
6.836,0.06757
6.84,0.04316
6.844,0.0347
6.848,0.02402
6.852,0.00174
6.856,-0.0151
6.86,-0.00987
6.864,0.00362
6.868,-0.03716
6.872,-0.06528
6.876,-0.01514
6.88,-0.02249
6.884,-0.00073
6.888,-0.00397
6.892,-0.04654
6.896,-0.03871
6.9,-0.00658
6.904,-0.01143
6.908,-0.01465
6.912,-0.03907
6.916,-0.0145
6.92,-0.01268
6.924,-0.01922
6.928,-0.02825
6.932,0.00365
6.936,-0.05474
6.94,-0.06781
6.944,-0.13507
6.948,-0.14607
6.952,-0.12957
6.956,-0.01961
6.96,0.13899
6.964,0.30489
6.968,0.51181
6.972,0.74323
6.976,0.90967
6.98,0.9702
6.984,0.92532
6.988,0.8056
6.992,0.61036
6.996,0.3485
7.0,0.13561
7.004,-0.00198
7.008,-0.13869
7.012,-0.16527
7.016,-0.18909
7.02,-0.13377
7.024,-0.11011
7.028,-0.06862
7.032,-0.03915
7.036,-0.00771
7.04,-0.0439
7.044,-0.01394
7.048,0.00217
7.052,0.01147
7.056,-0.04264
7.06,-0.01328
7.064,-0.02211
7.068,-0.00897
7.072,-0.02671
7.076,-0.01431
7.08,0.0009
7.084,-0.01899
7.088,-0.03165
7.092,-0.02156
7.096,-0.0309
7.1,-0.04063
7.104,-0.01394
7.108,-0.01408
7.112,-0.02024
7.116,-0.00516
7.12,-0.04208
7.124,-0.04356
7.128,-0.02735
7.132,-0.03449
7.136,-0.01818
7.14,-0.01233
7.144,-0.0155
7.148,0.02953
7.152,-0.02295
7.156,-0.01608
7.16,0.0138
7.164,0.00132
7.168,-0.00779
7.172,-0.00657
7.176,-0.00768
7.18,0.0408
7.184,0.03395
7.188,0.04598
7.192,0.04311
7.196,0.05197
7.2,0.04823
7.204,0.11457
7.208,0.10769
7.212,0.07831
7.216,0.12028
7.22,0.12515
7.224,0.13848
7.228,0.12617
7.232,0.13696
7.236,0.17021
7.24,0.16143
7.244,0.19886
7.248,0.18319
7.252,0.20367
7.256,0.20371
7.26,0.19182
7.264,0.19792
7.268,0.18609
7.272,0.16848
7.276,0.18825
7.28,0.16509
7.284,0.16618
7.288,0.16653
7.292,0.16233
7.296,0.16453
7.3,0.12064
7.304,0.10243
7.308,0.10102
7.312,0.08026
7.316,0.08033
7.32,0.09101
7.324,0.04999
7.328,0.04729
7.332,0.0464
7.336,0.03424
7.34,0.03688
7.344,0.03937
7.348,0.01963
7.352,-0.01629
7.356,-0.01683
7.36,-0.00792
7.364,-0.0269
7.368,-0.01891
7.372,0.00171
7.376,-0.01447
7.38,-0.03283
7.384,-0.01154
7.388,-0.06191
7.392,-0.00136
7.396,-0.00977
7.4,-0.00387
7.404,-0.02703
7.408,-0.02459
7.412,-0.01038
7.416,-0.03249
7.42,-0.02288
7.424,-0.03049
7.428,-0.01093
7.432,-0.04362
7.436,-0.02256
7.44,-0.02611
7.444,-0.03534
7.448,-0.0617
7.452,-0.01751
7.456,-0.02486
7.46,-0.01547
7.464,-0.02192
7.468,-0.00881
7.472,-0.03446
7.476,0.00016
7.48,-0.02408
7.484,-0.01153
7.488,-0.02696
7.492,-0.02663
7.496,-0.01707
7.5,-0.03367
7.504,-0.04766
7.508,-0.03952
7.512,-0.03034
7.516,-0.01567
7.52,-0.03489
7.524,-0.05633
7.528,-0.03471
7.532,-0.04408
7.536,-0.0428
7.54,-0.03009
7.544,-0.04188
7.548,-0.04077
7.552,-0.00953
7.556,-0.05168
7.56,-0.0237
7.564,-0.03368
7.568,-0.02044
7.572,-0.03318
7.576,-0.04631
7.58,-0.02769
7.584,-0.05757
7.588,-0.02989
7.592,-0.0305
7.596,-0.02764
7.6,-0.02122
7.604,0.00102
7.608,-0.01473
7.612,0.02412
7.616,0.02188
7.62,0.04769
7.624,0.03865
7.628,0.03354
7.632,0.07542
7.636,0.08333
7.64,0.09591
7.644,0.05727
7.648,0.0814
7.652,0.08514
7.656,0.03289
7.66,0.01453
7.664,0.02467
7.668,0.00853
7.672,0.00571
7.676,0.00613
7.68,-0.044
7.684,-0.01183
7.688,-0.02935
7.692,-0.00601
7.696,-0.04394
7.7,-0.04623
7.704,-0.0236
7.708,0.00737
7.712,-0.03389
7.716,-0.04604
7.72,-0.01169
7.724,-0.03013
7.728,-0.03047
7.732,-0.03183
7.736,-0.05393
7.74,-0.02555
7.744,-0.0379
7.748,-0.03243
7.752,-0.02855
7.756,-0.05573
7.76,-0.06996
7.764,-0.13106
7.768,-0.14712
7.772,-0.12278
7.776,-0.04182
7.78,0.13687
7.784,0.32058
7.788,0.52123
7.792,0.73934
7.796,0.92477
7.8,0.95536
7.804,0.89988
7.808,0.7674
7.812,0.55555
7.816,0.34128
7.82,0.13785
7.824,-0.01541
7.828,-0.17611
7.832,-0.19179
7.836,-0.19343
7.84,-0.15284
7.844,-0.12588
7.848,-0.07278
7.852,-0.06855
7.856,-0.03393
7.86,-0.03097
7.864,-0.04116
7.868,-0.05902
7.872,-0.0447
7.876,-0.02879
7.88,-0.01084
7.884,-0.03864
7.888,0.01602
7.892,-0.03894
7.896,-0.04002
7.9,-0.04788
7.904,0.00025
7.908,-0.03956
7.912,-0.02983
7.916,-0.03303
7.92,-0.04286
7.924,-0.0411
7.928,-0.04985
7.932,-0.04531
7.936,-0.01182
7.94,-0.0332
7.944,-0.03358
7.948,-0.04336
7.952,-0.00843
7.956,0.0084
7.96,-0.02019
7.964,-0.03491
7.968,-0.02969
7.972,-0.01316
7.976,0.00412
7.98,-0.01375
7.984,0.03502
7.988,0.01237
7.992,0.00299
7.996,-0.00746
8.0,-0.0095
8.004,0.02214
8.008,0.01573
8.012,0.04948
8.016,0.03467
8.02,0.05851
8.024,0.06749
8.028,0.0366
8.032,0.10792
8.036,0.12546
8.04,0.11131
8.044,0.13116
8.048,0.13166
8.052,0.15714
8.056,0.18912
8.06,0.16536
8.064,0.16937
8.068,0.19385
8.072,0.18708
8.076,0.20357
8.08,0.17209
8.084,0.19196
8.088,0.20787
8.092,0.17154
8.096,0.16669
8.1,0.17396
8.104,0.19016
8.108,0.15196
8.112,0.1275
8.116,0.11911
8.12,0.13802
8.124,0.10766
8.128,0.09033
8.132,0.09445
8.136,0.07339
8.14,0.07094
8.144,0.05079
8.148,0.04362
8.152,0.02535
8.156,0.02685
8.16,0.04294
8.164,0.01696
8.168,0.01125
8.172,-0.01255
8.176,0.00284
8.18,-0.0145
8.184,0.01879
8.188,-0.02353
8.192,-0.00135
8.196,0.00329
8.2,-0.04179
8.204,-0.04391
8.208,-0.02912
8.212,-0.01383
8.216,-0.02613
8.22,-0.04086
8.224,-0.01298
8.228,-0.0136
8.232,-0.00446
8.236,-0.00989
8.24,-0.03418
8.244,-0.01117
8.248,-0.02051
8.252,-0.01882
8.256,-0.01846
8.26,-0.05089
8.264,-0.0345
8.268,-0.01664
8.272,-0.02537
8.276,-0.02076
8.28,-0.00281
8.284,-0.00673
8.288,-0.03022
8.292,-0.05928
8.296,-0.03047
8.3,-0.00572
8.304,-0.0318
8.308,-0.04374
8.312,-0.03979
8.316,-0.03883
8.32,-0.04521
8.324,-0.02751
8.328,-0.0475
8.332,-0.0437
8.336,-0.04194
8.34,-0.04323
8.344,-0.03375
8.348,-0.0368
8.352,-0.06948
8.356,-0.04273
8.36,-0.06347
8.364,-0.02436
8.368,-0.01329
8.372,-0.01751
8.376,-0.04471
8.38,-0.04395
8.384,-0.02408
8.388,-0.01676
8.392,-0.01718
8.396,-0.00022
8.4,-0.04294
8.404,-0.01802
8.408,-0.00788
8.412,-0.04276
8.416,-0.04492
8.42,-0.04664
8.424,-0.04278
8.428,0.01054
8.432,-0.00404
8.436,-0.00318
8.44,-0.05432
8.444,-0.03634
8.448,-0.01856
8.452,-0.01439
8.456,-0.04233
8.46,-0.04474
8.464,-0.03389
8.468,-0.01938
8.472,-0.03384
8.476,-0.01067
8.48,-0.0341
8.484,-0.01444
8.488,-0.02378
8.492,-0.03272
8.496,-0.0207
8.5,-0.01707
8.504,-0.00332
8.508,-0.00597
8.512,0.00557
8.516,0.01534
8.52,0.03091
8.524,0.03277
8.528,0.03674
8.532,0.0676
8.536,0.06463
8.54,0.05531
8.544,0.0791
8.548,0.06766
8.552,0.04802
8.556,0.05185
8.56,0.02627
8.564,0.04238
8.568,3e-05
8.572,0.02626
8.576,0.02331
8.58,-0.04388
8.584,0.01075
8.588,-0.01301
8.592,-0.03093
8.596,-0.01052
8.6,-0.00978
8.604,-0.01532
8.608,-0.05747
8.612,-0.02076
8.616,-0.02131
8.62,-0.01122
8.624,-0.04812
8.628,-0.02507
8.632,-0.02191
8.636,-0.02674
8.64,-0.01753
8.644,-0.00284
8.648,-0.01349
8.652,-0.03289
8.656,-0.03847
8.66,-0.0671
8.664,-0.1031
8.668,-0.13964
8.672,-0.1365
8.676,-0.08125
8.68,0.05663
8.684,0.22391
8.688,0.40375
8.692,0.63638
8.696,0.83423
8.7,0.95204
8.704,0.97856
8.708,0.89685
8.712,0.71581
8.716,0.47022
8.72,0.26453
8.724,0.07194
8.728,-0.10147
8.732,-0.17083
8.736,-0.19204
8.74,-0.16603
8.744,-0.1275
8.748,-0.08308
8.752,-0.03118
8.756,-0.0224
8.76,-0.02005
8.764,-0.03344
8.768,-0.0172
8.772,-0.02134
8.776,-0.02869
8.78,0.00227
8.784,-0.01535
8.788,-0.02741
8.792,-0.03198
8.796,-0.01652
8.8,-0.01382
8.804,-0.02023
8.808,-0.0013
8.812,-0.01366
8.816,-0.03366
8.82,-0.008
8.824,-0.02449
8.828,-0.0159
8.832,-0.01871
8.836,-0.02508
8.84,0.02416
8.844,-0.02966
8.848,-0.00343
8.852,-0.03684
8.856,-0.01745
8.86,-0.01475
8.864,-0.00959
8.868,-0.02418
8.872,-0.02608
8.876,0.01639
8.88,-0.00173
8.884,-0.01877
8.888,0.00142
8.892,0.01706
8.896,0.00096
8.9,0.02755
8.904,0.021
8.908,0.0345
8.912,0.06287
8.916,0.05434
8.92,0.05676
8.924,0.05704
8.928,0.09466
8.932,0.11171
8.936,0.12371
8.94,0.12842
8.944,0.12421
8.948,0.1541
8.952,0.1457
8.956,0.17278
8.96,0.17326
8.964,0.18903
8.968,0.16475
8.972,0.21242
8.976,0.22414
8.98,0.21214
8.984,0.21452
8.988,0.18952
8.992,0.17296
8.996,0.19339
9.0,0.20382
9.004,0.18837
9.008,0.15933
9.012,0.18069
9.016,0.16483
9.02,0.13598
9.024,0.1429
9.028,0.11729
9.032,0.11823
9.036,0.10269
9.04,0.11339
9.044,0.06788
9.048,0.04504
9.052,0.04135
9.056,0.03766
9.06,0.03146
9.064,0.05938
9.068,0.0437
9.072,0.00367
9.076,-0.00927
9.08,0.0067
9.084,0.00908
9.088,-0.00741
9.092,-0.01245
9.096,0.01471
9.1,-0.02897
9.104,-0.00071
9.108,-0.00532
9.112,-0.01627
9.116,-0.01065
9.12,-0.0016
9.124,-0.02709
9.128,-0.00777
9.132,-0.03904
9.136,-0.00275
9.14,-0.01175
9.144,0.01157
9.148,0.00219
9.152,-0.04657
9.156,-0.00718
9.16,-0.02891
9.164,-0.03833
9.168,0.00097
9.172,-0.00086
9.176,-0.03838
9.18,-0.00058
9.184,-0.01557
9.188,0.00255
9.192,-0.01266
9.196,-0.0173
9.2,-0.01065
9.204,-0.00367
9.208,0.00942
9.212,0.02407
9.216,-0.02416
9.22,-0.00672
9.224,-0.01903
9.228,-0.01131
9.232,-0.0128
9.236,-0.00669
9.24,-0.01744
9.244,-0.01199
9.248,-0.01935
9.252,-0.03513
9.256,-0.02137
9.26,-0.03571
9.264,-0.03901
9.268,-0.01442
9.272,0.00707
9.276,-0.01918
9.28,-0.01876
9.284,-0.01426
9.288,0.0138
9.292,-0.00918
9.296,0.00241
9.3,-0.00137
9.304,-0.04439
9.308,-0.0175
9.312,-0.03748
9.316,-0.00547
9.32,0.00878
9.324,-0.01011
9.328,-0.01877
9.332,0.01369
9.336,0.00171
9.34,-0.02984
9.344,-0.0022
9.348,0.01194
9.352,-0.00762
9.356,-0.00191
9.36,0.00142
9.364,0.00108
9.368,-0.01382
9.372,0.02316
9.376,-0.00161
9.38,-0.01604
9.384,-0.04629
9.388,-0.03955
9.392,-0.00695
9.396,0.01415
9.4,0.02753
9.404,-0.00749
9.408,-0.03075
9.412,0.00028
9.416,-0.00851
9.42,-0.00458
9.424,0.00429
9.428,0.00347
9.432,0.01809
9.436,0.01827
9.44,-0.01171
9.444,-0.00824
9.448,0.00316
9.452,0.02892
9.456,0.00803
9.46,-0.01552
9.464,0.01855
9.468,0.01069
9.472,-0.03338
9.476,-0.00243
9.48,-0.00933
9.484,-0.00446
9.488,0.00818
9.492,0.0573
9.496,0.05247
9.5,0.07142
9.504,0.09071
9.508,0.07623
9.512,0.08329
9.516,0.09273
9.52,0.10927
9.524,0.09111
9.528,0.11498
9.532,0.11476
9.536,0.08504
9.54,0.04729
9.544,0.0735
9.548,0.05866
9.552,0.03279
9.556,-2e-05
9.56,0.02442
9.564,-0.00269
9.568,0.0037
9.572,-0.01402
9.576,-0.03211
9.58,-0.01648
9.584,-0.01347
9.588,-0.00487
9.592,-0.02301
9.596,-0.00406
9.6,0.00173
9.604,0.00551
9.608,0.01722
9.612,-0.01392
9.616,-0.00594
9.62,0.00963
9.624,0.00304
9.628,0.03474
9.632,0.00534
9.636,-0.03859
9.64,-0.098
9.644,-0.0891
9.648,-0.10744
9.652,-0.08859
9.656,0.00045
9.66,0.13575
9.664,0.32494
9.668,0.54823
9.672,0.73946
9.676,0.90385
9.68,1.00182
9.684,0.96853
9.688,0.82248
9.692,0.62761
9.696,0.39124
9.7,0.16269
9.704,0.02233
9.708,-0.12302
9.712,-0.14721
9.716,-0.16454
9.72,-0.09833
9.724,-0.09017
9.728,-0.05553
9.732,-0.0068
9.736,0.00604
9.74,0.02021
9.744,-0.01219
9.748,0.03081
9.752,-0.00831
9.756,0.01313
9.76,0.00593
9.764,0.01548
9.768,-0.01587
9.772,0.00114
9.776,0.0069
9.78,0.03144
9.784,-0.0175
9.788,0.016
9.792,-0.0004
9.796,0.00629
9.8,-0.00796
9.804,0.02368
9.808,0.00681
9.812,-0.00669
9.816,0.02794
9.82,0.02194
9.824,0.00846
9.828,-0.0118
9.832,0.01139
9.836,-0.01058
9.84,0.00318
9.844,0.00449
9.848,0.01501
9.852,0.03609
9.856,0.04475
9.86,-0.00217
9.864,-0.00345
9.868,0.04427
9.872,0.0341
9.876,0.04462
9.88,0.06366
9.884,0.05386
9.888,0.06267
9.892,0.07354
9.896,0.07794
9.9,0.09315
9.904,0.10433
9.908,0.14446
9.912,0.11811
9.916,0.1249
9.92,0.16511
9.924,0.15416
9.928,0.16897
9.932,0.19024
9.936,0.19698
9.94,0.21091
9.944,0.2234
9.948,0.21598
9.952,0.23754
9.956,0.24361
9.96,0.25425
9.964,0.21548
9.968,0.23397
9.972,0.21724
9.976,0.22024
9.98,0.22732
9.984,0.20938
9.988,0.21216
9.992,0.2256
9.996,0.1574
