t_seg,ecg_mV
0.0,0.07754
0.004,0.1016
0.008,0.08213
0.012,0.06598
0.016,0.0498
0.02,0.05769
0.024,0.03932
0.028,0.03892
0.032,0.01453
0.036,-0.00098
0.04,0.02137
0.044,-0.02034
0.048,-0.01939
0.052,-0.00764
0.056,-0.00302
0.06,0.01238
0.064,-0.00895
0.068,-0.00594
0.072,0.02171
0.076,-0.01006
0.08,-0.01636
0.084,0.00172
0.088,-0.00466
0.092,-0.01538
0.096,-0.02614
0.1,0.0088
0.104,-0.01254
0.108,-0.03794
0.112,-0.0243
0.116,-0.02367
0.12,-0.04166
0.124,-0.08556
0.128,-0.12172
0.132,-0.10121
0.136,-0.10161
0.14,0.01365
0.144,0.17482
0.148,0.39458
0.152,0.58204
0.156,0.81047
0.16,0.95116
0.164,0.97069
0.168,0.89506
0.172,0.73239
0.176,0.50686
0.18,0.29399
0.184,0.07045
0.188,-0.04026
0.192,-0.14598
0.196,-0.20078
0.2,-0.17721
0.204,-0.16754
0.208,-0.08969
0.212,-0.04648
0.216,-0.02033
0.22,-0.02043
0.224,-0.03736
0.228,0.01041
0.232,-0.0222
0.236,-0.0055
0.24,-0.017
0.244,-0.01388
0.248,-0.02443
0.252,-0.01029
0.256,-0.01439
0.26,-0.00392
0.264,-0.02012
0.268,-0.03344
0.272,-0.0311
0.276,-0.04259
0.28,-0.05301
0.284,-0.00379
0.288,-0.03544
0.292,-0.02473
0.296,-0.00333
0.3,-0.03222
0.304,-0.00339
0.308,-0.00665
0.312,-0.04252
0.316,0.00658
0.32,-0.01687
0.324,-0.00337
0.328,-0.00847
0.332,-0.01365
0.336,0.00682
0.34,-0.02156
0.344,0.01079
0.348,0.0187
0.352,0.0196
0.356,0.03291
0.36,-0.00734
0.364,0.038
0.368,0.00218
0.372,0.0326
0.376,0.05179
0.38,0.02872
0.384,0.07019
0.388,0.08102
0.392,0.08211
0.396,0.12237
0.4,0.1174
0.404,0.09106
0.408,0.14291
0.412,0.15315
0.416,0.18479
0.42,0.16719
0.424,0.1778
0.428,0.17264
0.432,0.17706
0.436,0.17185
0.44,0.17931
0.444,0.20075
0.448,0.20665
0.452,0.21975
0.456,0.20561
0.46,0.17684
0.464,0.19637
0.468,0.13319
0.472,0.16774
0.476,0.12331
0.48,0.14549
0.484,0.13033
0.488,0.10641
0.492,0.12666
0.496,0.07771
0.5,0.06412
0.504,0.06524
0.508,0.0787
0.512,0.06142
0.516,0.06857
0.52,0.04121
0.524,0.00972
0.528,-0.00891
0.532,0.01253
0.536,0.02833
0.54,0.00987
0.544,-0.00251
0.548,-0.01655
0.552,0.02152
0.556,-0.01603
0.56,-0.01928
0.564,-0.0192
0.568,-0.0371
0.572,0.00873
0.576,-0.00543
0.58,-0.01282
0.584,-0.01525
0.588,-0.01631
0.592,-0.00129
0.596,-0.03319
0.6,-0.03778
0.604,-0.03319
0.608,-0.03863
0.612,-0.01737
0.616,-0.03711
0.62,-0.02963
0.624,-0.04262
0.628,-0.02357
0.632,-0.00959
0.636,-0.03209
0.64,-0.02221
0.644,-0.02871
0.648,-0.03504
0.652,-0.04949
0.656,-0.01763
0.66,-0.03058
0.664,-0.01465
0.668,-0.01832
0.672,-0.02218
0.676,-0.02707
0.68,-0.03334
0.684,-0.01975
0.688,-0.04914
0.692,-0.00853
0.696,-0.0365
0.7,-0.01696
0.704,-0.01755
0.708,-0.04929
0.712,-0.02175
0.716,-0.0271
0.72,-0.03291
0.724,-0.02044
0.728,-0.01922
0.732,-0.03813
0.736,-0.03873
0.74,-0.01708
0.744,-0.00908
0.748,-0.02748
0.752,-0.02392
0.756,-0.03832
0.76,-0.04285
0.764,0.00474
0.768,-0.01676
0.772,-0.01885
0.776,0.01026
0.78,-0.02414
0.784,-0.03625
0.788,-0.01581
0.792,0.00208
0.796,0.0026
0.8,0.04957
0.804,0.02253
0.808,0.03962
0.812,0.02742
0.816,0.06936
0.82,0.08105
0.824,0.0687
0.828,0.05617
0.832,0.08333
0.836,0.12521
0.84,0.05338
0.844,0.06031
0.848,0.00964
0.852,0.02123
0.856,0.00672
0.86,-0.00765
0.864,0.0025
0.868,0.00559
0.872,-0.02349
0.876,-0.04693
0.88,-0.02387
0.884,-0.01756
0.888,-0.03468
0.892,-0.00645
0.896,-0.01215
0.9,-0.00826
0.904,0.00246
0.908,-0.03275
0.912,-0.00466
0.916,-0.02285
0.92,-0.02724
0.924,-0.04131
0.928,-0.05287
0.932,-0.03192
0.936,-0.01672
0.94,-0.04109
0.944,-0.06992
0.948,-0.0994
0.952,-0.15993
0.956,-0.1267
0.96,-0.07362
0.964,0.06654
0.968,0.29882
0.972,0.48397
0.976,0.71661
0.98,0.87551
0.984,0.96482
0.988,0.96038
0.992,0.79501
0.996,0.63135
1.0,0.37648
1.004,0.16615
1.008,-0.0291
1.012,-0.13228
1.016,-0.18863
1.02,-0.19184
1.024,-0.15804
1.028,-0.09124
1.032,-0.10222
1.036,-0.04861
1.04,-0.0492
1.044,-0.05085
1.048,-0.04778
1.052,-0.02035
1.056,-0.02209
1.06,-0.02323
1.064,-0.03636
1.068,-0.03057
1.072,-0.01017
1.076,-0.02051
1.08,-0.03863
1.084,-0.02641
1.088,-0.04262
1.092,-0.03748
1.096,0.00384
1.1,-0.04748
1.104,-0.0288
1.108,-0.06
1.112,-0.02241
1.116,-0.01497
1.12,-0.04073
1.124,-0.03126
1.128,-0.02405
1.132,-0.03765
1.136,-0.01783
1.14,-0.009
1.144,-0.02247
1.148,-0.02108
1.152,-0.01167
1.156,-0.00646
1.16,-0.00735
1.164,-0.02592
1.168,0.01178
1.172,-0.00225
1.176,0.00595
1.18,-0.00884
1.184,-0.00497
1.188,0.00868
1.192,0.03224
1.196,0.03616
1.2,0.05766
1.204,0.0513
1.208,0.10699
1.212,0.06178
1.216,0.09445
1.22,0.10925
1.224,0.09818
1.228,0.11487
1.232,0.14283
1.236,0.13301
1.24,0.17513
1.244,0.13447
1.248,0.16324
1.252,0.16625
1.256,0.16243
1.26,0.17842
1.264,0.2005
1.268,0.21231
1.272,0.19581
1.276,0.15558
1.28,0.18119
1.284,0.20883
1.288,0.14492
1.292,0.16413
1.296,0.14756
1.3,0.16407
1.304,0.12894
1.308,0.11064
1.312,0.09647
1.316,0.06471
1.32,0.08096
1.324,0.07085
1.328,0.03488
1.332,0.04979
1.336,-0.00661
1.34,0.00988
1.344,0.01931
1.348,0.03154
1.352,0.00492
1.356,0.00129
1.36,-0.00251
1.364,-0.01
1.368,-0.00632
1.372,-0.0178
1.376,-0.0127
1.38,-0.03446
1.384,-0.03663
1.388,-0.03314
1.392,-0.01739
1.396,-0.03582
1.4,-0.03765
1.404,-0.03076
1.408,-0.05376
1.412,-0.01522
1.416,-0.02422
1.42,-0.04081
1.424,-0.03101
1.428,-0.06009
1.432,-0.01729
1.436,-0.04541
1.44,-0.03662
1.444,-0.02745
1.448,-0.01419
1.452,-0.04906
1.456,-0.03676
1.46,-0.02131
1.464,-0.00334
1.468,-0.04685
1.472,-0.04531
1.476,-0.03671
1.48,-0.0098
1.484,-0.0335
1.488,-0.03404
1.492,-0.02338
1.496,-0.01943
1.5,-0.0426
1.504,-0.01345
1.508,-0.02624
1.512,-0.01582
1.516,-0.02546
1.52,-0.02596
1.524,-0.02144
1.528,-0.00503
1.532,-0.02889
1.536,-0.0267
1.54,-0.01292
1.544,-0.00413
1.548,-0.02671
1.552,-0.03449
1.556,-0.00579
1.56,-0.01837
1.564,-0.04177
1.568,-0.00304
1.572,-0.02681
1.576,-0.00586
1.58,0.03583
1.584,0.00953
1.588,0.03454
1.592,0.03135
1.596,0.05752
1.6,0.07278
1.604,0.04454
1.608,0.07722
1.612,0.03388
1.616,0.04748
1.62,0.07279
1.624,0.03725
1.628,0.02073
1.632,0.02156
1.636,0.00515
1.64,0.01881
1.644,0.01793
1.648,-0.01072
1.652,-0.00328
1.656,-0.01872
1.66,-0.02044
1.664,-0.02979
1.668,-0.02091
1.672,-0.04367
1.676,-0.01101
1.68,-0.02847
1.684,-0.03647
1.688,-0.01028
1.692,-0.00396
1.696,-0.04889
1.7,-0.04218
1.704,-0.03939
1.708,-0.021
1.712,-0.07703
1.716,-0.04036
1.72,-0.03571
1.724,-0.08255
1.728,-0.09777
1.732,-0.13495
1.736,-0.15161
1.74,-0.09586
1.744,2e-05
1.748,0.19105
1.752,0.35386
1.756,0.555
1.76,0.7831
1.764,0.94233
1.768,0.94598
1.772,0.90717
1.776,0.73268
1.78,0.52302
1.784,0.30897
1.788,0.07965
1.792,-0.04172
1.796,-0.15627
1.8,-0.20508
1.804,-0.18594
1.808,-0.11883
1.812,-0.09442
1.816,-0.06817
1.82,-0.03901
1.824,-0.01958
1.828,-0.04364
1.832,0.00489
1.836,-0.01531
1.84,-0.00328
1.844,-0.02371
1.848,-0.02709
1.852,-0.00419
1.856,-0.06507
1.86,-0.03396
1.864,-0.0665
1.868,-0.02362
1.872,-0.02218
1.876,-0.04733
1.88,-0.04738
1.884,-0.03839
1.888,-0.02616
1.892,-0.02737
1.896,-0.01194
1.9,-0.03441
1.904,-0.00196
1.908,-0.01419
1.912,0.0087
1.916,-0.01674
1.92,-0.0068
1.924,-0.04128
1.928,-0.0289
1.932,-0.0268
1.936,0.01594
1.94,0.0198
1.944,-0.01793
1.948,0.01852
1.952,-0.01627
1.956,0.01807
1.96,0.01479
1.964,0.02724
1.968,0.02909
1.972,0.03979
1.976,0.06094
1.98,0.0652
1.984,0.04601
1.988,0.0572
1.992,0.06574
1.996,0.08951
2.0,0.09507
2.004,0.10787
2.008,0.13338
2.012,0.14525
2.016,0.14013
2.02,0.15742
2.024,0.16193
2.028,0.18618
2.032,0.18431
2.036,0.20275
2.04,0.19925
2.044,0.22092
2.048,0.21273
2.052,0.18113
2.056,0.20397
2.06,0.23157
2.064,0.20673
2.068,0.1801
2.072,0.14585
2.076,0.16097
2.08,0.1535
2.084,0.13216
2.088,0.1282
2.092,0.14559
2.096,0.10671
2.1,0.09015
2.104,0.07469
2.108,0.12418
2.112,0.06208
2.116,0.04192
2.12,0.05916
2.124,0.02753
2.128,0.01396
2.132,0.02921
2.136,0.00949
2.14,0.02908
2.144,-0.01066
2.148,0.00319
2.152,-0.02513
2.156,0.00842
2.16,-0.03377
2.164,-0.00477
2.168,-0.01996
2.172,-0.0122
2.176,-0.00506
2.18,-0.0248
2.184,-0.01097
2.188,-0.00786
2.192,-0.00514
2.196,0.00121
2.2,-0.00956
2.204,-0.01501
2.208,-0.00987
2.212,-0.02728
2.216,-0.00387
2.22,-0.01115
2.224,-0.02404
2.228,0.03389
2.232,-0.03067
2.236,-0.00372
2.24,-0.00308
2.244,0.00988
2.248,-0.00471
2.252,0.04839
2.256,0.04099
2.26,0.05465
2.264,0.0428
2.268,0.06702
2.272,0.06722
2.276,0.05766
2.28,0.0806
2.284,0.08383
2.288,0.0758
2.292,0.04139
2.296,0.05343
2.3,0.05732
2.304,0.01543
2.308,0.01731
2.312,0.02102
2.316,-0.00505
2.32,-0.00911
2.324,-0.00123
2.328,-0.0112
2.332,-0.00722
2.336,-0.00742
2.34,-0.01379
2.344,-0.00638
2.348,0.01057
2.352,-0.00343
2.356,-0.01175
2.36,-0.01526
2.364,0.00892
2.368,-0.00061
2.372,-0.02303
2.376,-0.0324
2.38,0.00524
2.384,-0.02726
2.388,-0.01573
2.392,-0.05582
2.396,-0.0056
2.4,-0.06271
2.404,-0.12078
2.408,-0.13733
2.412,-0.08307
2.416,0.05176
2.42,0.20521
2.424,0.40783
2.428,0.62777
2.432,0.83087
2.436,0.95296
2.44,0.96569
2.444,0.93277
2.448,0.73747
2.452,0.5118
2.456,0.28706
2.46,0.08213
2.464,-0.06172
2.468,-0.14285
2.472,-0.18894
2.476,-0.17111
2.48,-0.1256
2.484,-0.07383
2.488,-0.04244
2.492,-0.03219
2.496,0.01816
2.5,0.01422
2.504,-0.02138
2.508,0.00947
2.512,-0.02382
2.516,-0.03063
2.52,-0.03473
2.524,-0.01375
2.528,0.0033
2.532,0.00112
2.536,0.00609
2.54,-0.02151
2.544,-0.00246
2.548,-0.03526
2.552,-0.0135
2.556,-0.00746
2.56,-0.02394
2.564,-0.02299
2.568,-0.02698
2.572,0.00486
2.576,-0.00908
2.58,0.01785
2.584,0.01567
2.588,0.03134
2.592,-0.00662
2.596,-0.02271
2.6,-0.02651
2.604,0.00669
2.608,-0.00165
2.612,0.00067
2.616,0.00327
2.62,-0.00424
2.624,0.0146
2.628,0.03034
2.632,0.01682
2.636,0.0204
2.64,0.06769
2.644,0.06228
2.648,0.0539
2.652,0.08574
2.656,0.0745
2.66,0.08796
2.664,0.09773
2.668,0.12741
2.672,0.12905
2.676,0.13789
2.68,0.14291
2.684,0.17796
2.688,0.1672
2.692,0.19093
2.696,0.19446
2.7,0.20137
2.704,0.20022
2.708,0.1972
2.712,0.21471
2.716,0.20872
2.72,0.19915
2.724,0.20679
2.728,0.17874
2.732,0.21596
2.736,0.18409
2.74,0.20412
2.744,0.1912
2.748,0.1755
2.752,0.15506
2.756,0.14535
2.76,0.11791
2.764,0.12656
2.768,0.11172
2.772,0.11089
2.776,0.09945
2.78,0.11043
2.784,0.07974
2.788,0.05784
2.792,0.07048
2.796,0.03075
2.8,0.04091
2.804,0.02069
2.808,0.02371
2.812,0.04503
2.816,0.00442
2.82,-0.00913
2.824,-0.02066
2.828,0.01127
2.832,0.00093
2.836,0.02211
2.84,0.0181
2.844,0.02771
2.848,0.00939
2.852,0.01256
2.856,-0.01307
2.86,0.0159
2.864,-0.00765
2.868,0.01202
2.872,0.03256
2.876,-0.00818
2.88,-0.01224
2.884,0.00516
2.888,-0.01377
2.892,0.00604
2.896,0.00846
2.9,0.01439
2.904,0.00158
2.908,-0.02269
2.912,0.00163
2.916,0.01594
2.92,0.03417
2.924,-0.00405
2.928,0.02755
2.932,0.0178
2.936,0.04798
2.94,0.02015
2.944,0.05949
2.948,0.08807
2.952,0.08934
2.956,0.0705
2.96,0.10636
2.964,0.10192
2.968,0.09351
2.972,0.10045
2.976,0.11094
2.98,0.08383
2.984,0.0942
2.988,0.07611
2.992,0.07466
2.996,0.05111
3.0,0.04334
3.004,0.03691
3.008,0.0325
3.012,0.02704
3.016,0.03473
3.02,0.02784
3.024,-0.01306
3.028,0.00424
3.032,-0.00281
3.036,-0.00425
3.04,0.01326
3.044,0.02504
3.048,-0.01932
3.052,0.01239
3.056,-0.00146
3.06,0.02512
3.064,-0.00445
3.068,0.01987
3.072,-0.00096
3.076,0.0054
3.08,-0.00143
3.084,-0.01966
3.088,-0.04408
3.092,-0.08103
3.096,-0.13052
3.1,-0.1012
3.104,-0.01985
3.108,0.10814
3.112,0.30961
3.116,0.4885
3.12,0.74282
3.124,0.89427
3.128,1.00846
3.132,1.00702
3.136,0.88372
3.14,0.68684
3.144,0.42914
3.148,0.23078
3.152,0.05511
3.156,-0.09278
3.16,-0.15141
3.164,-0.17521
3.168,-0.0964
3.172,-0.09675
3.176,-0.042
3.18,-0.01921
3.184,-0.00955
3.188,-0.0016
3.192,0.00676
3.196,0.00993
3.2,0.02583
3.204,0.01013
3.208,0.00417
3.212,0.02004
3.216,0.01992
3.22,0.00923
3.224,0.03042
3.228,0.00156
3.232,0.01152
3.236,0.01839
3.24,0.00044
3.244,0.00832
3.248,-0.01902
3.252,0.05506
3.256,-0.00278
3.26,0.01437
3.264,-0.01504
3.268,-0.01636
3.272,0.018
3.276,0.0153
3.28,0.01584
3.284,0.02071
3.288,0.01094
3.292,0.03834
3.296,0.07713
3.3,0.03435
3.304,-0.00655
3.308,0.0434
3.312,0.02871
3.316,0.02301
3.32,0.01882
3.324,0.07356
3.328,0.06289
3.332,0.05669
3.336,0.0498
3.34,0.06583
3.344,0.11569
3.348,0.11606
3.352,0.10039
3.356,0.10882
3.36,0.12244
3.364,0.15114
3.368,0.16158
3.372,0.19463
3.376,0.17831
3.38,0.19694
3.384,0.19567
3.388,0.22564
3.392,0.21538
3.396,0.24613
3.4,0.22465
3.404,0.24224
3.408,0.21312
3.412,0.25703
3.416,0.2447
3.42,0.20893
3.424,0.21259
3.428,0.23055
3.432,0.22221
3.436,0.20385
3.44,0.18615
3.444,0.20011
3.448,0.17132
3.452,0.15399
3.456,0.14265
3.46,0.14617
3.464,0.13199
3.468,0.07782
3.472,0.09941
3.476,0.10687
3.48,0.07169
3.484,0.0672
3.488,0.06979
3.492,0.0521
3.496,0.06202
3.5,0.05587
3.504,0.02136
3.508,0.04918
3.512,0.06722
3.516,0.02126
3.52,0.04176
3.524,0.0397
3.528,0.02777
3.532,0.02447
3.536,0.05123
3.54,0.00363
3.544,0.05743
3.548,0.0124
3.552,0.01507
3.556,-0.00948
3.56,0.01658
3.564,0.02541
3.568,0.02113
3.572,0.02094
3.576,0.02588
3.58,0.03833
3.584,0.02213
3.588,0.0153
3.592,0.02098
3.596,0.01967
3.6,0.01176
3.604,0.00133
3.608,0.00408
3.612,0.0162
3.616,0.00894
3.62,0.00159
3.624,0.01505
3.628,0.0074
3.632,-0.01232
3.636,0.00762
3.64,0.01409
3.644,0.01241
3.648,0.01412
3.652,0.01928
3.656,0.03191
3.66,0.01947
3.664,0.00083
3.668,0.01698
3.672,0.01983
3.676,0.03068
3.68,0.01702
3.684,0.01066
3.688,0.03536
3.692,0.03153
3.696,0.01068
3.7,0.06945
3.704,0.04455
3.708,0.07678
3.712,0.07311
3.716,0.08328
3.72,0.09195
3.724,0.10617
3.728,0.13135
3.732,0.13362
3.736,0.12447
3.74,0.11888
3.744,0.09636
3.748,0.09613
3.752,0.10872
3.756,0.10671
3.76,0.05556
3.764,0.05868
3.768,0.05682
3.772,0.04451
3.776,0.04271
3.78,0.03952
3.784,0.02974
3.788,0.02283
3.792,0.02822
3.796,0.02559
3.8,0.01407
3.804,0.04246
3.808,0.05036
3.812,0.02234
3.816,0.03159
3.82,0.04765
3.824,0.00742
3.828,0.01765
3.832,0.05561
3.836,0.0152
3.84,0.01277
3.844,0.02368
3.848,0.03856
3.852,0.00802
3.856,-0.03409
3.86,-0.06873
3.864,-0.10147
3.868,-0.03729
3.872,0.06925
3.876,0.19355
3.88,0.42054
3.884,0.64575
3.888,0.87051
3.892,0.98272
3.896,1.02384
3.9,0.96018
3.904,0.77638
3.908,0.53279
3.912,0.35093
3.916,0.13773
3.92,-0.01799
3.924,-0.11865
3.928,-0.14286
3.932,-0.1159
3.936,-0.10394
3.94,-0.02955
3.944,-0.0131
3.948,0.01717
3.952,0.0299
3.956,0.02844
3.96,0.04001
3.964,0.05408
3.968,0.04654
3.972,0.03741
3.976,0.02747
3.98,0.01094
3.984,0.02855
3.988,-0.00507
3.992,0.01765
3.996,0.04635
4.0,0.02917
4.004,0.04347
4.008,0.02913
4.012,0.03519
4.016,0.03713
4.02,0.03591
4.024,0.05489
4.028,0.00129
4.032,0.03305
4.036,0.01975
4.04,0.01802
4.044,0.03408
4.048,0.05616
4.052,0.03959
4.056,0.04795
4.06,0.04913
4.064,0.03128
4.068,0.05611
4.072,0.05819
4.076,0.03988
4.08,0.05418
4.084,0.04667
4.088,0.05024
4.092,0.0913
4.096,0.0983
4.1,0.10403
4.104,0.09774
4.108,0.11001
4.112,0.10747
4.116,0.1169
4.12,0.146
4.124,0.14572
4.128,0.16107
4.132,0.18444
4.136,0.19672
4.14,0.19278
4.144,0.19342
4.148,0.20836
4.152,0.22534
4.156,0.24034
4.16,0.23853
4.164,0.25617
4.168,0.23309
4.172,0.22548
4.176,0.2074
4.18,0.21877
4.184,0.25156
4.188,0.20755
4.192,0.22476
4.196,0.21897
4.2,0.21498
4.204,0.21347
4.208,0.20172
4.212,0.17925
4.216,0.20211
4.22,0.15966
4.224,0.15855
4.228,0.13274
4.232,0.12869
4.236,0.12263
4.24,0.12801
4.244,0.11061
4.248,0.09757
4.252,0.09567
4.256,0.10089
4.26,0.0637
4.264,0.08092
4.268,0.06668
4.272,0.07223
4.276,0.0575
4.28,0.02373
4.284,0.02992
4.288,0.02274
4.292,0.04101
4.296,0.02004
4.3,0.01931
4.304,0.02603
4.308,0.05672
4.312,0.01664
4.316,0.03741
4.32,0.02541
4.324,0.03597
4.328,0.0406
4.332,0.05396
4.336,0.01041
4.34,0.05829
4.344,0.05163
4.348,0.03715
4.352,0.02846
4.356,0.02621
4.36,0.02756
4.364,0.04211
4.368,0.03141
4.372,0.02568
4.376,-0.01803
4.38,0.02262
4.384,0.03674
4.388,0.02962
4.392,0.02195
4.396,0.03168
4.4,0.0192
4.404,0.05412
4.408,0.02621
4.412,0.01457
4.416,0.01924
4.42,0.01035
4.424,0.05725
4.428,0.04825
4.432,0.04171
4.436,0.01283
4.44,0.04261
4.444,0.0269
4.448,0.04659
4.452,0.03684
4.456,0.02307
4.46,0.03251
4.464,0.05656
4.468,0.06124
4.472,0.08051
4.476,0.10398
4.48,0.11433
4.484,0.11897
4.488,0.13551
4.492,0.14474
4.496,0.11947
4.5,0.11742
4.504,0.11804
4.508,0.1243
4.512,0.09005
4.516,0.05283
4.52,0.0826
4.524,0.05378
4.528,0.05075
4.532,0.06449
4.536,0.02956
4.54,0.0416
4.544,0.0435
4.548,0.04822
4.552,0.03401
4.556,0.05982
4.56,0.02311
4.564,0.00694
4.568,0.0514
4.572,0.05617
4.576,0.04676
4.58,0.02766
4.584,0.02046
4.588,0.02789
4.592,0.03671
4.596,0.02098
4.6,0.03252
4.604,0.04862
4.608,0.0025
4.612,-0.0186
4.616,-0.0706
4.62,-0.08105
4.624,-0.08052
4.628,-0.01837
4.632,0.12272
4.636,0.30594
4.64,0.50442
4.644,0.73539
4.648,0.90198
4.652,1.02525
4.656,1.01384
4.66,0.90107
4.664,0.72832
4.668,0.51242
4.672,0.29061
4.676,0.06832
4.68,-0.05054
4.684,-0.13926
4.688,-0.12844
4.692,-0.0915
4.696,-0.08901
4.7,-0.0481
4.704,0.00024
4.708,0.01562
4.712,0.02263
4.716,0.02943
4.72,0.02317
4.724,0.00946
4.728,0.01957
4.732,0.02349
4.736,0.03538
4.74,0.03857
4.744,0.03175
4.748,0.02409
4.752,0.02064
4.756,0.01643
4.76,-0.00418
4.764,0.01299
4.768,0.03162
4.772,0.031
4.776,0.03445
4.78,0.01438
4.784,0.015
4.788,0.01188
4.792,0.00914
4.796,0.02956
4.8,0.05022
4.804,0.05965
4.808,0.03148
4.812,0.03982
4.816,0.01603
4.82,0.02908
4.824,0.04145
4.828,0.02212
4.832,0.02753
4.836,0.06032
4.84,0.05833
4.844,0.06721
4.848,0.07649
4.852,0.05998
4.856,0.05545
4.86,0.09651
4.864,0.11804
4.868,0.11186
4.872,0.11634
4.876,0.11166
4.88,0.14491
4.884,0.14805
4.888,0.14551
4.892,0.16582
4.896,0.19201
4.9,0.16105
4.904,0.2051
4.908,0.20485
4.912,0.23392
4.916,0.22255
4.92,0.20906
4.924,0.25611
4.928,0.23147
4.932,0.24505
4.936,0.22723
4.94,0.22119
4.944,0.21813
4.948,0.25011
4.952,0.21549
4.956,0.23097
4.96,0.23662
4.964,0.19297
4.968,0.18185
4.972,0.16916
4.976,0.16391
4.98,0.14474
4.984,0.12469
4.988,0.11421
4.992,0.1109
4.996,0.0942
5.0,0.09501
5.004,0.06796
5.008,0.07713
5.012,0.07964
5.016,0.06613
5.02,0.03861
5.024,0.04905
5.028,0.05744
5.032,0.06322
5.036,0.05455
5.04,0.02973
5.044,0.00981
5.048,0.03313
5.052,0.04605
5.056,0.04092
5.06,0.05147
5.064,0.05349
5.068,0.01771
5.072,0.00772
5.076,0.01308
5.08,0.04097
5.084,0.02242
5.088,0.02167
5.092,0.03065
5.096,0.01403
5.1,0.01129
5.104,0.03025
5.108,0.02668
5.112,0.0273
5.116,0.03637
5.12,0.0362
5.124,0.02052
5.128,0.0125
5.132,0.01821
5.136,0.02467
5.14,0.01944
5.144,0.01986
5.148,0.02436
5.152,0.03688
5.156,0.03389
5.16,0.02586
5.164,0.01966
5.168,0.02322
5.172,0.03176
5.176,0.01712
5.18,0.04485
5.184,0.01008
5.188,0.0076
5.192,0.02333
5.196,0.00825
5.2,0.03245
5.204,0.01522
5.208,0.03755
5.212,0.02869
5.216,0.02267
5.22,0.01804
5.224,0.04508
5.228,0.05797
5.232,0.0675
5.236,0.09616
5.24,0.09658
5.244,0.08926
5.248,0.1326
5.252,0.13708
5.256,0.0955
5.26,0.09235
5.264,0.10935
5.268,0.09969
5.272,0.09128
5.276,0.0995
5.28,0.08714
5.284,0.02826
5.288,0.02366
5.292,0.03595
5.296,0.00096
5.3,0.03082
5.304,0.01568
5.308,0.04394
5.312,-0.00437
5.316,0.02405
5.32,0.00593
5.324,0.02914
5.328,0.03244
5.332,0.03135
5.336,0.01633
5.34,0.00776
5.344,0.04632
5.348,0.02799
5.352,0.02721
5.356,0.01312
5.36,0.01795
5.364,0.00293
5.368,-0.01261
5.372,-0.04601
5.376,-0.10646
5.38,-0.11821
5.384,-0.06058
5.388,0.0126
5.392,0.16197
5.396,0.34171
5.4,0.58054
5.404,0.79854
5.408,0.93984
5.412,1.01136
5.416,0.95055
5.42,0.84419
5.424,0.63313
5.428,0.39006
5.432,0.18453
5.436,0.01974
5.44,-0.09705
5.444,-0.12382
5.448,-0.10826
5.452,-0.11253
5.456,-0.05888
5.46,-0.04397
5.464,-0.02395
5.468,0.02715
5.472,0.01402
5.476,0.00091
5.48,-0.01521
5.484,0.01035
5.488,0.02974
5.492,0.02507
5.496,0.01892
5.5,0.00874
5.504,0.00441
5.508,0.02107
5.512,0.01755
5.516,0.02487
5.52,0.02855
5.524,0.02057
5.528,0.02989
5.532,-0.00343
5.536,0.02799
5.54,0.00369
5.544,0.02119
5.548,0.03626
5.552,-0.00056
5.556,0.00151
5.56,0.0263
5.564,0.01165
5.568,0.00476
5.572,0.02392
5.576,0.0433
5.58,0.04517
5.584,0.03981
5.588,0.01401
5.592,0.02477
5.596,0.06761
5.6,0.03281
5.604,0.01333
5.608,0.05462
5.612,0.03133
5.616,0.0698
5.62,0.06265
5.624,0.08089
5.628,0.10118
5.632,0.12357
5.636,0.12208
5.64,0.15016
5.644,0.1279
5.648,0.1516
5.652,0.15069
5.656,0.18589
5.66,0.16225
5.664,0.19119
5.668,0.173
5.672,0.20921
5.676,0.19798
5.68,0.23072
5.684,0.25657
5.688,0.24677
5.692,0.21476
5.696,0.2278
5.7,0.22526
5.704,0.24981
5.708,0.18526
5.712,0.21759
5.716,0.21309
5.72,0.19489
5.724,0.19513
5.728,0.18616
5.732,0.13307
5.736,0.15945
5.74,0.1329
5.744,0.14774
5.748,0.12635
5.752,0.09475
5.756,0.08023
5.76,0.11441
5.764,0.08012
5.768,0.07284
5.772,0.06176
5.776,0.04631
5.78,0.04272
5.784,0.03362
5.788,0.04193
5.792,0.02423
5.796,0.02246
5.8,0.02804
5.804,0.02656
5.808,0.02401
5.812,0.02701
5.816,0.00127
5.82,-0.00347
5.824,-0.01042
5.828,0.00421
5.832,0.02937
5.836,0.00445
5.84,0.02413
5.844,0.01172
5.848,0.02469
5.852,0.03381
5.856,0.00411
5.86,0.02061
5.864,0.01696
5.868,0.01389
5.872,0.01517
5.876,0.01906
5.88,0.02179
5.884,0.01586
5.888,0.01263
5.892,0.00026
5.896,0.02352
5.9,0.01616
5.904,0.01364
5.908,-0.00851
5.912,0.00012
5.916,0.02966
5.92,0.00656
5.924,0.00159
5.928,0.00487
5.932,-0.01624
5.936,0.01543
5.94,0.02183
5.944,0.00457
5.948,-0.00782
5.952,-0.00212
5.956,0.01817
5.96,0.02618
5.964,0.01135
5.968,-0.0049
5.972,0.00359
5.976,0.00452
5.98,0.02152
5.984,-0.00243
5.988,-0.00239
5.992,0.01813
5.996,8e-05
6.0,-0.00724
6.004,-0.00631
6.008,0.01023
6.012,-0.00688
6.016,0.00838
6.02,0.01664
6.024,0.02301
6.028,0.02021
6.032,-0.00143
6.036,0.01098
6.04,0.00114
6.044,0.02319
6.048,0.00747
6.052,0.01861
6.056,0.01068
6.06,0.01864
6.064,0.00114
6.068,0.03025
6.072,-0.00191
6.076,0.00913
6.08,-0.03052
6.084,0.00177
6.088,-0.00269
6.092,-0.00448
6.096,0.01551
6.1,0.05216
6.104,0.02843
6.108,0.05879
6.112,0.05129
6.116,0.07618
6.12,0.10085
6.124,0.09177
6.128,0.08019
6.132,0.10504
6.136,0.08501
6.14,0.08626
6.144,0.09099
6.148,0.05905
6.152,0.09152
6.156,0.07864
6.16,0.03358
6.164,0.02828
6.168,-0.00384
6.172,0.0212
6.176,0.01198
6.18,0.01593
6.184,0.00395
6.188,0.01338
6.192,-0.00303
6.196,-0.00446
6.2,-0.00448
6.204,-0.00747
6.208,0.00374
6.212,0.00838
6.216,-0.01305
6.22,0.01619
6.224,0.00866
6.228,-0.00213
6.232,-0.00064
6.236,0.01602
6.24,-0.02154
6.244,-0.0325
6.248,-0.07845
6.252,-0.08302
6.256,-0.09419
6.26,-0.11697
6.264,-0.05332
6.268,0.05336
6.272,0.2441
6.276,0.4292
6.28,0.64387
6.284,0.81984
6.288,0.95042
6.292,0.97858
6.296,0.92147
6.3,0.73857
6.304,0.49434
6.308,0.25338
6.312,0.07142
6.316,-0.09535
6.32,-0.13938
6.324,-0.15757
6.328,-0.15596
6.332,-0.10858
6.336,-0.05398
6.34,-0.04247
6.344,-0.01871
6.348,-0.01732
6.352,-0.00756
6.356,0.04105
6.36,-0.01526
6.364,-0.01448
6.368,0.01043
6.372,-0.00014
6.376,-0.03415
6.38,-0.01383
6.384,0.00281
6.388,0.00119
6.392,-0.00296
6.396,-0.00108
6.4,-0.02406
6.404,-0.03095
6.408,-0.01221
6.412,0.009
6.416,-0.02814
6.42,-0.01752
6.424,-0.04038
6.428,-0.01721
6.432,0.00433
6.436,-0.02254
6.44,0.01604
6.444,0.01053
6.448,-0.00913
6.452,-0.00575
6.456,-0.02803
6.46,-0.0182
6.464,0.00284
6.468,-0.00789
6.472,-0.00353
6.476,0.01687
6.48,0.00662
6.484,0.04528
6.488,0.05477
6.492,0.04765
6.496,0.049
6.5,0.04374
6.504,0.04369
6.508,0.07341
6.512,0.09713
6.516,0.09576
6.52,0.09508
6.524,0.10292
6.528,0.13003
6.532,0.15867
6.536,0.1624
6.54,0.16142
6.544,0.18064
6.548,0.17945
6.552,0.20348
6.556,0.19929
6.56,0.19611
6.564,0.22448
6.568,0.18781
6.572,0.22683
6.576,0.19426
6.58,0.20335
6.584,0.20899
6.588,0.17978
6.592,0.20563
6.596,0.18729
6.6,0.15071
6.604,0.14113
6.608,0.12759
6.612,0.11484
6.616,0.13273
6.62,0.11823
6.624,0.1019
6.628,0.08491
6.632,0.09801
6.636,0.06868
6.64,0.0525
6.644,0.05291
6.648,0.03929
6.652,0.01867
6.656,0.01845
6.66,0.01076
6.664,-0.00548
6.668,-0.00275
6.672,0.00549
6.676,0.00179
6.68,0.03019
6.684,0.00607
6.688,-0.02015
6.692,-0.01255
6.696,0.01253
6.7,-0.02011
6.704,-0.01563
6.708,-0.02662
6.712,0.0055
6.716,-0.02834
6.72,-0.01777
6.724,-0.02515
6.728,-0.02192
6.732,-0.0288
6.736,-0.03425
6.74,-0.01734
6.744,-0.00172
6.748,-0.01238
6.752,-0.03518
6.756,-0.03668
6.76,0.00691
6.764,0.00695
6.768,-0.00364
6.772,0.00077
6.776,-0.0033
6.78,0.04454
6.784,0.04066
6.788,0.0481
6.792,0.07727
6.796,0.08132
6.8,0.07129
6.804,0.10517
6.808,0.08849
6.812,0.08977
6.816,0.06684
6.82,0.03573
6.824,0.05294
6.828,0.05168
6.832,0.01668
6.836,0.01906
6.84,0.01514
6.844,-0.03632
6.848,-0.00588
6.852,-0.01191
6.856,-0.00814
6.86,-0.01312
6.864,-0.02245
6.868,0.01748
6.872,-0.03521
6.876,-0.03843
6.88,-0.03072
6.884,0.00136
6.888,-0.03235
6.892,0.01073
6.896,-0.03845
6.9,-0.01618
6.904,-0.01121
6.908,-0.03413
6.912,-0.02378
6.916,0.01242
6.92,-0.04851
6.924,-0.09525
6.928,-0.1116
6.932,-0.13889
6.936,-0.09076
6.94,0.01383
6.944,0.16979
6.948,0.35908
6.952,0.56895
6.956,0.77805
6.96,0.92077
6.964,0.97651
6.968,0.90598
6.972,0.74781
6.976,0.5335
6.98,0.30431
6.984,0.09751
6.988,-0.07899
6.992,-0.13661
6.996,-0.16237
7.0,-0.17805
7.004,-0.12849
7.008,-0.09907
7.012,-0.08503
7.016,-0.03195
7.02,-0.03402
7.024,-0.02602
7.028,-0.02722
7.032,-0.02788
7.036,-0.02248
7.04,-0.02671
7.044,-0.00576
7.048,-0.03323
7.052,0.00595
7.056,-0.0344
7.06,-0.00618
7.064,-0.04674
7.068,-0.0432
7.072,-0.02718
7.076,-0.03453
7.08,-0.01408
7.084,-0.01467
7.088,-0.01771
7.092,-0.03232
7.096,-0.03492
7.1,-0.04975
7.104,-0.00753
7.108,-0.00877
7.112,-0.029
7.116,-0.0125
7.12,-0.00645
7.124,-0.00077
7.128,-0.01431
7.132,-0.00783
7.136,0.00054
7.14,-0.01157
7.144,-0.02817
7.148,0.00607
7.152,-0.00146
7.156,-0.0
7.16,0.00265
7.164,0.02855
7.168,0.05624
7.172,0.03185
7.176,0.08336
7.18,0.07473
7.184,0.09346
7.188,0.06691
7.192,0.09413
7.196,0.07512
7.2,0.12742
7.204,0.11234
7.208,0.15436
7.212,0.13013
7.216,0.17644
7.22,0.14762
7.224,0.18235
7.228,0.18972
7.232,0.17571
7.236,0.18631
7.24,0.17324
7.244,0.18017
7.248,0.20009
7.252,0.19183
7.256,0.16963
7.26,0.16723
7.264,0.17239
7.268,0.14191
7.272,0.15662
7.276,0.16695
7.28,0.11055
7.284,0.15127
7.288,0.10869
7.292,0.10775
7.296,0.07924
7.3,0.08759
7.304,0.04476
7.308,0.04266
7.312,0.05427
7.316,0.04491
7.32,-0.01431
7.324,0.03341
7.328,-0.0075
7.332,0.00769
7.336,-0.02553
7.34,-0.01123
7.344,-0.0154
7.348,-0.03788
7.352,-0.01685
7.356,-0.02824
7.36,-0.02015
7.364,-0.03785
7.368,-0.01597
7.372,-0.0193
7.376,-0.03235
7.38,-0.02083
7.384,-0.02532
7.388,-0.01405
7.392,-0.02701
7.396,-0.03068
7.4,-0.01478
7.404,-0.04905
7.408,-0.0258
7.412,-0.03702
7.416,-0.03145
7.42,-0.00888
7.424,-0.0316
7.428,-0.0251
7.432,-0.03705
7.436,-0.00453
7.44,-0.00738
7.444,-0.0149
7.448,-0.04333
7.452,-0.05976
7.456,-0.0211
7.46,-0.04281
7.464,-0.03142
7.468,-0.03369
7.472,-0.0222
7.476,-0.04464
7.48,-0.0439
7.484,-0.01124
7.488,-0.02619
7.492,-0.03997
7.496,-0.0412
7.5,-0.01909
7.504,-0.02736
7.508,-0.04097
7.512,-0.0251
7.516,-0.03141
7.52,-0.02156
7.524,-0.02233
7.528,-0.03049
7.532,-0.00195
7.536,0.01992
7.54,0.03406
7.544,0.04942
7.548,0.05028
7.552,0.06127
7.556,0.057
7.56,0.06017
7.564,0.06232
7.568,0.07091
7.572,0.08149
7.576,0.05957
7.58,0.03586
7.584,0.03227
7.588,0.02046
7.592,0.01391
7.596,0.03309
7.6,-0.00199
7.604,-0.01424
7.608,-0.01796
7.612,-0.03813
7.616,-0.03584
7.62,-0.02411
7.624,-0.05612
7.628,-0.02164
7.632,-0.02824
7.636,-0.03628
7.64,-0.01975
7.644,0.00803
7.648,-0.00961
7.652,-0.03207
7.656,-0.02764
7.66,-0.03734
7.664,-0.02749
7.668,-0.03631
7.672,-0.03151
7.676,-0.04699
7.68,-0.06155
7.684,-0.08134
7.688,-0.11139
7.692,-0.13418
7.696,-0.08756
7.7,-0.00723
7.704,0.12299
7.708,0.29826
7.712,0.53304
7.716,0.73388
7.72,0.87102
7.724,0.96966
7.728,0.91765
7.732,0.80063
7.736,0.58594
7.74,0.34524
7.744,0.16145
7.748,-0.02471
7.752,-0.14841
7.756,-0.19432
7.76,-0.1839
7.764,-0.14822
7.768,-0.11347
7.772,-0.10722
7.776,-0.06132
7.78,-0.02696
7.784,-0.02447
7.788,-0.03086
7.792,-0.03163
7.796,-0.01677
7.8,-0.03257
7.804,-0.02696
7.808,-0.01536
7.812,-0.03487
7.816,-0.02036
7.82,-0.03372
7.824,-0.01046
7.828,-0.02056
7.832,-0.01273
7.836,-0.03737
7.84,-0.04532
7.844,-0.03391
7.848,-0.02395
7.852,-0.00836
7.856,-0.02577
7.86,-0.02272
7.864,-0.05996
7.868,-0.04577
7.872,-0.02196
7.876,-0.01598
7.88,-0.01447
7.884,-0.01075
7.888,0.00454
7.892,-0.0319
7.896,-0.04385
7.9,0.01188
7.904,-0.00977
7.908,0.00948
7.912,-0.0176
7.916,0.00179
7.92,0.01301
7.924,-0.00649
7.928,-0.00711
7.932,0.05509
7.936,0.06282
7.94,0.03275
7.944,0.04809
7.948,0.09175
7.952,0.10329
7.956,0.07951
7.96,0.09474
7.964,0.10641
7.968,0.11894
7.972,0.14049
7.976,0.17265
7.98,0.15464
7.984,0.16367
7.988,0.18877
7.992,0.15839
7.996,0.17843
8.0,0.18565
8.004,0.19854
8.008,0.16604
8.012,0.20997
8.016,0.1904
8.02,0.17043
8.024,0.16081
8.028,0.17545
8.032,0.14952
8.036,0.13222
8.04,0.13702
8.044,0.16785
8.048,0.12514
8.052,0.11037
8.056,0.07912
8.06,0.0986
8.064,0.0802
8.068,0.03511
8.072,0.04664
8.076,0.05836
8.08,0.0254
8.084,0.01501
8.088,0.02155
8.092,0.0194
8.096,-0.01061
8.1,-0.01076
8.104,-0.03508
8.108,-0.01129
8.112,-0.0468
8.116,0.00086
8.12,-0.03696
8.124,-0.02418
8.128,-0.03037
8.132,-0.02698
8.136,0.00185
8.14,-0.01955
8.144,0.00653
8.148,0.01691
8.152,0.02046
8.156,0.04733
8.16,0.03572
8.164,0.05327
8.168,0.03738
8.172,0.07036
8.176,0.09289
8.18,0.07703
8.184,0.06013
8.188,0.05999
8.192,0.03674
8.196,0.03526
8.2,-0.00415
8.204,0.02191
8.208,-0.00013
8.212,0.02741
8.216,-0.034
8.22,-0.00668
8.224,-0.02127
8.228,-0.04634
8.232,-0.00267
8.236,-0.02086
8.24,-0.04752
8.244,-0.02143
8.248,-0.03392
8.252,-0.01523
8.256,-0.02819
8.26,-0.03669
8.264,-0.01414
8.268,-0.05322
8.272,-0.0301
8.276,-0.03759
8.28,-0.01504
8.284,-0.03485
8.288,-0.05781
8.292,-0.0813
8.296,-0.08201
8.3,-0.12945
8.304,-0.14134
8.308,-0.09674
8.312,0.02556
8.316,0.2081
8.32,0.41184
8.324,0.63592
8.328,0.82296
8.332,0.98034
8.336,0.9693
8.34,0.88052
8.344,0.71904
8.348,0.48162
8.352,0.22022
8.356,0.07771
8.36,-0.0764
8.364,-0.16834
8.368,-0.20537
8.372,-0.17625
8.376,-0.13843
8.38,-0.07498
8.384,-0.06248
8.388,-0.02803
8.392,-0.00538
8.396,-0.04347
8.4,-0.05082
8.404,-0.02367
8.408,-0.05843
8.412,-0.01768
8.416,-0.0224
8.42,-0.0445
8.424,-0.03104
8.428,-0.04938
8.432,-0.04714
8.436,-0.03869
8.44,-0.02958
8.444,-0.04373
8.448,-0.02244
8.452,-0.01103
8.456,-0.00267
8.46,-0.03049
8.464,-0.01137
8.468,-0.00167
8.472,-0.00075
8.476,-0.02985
8.48,-0.02888
8.484,-0.04499
8.488,-0.02637
8.492,-0.02527
8.496,-0.02617
8.5,-0.00705
8.504,-0.02338
8.508,0.00443
8.512,-0.03434
8.516,-0.00677
8.52,0.02452
8.524,0.00489
8.528,-0.00523
8.532,0.01253
8.536,-0.00462
8.54,0.00875
8.544,0.0316
8.548,0.03407
8.552,0.0466
8.556,0.06562
8.56,0.08186
8.564,0.11169
8.568,0.10872
8.572,0.11434
8.576,0.11467
8.58,0.15142
8.584,0.16379
8.588,0.15868
8.592,0.17015
8.596,0.18158
8.6,0.19726
8.604,0.1941
8.608,0.19632
8.612,0.22193
8.616,0.17314
8.62,0.20335
8.624,0.18128
8.628,0.19576
8.632,0.18908
8.636,0.18671
8.64,0.16769
8.644,0.1739
8.648,0.1443
8.652,0.13099
8.656,0.14633
8.66,0.09839
8.664,0.10603
8.668,0.10496
8.672,0.03834
8.676,0.09255
8.68,0.04307
8.684,0.04629
8.688,0.02951
8.692,0.04114
8.696,0.02981
8.7,0.0275
8.704,0.03089
8.708,0.01698
8.712,0.00085
8.716,0.00141
8.72,-0.01058
8.724,-0.00524
8.728,-0.02004
8.732,0.00297
8.736,-0.02588
8.74,-0.01072
8.744,-0.02803
8.748,-0.02093
8.752,-0.00962
8.756,-0.01898
8.76,-0.02591
8.764,-0.02992
8.768,0.00251
8.772,-0.00296
8.776,0.00203
8.78,-0.02996
8.784,0.00703
8.788,0.00301
8.792,-0.02728
8.796,-0.0104
8.8,-0.02047
8.804,0.01206
8.808,-0.00579
8.812,-0.00497
8.816,0.01487
8.82,0.00059
8.824,-0.01524
8.828,0.00869
8.832,-0.02138
8.836,0.00502
8.84,0.00541
8.844,0.00706
8.848,0.03942
8.852,0.03724
8.856,0.0256
8.86,0.05892
8.864,0.06143
8.868,0.10663
8.872,0.10627
8.876,0.05976
8.88,0.10477
8.884,0.11695
8.888,0.05556
8.892,0.05418
8.896,0.05463
8.9,0.00345
8.904,0.03141
8.908,0.01222
8.912,0.01983
8.916,-0.01604
8.92,0.02705
8.924,-0.00832
8.928,-0.01168
8.932,-0.02552
8.936,-0.0236
8.94,-0.02123
8.944,-0.02295
8.948,0.01787
8.952,-0.0424
8.956,0.00098
8.96,-0.01908
8.964,0.00363
8.968,-0.0042
8.972,-0.01217
8.976,-0.03008
8.98,-0.01638
8.984,-0.04576
8.988,-0.04425
8.992,-0.0451
8.996,-0.02747
9.0,-0.10673
9.004,-0.13473
9.008,-0.11527
9.012,-0.04774
9.016,0.10953
9.02,0.28325
9.024,0.51828
9.028,0.68034
9.032,0.87929
9.036,0.959
9.04,0.95494
9.044,0.84086
9.048,0.60976
9.052,0.4215
9.056,0.17589
9.06,-0.00409
9.064,-0.14331
9.068,-0.19154
9.072,-0.1679
9.076,-0.13199
9.08,-0.11706
9.084,-0.04674
9.088,-0.0438
9.092,-0.00498
9.096,-0.0069
9.1,-0.01624
9.104,-0.00787
9.108,-0.01866
9.112,0.01018
9.116,0.00198
9.12,-0.015
9.124,-0.05182
9.128,0.0023
9.132,-0.0103
9.136,-0.00538
9.14,-0.02326
9.144,-0.02332
9.148,-0.02497
9.152,-0.04654
9.156,-0.00738
9.16,0.02219
9.164,-0.01948
9.168,-0.01546
9.172,0.00063
9.176,-0.02568
9.18,-0.01858
9.184,-0.00013
9.188,-0.00635
9.192,0.01991
9.196,-1e-05
9.2,-0.01922
9.204,-0.01313
9.208,-0.01161
9.212,-0.01185
9.216,0.00406
9.22,0.01791
9.224,0.00782
9.228,0.03771
9.232,0.0276
9.236,0.02998
9.24,0.03148
9.244,0.03615
9.248,0.06099
9.252,0.07686
9.256,0.08817
9.26,0.09499
9.264,0.11451
9.268,0.12559
9.272,0.14537
9.276,0.14714
9.28,0.13976
9.284,0.14622
9.288,0.18253
9.292,0.18007
9.296,0.16383
9.3,0.19125
9.304,0.22103
9.308,0.22561
9.312,0.21554
9.316,0.23345
9.32,0.22735
9.324,0.24048
9.328,0.20834
9.332,0.22769
9.336,0.22765
9.34,0.19891
9.344,0.19286
9.348,0.17137
9.352,0.15726
9.356,0.14973
9.36,0.14495
9.364,0.1123
9.368,0.11911
9.372,0.11123
9.376,0.10393
9.38,0.06834
9.384,0.10276
9.388,0.06328
9.392,0.06491
9.396,0.04484
9.4,0.05177
9.404,-0.00066
9.408,0.01586
9.412,0.02731
9.416,0.01565
9.42,0.03097
9.424,0.04331
9.428,0.02599
9.432,-0.01942
9.436,-0.00695
9.44,0.02129
9.444,-0.01187
9.448,-0.00276
9.452,-0.00387
9.456,0.02443
9.46,-0.00899
9.464,-0.00672
9.468,0.02078
9.472,-0.01314
9.476,0.01225
9.48,0.02556
9.484,0.03868
9.488,0.03465
9.492,0.03652
9.496,0.0331
9.5,0.06728
9.504,0.08688
9.508,0.10813
9.512,0.10605
9.516,0.11355
9.52,0.11107
9.524,0.08202
9.528,0.07028
9.532,0.09425
9.536,0.08559
9.54,0.04411
9.544,0.0368
9.548,0.02914
9.552,0.01204
9.556,0.02188
9.56,-0.00204
9.564,0.01382
9.568,0.03824
9.572,-0.01038
9.576,-0.01392
9.58,0.00183
9.584,0.01
9.588,-0.00568
9.592,0.00427
9.596,0.00647
9.6,0.01312
9.604,-0.00608
9.608,-0.00957
9.612,0.01418
9.616,0.01369
9.62,0.00269
9.624,0.01499
9.628,-0.00622
9.632,-0.00697
9.636,-0.05173
9.64,-0.08376
9.644,-0.09745
9.648,-0.07851
9.652,-0.03944
9.656,0.12907
9.66,0.2805
9.664,0.48796
9.668,0.68827
9.672,0.87534
9.676,0.972
9.68,0.99329
9.684,0.87718
9.688,0.6996
9.692,0.46862
9.696,0.2397
9.7,0.05996
9.704,-0.05903
9.708,-0.15325
9.712,-0.14737
9.716,-0.14512
9.72,-0.09118
9.724,-0.04933
9.728,-0.02717
9.732,-0.00266
9.736,0.00514
9.74,0.02056
9.744,0.00822
9.748,0.01295
9.752,0.02158
9.756,0.02308
9.76,-0.0081
9.764,0.0157
9.768,0.01323
9.772,0.00065
9.776,0.03691
9.78,0.00175
9.784,0.00513
9.788,0.0059
9.792,0.0084
9.796,0.00263
9.8,0.00468
9.804,0.01098
9.808,0.01455
9.812,-0.00171
9.816,0.00158
9.82,-0.01888
9.824,0.02143
9.828,-0.01357
9.832,0.00123
9.836,0.01048
9.84,0.03194
9.844,0.02151
9.848,0.02908
9.852,0.03879
9.856,0.05019
9.86,0.03743
9.864,0.0501
9.868,0.02553
9.872,0.05226
9.876,0.05269
9.88,0.03441
9.884,0.07844
9.888,0.05077
9.892,0.07174
9.896,0.10093
9.9,0.1102
9.904,0.11471
9.908,0.11587
9.912,0.13025
9.916,0.16719
9.92,0.16909
9.924,0.19802
9.928,0.20133
9.932,0.21335
9.936,0.21179
9.94,0.24166
9.944,0.23243
9.948,0.22769
9.952,0.21322
9.956,0.25887
9.96,0.22731
9.964,0.24116
9.968,0.24052
9.972,0.22226
9.976,0.22303
9.98,0.17714
9.984,0.19757
9.988,0.18517
9.992,0.17254
9.996,0.15345
