t_seg,ecg_mV
0.0,0.01283
0.004,0.00175
0.008,0.00399
0.012,0.00895
0.016,0.02855
0.02,0.02676
0.024,0.00334
0.028,0.03545
0.032,0.01284
0.036,0.00897
0.04,0.01127
0.044,-0.00122
0.048,0.0035
0.052,0.02499
0.056,0.0002
0.06,-0.0127
0.064,0.01737
0.068,-0.00263
0.072,0.00258
0.076,0.01259
0.08,0.00913
0.084,0.02523
0.088,0.03734
0.092,0.02022
0.096,-0.00563
0.1,0.00247
0.104,0.02237
0.108,0.00278
0.112,0.0018
0.116,-0.00306
0.12,0.00816
0.124,-0.01208
0.128,0.0057
0.132,0.01623
0.136,0.00827
0.14,0.01861
0.144,-0.01449
0.148,0.00563
0.152,0.03339
0.156,0.02263
0.16,0.02496
0.164,0.00431
0.168,0.01142
0.172,-0.00657
0.176,-0.01269
0.18,0.00328
0.184,-0.00977
0.188,0.00725
0.192,0.01023
0.196,0.0258
0.2,0.00124
0.204,0.01613
0.208,0.01814
0.212,0.00298
0.216,0.0147
0.22,0.02057
0.224,0.01893
0.228,0.00108
0.232,0.00292
0.236,-0.02848
0.24,0.00034
0.244,3e-05
0.248,-0.00027
0.252,-0.01306
0.256,-0.03154
0.26,0.00659
0.264,-0.00419
0.268,-0.00442
0.272,0.02719
0.276,0.01344
0.28,-0.01211
0.284,0.01435
0.288,-0.01271
0.292,0.00592
0.296,0.01255
0.3,-0.0104
0.304,-0.01249
0.308,0.00322
0.312,0.02537
0.316,0.03144
0.32,0.02917
0.324,-0.0044
0.328,-0.00035
0.332,0.00169
0.336,0.0053
0.34,-0.00491
0.344,-0.00643
0.348,-0.0146
0.352,-0.01602
0.356,0.00219
0.36,-0.00991
0.364,-0.00377
0.368,-0.02872
0.372,0.00232
0.376,-0.0014
0.38,0.06012
0.384,0.01879
0.388,0.01428
0.392,-0.02756
0.396,0.00384
0.4,0.02884
0.404,-0.00248
0.408,0.02557
0.412,0.02408
0.416,0.05173
0.42,-0.01408
0.424,0.03679
0.428,0.03684
0.432,0.05145
0.436,0.04178
0.44,0.07859
0.444,0.09537
0.448,0.09267
0.452,0.10143
0.456,0.10492
0.46,0.09047
0.464,0.08434
0.468,0.07462
0.472,0.08199
0.476,0.06125
0.48,0.05257
0.484,0.05142
0.488,0.01662
0.492,-0.00474
0.496,0.00021
0.5,0.01147
0.504,-0.00312
0.508,0.00689
0.512,-0.02454
0.516,-0.00162
0.52,0.02085
0.524,0.03642
0.528,0.00022
0.532,0.00031
0.536,0.00024
0.54,0.01256
0.544,-0.01358
0.548,0.00629
0.552,0.01768
0.556,-0.0029
0.56,0.00834
0.564,-0.0232
0.568,-0.03493
0.572,-0.08808
0.576,-0.09694
0.58,-0.11463
0.584,-0.11506
0.588,-0.07037
0.592,0.04954
0.596,0.19352
0.6,0.40829
0.604,0.63455
0.608,0.83369
0.612,0.94774
0.616,0.98465
0.62,0.892
0.624,0.7538
0.628,0.49695
0.632,0.30425
0.636,0.10485
0.64,-0.06848
0.644,-0.14107
0.648,-0.16848
0.652,-0.14064
0.656,-0.12872
0.66,-0.07855
0.664,-0.03569
0.668,-0.02129
0.672,-0.02355
0.676,0.01113
0.68,-0.02053
0.684,-0.01601
0.688,0.00043
0.692,-0.02497
0.696,-0.026
0.7,-0.00387
0.704,0.00081
0.708,0.01698
0.712,-0.02109
0.716,-0.004
0.72,0.00488
0.724,0.00874
0.728,-0.02133
0.732,-0.02553
0.736,0.0033
0.74,-0.01651
0.744,-0.0048
0.748,-0.0061
0.752,0.00654
0.756,-0.04266
0.76,0.02272
0.764,-0.00844
0.768,-0.00476
0.772,-0.03406
0.776,-0.02567
0.78,-0.00584
0.784,0.00543
0.788,0.01012
0.792,0.02433
0.796,-0.01298
0.8,-0.00964
0.804,0.03821
0.808,0.03603
0.812,0.01767
0.816,0.01614
0.82,0.02474
0.824,0.05568
0.828,0.07176
0.832,0.07954
0.836,0.08973
0.84,0.07995
0.844,0.08567
0.848,0.11666
0.852,0.13548
0.856,0.12574
0.86,0.13621
0.864,0.14956
0.868,0.17359
0.872,0.17568
0.876,0.20568
0.88,0.21687
0.884,0.18971
0.888,0.18963
0.892,0.21452
0.896,0.22093
0.9,0.18519
0.904,0.20003
0.908,0.17768
0.912,0.18199
0.916,0.17443
0.92,0.1932
0.924,0.13425
0.928,0.1639
0.932,0.1433
0.936,0.12637
0.94,0.13062
0.944,0.10698
0.948,0.08174
0.952,0.06277
0.956,0.06466
0.96,0.08421
0.964,0.07454
0.968,0.06069
0.972,0.01174
0.976,0.00785
0.98,0.01814
0.984,0.01093
0.988,-0.01692
0.992,-0.00315
0.996,0.00943
1.0,0.00855
1.004,-0.00839
1.008,-0.01179
1.012,-0.00728
1.016,-0.01554
1.02,0.00523
1.024,-0.00495
1.028,-0.01146
1.032,-0.03197
1.036,-0.03285
1.04,-0.01568
1.044,0.0031
1.048,-0.00734
1.052,-0.03029
1.056,-0.01843
1.06,-0.0279
1.064,0.0006
1.068,-0.02685
1.072,-0.01073
1.076,-0.02718
1.08,-0.03149
1.084,-0.00198
1.088,-0.03456
1.092,-0.01795
1.096,-0.00646
1.1,-0.01632
1.104,-0.01185
1.108,-0.00915
1.112,-0.01952
1.116,-0.01503
1.12,-0.00434
1.124,-0.01706
1.128,-0.02171
1.132,0.00785
1.136,-0.00176
1.14,-0.00637
1.144,0.0049
1.148,-0.0493
1.152,-0.01466
1.156,-0.02236
1.16,-0.01475
1.164,-0.00157
1.168,-0.03737
1.172,-0.01775
1.176,-0.02003
1.18,-0.02307
1.184,-0.01536
1.188,-0.00566
1.192,-0.01093
1.196,-0.00821
1.2,-0.00545
1.204,-0.00837
1.208,-0.03665
1.212,-0.01039
1.216,0.00251
1.22,-0.00706
1.224,0.00703
1.228,0.00419
1.232,0.04049
1.236,0.03679
1.24,0.07735
1.244,0.03121
1.248,0.07158
1.252,0.09792
1.256,0.06685
1.26,0.06609
1.264,0.06068
1.268,0.05691
1.272,0.04416
1.276,0.03198
1.28,0.03776
1.284,0.02752
1.288,-0.01371
1.292,0.0027
1.296,0.0161
1.3,0.01571
1.304,-0.00485
1.308,-0.0221
1.312,-0.04334
1.316,-0.02675
1.32,-0.02213
1.324,-0.03848
1.328,-0.02489
1.332,-0.04783
1.336,-0.00587
1.34,-0.01683
1.344,0.00063
1.348,-0.03881
1.352,-0.0385
1.356,-0.01029
1.36,-0.01102
1.364,-0.01849
1.368,-0.02901
1.372,-0.0241
1.376,-0.06467
1.38,-0.1122
1.384,-0.12214
1.388,-0.14102
1.392,-0.06625
1.396,0.05985
1.4,0.19661
1.404,0.44986
1.408,0.65716
1.412,0.82741
1.416,0.95956
1.42,0.92985
1.424,0.87903
1.428,0.68192
1.432,0.43628
1.436,0.22215
1.44,0.00576
1.444,-0.10855
1.448,-0.17415
1.452,-0.22814
1.456,-0.17914
1.46,-0.13284
1.464,-0.09372
1.468,-0.04857
1.472,-0.04269
1.476,-0.01178
1.48,-0.01142
1.484,-0.01349
1.488,0.00687
1.492,-0.01512
1.496,-0.01621
1.5,-0.05233
1.504,-0.03761
1.508,-0.01391
1.512,-0.03832
1.516,-0.03587
1.52,-0.00711
1.524,-0.02884
1.528,-0.02643
1.532,-0.01652
1.536,-0.03359
1.54,-0.01143
1.544,-0.02104
1.548,-0.00201
1.552,-0.04039
1.556,-0.02292
1.56,-0.00118
1.564,-0.04458
1.568,-0.01766
1.572,-0.02963
1.576,-0.01349
1.58,-0.00114
1.584,-0.00905
1.588,-0.02345
1.592,-0.01463
1.596,-0.01425
1.6,-0.01848
1.604,-0.01093
1.608,-0.01951
1.612,-0.00154
1.616,0.00195
1.62,0.02441
1.624,0.05075
1.628,0.02622
1.632,0.05901
1.636,0.07794
1.64,0.07029
1.644,0.10061
1.648,0.10137
1.652,0.12815
1.656,0.11056
1.66,0.11337
1.664,0.15399
1.668,0.15185
1.672,0.15171
1.676,0.15776
1.68,0.17271
1.684,0.17609
1.688,0.20232
1.692,0.19647
1.696,0.17998
1.7,0.1896
1.704,0.17783
1.708,0.17928
1.712,0.17034
1.716,0.17658
1.72,0.1778
1.724,0.15809
1.728,0.14381
1.732,0.14664
1.736,0.12855
1.74,0.14919
1.744,0.08917
1.748,0.07746
1.752,0.08578
1.756,0.02609
1.76,0.06067
1.764,0.03113
1.768,0.04848
1.772,0.01466
1.776,0.01072
1.78,-0.01148
1.784,0.00732
1.788,-0.0048
1.792,0.00673
1.796,-0.00162
1.8,-0.03293
1.804,-0.00154
1.808,-0.04806
1.812,-0.02846
1.816,-0.03903
1.82,-0.04238
1.824,-0.02955
1.828,-0.02109
1.832,-0.0662
1.836,-0.04606
1.84,-0.03571
1.844,-0.04799
1.848,-0.02039
1.852,-0.04512
1.856,-0.01625
1.86,-0.0315
1.864,-0.02785
1.868,-0.03013
1.872,-0.01213
1.876,-0.04139
1.88,-0.01052
1.884,-0.04637
1.888,-0.00861
1.892,-0.04011
1.896,-0.01544
1.9,-0.0457
1.904,-0.03491
1.908,-0.0242
1.912,-0.00558
1.916,-0.03319
1.92,-0.01745
1.924,-0.03101
1.928,-0.01472
1.932,-0.0219
1.936,-0.03787
1.94,-0.04692
1.944,-0.0183
1.948,-0.05064
1.952,-0.04828
1.956,-0.03648
1.96,-0.01961
1.964,-0.04658
1.968,-0.01938
1.972,0.00597
1.976,-0.04585
1.98,-0.02602
1.984,-0.03882
1.988,-0.04714
1.992,-0.04786
1.996,-0.00659
2.0,-0.04417
2.004,-0.07555
2.008,-0.02559
2.012,0.00639
2.016,-0.02391
2.02,-0.03312
2.024,-0.02718
2.028,-0.03975
2.032,-0.02068
2.036,-0.01717
2.04,-0.03012
2.044,-0.00579
2.048,-0.02269
2.052,-0.02111
2.056,-0.0296
2.06,-0.0443
2.064,-0.02083
2.068,-0.02271
2.072,-0.01013
2.076,-0.02414
2.08,-0.04437
2.084,-0.018
2.088,-0.03566
2.092,-0.08193
2.096,-0.01294
2.1,-0.03551
2.104,-0.02047
2.108,-0.01998
2.112,-0.03732
2.116,-0.0164
2.12,-0.05119
2.124,-0.02221
2.128,-0.01531
2.132,-0.02591
2.136,-0.01908
2.14,-0.01116
2.144,-0.00674
2.148,-0.01103
2.152,0.0343
2.156,0.04146
2.16,0.03205
2.164,0.05394
2.168,0.06651
2.172,0.04492
2.176,0.06536
2.18,0.05265
2.184,0.0662
2.188,0.03752
2.192,0.06603
2.196,0.03117
2.2,0.03261
2.204,0.00515
2.208,-0.01735
2.212,0.01098
2.216,-0.01992
2.22,-0.02507
2.224,-0.03401
2.228,-0.02661
2.232,-0.0394
2.236,-0.00923
2.24,-0.03468
2.244,-0.0377
2.248,-0.03369
2.252,-0.03509
2.256,-0.01866
2.26,-0.04855
2.264,-0.01049
2.268,-0.04348
2.272,-0.0251
2.276,-0.0413
2.28,-0.04106
2.284,-0.03685
2.288,-0.02525
2.292,-0.05165
2.296,-0.09215
2.3,-0.11775
2.304,-0.15882
2.308,-0.14104
2.312,-0.03249
2.316,0.09554
2.32,0.2774
2.324,0.49997
2.328,0.6559
2.332,0.88877
2.336,0.94246
2.34,0.95677
2.344,0.81419
2.348,0.61219
2.352,0.37014
2.356,0.18209
2.36,0.00499
2.364,-0.12468
2.368,-0.18845
2.372,-0.20302
2.376,-0.17938
2.38,-0.11616
2.384,-0.05827
2.388,-0.06355
2.392,-0.0642
2.396,-0.04128
2.4,-0.03512
2.404,-0.04312
2.408,-0.01893
2.412,-0.03238
2.416,-0.04036
2.42,-0.00573
2.424,-0.05578
2.428,0.00737
2.432,-0.02674
2.436,-0.03388
2.44,-0.04144
2.444,-0.01096
2.448,-0.00863
2.452,-0.00966
2.456,-0.01878
2.46,-0.01407
2.464,-0.01983
2.468,-0.02053
2.472,-0.03755
2.476,-0.02198
2.48,-0.01736
2.484,-0.01013
2.488,-0.03745
2.492,-0.02882
2.496,-0.02513
2.5,-0.0054
2.504,-0.0056
2.508,-0.01514
2.512,-0.02665
2.516,-0.00958
2.52,0.03081
2.524,0.03932
2.528,-0.01224
2.532,-0.00027
2.536,0.0137
2.54,0.01874
2.544,0.04881
2.548,0.02799
2.552,0.03336
2.556,0.05173
2.56,0.04931
2.564,0.07625
2.568,0.07974
2.572,0.10656
2.576,0.13577
2.58,0.12144
2.584,0.14342
2.588,0.13158
2.592,0.16295
2.596,0.15501
2.6,0.15925
2.604,0.20284
2.608,0.1681
2.612,0.20549
2.616,0.20546
2.62,0.19336
2.624,0.20761
2.628,0.19874
2.632,0.18487
2.636,0.16392
2.64,0.15415
2.644,0.1686
2.648,0.17059
2.652,0.13962
2.656,0.16118
2.66,0.13614
2.664,0.08491
2.668,0.10122
2.672,0.06504
2.676,0.063
2.68,0.06577
2.684,0.05855
2.688,0.04865
2.692,-0.00439
2.696,0.0361
2.7,0.02241
2.704,0.02604
2.708,0.02223
2.712,-0.02237
2.716,-0.01128
2.72,-0.02748
2.724,0.01687
2.728,-0.02992
2.732,0.00768
2.736,0.00529
2.74,-0.03505
2.744,-0.02496
2.748,-0.0251
2.752,-0.01717
2.756,-0.00143
2.76,-0.02926
2.764,-0.03092
2.768,-0.04467
2.772,-0.01441
2.776,-0.00981
2.78,0.00635
2.784,-0.03018
2.788,-0.04054
2.792,-0.04389
2.796,-0.03208
2.8,-0.02562
2.804,-0.01886
2.808,-0.03019
2.812,-0.02522
2.816,-0.01003
2.82,0.00827
2.824,0.00536
2.828,-0.00701
2.832,-0.03648
2.836,-0.02204
2.84,-0.03835
2.844,-0.03416
2.848,-0.03756
2.852,8e-05
2.856,0.00157
2.86,-0.01465
2.864,-0.00363
2.868,0.00214
2.872,-0.03743
2.876,-0.02862
2.88,-0.02834
2.884,-0.01266
2.888,-0.0208
2.892,-0.01165
2.896,0.02034
2.9,0.00342
2.904,0.02825
2.908,0.03483
2.912,0.04743
2.916,0.0825
2.92,0.08518
2.924,0.10019
2.928,0.08513
2.932,0.08016
2.936,0.05816
2.94,0.06791
2.944,0.04704
2.948,0.03397
2.952,0.00694
2.956,0.01448
2.96,0.02317
2.964,-0.00152
2.968,-0.02717
2.972,0.01629
2.976,-0.0438
2.98,-0.01479
2.984,-0.01649
2.988,-0.01388
2.992,-0.01521
2.996,-0.01324
3.0,-0.01701
3.004,-0.01378
3.008,-0.02511
3.012,-0.0118
3.016,-0.0109
3.02,-0.01704
3.024,-0.00378
3.028,-0.01593
3.032,-0.01161
3.036,-0.02431
3.04,-0.03573
3.044,-0.04638
3.048,-0.09868
3.052,-0.10036
3.056,-0.11173
3.06,-0.09706
3.064,0.02156
3.068,0.17106
3.072,0.40232
3.076,0.59333
3.08,0.85204
3.084,0.93798
3.088,0.98338
3.092,0.88597
3.096,0.72459
3.1,0.5335
3.104,0.27172
3.108,0.02262
3.112,-0.09375
3.116,-0.14625
3.12,-0.17143
3.124,-0.16633
3.128,-0.13143
3.132,-0.08974
3.136,-0.02167
3.14,-0.02194
3.144,-0.01294
3.148,-0.03129
3.152,0.00249
3.156,-0.04436
3.16,-0.00099
3.164,-0.04619
3.168,-0.00773
3.172,-0.00564
3.176,-0.0255
3.18,-0.0111
3.184,0.00455
3.188,-0.00664
3.192,-0.00555
3.196,0.04348
3.2,-0.00885
3.204,-0.02954
3.208,-0.00154
3.212,-0.01966
3.216,-0.02074
3.22,-0.00887
3.224,-0.00848
3.228,-0.02404
3.232,-0.00125
3.236,-0.03575
3.24,0.01407
3.244,-0.00928
3.248,0.00374
3.252,-0.01418
3.256,-0.01744
3.26,-0.00295
3.264,0.03195
3.268,-0.0106
3.272,0.02983
3.276,0.03385
3.28,0.00486
3.284,0.01253
3.288,0.04335
3.292,0.04557
3.296,0.04944
3.3,0.0725
3.304,0.0559
3.308,0.09309
3.312,0.0755
3.316,0.09982
3.32,0.09731
3.324,0.09324
3.328,0.13421
3.332,0.15769
3.336,0.18593
3.34,0.15526
3.344,0.15007
3.348,0.20266
3.352,0.19732
3.356,0.22832
3.36,0.23206
3.364,0.20326
3.368,0.19846
3.372,0.21297
3.376,0.21968
3.38,0.20162
3.384,0.21444
3.388,0.21009
3.392,0.16505
3.396,0.17414
3.4,0.14476
3.404,0.15757
3.408,0.16069
3.412,0.12595
3.416,0.10887
3.42,0.11546
3.424,0.09146
3.428,0.0728
3.432,0.06648
3.436,0.06311
3.44,0.01446
3.444,0.03322
3.448,0.03413
3.452,0.0418
3.456,0.05128
3.46,0.00375
3.464,0.02386
3.468,0.01381
3.472,0.0212
3.476,-0.00061
3.48,-0.01821
3.484,0.00169
3.488,-0.00302
3.492,0.00693
3.496,0.01646
3.5,0.01381
3.504,-0.02368
3.508,0.01465
3.512,-0.01162
3.516,-0.00972
3.52,-0.00633
3.524,-0.0
3.528,-0.02041
3.532,0.01124
3.536,-0.00527
3.54,0.00193
3.544,-0.00103
3.548,-0.02387
3.552,0.00147
3.556,-0.01975
3.56,-0.00117
3.564,-0.00632
3.568,0.0003
3.572,-0.01116
3.576,0.00546
3.58,-0.00896
3.584,0.00507
3.588,-0.01343
3.592,-0.02339
3.596,-0.0078
3.6,-0.03214
3.604,0.03012
3.608,-0.01943
3.612,-0.00689
3.616,-0.01749
3.62,-0.00747
3.624,-0.01498
3.628,0.03069
3.632,0.00836
3.636,-0.00842
3.64,0.0261
3.644,0.03962
3.648,0.05024
3.652,0.02948
3.656,0.05333
3.66,0.06343
3.664,0.08849
3.668,0.12876
3.672,0.09592
3.676,0.1218
3.68,0.08041
3.684,0.06805
3.688,0.08763
3.692,0.07226
3.696,0.03895
3.7,0.08767
3.704,0.04245
3.708,0.01308
3.712,0.04156
3.716,0.02903
3.72,0.01466
3.724,-0.00776
3.728,0.02591
3.732,0.01502
3.736,-0.0006
3.74,0.0036
3.744,0.0054
3.748,0.00995
3.752,0.00352
3.756,-0.01968
3.76,-0.01565
3.764,0.00573
3.768,-0.01935
3.772,0.0141
3.776,-0.0
3.78,-0.00415
3.784,-0.0005
3.788,-0.01645
3.792,-0.02352
3.796,-0.05013
3.8,-0.09766
3.804,-0.10907
3.808,-0.09455
3.812,0.01012
3.816,0.13167
3.82,0.34001
3.824,0.54441
3.828,0.75185
3.832,0.93368
3.836,0.99849
3.84,0.94237
3.844,0.82892
3.848,0.61559
3.852,0.38277
3.856,0.17192
3.86,-0.02316
3.864,-0.10745
3.868,-0.13317
3.872,-0.14349
3.876,-0.11691
3.88,-0.07124
3.884,-0.03233
3.888,-0.0109
3.892,-0.02008
3.896,-0.00306
3.9,0.00483
3.904,0.01784
3.908,-0.02504
3.912,0.01709
3.916,0.01892
3.92,-0.01783
3.924,0.00303
3.928,-0.00715
3.932,-0.01439
3.936,0.01724
3.94,0.03305
3.944,-0.00273
3.948,0.0237
3.952,0.0066
3.956,-0.00574
3.96,-0.00056
3.964,-0.00121
3.968,0.01827
3.972,-0.00335
3.976,-0.00416
3.98,0.01175
3.984,-0.00597
3.988,0.00366
3.992,0.00745
3.996,0.00785
4.0,0.00111
4.004,0.02265
4.008,0.01257
4.012,0.01561
4.016,0.03177
4.02,0.02967
4.024,0.05541
4.028,0.0455
4.032,0.03172
4.036,0.04583
4.04,0.03499
4.044,0.07576
4.048,0.08462
4.052,0.04728
4.056,0.07618
4.06,0.10597
4.064,0.1305
4.068,0.13302
4.072,0.12434
4.076,0.12139
4.08,0.1654
4.084,0.1954
4.088,0.21024
4.092,0.21174
4.096,0.20665
4.1,0.21091
4.104,0.22962
4.108,0.22548
4.112,0.24194
4.116,0.25088
4.12,0.23214
4.124,0.24488
4.128,0.22631
4.132,0.1965
4.136,0.19293
4.14,0.20246
4.144,0.1867
4.148,0.21022
4.152,0.18413
4.156,0.15531
4.16,0.14108
4.164,0.15626
4.168,0.13882
4.172,0.11736
4.176,0.09489
4.18,0.10011
4.184,0.08449
4.188,0.07358
4.192,0.07163
4.196,0.06628
4.2,0.05554
4.204,0.05424
4.208,0.02248
4.212,0.02957
4.216,0.02677
4.22,0.04831
4.224,0.02916
4.228,0.02819
4.232,0.02376
4.236,0.0142
4.24,0.05699
4.244,0.02246
4.248,0.02928
4.252,0.03878
4.256,0.04422
4.26,0.03379
4.264,0.07029
4.268,0.0662
4.272,0.07722
4.276,0.12494
4.28,0.13802
4.284,0.12987
4.288,0.11593
4.292,0.09273
4.296,0.1208
4.3,0.09508
4.304,0.06846
4.308,0.07074
4.312,0.03843
4.316,0.05443
4.32,0.04102
4.324,0.03657
4.328,0.02273
4.332,0.03785
4.336,0.01721
4.34,-0.00017
4.344,0.03045
4.348,0.02187
4.352,0.0141
4.356,0.04461
4.36,0.03211
4.364,0.01056
4.368,0.01606
4.372,0.00855
4.376,0.00756
4.38,0.04664
4.384,0.02488
4.388,-0.01865
4.392,0.0168
4.396,0.00405
4.4,-0.00509
4.404,0.00227
4.408,-0.07459
4.412,-0.07625
4.416,-0.09849
4.42,-0.05317
4.424,0.04187
4.428,0.20975
4.432,0.40141
4.436,0.60071
4.44,0.84294
4.444,0.96639
4.448,1.00968
4.452,0.94325
4.456,0.80382
4.46,0.5744
4.464,0.32811
4.468,0.15603
4.472,-0.01863
4.476,-0.07736
4.48,-0.16182
4.484,-0.11917
4.488,-0.09854
4.492,-0.02263
4.496,-0.03564
4.5,0.02781
4.504,0.0201
4.508,0.02698
4.512,0.01075
4.516,0.00862
4.52,0.03198
4.524,0.0439
4.528,0.00738
4.532,0.0259
4.536,0.02275
4.54,0.01936
4.544,0.03995
4.548,0.01243
4.552,0.03343
4.556,0.0215
4.56,0.03066
4.564,0.01568
4.568,0.01423
4.572,0.04498
4.576,0.01826
4.58,0.02096
4.584,-0.00121
4.588,0.01177
4.592,0.02849
4.596,0.00623
4.6,0.02181
4.604,0.01229
4.608,0.03643
4.612,0.04248
4.616,0.05519
4.62,0.01129
4.624,0.03627
4.628,0.04821
4.632,0.02084
4.636,0.05051
4.64,0.10302
4.644,0.05871
4.648,0.07993
4.652,0.10195
4.656,0.08622
4.66,0.08892
4.664,0.09998
4.668,0.12335
4.672,0.08252
4.676,0.11423
4.68,0.1404
4.684,0.14999
4.688,0.18469
4.692,0.18994
4.696,0.21096
4.7,0.21478
4.704,0.19433
4.708,0.19346
4.712,0.22406
4.716,0.25347
4.72,0.22492
4.724,0.23798
4.728,0.23951
4.732,0.25934
4.736,0.24533
4.74,0.27033
4.744,0.23771
4.748,0.22863
4.752,0.21001
4.756,0.2198
4.76,0.21304
4.764,0.17265
4.768,0.15774
4.772,0.15835
4.776,0.13537
4.78,0.13104
4.784,0.12773
4.788,0.10785
4.792,0.11025
4.796,0.10551
4.8,0.08929
4.804,0.07278
4.808,0.05148
4.812,0.05367
4.816,0.07009
4.82,0.05176
4.824,0.08092
4.828,0.06129
4.832,0.04466
4.836,0.05877
4.84,0.01073
4.844,0.04582
4.848,0.00415
4.852,0.0246
4.856,0.03245
4.86,0.02675
4.864,0.03839
4.868,0.0315
4.872,0.03574
4.876,0.03186
4.88,0.03472
4.884,0.06948
4.888,0.02985
4.892,0.0399
4.896,0.0286
4.9,0.03802
4.904,0.04651
4.908,0.03122
4.912,-0.00215
4.916,-0.01792
4.92,0.03057
4.924,0.01476
4.928,0.01672
4.932,0.03644
4.936,0.03996
4.94,0.00089
4.944,0.03832
4.948,0.03028
4.952,0.03676
4.956,0.03747
4.96,0.00124
4.964,0.05213
4.968,0.02943
4.972,0.03425
4.976,0.02358
4.98,0.04294
4.984,0.02282
4.988,0.01723
4.992,0.01575
4.996,0.04218
5.0,0.02719
5.004,0.03597
5.008,0.03537
5.012,0.03457
5.016,0.03257
5.02,0.02971
5.024,0.04103
5.028,0.07063
5.032,0.05283
5.036,0.07512
5.04,0.06736
5.044,0.12367
5.048,0.09646
5.052,0.12929
5.056,0.12425
5.06,0.13202
5.064,0.1376
5.068,0.11622
5.072,0.13277
5.076,0.09894
5.08,0.12274
5.084,0.08801
5.088,0.06839
5.092,0.06408
5.096,0.04365
5.1,0.03453
5.104,0.0593
5.108,0.02693
5.112,0.04114
5.116,0.03488
5.12,0.0462
5.124,0.03932
5.128,0.03731
5.132,0.04871
5.136,0.00794
5.14,0.01711
5.144,0.02277
5.148,0.04849
5.152,-0.00159
5.156,0.04244
5.16,0.02261
5.164,0.02086
5.168,0.02442
5.172,0.04299
5.176,0.00142
5.18,0.00806
5.184,-0.05612
5.188,-0.08989
5.192,-0.07557
5.196,-0.01495
5.2,0.09544
5.204,0.27731
5.208,0.48386
5.212,0.70787
5.216,0.89976
5.22,1.00015
5.224,1.02225
5.228,0.92181
5.232,0.77345
5.236,0.48308
5.24,0.27073
5.244,0.08648
5.248,-0.03551
5.252,-0.14229
5.256,-0.13715
5.26,-0.1223
5.264,-0.03357
5.268,-0.02107
5.272,-0.01259
5.276,0.02671
5.28,0.01532
5.284,0.01783
5.288,0.06448
5.292,0.03222
5.296,0.03082
5.3,0.03656
5.304,0.06306
5.308,0.02891
5.312,0.01839
5.316,0.02448
5.32,0.014
5.324,0.0307
5.328,0.03581
5.332,0.02882
5.336,0.05084
5.34,0.03948
5.344,0.01185
5.348,0.0276
5.352,0.04504
5.356,0.0353
5.36,0.00602
5.364,0.0293
5.368,0.02178
5.372,0.04943
5.376,0.04912
5.38,0.0511
5.384,0.03348
5.388,0.04392
5.392,0.02698
5.396,0.01857
5.4,0.06325
5.404,0.03597
5.408,0.08367
5.412,0.05171
5.416,0.05489
5.42,0.09157
5.424,0.1039
5.428,0.07934
5.432,0.076
5.436,0.1158
5.44,0.13859
5.444,0.13421
5.448,0.14961
5.452,0.16124
5.456,0.15242
5.46,0.17724
5.464,0.17914
5.468,0.21195
5.472,0.23736
5.476,0.2255
5.48,0.23559
5.484,0.24887
5.488,0.23983
5.492,0.24124
5.496,0.2346
5.5,0.23649
5.504,0.26291
5.508,0.24653
5.512,0.25952
5.516,0.22866
5.52,0.21033
5.524,0.22222
5.528,0.21372
5.532,0.20976
5.536,0.20117
5.54,0.17965
5.544,0.15367
5.548,0.16684
5.552,0.1681
5.556,0.13884
5.56,0.12943
5.564,0.12857
5.568,0.08185
5.572,0.0836
5.576,0.07604
5.58,0.10007
5.584,0.06688
5.588,0.07212
5.592,0.06283
5.596,0.00432
5.6,0.05875
5.604,0.06433
5.608,0.03237
5.612,0.03783
5.616,0.03419
5.62,0.04492
5.624,0.04665
5.628,0.02218
5.632,0.0247
5.636,0.03939
5.64,0.029
5.644,0.02826
5.648,0.00556
5.652,0.03099
5.656,0.0418
5.66,0.01331
5.664,0.02407
5.668,0.04399
5.672,0.02217
5.676,0.02983
5.68,0.01389
5.684,0.01907
5.688,0.01968
5.692,0.02244
5.696,0.02471
5.7,0.02604
5.704,0.03415
5.708,0.02442
5.712,0.02844
5.716,0.03258
5.72,0.03463
5.724,0.03473
5.728,0.01834
5.732,0.01776
5.736,0.00865
5.74,0.04613
5.744,0.01365
5.748,0.02931
5.752,0.05298
5.756,0.01983
5.76,0.02341
5.764,-0.01836
5.768,0.02099
5.772,0.01959
5.776,0.05361
5.78,0.05127
5.784,0.04123
5.788,0.04298
5.792,0.01933
5.796,0.05281
5.8,0.01705
5.804,0.01302
5.808,0.05487
5.812,0.05451
5.816,0.06064
5.82,0.04967
5.824,0.05949
5.828,0.06808
5.832,0.06593
5.836,0.04737
5.84,0.07608
5.844,0.09623
5.848,0.1131
5.852,0.13313
5.856,0.13092
5.86,0.10541
5.864,0.13538
5.868,0.10612
5.872,0.10335
5.876,0.11196
5.88,0.11618
5.884,0.06964
5.888,0.06013
5.892,0.04405
5.896,0.03222
5.9,0.03069
5.904,0.03722
5.908,0.03078
5.912,0.03273
5.916,0.01338
5.92,0.01721
5.924,0.02677
5.928,0.03343
5.932,0.03565
5.936,0.01851
5.94,0.00774
5.944,0.02401
5.948,0.06498
5.952,-0.00447
5.956,0.02899
5.96,0.04544
5.964,0.03685
5.968,0.03589
5.972,0.00809
5.976,-0.0204
5.98,-0.06997
5.984,-0.1096
5.988,-0.09349
5.992,-0.02437
5.996,0.07096
6.0,0.2693
6.004,0.47715
6.008,0.65626
6.012,0.84453
6.016,0.97895
6.02,1.03341
6.024,0.95146
6.028,0.76427
6.032,0.55127
6.036,0.31864
6.04,0.09591
6.044,-0.05537
6.048,-0.13401
6.052,-0.15329
6.056,-0.11658
6.06,-0.09193
6.064,-0.02817
6.068,-0.00576
6.072,0.04574
6.076,0.00255
6.08,0.00924
6.084,0.03784
6.088,-0.01028
6.092,0.02702
6.096,0.02585
6.1,0.02078
6.104,-0.00757
6.108,0.01675
6.112,0.0379
6.116,0.01674
6.12,0.05043
6.124,0.0194
6.128,0.03603
6.132,0.03757
6.136,-0.00426
6.14,0.05241
6.144,0.02649
6.148,0.02191
6.152,0.00728
6.156,0.01137
6.16,-0.00483
6.164,0.00982
6.168,0.03116
6.172,0.03899
6.176,0.03181
6.18,0.0402
6.184,0.0474
6.188,0.03346
6.192,0.05005
6.196,0.0428
6.2,0.02287
6.204,0.03336
6.208,0.01481
6.212,0.04982
6.216,0.06952
6.22,0.09007
6.224,0.05968
6.228,0.07646
6.232,0.09733
6.236,0.09151
6.24,0.09003
6.244,0.11477
6.248,0.12292
6.252,0.14691
6.256,0.1349
6.26,0.18369
6.264,0.20857
6.268,0.18343
6.272,0.20743
6.276,0.21764
6.28,0.22371
6.284,0.206
6.288,0.24701
6.292,0.24952
6.296,0.22283
6.3,0.21901
6.304,0.22448
6.308,0.26008
6.312,0.24113
6.316,0.25591
6.32,0.239
6.324,0.18281
6.328,0.19597
6.332,0.21191
6.336,0.18395
6.34,0.1758
6.344,0.15887
6.348,0.15779
6.352,0.12608
6.356,0.11865
6.36,0.09639
6.364,0.11332
6.368,0.05209
6.372,0.09163
6.376,0.06756
6.38,0.03874
6.384,0.05187
6.388,0.02756
6.392,0.03831
6.396,0.04117
6.4,0.06061
6.404,0.03843
6.408,0.02864
6.412,-0.0263
6.416,0.04666
6.42,0.04868
6.424,0.00874
6.428,-0.00417
6.432,0.0272
6.436,0.0257
6.44,0.0125
6.444,0.01206
6.448,0.02184
6.452,0.01927
6.456,0.05219
6.46,-0.00183
6.464,0.01289
6.468,-0.01273
6.472,0.00537
6.476,-0.00236
6.48,0.01115
6.484,0.02488
6.488,0.03516
6.492,0.02731
6.496,0.00684
6.5,0.01576
6.504,0.00677
6.508,0.03288
6.512,0.02181
6.516,0.03302
6.52,-0.01042
6.524,-0.00073
6.528,0.01868
6.532,-0.00866
6.536,0.01784
6.54,0.01532
6.544,-0.00157
6.548,0.01364
6.552,0.02647
6.556,0.0203
6.56,0.00424
6.564,-0.01052
6.568,-0.00605
6.572,0.03223
6.576,0.01728
6.58,0.00137
6.584,0.02104
6.588,0.02407
6.592,0.01003
6.596,0.00219
6.6,0.01934
6.604,0.01167
6.608,0.01478
6.612,0.02548
6.616,-0.00251
6.62,0.03414
6.624,0.01968
6.628,0.02287
6.632,0.01971
6.636,0.00827
6.64,0.00096
6.644,0.03334
6.648,0.0402
6.652,0.00507
6.656,0.02668
6.66,0.02979
6.664,0.04528
6.668,0.05479
6.672,0.06196
6.676,0.08834
6.68,0.08627
6.684,0.10732
6.688,0.11141
6.692,0.10572
6.696,0.12203
6.7,0.11821
6.704,0.08116
6.708,0.09831
6.712,0.06952
6.716,0.06165
6.72,0.01251
6.724,0.02255
6.728,0.00528
6.732,0.02864
6.736,0.03929
6.74,-0.01064
6.744,0.03182
6.748,0.00526
6.752,-0.0052
6.756,0.01711
6.76,-0.00386
6.764,-0.01829
6.768,0.03608
6.772,0.02741
6.776,0.00123
6.78,0.01186
6.784,0.01701
6.788,0.01702
6.792,-0.00139
6.796,0.0073
6.8,-0.00553
6.804,-0.02502
6.808,-0.04528
6.812,-0.04915
6.816,-0.11752
6.82,-0.12145
6.824,-0.05572
6.828,0.05508
6.832,0.2559
6.836,0.45507
6.84,0.67512
6.844,0.84771
6.848,0.97315
6.852,1.01249
6.856,0.89938
6.86,0.73393
6.864,0.50627
6.868,0.25937
6.872,0.06924
6.876,-0.05699
6.88,-0.1285
6.884,-0.20048
6.888,-0.15335
6.892,-0.08931
6.896,-0.04556
6.9,-0.03576
6.904,-0.01115
6.908,0.00517
6.912,0.00614
6.916,-0.00109
6.92,-0.00557
6.924,-0.00158
6.928,-0.00785
6.932,0.01588
6.936,0.00776
6.94,-0.01866
6.944,0.0126
6.948,0.00721
6.952,-0.01773
6.956,-0.00988
6.96,-0.01115
6.964,-0.00568
6.968,0.02027
6.972,-0.00861
6.976,0.00472
6.98,0.00109
6.984,0.01531
6.988,-0.00389
6.992,0.02073
6.996,0.02707
7.0,0.02315
7.004,0.00156
7.008,0.03233
7.012,0.01264
7.016,0.03044
7.02,0.02675
7.024,0.03437
7.028,-0.00183
7.032,0.03376
7.036,0.01984
7.04,0.03649
7.044,0.00514
7.048,0.03336
7.052,0.02839
7.056,0.07266
7.06,0.08763
7.064,0.07011
7.068,0.07657
7.072,0.09453
7.076,0.10884
7.08,0.10644
7.084,0.12804
7.088,0.13063
7.092,0.15073
7.096,0.16921
7.1,0.17816
7.104,0.16925
7.108,0.19658
7.112,0.19834
7.116,0.19089
7.12,0.22414
7.124,0.21484
7.128,0.23215
7.132,0.22894
7.136,0.25567
7.14,0.20626
7.144,0.20402
7.148,0.23303
7.152,0.19358
7.156,0.19706
7.16,0.18083
7.164,0.14625
7.168,0.15485
7.172,0.16166
7.176,0.1412
7.18,0.11172
7.184,0.09612
7.188,0.0804
7.192,0.10632
7.196,0.08582
7.2,0.08059
7.204,0.03183
7.208,0.07225
7.212,0.04325
7.216,0.01845
7.22,0.05716
7.224,0.02541
7.228,0.02596
7.232,-0.0042
7.236,0.03656
7.24,-0.01287
7.244,0.01442
7.248,0.00751
7.252,0.02717
7.256,-0.00048
7.26,-0.00341
7.264,0.00258
7.268,-0.01891
7.272,-0.0023
7.276,0.00628
7.28,-0.00729
7.284,0.02819
7.288,0.01887
7.292,-0.02493
7.296,0.011
7.3,-0.01623
7.304,0.01518
7.308,0.03393
7.312,0.00839
7.316,-0.01466
7.32,-0.00527
7.324,-0.01557
7.328,0.0078
7.332,-0.01748
7.336,-0.00603
7.34,-0.01163
7.344,-0.0155
7.348,-0.01757
7.352,-0.01751
7.356,-0.04155
7.36,-0.01967
7.364,-0.02145
7.368,-0.02099
7.372,-0.0359
7.376,-0.02558
7.38,-0.03622
7.384,-0.01427
7.388,-0.00989
7.392,-0.00376
7.396,0.03156
7.4,0.00036
7.404,-0.02085
7.408,0.00397
7.412,-0.01277
7.416,0.00473
7.42,-0.02288
7.424,-0.01808
7.428,-0.00166
7.432,-0.01418
7.436,-0.01438
7.44,-0.0336
7.444,-0.00882
7.448,0.00658
7.452,-0.00493
7.456,-0.05657
7.46,0.0045
7.464,0.00845
7.468,-0.00077
7.472,0.01992
7.476,0.03067
7.48,0.04825
7.484,0.05496
7.488,0.07245
7.492,0.07833
7.496,0.08806
7.5,0.08032
7.504,0.10189
7.508,0.0738
7.512,0.07907
7.516,0.04789
7.52,0.02334
7.524,0.02701
7.528,0.02005
7.532,0.01008
7.536,-0.01659
7.54,0.01294
7.544,0.0208
7.548,0.01369
7.552,-0.01875
7.556,-0.03132
7.56,-0.00385
7.564,-0.01447
7.568,-0.01263
7.572,-0.00354
7.576,-0.0251
7.58,0.02194
7.584,-0.0077
7.588,-0.00191
7.592,-0.0095
7.596,-0.01567
7.6,-0.01168
7.604,-0.01853
7.608,0.00893
7.612,-0.01478
7.616,-0.03603
7.62,-0.0534
7.624,-0.11669
7.628,-0.141
7.632,-0.13189
7.636,0.00128
7.64,0.14917
7.644,0.35266
7.648,0.56671
7.652,0.75086
7.656,0.91922
7.66,1.00828
7.664,0.93017
7.668,0.79344
7.672,0.58272
7.676,0.36311
7.68,0.14628
7.684,-0.03293
7.688,-0.13723
7.692,-0.14763
7.696,-0.14459
7.7,-0.16071
7.704,-0.08804
7.708,-0.07183
7.712,-0.05221
7.716,-0.00228
7.72,-0.0236
7.724,-0.03387
7.728,-0.01783
7.732,-0.03852
7.736,-0.02478
7.74,-0.00688
7.744,-0.03176
7.748,-0.02369
7.752,-0.01576
7.756,-0.00025
7.76,-0.03253
7.764,-0.02627
7.768,-0.00892
7.772,-0.01329
7.776,-0.00537
7.78,-0.03226
7.784,-0.00773
7.788,-0.00012
7.792,-0.03585
7.796,-0.0336
7.8,-0.01494
7.804,0.00584
7.808,-0.01977
7.812,-0.00112
7.816,-0.04541
7.82,-0.00026
7.824,-0.02696
7.828,-0.01546
7.832,0.00314
7.836,-0.00879
7.84,-0.00697
7.844,0.0185
7.848,0.02299
7.852,0.0123
7.856,0.017
7.86,0.02225
7.864,0.05074
7.868,0.04007
7.872,0.04947
7.876,0.03768
7.88,0.0701
7.884,0.08252
7.888,0.07819
7.892,0.13228
7.896,0.10402
7.9,0.11527
7.904,0.12422
7.908,0.14765
7.912,0.15341
7.916,0.1499
7.92,0.15622
7.924,0.18115
7.928,0.18558
7.932,0.18424
7.936,0.21239
7.94,0.20831
7.944,0.21075
7.948,0.22
7.952,0.17658
7.956,0.17761
7.96,0.18474
7.964,0.18141
7.968,0.15488
7.972,0.17947
7.976,0.14172
7.98,0.12526
7.984,0.12176
7.988,0.09458
7.992,0.08339
7.996,0.10838
8.0,0.07489
8.004,0.06652
8.008,0.06719
8.012,0.0382
8.016,0.05791
8.02,0.02409
8.024,0.01257
8.028,0.0355
8.032,-0.01245
8.036,-0.00947
8.04,-0.02003
8.044,-0.00423
8.048,-0.03357
8.052,-0.00091
8.056,-0.03665
8.06,-0.02451
8.064,-0.01599
8.068,-0.01988
8.072,-0.02866
8.076,-0.03039
8.08,-0.02192
8.084,-0.03561
8.088,-0.02199
8.092,-0.00768
8.096,-0.03199
8.1,-0.01022
8.104,-0.0052
8.108,0.00892
8.112,-0.04706
8.116,-0.02341
8.12,-0.02134
8.124,-0.04883
8.128,-0.01744
8.132,-0.00848
8.136,-0.05578
8.14,-0.0341
8.144,-0.02399
8.148,-0.01976
8.152,0.00037
8.156,-0.01603
8.16,-0.0498
8.164,-0.00503
8.168,-0.04868
8.172,-0.00925
8.176,-0.05401
8.18,-0.00346
8.184,-0.03439
8.188,-0.0176
8.192,-0.01553
8.196,-0.03137
8.2,-0.01659
8.204,-0.0356
8.208,-0.02447
8.212,-0.03016
8.216,-0.02412
8.22,-0.02482
8.224,-0.01165
8.228,-0.01
8.232,-0.01974
8.236,-0.02432
8.24,-0.05055
8.244,-0.00796
8.248,-0.02239
8.252,-0.02556
8.256,0.00862
8.26,0.04806
8.264,0.03212
8.268,0.03689
8.272,0.04508
8.276,0.05111
8.28,0.05631
8.284,0.06605
8.288,0.07246
8.292,0.08558
8.296,0.05009
8.3,0.01916
8.304,-0.00085
8.308,0.0331
8.312,0.01589
8.316,-0.001
8.32,-0.00883
8.324,-0.01694
8.328,-0.01095
8.332,-0.01128
8.336,-0.03798
8.34,-0.01393
8.344,-0.03434
8.348,0.00866
8.352,-0.06551
8.356,-0.0112
8.36,-0.05822
8.364,-0.03175
8.368,-0.02459
8.372,-0.0315
8.376,-0.04927
8.38,-0.04905
8.384,-0.01214
8.388,-0.00591
8.392,-0.02314
8.396,-0.04049
8.4,-0.05712
8.404,-0.07298
8.408,-0.1407
8.412,-0.1289
8.416,-0.13828
8.42,-0.01832
8.424,0.11808
8.428,0.29579
8.432,0.55426
8.436,0.73473
8.44,0.90388
8.444,0.96294
8.448,0.92696
8.452,0.77698
8.456,0.60363
8.46,0.37179
8.464,0.1605
8.468,-0.05138
8.472,-0.12853
8.476,-0.17981
8.48,-0.20231
8.484,-0.15355
8.488,-0.10975
8.492,-0.05431
8.496,-0.05278
8.5,-0.02729
8.504,-0.04474
8.508,-0.03415
8.512,-0.03553
8.516,-0.04067
8.52,-0.01137
8.524,-0.01726
8.528,-0.05726
8.532,-0.02418
8.536,-0.02304
8.54,-0.03973
8.544,-0.05733
8.548,-0.04531
8.552,-0.01828
8.556,-0.03984
8.56,-0.04183
8.564,-0.04088
8.568,-0.02739
8.572,-0.03131
8.576,-0.02406
8.58,-0.0269
8.584,-0.03024
8.588,-0.03793
8.592,-0.02331
8.596,-0.0148
8.6,-0.02637
8.604,-0.03306
8.608,-0.012
8.612,-0.00444
8.616,-0.01015
8.62,-0.01964
8.624,-0.02023
8.628,-0.01282
8.632,-0.00959
8.636,-0.01208
8.64,0.01574
8.644,0.01195
8.648,-0.00337
8.652,0.0581
8.656,0.03928
8.66,0.05481
8.664,0.06243
8.668,0.06376
8.672,0.1035
8.676,0.119
8.68,0.1086
8.684,0.10829
8.688,0.131
8.692,0.15514
8.696,0.15629
8.7,0.14818
8.704,0.17369
8.708,0.1917
8.712,0.16793
8.716,0.18372
8.72,0.18662
8.724,0.21286
8.728,0.20521
8.732,0.1982
8.736,0.18978
8.74,0.18938
8.744,0.19209
8.748,0.18886
8.752,0.16153
8.756,0.14244
8.76,0.13146
8.764,0.12359
8.768,0.10015
8.772,0.08744
8.776,0.07141
8.78,0.0786
8.784,0.04284
8.788,0.03703
8.792,0.04243
8.796,-0.01819
8.8,0.01763
8.804,0.00686
8.808,0.02561
8.812,0.01377
8.816,0.01097
8.82,-0.02214
8.824,0.00901
8.828,-0.0024
8.832,-0.02038
8.836,-0.00409
8.84,0.01008
8.844,-0.02253
8.848,-0.03205
8.852,-0.02199
8.856,-0.01015
8.86,0.00242
8.864,-0.04092
8.868,-0.03824
8.872,-0.0341
8.876,-0.01976
8.88,-0.03856
8.884,-0.02665
8.888,0.00484
8.892,0.00426
8.896,-0.02198
8.9,-0.04272
8.904,-0.01307
8.908,-0.01181
8.912,-0.03432
8.916,-0.03622
8.92,0.01873
8.924,-0.0109
8.928,-0.02955
8.932,-0.03489
8.936,-0.02699
8.94,-0.02971
8.944,0.00217
8.948,-0.03589
8.952,-0.01778
8.956,-0.02844
8.96,-0.02554
8.964,-0.02252
8.968,-0.02518
8.972,-0.05356
8.976,-0.04332
8.98,-0.05528
8.984,-0.03749
8.988,-0.03022
8.992,-0.0305
8.996,-0.03172
9.0,-0.02616
9.004,-0.02774
9.008,-0.03086
9.012,-0.01876
9.016,-0.02795
9.02,-0.03145
9.024,-0.03443
9.028,-0.01339
9.032,-0.04711
9.036,-0.01151
9.04,-0.03478
9.044,-0.05455
9.048,-0.02968
9.052,-0.00495
9.056,0.00366
9.06,0.00379
9.064,-0.00589
9.068,0.01144
9.072,0.05174
9.076,0.03053
9.08,0.03963
9.084,0.04881
9.088,0.05989
9.092,0.0666
9.096,0.09556
9.1,0.03716
9.104,0.06076
9.108,0.03185
9.112,0.02633
9.116,0.01488
9.12,0.01631
9.124,0.01517
9.128,-0.02521
9.132,0.00013
9.136,-0.02595
9.14,-0.00656
9.144,-0.03366
9.148,-0.02189
9.152,-0.04813
9.156,-0.01459
9.16,-0.01458
9.164,-0.04675
9.168,-0.04733
9.172,-0.03531
9.176,-0.01858
9.18,-0.0223
9.184,-0.03263
9.188,-0.00989
9.192,-0.03753
9.196,-0.04339
9.2,-0.01127
9.204,-0.02937
9.208,-0.04458
9.212,-0.08437
9.216,-0.11932
9.22,-0.14874
9.224,-0.1255
9.228,-0.03352
9.232,0.11541
9.236,0.30281
9.24,0.51578
9.244,0.70567
9.248,0.89473
9.252,0.97677
9.256,0.94507
9.26,0.80682
9.264,0.57836
9.268,0.34766
9.272,0.12529
9.276,-0.01987
9.28,-0.12969
9.284,-0.18146
9.288,-0.18815
9.292,-0.1415
9.296,-0.1238
9.3,-0.08403
9.304,-0.07355
9.308,-0.04896
9.312,-0.04265
9.316,-0.02397
9.32,-0.04796
9.324,-0.01561
9.328,-0.02322
9.332,-0.03367
9.336,-0.0089
9.34,-0.0334
9.344,-0.01929
9.348,-0.01801
9.352,-0.00111
9.356,-0.03075
9.36,-0.02211
9.364,-0.01873
9.368,-0.01956
9.372,-0.05015
9.376,-0.03227
9.38,-0.02543
9.384,-0.01345
9.388,-0.02879
9.392,-0.02634
9.396,-0.0177
9.4,-0.0317
9.404,0.00274
9.408,-0.01184
9.412,-0.01204
9.416,-0.00596
9.42,-0.0011
9.424,-0.02808
9.428,-0.01877
9.432,0.00492
9.436,-0.00743
9.44,0.03077
9.444,0.01908
9.448,0.01119
9.452,-0.001
9.456,-0.00534
9.46,0.03814
9.464,0.03378
9.468,0.05947
9.472,0.08571
9.476,0.06318
9.48,0.09255
9.484,0.09188
9.488,0.09486
9.492,0.12666
9.496,0.13656
9.5,0.15347
9.504,0.16353
9.508,0.14769
9.512,0.17575
9.516,0.18764
9.52,0.18645
9.524,0.22114
9.528,0.19512
9.532,0.20442
9.536,0.18862
9.54,0.21375
9.544,0.18393
9.548,0.17568
9.552,0.20668
9.556,0.17098
9.56,0.17639
9.564,0.1687
9.568,0.133
9.572,0.13873
9.576,0.11253
9.58,0.11835
9.584,0.10215
9.588,0.06367
9.592,0.07776
9.596,0.04833
9.6,0.08753
9.604,0.03496
9.608,0.04329
9.612,0.01967
9.616,0.00979
9.62,-0.00635
9.624,-0.00947
9.628,-0.02729
9.632,-0.00438
9.636,0.00737
9.64,0.01615
9.644,0.00735
9.648,-0.03617
9.652,-0.00416
9.656,-0.04363
9.66,-0.01514
9.664,-0.02807
9.668,-0.00892
9.672,0.01759
9.676,-0.0084
9.68,-0.03538
9.684,-0.01387
9.688,-0.02925
9.692,-0.02533
9.696,-0.01169
9.7,-0.01528
9.704,-0.01742
9.708,-0.02389
9.712,-0.04321
9.716,-0.00338
9.72,0.01072
9.724,0.03295
9.728,0.05815
9.732,0.04862
9.736,0.04638
9.74,0.09467
9.744,0.08909
9.748,0.07615
9.752,0.0927
9.756,0.09391
9.76,0.05637
9.764,0.07576
9.768,0.06454
9.772,0.04465
9.776,0.04344
9.78,0.01533
9.784,-0.01614
9.788,0.00668
9.792,-0.01268
9.796,-0.02887
9.8,-0.0157
9.804,0.00018
9.808,-0.0261
9.812,-0.01131
9.816,-0.02532
9.82,-0.0094
9.824,-0.02364
9.828,-0.01411
9.832,-0.03911
9.836,-0.00633
9.84,-0.00418
9.844,-0.0118
9.848,-0.02201
9.852,-0.01696
9.856,-0.00538
9.86,-0.019
9.864,-0.07425
9.868,-0.03933
9.872,-0.07106
9.876,-0.10038
9.88,-0.11981
9.884,-0.07732
9.888,0.04261
9.892,0.18294
9.896,0.39233
9.9,0.61834
9.904,0.78388
9.908,0.92455
9.912,0.99169
9.916,0.91235
9.92,0.72127
9.924,0.51998
9.928,0.29379
9.932,0.11503
9.936,-0.07134
9.94,-0.13405
9.944,-0.17889
9.948,-0.15874
9.952,-0.14306
9.956,-0.0842
9.96,-0.04536
9.964,-0.00204
9.968,-0.0002
9.972,-0.0143
9.976,-0.0044
9.98,-0.01177
9.984,-0.01361
9.988,-0.01045
9.992,0.00688
9.996,0.00483
