t_seg,ecg_mV
0.0,-0.02686
0.004,0.0615
0.008,-0.02754
0.012,0.03315
0.016,0.0057
0.02,0.03191
0.024,-0.01573
0.028,0.02506
0.032,0.07547
0.036,-0.01269
0.04,-0.02687
0.044,-0.01432
0.048,0.13535
0.052,0.06015
0.056,0.0717
0.06,-0.00098
0.064,-0.04863
0.068,-0.07848
0.072,-0.07393
0.076,-0.02977
0.08,0.11965
0.084,0.25251
0.088,0.35941
0.092,0.60806
0.096,0.87109
0.1,0.95067
0.104,1.00068
0.108,0.95971
0.112,0.75143
0.116,0.59612
0.12,0.41537
0.124,0.14865
0.128,0.01277
0.132,-0.13258
0.136,-0.14198
0.14,-0.1331
0.144,-0.04521
0.148,0.00378
0.152,0.07439
0.156,0.06632
0.16,-0.00579
0.164,0.03069
0.168,0.01075
0.172,0.0243
0.176,0.00353
0.18,-0.03062
0.184,0.0348
0.188,0.05662
0.192,0.02731
0.196,-0.03618
0.2,0.11685
0.204,0.06848
0.208,0.01819
0.212,-0.01478
0.216,0.02963
0.22,0.08565
0.224,0.0657
0.228,0.01632
0.232,0.02887
0.236,0.06181
0.24,0.03525
0.244,0.02323
0.248,0.00841
0.252,0.04575
0.256,0.06278
0.26,0.07604
0.264,0.04063
0.268,0.04381
0.272,0.01934
0.276,0.01199
0.28,0.02248
0.284,0.10775
0.288,0.04811
0.292,0.05389
0.296,0.06644
0.3,0.05149
0.304,0.13076
0.308,0.10482
0.312,0.10506
0.316,0.09297
0.32,0.11259
0.324,0.19779
0.328,0.15083
0.332,0.15765
0.336,0.14209
0.34,0.20959
0.344,0.1864
0.348,0.15167
0.352,0.23373
0.356,0.22535
0.36,0.26659
0.364,0.27992
0.368,0.34147
0.372,0.30136
0.376,0.31142
0.38,0.33287
0.384,0.39735
0.388,0.34148
0.392,0.34587
0.396,0.27323
0.4,0.26368
0.404,0.2334
0.408,0.25744
0.412,0.24514
0.416,0.2369
0.42,0.18702
0.424,0.14617
0.428,0.20551
0.432,0.1905
0.436,0.12251
0.44,0.15499
0.444,0.08742
0.448,0.07675
0.452,0.12665
0.456,0.12312
0.46,0.07625
0.464,0.06355
0.468,0.0571
0.472,0.10399
0.476,0.07352
0.48,0.05953
0.484,0.046
0.488,0.00753
0.492,0.07554
0.496,0.03794
0.5,0.00131
0.504,-0.09973
0.508,-0.06125
0.512,-0.09895
0.516,0.03393
0.52,0.15157
0.524,0.33704
0.528,0.55636
0.532,0.75725
0.536,0.92621
0.54,0.97286
0.544,1.00512
0.548,0.87265
0.552,0.65919
0.556,0.47891
0.56,0.21794
0.564,0.02177
0.568,-0.12914
0.572,-0.16331
0.576,-0.12807
0.58,-0.0486
0.584,-0.02357
0.588,-0.06304
0.592,0.03226
0.596,0.01235
0.6,0.08066
0.604,0.04197
0.608,0.03695
0.612,0.07597
0.616,0.04867
0.62,0.03279
0.624,-0.0283
0.628,0.09122
0.632,0.06097
0.636,0.02188
0.64,0.0365
0.644,0.08543
0.648,-0.03897
0.652,0.05567
0.656,0.05999
0.66,0.00015
0.664,0.02364
0.668,0.00715
0.672,0.00354
0.676,-0.01466
0.68,0.00755
0.684,0.04564
0.688,-0.00489
0.692,0.10391
0.696,0.07746
0.7,-0.01449
0.704,0.02105
0.708,0.03086
0.712,-0.00651
0.716,0.05932
0.72,0.05286
0.724,0.05073
0.728,0.07799
0.732,0.11148
0.736,0.04816
0.74,0.1621
0.744,0.06883
0.748,0.11525
0.752,0.11763
0.756,0.14531
0.76,0.08766
0.764,0.09448
0.768,0.16137
0.772,0.22235
0.776,0.13695
0.78,0.16319
0.784,0.16257
0.788,0.21666
0.792,0.22448
0.796,0.22113
0.8,0.2735
0.804,0.16885
0.808,0.21439
0.812,0.22168
0.816,0.26194
0.82,0.23361
0.824,0.27755
0.828,0.19533
0.832,0.22529
0.836,0.2345
0.84,0.20525
0.844,0.19685
0.848,0.20327
0.852,0.20105
0.856,0.15116
0.86,0.1688
0.864,0.15577
0.868,0.15345
0.872,0.14153
0.876,0.13333
0.88,0.04473
0.884,0.16272
0.888,0.20654
0.892,0.12831
0.896,0.06586
0.9,0.11518
0.904,0.13389
0.908,0.09584
0.912,0.12578
0.916,0.14793
0.92,0.15704
0.924,0.08278
0.928,0.09687
0.932,0.12437
0.936,0.1692
0.94,0.09124
0.944,0.15122
0.948,0.11188
0.952,0.08446
0.956,0.10787
0.96,0.04011
0.964,0.09924
0.968,0.0247
0.972,0.01203
0.976,0.04169
0.98,0.02616
0.984,0.06437
0.988,0.0493
0.992,0.01579
0.996,0.02684
1.0,-0.01491
1.004,0.01062
1.008,0.05323
1.012,0.00918
1.016,0.05205
1.02,0.05675
1.024,0.05032
1.028,-0.0299
1.032,0.00149
1.036,-0.01014
1.04,-0.02295
1.044,-0.03444
1.048,0.02904
1.052,-0.06368
1.056,-0.02791
1.06,-0.06848
1.064,-0.02478
1.068,0.12406
1.072,0.26073
1.076,0.45055
1.08,0.67782
1.084,0.89751
1.088,0.94117
1.092,1.04148
1.096,0.91187
1.1,0.68885
1.104,0.55694
1.108,0.29317
1.112,0.10679
1.116,-0.08791
1.12,-0.10719
1.124,-0.11323
1.128,-0.03468
1.132,-0.07809
1.136,-0.1174
1.14,-0.03734
1.144,-0.0054
1.148,-0.03713
1.152,-0.00258
1.156,0.01429
1.16,0.00367
1.164,0.07658
1.168,0.00759
1.172,0.04058
1.176,0.03196
1.18,0.03821
1.184,0.00324
1.188,-0.05253
1.192,0.0715
1.196,0.02569
1.2,0.01108
1.204,0.04489
1.208,0.01036
1.212,0.03616
1.216,0.0522
1.22,-0.00638
1.224,0.04745
1.228,0.01596
1.232,0.0182
1.236,-0.03363
1.24,0.02596
1.244,-0.00918
1.248,0.03602
1.252,0.00873
1.256,-0.05165
1.26,0.01855
1.264,0.01372
1.268,0.01937
1.272,0.03354
1.276,0.04063
1.28,0.08821
1.284,-0.00277
1.288,0.0671
1.292,0.02707
1.296,0.1026
1.3,0.08116
1.304,0.08428
1.308,0.09016
1.312,0.10999
1.316,0.08224
1.32,0.15291
1.324,0.15549
1.328,0.14694
1.332,0.146
1.336,0.13291
1.34,0.23137
1.344,0.27533
1.348,0.19538
1.352,0.244
1.356,0.20452
1.36,0.27451
1.364,0.14475
1.368,0.19752
1.372,0.26311
1.376,0.26977
1.38,0.17827
1.384,0.25991
1.388,0.25524
1.392,0.20569
1.396,0.2373
1.4,0.2558
1.404,0.19221
1.408,0.14674
1.412,0.16473
1.416,0.14611
1.42,0.14338
1.424,0.10024
1.428,0.14182
1.432,0.10796
1.436,0.09952
1.44,0.03996
1.444,0.00853
1.448,0.07312
1.452,0.10286
1.456,0.07086
1.46,0.03924
1.464,0.06193
1.468,-0.02101
1.472,0.05618
1.476,0.05978
1.48,0.01954
1.484,0.01786
1.488,0.02762
1.492,-0.01477
1.496,0.00706
1.5,0.02808
1.504,-0.03829
1.508,0.03784
1.512,0.00198
1.516,0.00088
1.52,0.03334
1.524,0.06044
1.528,0.00515
1.532,-0.00429
1.536,0.007
1.54,0.04598
1.544,0.06454
1.548,0.02376
1.552,0.00651
1.556,-0.00322
1.56,0.01209
1.564,0.01487
1.568,-0.00134
1.572,0.06294
1.576,0.05818
1.58,-0.00294
1.584,-0.03161
1.588,-0.00764
1.592,-0.01428
1.596,-0.01173
1.6,0.0251
1.604,0.0425
1.608,0.02119
1.612,-0.02188
1.616,0.00776
1.62,0.05477
1.624,-0.0227
1.628,0.05912
1.632,-0.03378
1.636,-0.02015
1.64,0.01109
1.644,0.00188
1.648,0.04705
1.652,-0.00996
1.656,0.05679
1.66,0.01144
1.664,0.00896
1.668,-0.05745
1.672,0.00587
1.676,-0.03235
1.68,0.04493
1.684,0.02957
1.688,-0.00623
1.692,-0.01874
1.696,-0.04586
1.7,0.03918
1.704,0.03594
1.708,0.00544
1.712,-0.021
1.716,-0.07575
1.72,-0.019
1.724,0.03284
1.728,0.01849
1.732,-0.00313
1.736,0.02925
1.74,0.05689
1.744,-0.02327
1.748,-0.00752
1.752,-0.03175
1.756,0.0058
1.76,-0.00465
1.764,-0.01961
1.768,-0.05871
1.772,0.00596
1.776,0.01443
1.78,-0.01941
1.784,-0.01991
1.788,-0.04264
1.792,-0.01776
1.796,-0.043
1.8,-0.03494
1.804,0.03893
1.808,-0.00336
1.812,0.03727
1.816,-0.04816
1.82,0.02202
1.824,-0.02778
1.828,0.03858
1.832,-0.01339
1.836,-0.02442
1.84,0.08596
1.844,-0.00361
1.848,-0.00386
1.852,0.03278
1.856,0.04865
1.86,-0.00066
1.864,0.01024
1.868,0.00496
1.872,0.00186
1.876,0.06376
1.88,0.03153
1.884,0.00033
1.888,0.07073
1.892,0.07952
1.896,0.16909
1.9,0.09911
1.904,0.16562
1.908,0.08081
1.912,0.03686
1.916,0.04841
1.92,0.04381
1.924,0.06506
1.928,0.01977
1.932,0.04172
1.936,0.00071
1.94,-0.04089
1.944,0.04058
1.948,-0.00825
1.952,0.06816
1.956,0.02965
1.96,0.04979
1.964,-0.03523
1.968,0.01422
1.972,-0.03835
1.976,0.06662
1.98,-0.0711
1.984,-0.02258
1.988,0.02019
1.992,-0.01542
1.996,0.01181
2.0,-0.02913
2.004,0.00508
2.008,-0.05611
2.012,-0.02021
2.016,0.01402
2.02,-0.06975
2.024,0.01171
2.028,-0.09038
2.032,-0.17533
2.036,-0.12415
2.04,0.07234
2.044,0.21947
2.048,0.32995
2.052,0.5905
2.056,0.81986
2.06,0.93367
2.064,1.01775
2.068,0.93475
2.072,0.71823
2.076,0.59374
2.08,0.29439
2.084,0.11938
2.088,-0.06353
2.092,-0.17757
2.096,-0.11977
2.1,-0.19041
2.104,-0.09197
2.108,-0.14322
2.112,-0.11443
2.116,-0.01976
2.12,-0.02288
2.124,0.01549
2.128,0.04228
2.132,-0.00421
2.136,-0.10245
2.14,0.03114
2.144,-0.01497
2.148,0.00499
2.152,-0.01084
2.156,-0.00617
2.16,-0.02093
2.164,0.0427
2.168,0.01032
2.172,-0.04062
2.176,-0.00866
2.18,0.02083
2.184,-0.01104
2.188,-0.03193
2.192,0.01426
2.196,-0.02473
2.2,0.01054
2.204,0.02129
2.208,0.01112
2.212,0.08685
2.216,0.03929
2.22,0.01792
2.224,0.04
2.228,0.02774
2.232,0.07593
2.236,0.08437
2.24,0.08117
2.244,0.11578
2.248,0.10922
2.252,0.15063
2.256,0.0979
2.26,0.15385
2.264,0.16523
2.268,0.07094
2.272,0.08137
2.276,0.12329
2.28,0.06641
2.284,0.05866
2.288,0.04511
2.292,0.10289
2.296,0.14026
2.3,0.10749
2.304,0.17271
2.308,0.18166
2.312,0.17842
2.316,0.23048
2.32,0.16163
2.324,0.06499
2.328,0.25151
2.332,0.18101
2.336,0.17588
2.34,0.20461
2.344,0.23619
2.348,0.21614
2.352,0.26016
2.356,0.21534
2.36,0.21023
2.364,0.09904
2.368,0.07591
2.372,0.12316
2.376,0.04057
2.38,0.05381
2.384,0.08509
2.388,0.1626
2.392,0.40393
2.396,0.60143
2.4,0.82372
2.404,0.91038
2.408,1.0478
2.412,1.05753
2.416,0.93483
2.42,0.7561
2.424,0.4704
2.428,0.23816
2.432,0.11556
2.436,-0.05235
2.44,-0.13052
2.444,-0.16429
2.448,-0.19161
2.452,-0.05892
2.456,0.03792
2.46,0.00825
2.464,-0.03808
2.468,0.0009
2.472,-0.0082
2.476,-0.00658
2.48,-0.05847
2.484,0.00987
2.488,-0.02039
2.492,0.03547
2.496,-0.03123
2.5,-0.05019
2.504,0.01519
2.508,-0.0077
2.512,-0.02105
2.516,0.03697
2.52,0.00374
2.524,0.00239
2.528,0.01723
2.532,-0.02076
2.536,-0.07295
2.54,-0.00068
2.544,-0.00302
2.548,-0.01473
2.552,-0.01102
2.556,0.03424
2.56,0.01285
2.564,-0.06507
2.568,0.0027
2.572,0.01154
2.576,0.03448
2.58,-0.00811
2.584,-0.01846
2.588,0.01024
2.592,-0.04812
2.596,-0.04369
2.6,0.03041
2.604,0.0054
2.608,-0.01866
2.612,-0.01788
2.616,0.0788
2.62,0.09262
2.624,0.04732
2.628,0.0685
2.632,0.10836
2.636,0.12958
2.64,0.1295
2.644,0.13064
2.648,0.09865
2.652,0.13293
2.656,0.19456
2.66,0.21651
2.664,0.1722
2.668,0.21343
2.672,0.23416
2.676,0.17044
2.68,0.19822
2.684,0.21308
2.688,0.20164
2.692,0.18394
2.696,0.28298
2.7,0.19585
2.704,0.17781
2.708,0.20733
2.712,0.14398
2.716,0.11367
2.72,0.19685
2.724,0.1519
2.728,0.14875
2.732,0.13365
2.736,0.08615
2.74,0.10622
2.744,0.09888
2.748,0.05032
2.752,0.07619
2.756,0.06534
2.76,0.05078
2.764,0.04816
2.768,0.06579
2.772,0.07631
2.776,0.0169
2.78,-0.01595
2.784,-0.00562
2.788,-0.02482
2.792,-0.03301
2.796,-0.03419
2.8,0.03519
2.804,-0.01774
2.808,0.03452
2.812,0.0304
2.816,0.07093
2.82,0.00388
2.824,0.04863
2.828,0.00525
2.832,0.07815
2.836,0.06108
2.84,0.11877
2.844,-0.00119
2.848,0.0309
2.852,0.06998
2.856,0.10936
2.86,0.07928
2.864,0.02932
2.868,0.01494
2.872,0.07176
2.876,0.03676
2.88,-0.0225
2.884,0.01705
2.888,-0.03963
2.892,-0.04526
2.896,-0.01582
2.9,-0.00414
2.904,-0.04322
2.908,-0.0867
2.912,0.02207
2.916,-0.03743
2.92,-0.0681
2.924,-0.03466
2.928,-0.05249
2.932,-0.06343
2.936,-0.00125
2.94,0.00725
2.944,0.05679
2.948,-0.05542
2.952,-0.0356
2.956,0.01799
2.96,-0.0678
2.964,-0.06621
2.968,-0.1316
2.972,-0.14236
2.976,-0.1319
2.98,-0.04162
2.984,0.07487
2.988,0.26816
2.992,0.51999
2.996,0.5722
3.0,0.87896
3.004,0.97522
3.008,0.96211
3.012,0.86301
3.016,0.63911
3.02,0.45815
3.024,0.20223
3.028,0.03532
3.032,-0.06422
3.036,-0.20712
3.04,-0.18457
3.044,-0.14214
3.048,-0.10984
3.052,-0.05632
3.056,0.01071
3.06,-0.08674
3.064,0.0039
3.068,-0.08866
3.072,-0.00693
3.076,-0.03534
3.08,0.01253
3.084,-0.02351
3.088,-0.02455
3.092,-0.00584
3.096,-0.02096
3.1,-0.00396
3.104,-0.06888
3.108,-0.00032
3.112,0.00796
3.116,0.0464
3.12,-0.04318
3.124,-0.00116
3.128,-0.04168
3.132,-0.07643
3.136,-0.03409
3.14,-0.00811
3.144,-0.03764
3.148,-0.06429
3.152,-0.07393
3.156,0.02234
3.16,-0.01664
3.164,-0.0709
3.168,-0.07302
3.172,0.02755
3.176,-0.02636
3.18,0.00094
3.184,-0.07193
3.188,-0.05088
3.192,-0.02969
3.196,-0.04159
3.2,-0.02225
3.204,-0.01877
3.208,0.03273
3.212,0.0081
3.216,0.00113
3.22,0.07201
3.224,0.01329
3.228,0.07452
3.232,0.08244
3.236,0.0867
3.24,0.10174
3.244,0.09051
3.248,0.12344
3.252,0.08483
3.256,0.11707
3.26,0.17973
3.264,0.18488
3.268,0.17543
3.272,0.2352
3.276,0.16993
3.28,0.24999
3.284,0.19067
3.288,0.19403
3.292,0.17344
3.296,0.16101
3.3,0.23348
3.304,0.18104
3.308,0.20919
3.312,0.18857
3.316,0.16112
3.32,0.1708
3.324,0.09886
3.328,0.15673
3.332,0.14272
3.336,0.10893
3.34,0.10348
3.344,0.08838
3.348,0.10233
3.352,0.06934
3.356,0.02759
3.36,0.0923
3.364,0.0028
3.368,-0.04755
3.372,0.00162
3.376,0.05623
3.38,0.09946
3.384,-0.01676
3.388,-0.02634
3.392,-0.04727
3.396,0.01958
3.4,-0.00034
3.404,0.00629
3.408,-0.08385
3.412,-0.01092
3.416,-0.05076
3.42,-0.04525
3.424,0.00998
3.428,0.04826
3.432,0.00276
3.436,0.01904
3.44,-0.01278
3.444,0.02941
3.448,0.0584
3.452,0.06556
3.456,0.0587
3.46,0.11155
3.464,0.07805
3.468,0.05048
3.472,0.07479
3.476,0.13469
3.48,0.04028
3.484,0.04213
3.488,-0.02011
3.492,-0.01558
3.496,0.01659
3.5,-0.06724
3.504,0.00652
3.508,-0.03661
3.512,-0.07544
3.516,-0.04727
3.52,-0.0087
3.524,-0.0046
3.528,-0.04462
3.532,-0.05686
3.536,0.00862
3.54,-0.04998
3.544,-0.07425
3.548,-0.00198
3.552,0.01136
3.556,-0.02863
3.56,-0.03552
3.564,0.05613
3.568,-0.0148
3.572,-0.05497
3.576,-0.08337
3.58,-0.04743
3.584,-0.04015
3.588,-0.10633
3.592,-0.13666
3.596,-0.20871
3.6,-0.13232
3.604,-0.02475
3.608,0.18654
3.612,0.2887
3.616,0.54962
3.62,0.78342
3.624,0.90001
3.628,1.05418
3.632,0.96502
3.636,0.74051
3.64,0.50054
3.644,0.27835
3.648,0.0828
3.652,-0.03763
3.656,-0.12599
3.66,-0.27276
3.664,-0.15276
3.668,-0.18793
3.672,-0.09885
3.676,-0.03363
3.68,-0.03896
3.684,-0.02534
3.688,-0.00346
3.692,0.03822
3.696,-0.03241
3.7,-0.03768
3.704,0.00702
3.708,0.0544
3.712,0.04512
3.716,0.01213
3.72,0.05843
3.724,0.06657
3.728,0.09421
3.732,0.09253
3.736,0.09077
3.74,0.07189
3.744,0.07782
3.748,0.06491
3.752,0.05345
3.756,0.05775
3.76,0.10156
3.764,-0.02842
3.768,0.01488
3.772,-0.05718
3.776,-0.07373
3.78,-0.04762
3.784,-0.01748
3.788,-0.10303
3.792,-0.00566
3.796,-0.00202
3.8,-0.0345
3.804,-0.011
3.808,-0.0188
3.812,-0.0387
3.816,-0.02288
3.82,0.00671
3.824,0.05269
3.828,0.03601
3.832,-0.00084
3.836,0.00606
3.84,-0.02688
3.844,0.00541
3.848,0.05201
3.852,0.0365
3.856,0.10896
3.86,0.04316
3.864,0.04167
3.868,0.044
3.872,0.0616
3.876,0.1983
3.88,0.37248
3.884,0.62308
3.888,0.79932
3.892,1.04351
3.896,1.15883
3.9,1.14468
3.904,1.04747
3.908,0.9203
3.912,0.70484
3.916,0.45888
3.92,0.17969
3.924,0.09951
3.928,0.04315
3.932,-0.0272
3.936,0.00135
3.94,0.08273
3.944,0.07452
3.948,0.07061
3.952,0.14198
3.956,0.11569
3.96,0.12038
3.964,0.13656
3.968,0.09361
3.972,0.08456
3.976,0.03336
3.98,0.10096
3.984,-0.00915
3.988,0.06717
3.992,-0.03163
3.996,0.02755
4.0,0.01978
4.004,-0.05124
4.008,-0.00219
4.012,0.06359
4.016,0.04762
4.02,-0.02314
4.024,-0.05368
4.028,-0.02043
4.032,0.00666
4.036,-0.02103
4.04,-0.00608
4.044,-0.02983
4.048,-0.01716
4.052,0.00752
4.056,-0.05451
4.06,-0.04916
4.064,-0.04861
4.068,-0.02184
4.072,0.00159
4.076,0.05971
4.08,0.01419
4.084,0.0053
4.088,-0.03005
4.092,0.01921
4.096,0.02452
4.1,0.00755
4.104,0.00971
4.108,0.10334
4.112,0.04041
4.116,0.1221
4.12,0.06535
4.124,0.09575
4.128,0.08163
4.132,0.09477
4.136,0.07054
4.14,0.1115
4.144,0.12975
4.148,0.16057
4.152,0.21875
4.156,0.15001
4.16,0.1706
4.164,0.17912
4.168,0.24972
4.172,0.21728
4.176,0.21144
4.18,0.22612
4.184,0.25074
4.188,0.20573
4.192,0.21667
4.196,0.17411
4.2,0.33614
4.204,0.2552
4.208,0.21021
4.212,0.22755
4.216,0.24885
4.22,0.17387
4.224,0.14284
4.228,0.24618
4.232,0.08489
4.236,0.14052
4.24,0.10273
4.244,0.06479
4.248,0.12945
4.252,0.10177
4.256,0.01445
4.26,0.0007
4.264,0.04428
4.268,-0.00091
4.272,0.05535
4.276,-0.03544
4.28,0.03922
4.284,-0.01752
4.288,0.01154
4.292,-0.04691
4.296,-0.04231
4.3,0.0189
4.304,-0.00119
4.308,-0.02194
4.312,-0.01456
4.316,-0.03673
4.32,-0.01842
4.324,-0.00387
4.328,-0.06362
4.332,-0.11177
4.336,-0.13464
4.34,-0.09136
4.344,0.00869
4.348,0.13135
4.352,0.36995
4.356,0.54063
4.36,0.75757
4.364,0.92857
4.368,0.96986
4.372,0.89529
4.376,0.83695
4.38,0.51651
4.384,0.28107
4.388,0.10879
4.392,-0.01633
4.396,-0.13661
4.4,-0.13502
4.404,-0.17959
4.408,-0.0985
4.412,-0.11988
4.416,-0.1102
4.42,-0.02712
4.424,-0.03062
4.428,9e-05
4.432,-0.05326
4.436,-0.03753
4.44,-0.03334
4.444,0.01309
4.448,-0.02337
4.452,-0.04476
4.456,0.02678
4.46,-0.01808
4.464,-0.00385
4.468,-0.08763
4.472,-0.04534
4.476,0.02573
4.48,0.03353
4.484,-0.01955
4.488,0.01999
4.492,-0.04069
4.496,0.03699
4.5,-0.05386
4.504,-0.07182
4.508,-0.03471
4.512,-0.0216
4.516,-0.05125
4.52,-0.0652
4.524,0.04458
4.528,-0.0126
4.532,-0.04751
4.536,0.01012
4.54,-0.01845
4.544,0.04477
4.548,0.02024
4.552,0.07187
4.556,-0.01522
4.56,0.00162
4.564,-0.01132
4.568,0.0746
4.572,0.02356
4.576,0.05923
4.58,0.01616
4.584,0.0868
4.588,0.03899
4.592,0.06353
4.596,0.06458
4.6,0.12517
4.604,0.10892
4.608,0.18216
4.612,0.14668
4.616,0.18727
4.62,0.18779
4.624,0.1891
4.628,0.17603
4.632,0.22199
4.636,0.20019
4.64,0.17642
4.644,0.21971
4.648,0.21197
4.652,0.18869
4.656,0.20772
4.66,0.25474
4.664,0.18984
4.668,0.25095
4.672,0.24785
4.676,0.13926
4.68,0.13735
4.684,0.26196
4.688,0.19307
4.692,0.19088
4.696,0.17749
4.7,0.16442
4.704,0.17879
4.708,0.17149
4.712,0.17801
4.716,0.11684
4.72,0.12985
4.724,0.13249
4.728,0.0598
4.732,0.03984
4.736,0.08383
4.74,0.05124
4.744,0.01864
4.748,-0.00413
4.752,0.05633
4.756,-0.07001
4.76,-0.01255
4.764,0.03462
4.768,0.0123
4.772,-0.01654
4.776,-0.00251
4.78,-0.00716
4.784,-0.01479
4.788,0.04169
4.792,-0.02251
4.796,0.08037
4.8,-0.02354
4.804,-0.02488
4.808,-0.04295
4.812,0.06581
4.816,0.03338
4.82,-0.05443
4.824,-0.08438
4.828,-0.1121
4.832,-0.11997
4.836,-0.05633
4.84,0.02006
4.844,0.22372
4.848,0.41304
4.852,0.63796
4.856,0.79758
4.86,0.92976
4.864,1.05843
4.868,0.83857
4.872,0.67085
4.876,0.56938
4.88,0.28752
4.884,0.12188
4.888,-0.08749
4.892,-0.10027
4.896,-0.16333
4.9,-0.1731
4.904,-0.07644
4.908,-0.07407
4.912,-0.10645
4.916,-0.04023
4.92,0.01086
4.924,0.03239
4.928,0.00307
4.932,0.00612
4.936,-0.04812
4.94,0.01063
4.944,0.05827
4.948,0.02131
4.952,0.05107
4.956,-0.03092
4.96,-0.05905
4.964,-0.07597
4.968,-0.03369
4.972,-0.03073
4.976,-0.02272
4.98,-0.02888
4.984,0.06454
4.988,-0.06425
4.992,-0.03956
4.996,0.07434
5.0,-0.00735
5.004,-0.01519
5.008,-0.011
5.012,0.05828
5.016,0.06155
5.02,0.0013
5.024,0.00759
5.028,-0.00802
5.032,-0.0408
5.036,-0.00716
5.04,-0.00639
5.044,0.02931
5.048,0.02866
5.052,-0.00374
5.056,0.00951
5.06,0.12308
5.064,0.00138
5.068,0.06043
5.072,0.03153
5.076,0.08144
5.08,0.0534
5.084,0.01125
5.088,0.12005
5.092,0.10363
5.096,0.17213
5.1,0.14652
5.104,0.15788
5.108,0.14256
5.112,0.12211
5.116,0.16701
5.12,0.17548
5.124,0.26119
5.128,0.16968
5.132,0.19243
5.136,0.16724
5.14,0.29081
5.144,0.2262
5.148,0.2881
5.152,0.34278
5.156,0.30073
5.16,0.27774
5.164,0.32517
5.168,0.28675
5.172,0.28406
5.176,0.26137
5.18,0.30338
5.184,0.28228
5.188,0.17529
5.192,0.20089
5.196,0.18616
5.2,0.12959
5.204,0.19921
5.208,0.03882
5.212,0.06641
5.216,0.10912
5.22,0.03851
5.224,0.0881
5.228,-0.01093
5.232,0.0213
5.236,-0.02259
5.24,0.04994
5.244,-0.02763
5.248,0.08588
5.252,0.01374
5.256,-0.02431
5.26,0.00607
5.264,0.0301
5.268,-0.01197
5.272,-0.01062
5.276,-0.01354
5.28,-0.04668
5.284,0.03816
5.288,-0.02433
5.292,-0.11934
5.296,-0.10607
5.3,-0.11927
5.304,-0.05547
5.308,0.05678
5.312,0.18337
5.316,0.42016
5.32,0.57995
5.324,0.85858
5.328,0.9911
5.332,1.01187
5.336,0.91995
5.34,0.73749
5.344,0.57093
5.348,0.34212
5.352,0.07929
5.356,-0.08757
5.36,-0.17872
5.364,-0.12818
5.368,-0.16322
5.372,-0.11026
5.376,-0.12674
5.38,-0.02247
5.384,0.05137
5.388,-0.02037
5.392,0.0189
5.396,0.03776
5.4,-0.00233
5.404,-0.04778
5.408,0.03289
5.412,-0.03416
5.416,0.02474
5.42,0.01207
5.424,0.03969
5.428,0.05011
5.432,-0.00774
5.436,0.02577
5.44,0.02411
5.444,0.00868
5.448,0.01804
5.452,0.02978
5.456,0.03543
5.46,0.03369
5.464,-0.02148
5.468,-0.0223
5.472,0.00794
5.476,0.00302
5.48,-0.0195
5.484,-0.00743
5.488,-0.00189
5.492,0.07829
5.496,-0.04691
5.5,0.00083
5.504,0.00537
5.508,0.06393
5.512,-0.04209
5.516,0.07924
5.52,0.01392
5.524,0.09195
5.528,0.08017
5.532,0.00515
5.536,0.10102
5.54,0.0776
5.544,0.06568
5.548,0.08164
5.552,0.06885
5.556,0.09414
5.56,0.12986
5.564,0.13055
5.568,0.12814
5.572,0.15507
5.576,0.17016
5.58,0.1823
5.584,0.18737
5.588,0.23202
5.592,0.25027
5.596,0.16664
5.6,0.19945
5.604,0.19648
5.608,0.22754
5.612,0.21371
5.616,0.21764
5.62,0.22664
5.624,0.17547
5.628,0.25541
5.632,0.27244
5.636,0.20333
5.64,0.15257
5.644,0.12646
5.648,0.23221
5.652,0.22712
5.656,0.13751
5.66,0.22307
5.664,0.18382
5.668,0.1731
5.672,0.18797
5.676,0.11751
5.68,0.19472
5.684,0.18332
5.688,0.19341
5.692,0.17324
5.696,0.12918
5.7,0.13342
5.704,0.06602
5.708,0.06827
5.712,0.15547
5.716,0.06214
5.72,0.00626
5.724,0.04173
5.728,0.09085
5.732,0.02818
5.736,0.08948
5.74,-0.03505
5.744,0.01555
5.748,0.05256
5.752,-0.02436
5.756,-0.00031
5.76,0.01085
5.764,-0.01202
5.768,-0.02817
5.772,0.04985
5.776,0.03391
5.78,0.02364
5.784,-0.00472
5.788,0.00287
5.792,0.02252
5.796,-0.00858
5.8,-0.03067
5.804,-0.04552
5.808,-0.04859
5.812,0.01654
5.816,-0.07243
5.82,-0.10578
5.824,-0.00559
5.828,0.00235
5.832,0.22645
5.836,0.43026
5.84,0.58915
5.844,0.90304
5.848,0.96629
5.852,1.04351
5.856,0.8493
5.86,0.79298
5.864,0.49
5.868,0.32439
5.872,0.07682
5.876,-0.06694
5.88,-0.12409
5.884,-0.18743
5.888,-0.11716
5.892,-0.10371
5.896,-0.04188
5.9,-0.0273
5.904,-0.08237
5.908,0.02142
5.912,0.00466
5.916,0.02801
5.92,-0.06148
5.924,0.05492
5.928,0.05463
5.932,0.02477
5.936,-0.02588
5.94,0.04233
5.944,0.04267
5.948,0.08706
5.952,0.04324
5.956,0.10884
5.96,0.01201
5.964,0.01639
5.968,0.02419
5.972,0.01769
5.976,-0.10181
5.98,0.10487
5.984,0.00618
5.988,0.08086
5.992,0.07256
5.996,0.01612
6.0,0.00688
6.004,0.09438
6.008,0.09494
6.012,0.09307
6.016,0.08324
6.02,0.14527
6.024,0.15382
6.028,0.11509
6.032,0.15681
6.036,0.18392
6.04,0.12789
6.044,0.15792
6.048,0.1463
6.052,0.0673
6.056,0.09597
6.06,0.11642
6.064,0.15862
6.068,0.13971
6.072,0.14637
6.076,0.17792
6.08,0.1936
6.084,0.20314
6.088,0.14005
6.092,0.17659
6.096,0.23785
6.1,0.18886
6.104,0.20025
6.108,0.28349
6.112,0.20422
6.116,0.2388
6.12,0.29503
6.124,0.26467
6.128,0.17209
6.132,0.23526
6.136,0.25779
6.14,0.27468
6.144,0.20949
6.148,0.21637
6.152,0.18293
6.156,0.19833
6.16,0.10932
6.164,0.04144
6.168,0.03606
6.172,0.15442
6.176,0.29418
6.18,0.50889
6.184,0.71278
6.188,0.91873
6.192,1.05931
6.196,1.11342
6.2,1.08424
6.204,0.9661
6.208,0.62607
6.212,0.45491
6.216,0.1621
6.22,0.01344
6.224,-0.09181
6.228,-0.0903
6.232,-0.09926
6.236,-0.12033
6.24,-0.07122
6.244,0.00652
6.248,0.00435
6.252,0.01864
6.256,0.05126
6.26,0.02754
6.264,0.03202
6.268,0.03913
6.272,0.00794
6.276,0.02695
6.28,0.01537
6.284,0.0898
6.288,0.00602
6.292,0.00863
6.296,0.05657
6.3,0.02696
6.304,0.04893
6.308,0.01355
6.312,0.03699
6.316,0.00811
6.32,-0.0213
6.324,0.0439
6.328,0.00508
6.332,0.0235
6.336,0.01488
6.34,0.07017
6.344,0.08993
6.348,-0.00586
6.352,0.05898
6.356,0.021
6.36,0.01379
6.364,0.02803
6.368,0.01098
6.372,-0.03261
6.376,0.01645
6.38,-0.01471
6.384,0.04391
6.388,0.00158
6.392,0.07155
6.396,0.03876
6.4,0.05288
6.404,0.08514
6.408,0.13284
6.412,0.09355
6.416,0.12217
6.42,0.14244
6.424,0.1244
6.428,0.13619
6.432,0.1553
6.436,0.2562
6.44,0.23063
6.444,0.24598
6.448,0.25194
6.452,0.28488
6.456,0.25381
6.46,0.32861
6.464,0.31632
6.468,0.29654
6.472,0.30522
6.476,0.28582
6.48,0.3752
6.484,0.29435
6.488,0.24509
6.492,0.32854
6.496,0.2371
6.5,0.20129
6.504,0.21234
6.508,0.2906
6.512,0.13995
6.516,0.14942
6.52,0.1884
6.524,0.14028
6.528,0.16432
6.532,0.12783
6.536,0.11759
6.54,0.10622
6.544,0.09146
6.548,0.04323
6.552,0.10467
6.556,0.04323
6.56,0.14788
6.564,0.11609
6.568,0.11427
6.572,0.0566
6.576,0.00627
6.58,-0.01597
6.584,-0.00991
6.588,-0.04718
6.592,-0.10953
6.596,-0.01068
6.6,0.01846
6.604,0.16522
6.608,0.3805
6.612,0.60199
6.616,0.8075
6.62,0.96271
6.624,1.00568
6.628,0.98214
6.632,0.78675
6.636,0.60704
6.64,0.44813
6.644,0.10135
6.648,-0.08626
6.652,-0.16157
6.656,-0.11248
6.66,-0.15572
6.664,-0.12758
6.668,-0.03505
6.672,-0.04337
6.676,0.04663
6.68,0.07434
6.684,0.00349
6.688,0.07011
6.692,0.0292
6.696,-0.00625
6.7,-0.05132
6.704,0.02903
6.708,0.04851
6.712,0.06263
6.716,0.04582
6.72,0.08782
6.724,0.00505
6.728,0.02175
6.732,-0.00046
6.736,-0.00191
6.74,0.07323
6.744,0.01864
6.748,0.02151
6.752,0.04154
6.756,0.06732
6.76,0.02242
6.764,0.07993
6.768,-0.00311
6.772,-0.01728
6.776,0.00907
6.78,-0.00059
6.784,0.07708
6.788,0.04867
6.792,0.08456
6.796,0.0152
6.8,0.01086
6.804,0.0312
6.808,0.07725
6.812,0.07823
6.816,0.04192
6.82,0.08533
6.824,0.08099
6.828,0.11633
6.832,0.14026
6.836,0.03881
6.84,0.09623
6.844,0.16841
6.848,0.12473
6.852,0.09886
6.856,0.18288
6.86,0.16517
6.864,0.15139
6.868,0.21694
6.872,0.20423
6.876,0.14383
6.88,0.17441
6.884,0.26376
6.888,0.18217
6.892,0.22478
6.896,0.30137
6.9,0.21847
6.904,0.22258
6.908,0.20841
6.912,0.23003
6.916,0.24657
6.92,0.1759
6.924,0.16666
6.928,0.22057
6.932,0.22301
6.936,0.22819
6.94,0.21196
6.944,0.18453
6.948,0.15671
6.952,0.17415
6.956,0.11056
6.96,0.1039
6.964,0.15379
6.968,0.10642
6.972,0.14149
6.976,0.02086
6.98,0.12858
6.984,0.08829
6.988,0.09847
6.992,0.10454
6.996,0.04285
7.0,0.03053
7.004,0.11048
7.008,0.07744
7.012,0.10529
7.016,0.06764
7.02,0.11395
7.024,0.17697
7.028,0.14523
7.032,0.1809
7.036,0.19117
7.04,0.18359
7.044,0.05248
7.048,0.15868
7.052,0.13086
7.056,0.07138
7.06,0.11667
7.064,0.0526
7.068,0.05364
7.072,0.06452
7.076,0.03161
7.08,0.02878
7.084,0.02475
7.088,0.047
7.092,0.01616
7.096,0.03805
7.1,-0.00025
7.104,0.06233
7.108,0.11024
7.112,0.04559
7.116,0.063
7.12,0.14324
7.124,-0.0209
7.128,0.09805
7.132,0.01637
7.136,0.08971
7.14,0.0693
7.144,0.05959
7.148,0.00767
7.152,-0.01084
7.156,-0.00405
7.16,-0.07837
7.164,-0.09935
7.168,-0.02443
7.172,0.1425
7.176,0.32598
7.18,0.45934
7.184,0.72415
7.188,0.90004
7.192,1.05627
7.196,1.02156
7.2,0.88984
7.204,0.69378
7.208,0.47999
7.212,0.27537
7.216,0.08349
7.22,0.00704
7.224,-0.0589
7.228,-0.22923
7.232,-0.12911
7.236,-0.11067
7.24,-0.03797
7.244,-0.05951
7.248,0.04769
7.252,0.0734
7.256,0.04166
7.26,0.03299
7.264,0.06599
7.268,0.0488
7.272,0.06676
7.276,-0.00744
7.28,0.02223
7.284,0.04489
7.288,0.02648
7.292,0.03697
7.296,-0.00105
7.3,0.02952
7.304,0.02787
7.308,0.03325
7.312,0.00493
7.316,0.02806
7.32,0.02959
7.324,0.04023
7.328,0.03419
7.332,0.04462
7.336,0.00207
7.34,0.04939
7.344,-0.01645
7.348,-0.04574
7.352,-0.01481
7.356,-0.00496
7.36,-0.01505
7.364,0.04163
7.368,-0.0247
7.372,0.09349
7.376,0.02344
7.38,0.04788
7.384,0.01451
7.388,0.05873
7.392,0.08017
7.396,0.03755
7.4,0.04536
7.404,0.13204
7.408,0.09889
7.412,0.11631
7.416,0.11802
7.42,0.16203
7.424,0.13865
7.428,0.12289
7.432,0.16492
7.436,0.19925
7.44,0.24073
7.444,0.14999
7.448,0.1894
7.452,0.28062
7.456,0.24959
7.46,0.27895
7.464,0.25072
7.468,0.32222
7.472,0.25337
7.476,0.23208
7.48,0.23844
7.484,0.23961
7.488,0.21504
7.492,0.20891
7.496,0.26106
7.5,0.26986
7.504,0.1888
7.508,0.2115
7.512,0.18551
7.516,0.18026
7.52,0.17251
7.524,0.16082
7.528,0.18068
7.532,0.16787
7.536,0.13356
7.54,0.17799
7.544,0.12128
7.548,0.12925
7.552,0.11482
7.556,0.16154
7.56,0.1505
7.564,0.11361
7.568,0.0697
7.572,0.16384
7.576,0.13337
7.58,0.07669
7.584,0.10909
7.588,0.02802
7.592,0.06844
7.596,0.08222
7.6,-0.0437
7.604,0.01036
7.608,0.02656
7.612,0.0115
7.616,0.06392
7.62,0.00452
7.624,0.05838
7.628,0.01594
7.632,0.03433
7.636,-0.01045
7.64,0.03009
7.644,-0.01149
7.648,0.0519
7.652,0.05215
7.656,0.0725
7.66,-0.00405
7.664,0.06576
7.668,0.02578
7.672,-0.02237
7.676,-0.05164
7.68,-0.08583
7.684,-0.11462
7.688,-0.02865
7.692,0.01212
7.696,0.20659
7.7,0.33044
7.704,0.55982
7.708,0.83294
7.712,0.93695
7.716,1.0278
7.72,0.97452
7.724,0.84709
7.728,0.60061
7.732,0.42992
7.736,0.20791
7.74,0.00054
7.744,-0.12544
7.748,-0.1131
7.752,-0.12683
7.756,-0.15605
7.76,-0.01685
7.764,0.02683
7.768,-0.01284
7.772,-0.03899
7.776,0.04518
7.78,0.04332
7.784,0.01005
7.788,-0.02369
7.792,-0.0082
7.796,0.02312
7.8,0.03588
7.804,0.05562
7.808,0.04563
7.812,0.00855
7.816,0.04173
7.82,0.02963
7.824,0.02015
7.828,-0.00251
7.832,0.04164
7.836,0.07636
7.84,0.05221
7.844,0.02822
7.848,0.04765
7.852,0.00584
7.856,0.02032
7.86,0.0245
7.864,0.07713
7.868,0.07859
7.872,0.04797
7.876,-0.01953
7.88,0.00972
7.884,0.01543
7.888,-0.04629
7.892,0.04144
7.896,0.08759
7.9,0.00868
7.904,0.12796
7.908,0.04178
7.912,-0.00112
7.916,0.09939
7.92,0.04475
7.924,0.10023
7.928,0.06019
7.932,0.02076
7.936,0.0449
7.94,0.09472
7.944,0.13398
7.948,0.24946
7.952,0.12578
7.956,0.2182
7.96,0.1329
7.964,0.19496
7.968,0.216
7.972,0.23936
7.976,0.20674
7.98,0.25393
7.984,0.24248
7.988,0.23936
7.992,0.22275
7.996,0.24119
8.0,0.21503
8.004,0.22443
8.008,0.24408
8.012,0.2346
8.016,0.1906
8.02,0.20852
8.024,0.15217
8.028,0.26143
8.032,0.17927
8.036,0.19348
8.04,0.15668
8.044,0.15766
8.048,0.15432
8.052,0.16512
8.056,0.11323
8.06,-0.00607
8.064,0.09731
8.068,0.10182
8.072,0.08007
8.076,0.08861
8.08,0.02335
8.084,0.02537
8.088,0.04495
8.092,0.00249
8.096,0.03589
8.1,0.00464
8.104,0.03114
8.108,0.0339
8.112,0.03445
8.116,0.02099
8.12,0.05326
8.124,0.03051
8.128,-0.01814
8.132,-0.00052
8.136,0.07199
8.14,0.00423
8.144,0.0286
8.148,0.03431
8.152,-0.0006
8.156,0.04661
8.16,0.00345
8.164,-0.02041
8.168,0.06697
8.172,0.03174
8.176,0.06378
8.18,0.03448
8.184,0.0383
8.188,0.0159
8.192,0.02701
8.196,0.0437
8.2,-0.01504
8.204,0.0221
8.208,0.04784
8.212,0.01435
8.216,0.04063
8.22,0.04466
8.224,-0.01873
8.228,0.00097
8.232,-0.03591
8.236,0.04086
8.24,0.01446
8.244,0.00824
8.248,0.02838
8.252,-0.01336
8.256,-0.00511
8.26,-0.0408
8.264,0.00938
8.268,0.02566
8.272,-0.01257
8.276,0.00752
8.28,0.04478
8.284,0.03806
8.288,0.00776
8.292,0.07888
8.296,0.04255
8.3,0.10275
8.304,0.05814
8.308,0.12152
8.312,0.15046
8.316,0.06659
8.32,0.17543
8.324,0.09253
8.328,0.08655
8.332,0.03138
8.336,0.09441
8.34,0.04567
8.344,0.03377
8.348,-0.00483
8.352,-0.04191
8.356,0.04446
8.36,-0.00229
8.364,0.02819
8.368,0.00825
8.372,0.04673
8.376,-0.01339
8.38,-0.00519
8.384,-0.0001
8.388,0.02659
8.392,0.00152
8.396,0.03892
8.4,-0.02011
8.404,0.05338
8.408,0.01543
8.412,-0.0185
8.416,0.06989
8.42,0.05021
8.424,-0.00034
8.428,-0.04481
8.432,-0.03716
8.436,-0.0814
8.44,-0.13424
8.444,-0.09154
8.448,-0.02485
8.452,0.09237
8.456,0.28237
8.46,0.53562
8.464,0.65627
8.468,0.85283
8.472,0.97387
8.476,0.94388
8.48,0.83109
8.484,0.65737
8.488,0.42358
8.492,0.2007
8.496,0.09598
8.5,-0.15421
8.504,-0.2069
8.508,-0.2042
8.512,-0.19978
8.516,-0.1076
8.52,-0.09656
8.524,-0.10031
8.528,-0.08518
8.532,0.03905
8.536,-0.04634
8.54,-0.00807
8.544,0.01488
8.548,-0.0168
8.552,-0.00635
8.556,0.00232
8.56,-0.04028
8.564,0.05658
8.568,0.02648
8.572,-0.03339
8.576,0.01667
8.58,0.01688
8.584,0.00504
8.588,0.03823
8.592,-0.0344
8.596,0.01334
8.6,-0.02573
8.604,0.02711
8.608,0.02154
8.612,0.01448
8.616,0.03087
8.62,0.01831
8.624,0.01409
8.628,0.00124
8.632,-0.01018
8.636,0.02445
8.64,0.028
8.644,0.00783
8.648,-0.05586
8.652,0.0244
8.656,3e-05
8.66,0.01784
8.664,-0.00382
8.668,0.01957
8.672,0.0847
8.676,0.04397
8.68,0.01847
8.684,0.04867
8.688,0.09828
8.692,0.09964
8.696,0.08319
8.7,0.13385
8.704,0.12748
8.708,0.08869
8.712,0.13945
8.716,0.15878
8.72,0.21437
8.724,0.16674
8.728,0.17228
8.732,0.17352
8.736,0.17733
8.74,0.20108
8.744,0.18996
8.748,0.21668
8.752,0.22637
8.756,0.22929
8.76,0.26566
8.764,0.21437
8.768,0.15376
8.772,0.17776
8.776,0.2469
8.78,0.17799
8.784,0.21031
8.788,0.12012
8.792,0.08314
8.796,0.16774
8.8,0.18122
8.804,0.0915
8.808,0.11574
8.812,0.1432
8.816,0.12669
8.82,0.1531
8.824,0.03641
8.828,-0.01684
8.832,0.08296
8.836,0.09581
8.84,-0.01929
8.844,0.08506
8.848,0.00634
8.852,0.01741
8.856,0.01633
8.86,0.03631
8.864,-0.00357
8.868,-0.00664
8.872,0.03892
8.876,-0.04383
8.88,-0.00302
8.884,0.0434
8.888,0.00846
8.892,0.00595
8.896,0.02462
8.9,-0.02042
8.904,0.04173
8.908,-0.04398
8.912,0.01769
8.916,0.07569
8.92,-0.01121
8.924,0.00764
8.928,0.10814
8.932,0.05828
8.936,0.09607
8.94,0.12787
8.944,0.08776
8.948,0.02388
8.952,0.10356
8.956,0.0626
8.96,-0.00965
8.964,0.08025
8.968,-0.02913
8.972,0.01217
8.976,-0.0177
8.98,0.02723
8.984,-0.0295
8.988,0.00889
8.992,0.00202
8.996,-0.07078
9.0,0.01141
9.004,0.02194
9.008,-0.00369
9.012,-0.03548
9.016,-0.04546
9.02,0.03919
9.024,-0.01064
9.028,-0.01505
9.032,-0.0462
9.036,-0.05808
9.04,0.0385
9.044,0.02967
9.048,-0.06132
9.052,-0.0651
9.056,-0.06877
9.06,-0.07841
9.064,-0.03588
9.068,-0.07721
9.072,-0.15376
9.076,-0.03419
9.08,0.04936
9.084,0.22456
9.088,0.48896
9.092,0.68529
9.096,0.805
9.1,0.98876
9.104,1.00206
9.108,0.81358
9.112,0.66037
9.116,0.4261
9.12,0.23622
9.124,0.14516
9.128,-0.13283
9.132,-0.11095
9.136,-0.2171
9.14,-0.09744
9.144,-0.17278
9.148,-0.04971
9.152,-0.05707
9.156,-0.06839
9.16,-0.03182
9.164,-0.04311
9.168,-0.06026
9.172,0.01261
9.176,0.01508
9.18,-0.06155
9.184,-0.03203
9.188,-0.02261
9.192,0.0194
9.196,-0.00197
9.2,-0.01311
9.204,-0.07754
9.208,0.03513
9.212,0.03381
9.216,0.07424
9.22,-0.01279
9.224,-0.01708
9.228,0.05651
9.232,0.03937
9.236,-0.00568
9.24,0.02115
9.244,0.0014
9.248,-0.05193
9.252,0.00923
9.256,-0.05119
9.26,-0.03255
9.264,-0.00811
9.268,0.01092
9.272,0.04311
9.276,-0.01056
9.28,0.00901
9.284,-0.00513
9.288,0.00058
9.292,-0.03146
9.296,-0.02037
9.3,0.00634
9.304,-0.00732
9.308,-0.03654
9.312,0.06722
9.316,0.04915
9.32,0.0638
9.324,0.02935
9.328,0.12631
9.332,0.1256
9.336,0.13
9.34,0.13145
9.344,0.11344
9.348,0.1584
9.352,0.16646
9.356,0.20342
9.36,0.15454
9.364,0.20035
9.368,0.15522
9.372,0.17078
9.376,0.1864
9.38,0.16589
9.384,0.23303
9.388,0.22616
9.392,0.24049
9.396,0.21976
9.4,0.17092
9.404,0.13568
9.408,0.11747
9.412,0.11863
9.416,0.10478
9.42,0.08232
9.424,0.09319
9.428,0.12095
9.432,0.08867
9.436,0.10469
9.44,0.08787
9.444,0.06602
9.448,0.01335
9.452,0.04363
9.456,0.04487
9.46,0.01337
9.464,-0.01298
9.468,0.01104
9.472,-0.01282
9.476,-0.0112
9.48,-0.00332
9.484,-0.01205
9.488,0.00951
9.492,-0.03545
9.496,-0.03071
9.5,-0.04115
9.504,0.04178
9.508,0.04514
9.512,0.0972
9.516,0.08363
9.52,0.04818
9.524,0.01494
9.528,0.12593
9.532,0.0987
9.536,0.08317
9.54,0.0448
9.544,0.09176
9.548,0.08055
9.552,0.05367
9.556,0.05114
9.56,0.02786
9.564,-0.00536
9.568,0.08464
9.572,-0.06644
9.576,0.0586
9.58,-0.0146
9.584,0.04419
9.588,-0.04175
9.592,-0.07299
9.596,-0.00071
9.6,-0.03996
9.604,0.00869
9.608,0.01134
9.612,-0.00651
9.616,-0.05835
9.62,-0.00093
9.624,0.04691
9.628,-0.05957
9.632,-0.04253
9.636,-0.02771
9.64,0.0237
9.644,-0.03191
9.648,0.00247
9.652,-0.02514
9.656,-0.13023
9.66,-0.08737
9.664,-0.1513
9.668,-0.10403
9.672,-0.0118
9.676,0.19524
9.68,0.36913
9.684,0.58509
9.688,0.78155
9.692,0.92107
9.696,0.99451
9.7,0.89647
9.704,0.80836
9.708,0.53123
9.712,0.30203
9.716,0.15179
9.72,-0.05097
9.724,-0.16884
9.728,-0.18148
9.732,-0.18593
9.736,-0.15281
9.74,-0.1651
9.744,-0.14909
9.748,-0.06971
9.752,-0.11015
9.756,-0.01821
9.76,0.02618
9.764,-0.09828
9.768,-0.01402
9.772,-0.03926
9.776,-0.01939
9.78,-0.01488
9.784,-0.02613
9.788,-0.07736
9.792,0.00954
9.796,-0.02253
9.8,-0.00352
9.804,0.00129
9.808,0.00151
9.812,-0.04609
9.816,0.05003
9.82,-0.01371
9.824,-0.01125
9.828,-0.05274
9.832,-0.04463
9.836,-0.04272
9.84,0.0198
9.844,-0.04428
9.848,-0.06071
9.852,-0.01656
9.856,0.01842
9.86,-0.04813
9.864,-0.04449
9.868,0.00071
9.872,0.00481
9.876,-0.04437
9.88,-0.0325
9.884,0.02273
9.888,0.01912
9.892,0.01606
9.896,0.02728
9.9,0.03675
9.904,0.1094
9.908,0.0208
9.912,0.10744
9.916,0.09173
9.92,0.07372
9.924,0.12479
9.928,0.04396
9.932,0.11174
9.936,0.1887
9.94,0.15815
9.944,0.16811
9.948,0.20671
9.952,0.14852
9.956,0.16044
9.96,0.18671
9.964,0.16126
9.968,0.16585
9.972,0.20623
9.976,0.19469
9.98,0.18997
9.984,0.23099
9.988,0.10126
9.992,0.22886
9.996,0.2187
