t_seg,ecg_mV
0.0,0.01876
0.004,0.00443
0.008,0.07679
0.012,0.01513
0.016,0.01319
0.02,-0.02204
0.024,0.04356
0.028,0.0195
0.032,0.06813
0.036,-0.05782
0.04,0.02309
0.044,0.09136
0.048,0.05606
0.052,0.04914
0.056,-0.0407
0.06,0.00584
0.064,-0.04057
0.068,0.0056
0.072,0.00561
0.076,0.00081
0.08,-0.05037
0.084,-0.05491
0.088,0.008
0.092,0.00438
0.096,-0.00043
0.1,-0.01492
0.104,-0.00282
0.108,0.02465
0.112,-0.01449
0.116,0.00875
0.12,0.01475
0.124,0.01971
0.128,-0.03166
0.132,-0.02274
0.136,0.03159
0.14,0.06204
0.144,-0.05045
0.148,0.08235
0.152,0.01363
0.156,-0.01688
0.16,-0.02693
0.164,-0.02026
0.168,0.01169
0.172,0.03294
0.176,0.03325
0.18,-0.0328
0.184,0.06635
0.188,-0.06665
0.192,-0.04265
0.196,0.10021
0.2,0.02015
0.204,-0.00482
0.208,-0.06116
0.212,0.00204
0.216,-0.01295
0.22,0.03886
0.224,0.05022
0.228,-0.01971
0.232,-0.07543
0.236,0.02699
0.24,0.02258
0.244,-0.01633
0.248,0.02948
0.252,-0.03733
0.256,0.00308
0.26,0.05818
0.264,0.04593
0.268,0.02735
0.272,-0.03337
0.276,0.00946
0.28,0.03283
0.284,-0.02725
0.288,0.04183
0.292,-0.06114
0.296,0.03153
0.3,-0.00186
0.304,0.02978
0.308,0.05853
0.312,-0.07816
0.316,-0.00963
0.32,0.02335
0.324,0.01891
0.328,-0.05718
0.332,-0.00205
0.336,0.01187
0.34,0.00788
0.344,-0.01238
0.348,0.04644
0.352,-0.0186
0.356,-0.01331
0.36,-0.01583
0.364,0.03764
0.368,0.01355
0.372,0.01133
0.376,-0.01786
0.38,-0.03068
0.384,-0.00091
0.388,-0.00404
0.392,0.02111
0.396,0.01983
0.4,0.00804
0.404,-0.04854
0.408,0.10883
0.412,-0.00597
0.416,0.04913
0.42,0.05755
0.424,0.06417
0.428,0.05624
0.432,0.08536
0.436,-0.0009
0.44,0.07816
0.444,0.11313
0.448,0.10283
0.452,0.05715
0.456,0.11303
0.46,0.10981
0.464,0.08768
0.468,0.03952
0.472,0.02098
0.476,0.01447
0.48,-0.00778
0.484,0.06732
0.488,0.00116
0.492,-0.00234
0.496,-0.00391
0.5,-0.03166
0.504,-0.02337
0.508,-0.01285
0.512,-0.00052
0.516,-0.015
0.52,-0.00739
0.524,0.01562
0.528,0.00371
0.532,-0.00461
0.536,-0.01144
0.54,0.00494
0.544,0.00466
0.548,-0.02368
0.552,-0.00899
0.556,-0.01832
0.56,-0.0419
0.564,0.00973
0.568,-0.0023
0.572,-0.09182
0.576,-0.1409
0.58,-0.10258
0.584,-0.00399
0.588,0.08158
0.592,0.3048
0.596,0.50054
0.6,0.7203
0.604,0.9529
0.608,0.925
0.612,0.91148
0.616,0.80699
0.62,0.64527
0.624,0.36807
0.628,0.14159
0.632,-0.02635
0.636,-0.04408
0.64,-0.12742
0.644,-0.12041
0.648,-0.1322
0.652,-0.09059
0.656,-0.0501
0.66,-0.04738
0.664,0.00099
0.668,-0.00649
0.672,0.01597
0.676,0.01216
0.68,-0.02008
0.684,0.04452
0.688,-0.04402
0.692,-0.02379
0.696,-0.10225
0.7,0.02075
0.704,0.06487
0.708,0.01764
0.712,-0.04935
0.716,-0.049
0.72,-0.02607
0.724,-0.04716
0.728,0.0523
0.732,0.07279
0.736,0.04638
0.74,-0.0185
0.744,0.00838
0.748,0.0139
0.752,0.02162
0.756,-0.02169
0.76,0.01336
0.764,-0.042
0.768,0.01612
0.772,-0.04972
0.776,0.02338
0.78,-0.04543
0.784,-0.03262
0.788,0.02538
0.792,0.06926
0.796,-0.00777
0.8,0.05009
0.804,0.04925
0.808,0.0669
0.812,0.02466
0.816,0.05976
0.82,0.1153
0.824,0.07062
0.828,0.06215
0.832,0.0907
0.836,0.07056
0.84,0.09117
0.844,0.10027
0.848,0.08808
0.852,0.12531
0.856,0.14463
0.86,0.12172
0.864,0.19448
0.868,0.2328
0.872,0.20517
0.876,0.22787
0.88,0.22477
0.884,0.19738
0.888,0.21654
0.892,0.23626
0.896,0.17947
0.9,0.19122
0.904,0.17043
0.908,0.11655
0.912,0.16616
0.916,0.18453
0.92,0.16507
0.924,0.17746
0.928,0.12553
0.932,0.12955
0.936,0.13036
0.94,0.10488
0.944,0.17293
0.948,0.15677
0.952,0.20069
0.956,0.19128
0.96,0.12699
0.964,0.16542
0.968,0.14435
0.972,0.11223
0.976,0.20744
0.98,0.07211
0.984,0.04413
0.988,0.06965
0.992,0.06105
0.996,-0.00768
1.0,-0.03212
1.004,0.07182
1.008,0.11099
1.012,-0.05165
1.016,-0.01997
1.02,-0.02102
1.024,0.00887
1.028,0.01629
1.032,-0.05684
1.036,-0.04332
1.04,0.01612
1.044,0.02024
1.048,0.00367
1.052,-0.0577
1.056,-0.02228
1.06,0.01903
1.064,0.00906
1.068,-0.01186
1.072,0.02077
1.076,0.00562
1.08,-0.00906
1.084,-0.05887
1.088,-0.06662
1.092,-0.159
1.096,-0.14555
1.1,-0.00462
1.104,0.08034
1.108,0.19318
1.112,0.41128
1.116,0.62364
1.12,0.82184
1.124,0.99077
1.128,1.02119
1.132,0.87252
1.136,0.70798
1.14,0.45213
1.144,0.21734
1.148,0.03668
1.152,-0.11614
1.156,-0.18278
1.16,-0.18519
1.164,-0.16511
1.168,-0.11742
1.172,-0.05213
1.176,-0.01792
1.18,0.01297
1.184,-0.03066
1.188,-0.02296
1.192,0.00114
1.196,-0.00699
1.2,-0.03992
1.204,-0.05433
1.208,-0.07097
1.212,-0.03463
1.216,-0.0651
1.22,-0.00827
1.224,-0.00255
1.228,-0.04083
1.232,-0.04106
1.236,0.00234
1.24,-0.08853
1.244,0.00524
1.248,-0.02236
1.252,-0.01185
1.256,-0.01141
1.26,0.02985
1.264,0.03231
1.268,-0.05017
1.272,-0.06878
1.276,-0.01286
1.28,-0.04347
1.284,-0.00058
1.288,-0.00286
1.292,0.01665
1.296,0.02646
1.3,-0.0405
1.304,0.03577
1.308,0.02191
1.312,-0.04998
1.316,0.01308
1.32,0.0351
1.324,0.01615
1.328,-0.01472
1.332,0.00878
1.336,0.08194
1.34,-0.02493
1.344,0.05999
1.348,0.03112
1.352,0.06771
1.356,0.12548
1.36,0.16277
1.364,0.12664
1.368,0.1204
1.372,0.16317
1.376,0.17702
1.38,0.12126
1.384,0.1376
1.388,0.14051
1.392,0.19355
1.396,0.18138
1.4,0.21703
1.404,0.18094
1.408,0.16822
1.412,0.20301
1.416,0.17889
1.42,0.16587
1.424,0.15
1.428,0.14734
1.432,0.13403
1.436,0.08068
1.44,0.13857
1.444,0.09501
1.448,0.08571
1.452,0.10689
1.456,0.04764
1.46,0.10718
1.464,0.11322
1.468,0.075
1.472,0.06023
1.476,0.08448
1.48,0.01831
1.484,-0.02038
1.488,0.03454
1.492,0.08277
1.496,-0.02251
1.5,-0.0004
1.504,-0.01613
1.508,-0.0439
1.512,-0.05707
1.516,-0.00472
1.52,-0.04232
1.524,-0.00331
1.528,0.00735
1.532,-0.02714
1.536,-0.04839
1.54,-0.03552
1.544,0.02279
1.548,-0.04817
1.552,-0.04388
1.556,-0.10508
1.56,-0.01673
1.564,0.0037
1.568,0.01602
1.572,0.01673
1.576,-0.04959
1.58,0.02074
1.584,-0.08412
1.588,-0.02044
1.592,-0.05314
1.596,0.00084
1.6,-0.02272
1.604,-0.01802
1.608,9e-05
1.612,0.02855
1.616,0.04763
1.62,0.05327
1.624,-0.0242
1.628,0.06993
1.632,0.09479
1.636,0.08284
1.64,0.06246
1.644,0.03626
1.648,0.06605
1.652,0.043
1.656,0.12673
1.66,0.08186
1.664,-0.02923
1.668,0.03771
1.672,-0.02984
1.676,0.07432
1.68,0.03427
1.684,-0.0569
1.688,-0.04861
1.692,0.00466
1.696,-0.01114
1.7,-4e-05
1.704,-0.05948
1.708,0.01431
1.712,-0.06365
1.716,-0.10104
1.72,-0.00397
1.724,-0.01441
1.728,-0.04789
1.732,-0.02516
1.736,-0.03534
1.74,-0.02978
1.744,0.00244
1.748,-0.07326
1.752,-0.00318
1.756,-0.06943
1.76,-0.07921
1.764,-0.07378
1.768,-0.154
1.772,-0.10659
1.776,-0.10891
1.78,0.0712
1.784,0.3156
1.788,0.50306
1.792,0.67018
1.796,0.83893
1.8,0.96337
1.804,0.9583
1.808,0.78596
1.812,0.62829
1.816,0.36185
1.82,0.19036
1.824,-0.04219
1.828,-0.1095
1.832,-0.19028
1.836,-0.2853
1.84,-0.16166
1.844,-0.1291
1.848,-0.07463
1.852,-0.05974
1.856,0.01353
1.86,-0.08121
1.864,-0.0211
1.868,-0.01752
1.872,-0.0646
1.876,0.00882
1.88,-0.0179
1.884,-0.04506
1.888,-0.07151
1.892,-0.02803
1.896,-0.014
1.9,-0.04557
1.904,0.0055
1.908,0.00815
1.912,-0.05429
1.916,-0.0435
1.92,-0.05352
1.924,-0.06568
1.928,-0.07332
1.932,-0.07
1.936,-0.01924
1.94,0.0074
1.944,0.01143
1.948,-0.01663
1.952,-0.03856
1.956,-0.05603
1.96,-0.07055
1.964,0.00341
1.968,-0.0122
1.972,0.00126
1.976,0.02376
1.98,0.01905
1.984,0.03753
1.988,-0.04971
1.992,-0.00565
1.996,-0.00471
2.0,0.00902
2.004,0.01273
2.008,0.06849
2.012,0.00497
2.016,0.0547
2.02,0.01781
2.024,0.0531
2.028,0.05222
2.032,0.11441
2.036,0.09091
2.04,0.13873
2.044,0.14387
2.048,0.13782
2.052,0.18845
2.056,0.1409
2.06,0.16393
2.064,0.14819
2.068,0.15268
2.072,0.21285
2.076,0.16515
2.08,0.20593
2.084,0.18172
2.088,0.1149
2.092,0.20111
2.096,0.18033
2.1,0.10811
2.104,0.18718
2.108,0.14813
2.112,0.14099
2.116,0.16908
2.12,0.17126
2.124,0.0775
2.128,0.09007
2.132,0.05353
2.136,0.00941
2.14,0.00409
2.144,0.07514
2.148,-0.01542
2.152,0.02111
2.156,0.09704
2.16,-0.00805
2.164,0.02124
2.168,-0.01864
2.172,-0.0305
2.176,0.03022
2.18,-0.01847
2.184,-0.03012
2.188,0.00243
2.192,-0.00491
2.196,-0.0013
2.2,0.01802
2.204,0.00443
2.208,-0.04851
2.212,-0.01617
2.216,0.00287
2.22,-0.0443
2.224,0.01832
2.228,-0.02478
2.232,-0.01334
2.236,-0.02198
2.24,0.03496
2.244,-0.03749
2.248,0.0451
2.252,0.10861
2.256,0.00022
2.26,0.08901
2.264,0.02885
2.268,0.1378
2.272,0.02081
2.276,0.08004
2.28,0.07049
2.284,0.0215
2.288,0.02957
2.292,-0.01622
2.296,-0.03057
2.3,-0.01621
2.304,-0.04318
2.308,0.00231
2.312,0.02807
2.316,-0.04902
2.32,0.01001
2.324,-0.0341
2.328,-0.00991
2.332,-0.05932
2.336,-0.03205
2.34,-0.05616
2.344,0.01532
2.348,0.02021
2.352,-0.02948
2.356,-0.11227
2.36,-0.0411
2.364,0.0016
2.368,0.05083
2.372,-0.00527
2.376,0.00539
2.38,-0.06079
2.384,-0.04061
2.388,-0.15008
2.392,-0.21792
2.396,-0.15841
2.4,-0.12649
2.404,-0.0708
2.408,0.10026
2.412,0.21244
2.416,0.29597
2.42,0.40534
2.424,0.4585
2.428,0.41427
2.432,0.42041
2.436,0.28031
2.44,0.18061
2.444,0.1344
2.448,-0.05217
2.452,-0.09022
2.456,-0.1777
2.46,-0.19927
2.464,-0.21003
2.468,-0.1119
2.472,-0.05208
2.476,-0.06719
2.48,-0.04612
2.484,-0.07253
2.488,0.02632
2.492,-0.05729
2.496,-0.07856
2.5,-0.00319
2.504,-0.00306
2.508,-0.04893
2.512,0.03446
2.516,-0.01344
2.52,-0.04054
2.524,-0.03429
2.528,-0.06546
2.532,-0.0029
2.536,0.00504
2.54,-0.06258
2.544,-0.01431
2.548,-0.02286
2.552,-0.07078
2.556,-0.03052
2.56,-0.01076
2.564,-0.01334
2.568,-0.03359
2.572,0.03642
2.576,-0.00616
2.58,-0.01505
2.584,-0.02449
2.588,0.01529
2.592,-0.00727
2.596,0.00462
2.6,-0.03334
2.604,-0.02748
2.608,0.00086
2.612,-0.01507
2.616,0.02733
2.62,-0.01608
2.624,0.02726
2.628,-0.01246
2.632,0.04015
2.636,0.09877
2.64,0.04428
2.644,0.13659
2.648,0.08718
2.652,0.11256
2.656,0.14829
2.66,0.17409
2.664,0.16759
2.668,0.18636
2.672,0.23698
2.676,0.20471
2.68,0.2434
2.684,0.25905
2.688,0.31405
2.692,0.21238
2.696,0.29893
2.7,0.28539
2.704,0.22733
2.708,0.22041
2.712,0.22169
2.716,0.24542
2.72,0.20169
2.724,0.23652
2.728,0.17476
2.732,0.14624
2.736,0.18539
2.74,0.11511
2.744,0.15082
2.748,0.09914
2.752,0.09997
2.756,0.05844
2.76,0.11455
2.764,0.08071
2.768,0.05586
2.772,0.08245
2.776,0.07818
2.78,0.04291
2.784,0.04759
2.788,-0.00376
2.792,0.02838
2.796,-0.05763
2.8,-0.02379
2.804,-0.04531
2.808,-0.12461
2.812,-0.09397
2.816,0.12092
2.82,0.34073
2.824,0.55309
2.828,0.67488
2.832,0.86661
2.836,0.91358
2.84,0.97019
2.844,0.78878
2.848,0.59394
2.852,0.41172
2.856,0.15423
2.86,0.01912
2.864,-0.08474
2.868,-0.17934
2.872,-0.17016
2.876,-0.14127
2.88,-0.10598
2.884,-0.10583
2.888,-0.0502
2.892,-0.01355
2.896,-0.04564
2.9,-0.01729
2.904,-0.00643
2.908,0.01683
2.912,-0.034
2.916,-0.01806
2.92,-0.06549
2.924,-0.00987
2.928,0.01849
2.932,-0.00195
2.936,-0.05039
2.94,0.01022
2.944,0.03352
2.948,-0.02013
2.952,-0.06871
2.956,-0.05102
2.96,-0.01793
2.964,-0.01475
2.968,-0.10241
2.972,-0.01139
2.976,-0.01837
2.98,0.01782
2.984,-0.01445
2.988,0.0216
2.992,-0.01863
2.996,-0.02126
3.0,-0.05034
3.004,-0.01175
3.008,-0.02741
3.012,0.06567
3.016,0.00247
3.02,-0.01781
3.024,0.0528
3.028,0.02305
3.032,0.03286
3.036,0.07303
3.04,0.03517
3.044,0.03376
3.048,0.09613
3.052,0.01899
3.056,0.02549
3.06,0.04577
3.064,0.01819
3.068,0.14153
3.072,0.09676
3.076,0.0744
3.08,0.1363
3.084,0.19313
3.088,0.15251
3.092,0.20322
3.096,0.16098
3.1,0.1952
3.104,0.17273
3.108,0.20225
3.112,0.21317
3.116,0.16561
3.12,0.21986
3.124,0.18713
3.128,0.16097
3.132,0.17204
3.136,0.23588
3.14,0.19424
3.144,0.18813
3.148,0.14587
3.152,0.10727
3.156,0.10328
3.16,0.13668
3.164,0.138
3.168,0.12299
3.172,0.0495
3.176,0.02964
3.18,0.11627
3.184,0.0566
3.188,0.06424
3.192,0.04651
3.196,0.07327
3.2,0.10119
3.204,0.08708
3.208,0.07661
3.212,0.01187
3.216,0.05886
3.22,0.06579
3.224,0.03934
3.228,0.10701
3.232,0.06353
3.236,0.12302
3.24,0.03933
3.244,0.08246
3.248,0.05378
3.252,0.10672
3.256,-0.03588
3.26,0.01776
3.264,-0.0009
3.268,0.11041
3.272,-0.0595
3.276,0.04534
3.28,-0.04138
3.284,0.00033
3.288,-0.05478
3.292,-0.05122
3.296,0.01218
3.3,-0.01344
3.304,0.00518
3.308,0.05184
3.312,-0.06965
3.316,-0.09049
3.32,0.00245
3.324,0.01292
3.328,-0.00036
3.332,0.07536
3.336,-0.03075
3.34,-0.02851
3.344,-0.08863
3.348,-0.02731
3.352,-0.0654
3.356,-0.07161
3.36,-0.10527
3.364,-0.06164
3.368,-0.06392
3.372,0.02804
3.376,0.2628
3.38,0.46109
3.384,0.63332
3.388,0.86724
3.392,0.92703
3.396,0.95364
3.4,0.88489
3.404,0.69026
3.408,0.44435
3.412,0.22421
3.416,0.11608
3.42,-0.16668
3.424,-0.14743
3.428,-0.19373
3.432,-0.17567
3.436,-0.13357
3.44,-0.11828
3.444,-0.09961
3.448,-0.10441
3.452,0.00583
3.456,-0.00216
3.46,0.02807
3.464,-0.01018
3.468,-0.01028
3.472,-0.00349
3.476,-0.07553
3.48,-0.02623
3.484,0.04449
3.488,0.05401
3.492,0.03929
3.496,0.04761
3.5,-0.01429
3.504,-0.07285
3.508,-0.02676
3.512,-0.06263
3.516,-0.06108
3.52,-0.03272
3.524,-0.04133
3.528,-0.04482
3.532,0.02067
3.536,-0.04465
3.54,-0.09359
3.544,0.03792
3.548,-0.00604
3.552,0.00343
3.556,0.0302
3.56,0.00197
3.564,-0.07039
3.568,0.05816
3.572,0.00815
3.576,0.07371
3.58,0.0395
3.584,0.05665
3.588,0.00077
3.592,0.04048
3.596,0.01737
3.6,-0.00216
3.604,0.0587
3.608,0.05993
3.612,0.05218
3.616,0.02091
3.62,0.11293
3.624,0.1477
3.628,0.14557
3.632,0.14712
3.636,0.19993
3.64,0.16919
3.644,0.16184
3.648,0.15791
3.652,0.2174
3.656,0.18192
3.66,0.2405
3.664,0.11929
3.668,0.2423
3.672,0.14923
3.676,0.18448
3.68,0.20369
3.684,0.24731
3.688,0.28172
3.692,0.14607
3.696,0.16239
3.7,0.15726
3.704,0.16882
3.708,0.07885
3.712,0.14384
3.716,0.20923
3.72,0.09071
3.724,0.13013
3.728,0.03489
3.732,0.12202
3.736,0.12737
3.74,0.0761
3.744,0.02823
3.748,0.07925
3.752,-0.00388
3.756,0.00471
3.76,0.04759
3.764,0.08049
3.768,0.02044
3.772,0.0508
3.776,0.03452
3.78,0.07176
3.784,0.02749
3.788,0.00948
3.792,0.07974
3.796,0.03166
3.8,-0.03049
3.804,-0.00715
3.808,-0.04185
3.812,0.00598
3.816,0.01271
3.82,0.05164
3.824,0.01648
3.828,-0.03637
3.832,-0.0585
3.836,0.01717
3.84,-0.06093
3.844,-0.02702
3.848,-0.03588
3.852,-0.04944
3.856,-0.01679
3.86,-0.01777
3.864,-0.02059
3.868,-0.03436
3.872,-0.04626
3.876,0.05262
3.88,0.05663
3.884,-0.01048
3.888,0.01424
3.892,0.04995
3.896,0.0348
3.9,0.0267
3.904,-0.00231
3.908,-0.00224
3.912,0.07582
3.916,-0.0003
3.92,0.03826
3.924,0.02961
3.928,0.02394
3.932,-0.00516
3.936,-0.04794
3.94,0.06979
3.944,-0.07464
3.948,-0.03523
3.952,0.00075
3.956,-0.02553
3.96,0.01572
3.964,0.02104
3.968,0.02322
3.972,0.00528
3.976,-0.0176
3.98,0.02539
3.984,0.06131
3.988,-0.00617
3.992,0.05171
3.996,0.01879
4.0,0.01826
4.004,0.02163
4.008,-0.03063
4.012,0.05463
4.016,-0.00059
4.02,-0.01763
4.024,0.05159
4.028,0.00419
4.032,-0.00724
4.036,0.04551
4.04,-0.01183
4.044,0.00194
4.048,0.02611
4.052,0.01322
4.056,0.03489
4.06,-0.00018
4.064,-0.0449
4.068,0.015
4.072,-0.00285
4.076,0.01386
4.08,0.01826
4.084,-0.01528
4.088,-0.05192
4.092,0.01161
4.096,-0.0348
4.1,0.03197
4.104,0.05011
4.108,0.07706
4.112,0.04458
4.116,-0.02521
4.12,0.05131
4.124,-0.0253
4.128,0.00506
4.132,0.07035
4.136,-0.02534
4.14,0.00422
4.144,0.05035
4.148,0.03029
4.152,0.03597
4.156,-0.01524
4.16,0.02981
4.164,0.04008
4.168,0.0626
4.172,0.03347
4.176,-0.05121
4.18,-0.00762
4.184,0.02106
4.188,0.00682
4.192,0.0371
4.196,0.02097
4.2,-0.05142
4.204,0.04149
4.208,0.06888
4.212,0.04408
4.216,0.10546
4.22,0.11788
4.224,0.11891
4.228,0.10878
4.232,0.1009
4.236,0.08516
4.24,0.11848
4.244,0.12394
4.248,0.10631
4.252,0.15642
4.256,0.06822
4.26,0.10469
4.264,0.04008
4.268,0.11949
4.272,0.06774
4.276,0.02821
4.28,0.04189
4.284,0.03163
4.288,-0.025
4.292,-0.00047
4.296,0.00718
4.3,0.02006
4.304,-0.00049
4.308,0.0673
4.312,0.06047
4.316,0.05355
4.32,0.02266
4.324,-0.02152
4.328,0.01564
4.332,0.03508
4.336,0.05983
4.34,0.04237
4.344,0.03188
4.348,0.04492
4.352,0.05407
4.356,-0.04321
4.36,-0.03661
4.364,-0.01397
4.368,-0.10494
4.372,-0.13827
4.376,-0.01738
4.38,0.06775
4.384,0.21373
4.388,0.40652
4.392,0.62327
4.396,0.88279
4.4,1.0008
4.404,1.01229
4.408,1.00645
4.412,0.81892
4.416,0.67692
4.42,0.28762
4.424,0.13616
4.428,0.02128
4.432,-0.02091
4.436,-0.06893
4.44,-0.1191
4.444,-0.1423
4.448,-0.02111
4.452,0.0045
4.456,-0.06321
4.46,0.04473
4.464,0.06046
4.468,-0.01964
4.472,-0.04017
4.476,0.07025
4.48,0.00557
4.484,-0.0184
4.488,0.02308
4.492,0.01913
4.496,0.0138
4.5,0.04245
4.504,0.01205
4.508,0.01535
4.512,0.03933
4.516,0.01146
4.52,0.02308
4.524,0.04802
4.528,0.06868
4.532,-0.00057
4.536,0.02141
4.54,0.08499
4.544,0.02264
4.548,0.07071
4.552,0.07251
4.556,0.07935
4.56,0.03568
4.564,0.00767
4.568,0.02745
4.572,-0.02788
4.576,0.02594
4.58,0.0577
4.584,0.02458
4.588,0.03909
4.592,0.02944
4.596,0.08456
4.6,0.05548
4.604,0.07024
4.608,0.09559
4.612,0.1026
4.616,0.12297
4.62,0.10324
4.624,0.10056
4.628,0.12932
4.632,0.1207
4.636,0.1804
4.64,0.13619
4.644,0.15577
4.648,0.24526
4.652,0.26194
4.656,0.16532
4.66,0.22897
4.664,0.29004
4.668,0.32038
4.672,0.24148
4.676,0.28037
4.68,0.30082
4.684,0.28153
4.688,0.29905
4.692,0.22847
4.696,0.21269
4.7,0.2153
4.704,0.21562
4.708,0.19292
4.712,0.18368
4.716,0.17481
4.72,0.16046
4.724,0.22225
4.728,0.16257
4.732,0.10998
4.736,0.21442
4.74,0.08497
4.744,0.10746
4.748,0.08106
4.752,0.02761
4.756,0.0517
4.76,-0.00293
4.764,0.09374
4.768,0.08549
4.772,0.02393
4.776,0.04127
4.78,-0.01991
4.784,0.07126
4.788,-0.00445
4.792,0.02103
4.796,0.10179
4.8,0.00356
4.804,0.05487
4.808,0.02682
4.812,0.0068
4.816,0.0322
4.82,0.0457
4.824,-0.01445
4.828,0.05549
4.832,-0.0004
4.836,0.04375
4.84,0.04529
4.844,0.07099
4.848,-0.02489
4.852,0.05428
4.856,0.10028
4.86,0.11164
4.864,0.02996
4.868,0.05326
4.872,0.10682
4.876,0.02233
4.88,0.1252
4.884,0.08068
4.888,0.13695
4.892,0.09785
4.896,0.11257
4.9,0.11632
4.904,0.1533
4.908,0.14406
4.912,0.16417
4.916,0.16273
4.92,0.15065
4.924,0.01129
4.928,0.01819
4.932,0.05709
4.936,0.06598
4.94,0.058
4.944,0.04467
4.948,0.07654
4.952,0.10129
4.956,0.05775
4.96,-0.00223
4.964,0.02195
4.968,0.05567
4.972,0.03067
4.976,-0.03181
4.98,0.04906
4.984,-0.03819
4.988,-0.03473
4.992,0.03321
4.996,0.03606
5.0,0.02606
5.004,-0.0204
5.008,0.01066
5.012,0.02808
5.016,0.036
5.02,-0.05191
5.024,-0.06328
5.028,-0.01362
5.032,-0.10164
5.036,-0.06589
5.04,0.09311
5.044,0.24594
5.048,0.41187
5.052,0.63762
5.056,0.85292
5.06,0.97281
5.064,0.97156
5.068,1.00842
5.072,0.80812
5.076,0.59597
5.08,0.31057
5.084,0.13348
5.088,0.02243
5.092,-0.12405
5.096,-0.12431
5.1,-0.15921
5.104,-0.1025
5.108,-0.02317
5.112,-0.00388
5.116,-0.0679
5.12,0.04691
5.124,0.02078
5.128,0.0273
5.132,-0.02551
5.136,0.01214
5.14,0.03371
5.144,0.03097
5.148,0.08636
5.152,0.06094
5.156,0.02445
5.16,0.01523
5.164,0.069
5.168,-0.00377
5.172,0.07121
5.176,0.09214
5.18,0.04686
5.184,0.05954
5.188,-0.00385
5.192,0.01942
5.196,0.0435
5.2,-0.02747
5.204,0.00023
5.208,0.01695
5.212,0.09086
5.216,0.02305
5.22,0.04352
5.224,0.11068
5.228,0.09614
5.232,0.04857
5.236,0.04857
5.24,0.05063
5.244,0.06856
5.248,0.00043
5.252,0.06573
5.256,0.04357
5.26,0.08807
5.264,0.03284
5.268,0.02325
5.272,0.07041
5.276,0.13441
5.28,0.0815
5.284,0.13442
5.288,0.11061
5.292,0.12967
5.296,0.20746
5.3,0.17448
5.304,0.19355
5.308,0.17492
5.312,0.20006
5.316,0.22702
5.32,0.19565
5.324,0.30042
5.328,0.20581
5.332,0.265
5.336,0.26766
5.34,0.26287
5.344,0.22492
5.348,0.26239
5.352,0.16608
5.356,0.27789
5.36,0.21703
5.364,0.23763
5.368,0.22407
5.372,0.22299
5.376,0.27185
5.38,0.16054
5.384,0.18439
5.388,0.19577
5.392,0.20008
5.396,0.15219
5.4,0.08693
5.404,0.16459
5.408,0.15311
5.412,0.04999
5.416,0.07716
5.42,0.05542
5.424,0.06283
5.428,0.05351
5.432,0.06183
5.436,0.05629
5.44,0.05642
5.444,0.0693
5.448,-0.0332
5.452,0.0432
5.456,0.07373
5.46,0.07304
5.464,0.07259
5.468,-0.00056
5.472,0.08198
5.476,0.06141
5.48,0.04946
5.484,0.04377
5.488,0.06072
5.492,-0.00169
5.496,0.01534
5.5,-0.00835
5.504,0.02483
5.508,0.03048
5.512,0.01258
5.516,-0.0004
5.52,0.01087
5.524,0.05552
5.528,0.00603
5.532,0.00309
5.536,-0.00769
5.54,0.00644
5.544,-0.00263
5.548,0.07385
5.552,0.04356
5.556,0.02559
5.56,0.01615
5.564,0.05265
5.568,0.01456
5.572,-0.07736
5.576,-0.01246
5.58,-0.00575
5.584,0.0387
5.588,0.07789
5.592,0.06283
5.596,0.11474
5.6,0.00815
5.604,0.07536
5.608,-0.03948
5.612,0.02335
5.616,0.0677
5.62,0.02971
5.624,0.03114
5.628,0.07368
5.632,0.089
5.636,0.0628
5.64,0.00981
5.644,0.03845
5.648,0.0502
5.652,-0.01874
5.656,-0.00577
5.66,0.06738
5.664,0.03833
5.668,0.05428
5.672,0.03095
5.676,0.039
5.68,0.05201
5.684,0.04042
5.688,0.00707
5.692,0.05981
5.696,0.06645
5.7,0.01461
5.704,0.09296
5.708,0.04874
5.712,0.03985
5.716,0.00524
5.72,0.08794
5.724,0.08489
5.728,0.10914
5.732,0.12423
5.736,0.11779
5.74,0.15424
5.744,0.1264
5.748,0.17219
5.752,0.08467
5.756,0.05901
5.76,0.19269
5.764,0.14871
5.768,0.04226
5.772,0.07343
5.776,0.04033
5.78,0.0216
5.784,0.03717
5.788,0.00846
5.792,0.01807
5.796,0.07034
5.8,0.07085
5.804,0.113
5.808,0.04869
5.812,0.07709
5.816,0.07033
5.82,0.02963
5.824,-0.0235
5.828,-0.00901
5.832,0.01263
5.836,0.06667
5.84,0.06523
5.844,0.03369
5.848,0.01441
5.852,-0.01804
5.856,0.01777
5.86,-0.03607
5.864,-0.03011
5.868,-0.07882
5.872,-0.07743
5.876,0.03566
5.88,0.1498
5.884,0.29097
5.888,0.51148
5.892,0.67799
5.896,0.98816
5.9,1.03981
5.904,0.96988
5.908,0.88167
5.912,0.72887
5.916,0.44752
5.92,0.26979
5.924,0.07078
5.928,-0.07881
5.932,-0.19601
5.936,-0.1522
5.94,-0.09261
5.944,-0.08888
5.948,-0.01284
5.952,-0.07121
5.956,0.00028
5.96,0.01781
5.964,-0.01274
5.968,0.01254
5.972,0.06771
5.976,0.01111
5.98,0.04632
5.984,-0.05686
5.988,0.03586
5.992,0.00871
5.996,0.06957
6.0,0.02094
6.004,0.02544
6.008,-0.00998
6.012,-0.01009
6.016,0.02706
6.02,-0.00429
6.024,0.02597
6.028,0.03774
6.032,0.0109
6.036,-0.00751
6.04,0.07535
6.044,-0.04806
6.048,0.01459
6.052,-0.02148
6.056,0.03217
6.06,-0.0399
6.064,0.02386
6.068,0.04948
6.072,0.06555
6.076,0.08491
6.08,-0.01236
6.084,0.02964
6.088,0.05673
6.092,0.03609
6.096,0.03294
6.1,0.05849
6.104,0.06757
6.108,0.05354
6.112,0.13406
6.116,0.07385
6.12,0.14219
6.124,0.13812
6.128,0.0883
6.132,0.19219
6.136,0.18699
6.14,0.13034
6.144,0.16943
6.148,0.16628
6.152,0.14822
6.156,0.16757
6.16,0.16764
6.164,0.21811
6.168,0.2072
6.172,0.24959
6.176,0.2775
6.18,0.27507
6.184,0.21482
6.188,0.21642
6.192,0.2766
6.196,0.21243
6.2,0.20052
6.204,0.20414
6.208,0.21442
6.212,0.25984
6.216,0.20209
6.22,0.1963
6.224,0.14918
6.228,0.1327
6.232,0.18673
6.236,0.10601
6.24,0.22078
6.244,0.16832
6.248,0.06515
6.252,0.16259
6.256,0.10886
6.26,0.11635
6.264,0.13633
6.268,0.16542
6.272,0.13107
6.276,0.14553
6.28,0.06972
6.284,0.0858
6.288,0.06404
6.292,0.09543
6.296,0.07292
6.3,0.05058
6.304,0.05298
6.308,0.03126
6.312,0.04784
6.316,0.06261
6.32,0.0119
6.324,-0.00868
6.328,0.04155
6.332,0.07172
6.336,0.07265
6.34,0.04178
6.344,-0.0354
6.348,0.04713
6.352,0.02152
6.356,0.02893
6.36,0.0183
6.364,-0.00865
6.368,0.03241
6.372,-0.0007
6.376,0.00147
6.38,0.00681
6.384,0.04058
6.388,-0.02352
6.392,-0.00227
6.396,-0.12276
6.4,-0.09601
6.404,-0.10103
6.408,0.07417
6.412,0.19113
6.416,0.37721
6.42,0.51693
6.424,0.76236
6.428,0.88329
6.432,1.0218
6.436,1.00542
6.44,0.84128
6.444,0.63196
6.448,0.36389
6.452,0.20916
6.456,0.09446
6.46,-0.08573
6.464,-0.1711
6.468,-0.17497
6.472,-0.12882
6.476,-0.09348
6.48,-0.00942
6.484,-0.02644
6.488,0.04331
6.492,-0.02605
6.496,0.04519
6.5,0.05105
6.504,0.01643
6.508,0.03573
6.512,0.04108
6.516,0.03409
6.52,-0.03227
6.524,-0.03267
6.528,0.04006
6.532,-0.02171
6.536,0.10547
6.54,0.0006
6.544,-0.01575
6.548,0.02648
6.552,0.01245
6.556,0.01388
6.56,0.04418
6.564,0.00404
6.568,-0.09197
6.572,0.03614
6.576,0.05575
6.58,-0.01344
6.584,0.05303
6.588,-0.03019
6.592,0.05623
6.596,0.02604
6.6,0.03267
6.604,0.05813
6.608,0.04919
6.612,0.05345
6.616,0.08368
6.62,0.06467
6.624,0.02573
6.628,-0.02356
6.632,0.01718
6.636,0.06019
6.64,0.0926
6.644,0.04991
6.648,0.04691
6.652,0.10128
6.656,0.1248
6.66,0.08663
6.664,0.16734
6.668,0.13611
6.672,0.21348
6.676,0.16367
6.68,0.22465
6.684,0.17868
6.688,0.22832
6.692,0.25082
6.696,0.21657
6.7,0.25946
6.704,0.25449
6.708,0.27321
6.712,0.21572
6.716,0.32335
6.72,0.18204
6.724,0.22237
6.728,0.2183
6.732,0.20843
6.736,0.19864
6.74,0.19133
6.744,0.15007
6.748,0.16439
6.752,0.18981
6.756,0.07466
6.76,0.10465
6.764,0.15809
6.768,0.10073
6.772,0.11545
6.776,0.03184
6.78,0.0349
6.784,0.01332
6.788,0.07527
6.792,0.02383
6.796,0.00706
6.8,-0.04565
6.804,0.04691
6.808,0.01776
6.812,0.04503
6.816,-0.0153
6.82,0.01952
6.824,-0.01818
6.828,-0.00947
6.832,-0.08153
6.836,0.0445
6.84,0.09628
6.844,0.05245
6.848,-0.00133
6.852,0.02783
6.856,0.02419
6.86,-0.01355
6.864,-0.03335
6.868,0.03895
6.872,0.01699
6.876,-0.00351
6.88,0.00341
6.884,0.00157
6.888,-0.07014
6.892,0.00728
6.896,0.01241
6.9,0.06453
6.904,-0.00989
6.908,-0.03278
6.912,-0.01587
6.916,-0.0522
6.92,0.01421
6.924,-0.00262
6.928,0.00166
6.932,0.03177
6.936,0.04029
6.94,-0.04095
6.944,-0.00482
6.948,0.00242
6.952,-0.02486
6.956,-0.05865
6.96,-0.01317
6.964,0.00963
6.968,-0.02069
6.972,0.04237
6.976,-0.03606
6.98,0.00168
6.984,-0.02216
6.988,0.01824
6.992,0.05834
6.996,-0.05141
7.0,0.01935
7.004,0.02859
7.008,-0.05141
7.012,-0.00783
7.016,-0.05027
7.02,0.00525
7.024,0.0671
7.028,-0.05126
7.032,0.04999
7.036,-0.02625
7.04,0.01796
7.044,-0.1148
7.048,0.02284
7.052,0.01402
7.056,-0.01695
7.06,-0.02938
7.064,0.00411
7.068,-0.01555
7.072,-0.04435
7.076,0.00474
7.08,-0.04094
7.084,-0.01537
7.088,0.03029
7.092,0.01363
7.096,0.00934
7.1,-0.01424
7.104,-0.02228
7.108,0.02473
7.112,-0.0189
7.116,0.03604
7.12,-0.01386
7.124,0.0005
7.128,0.03611
7.132,0.03645
7.136,0.03298
7.14,0.02035
7.144,-0.06781
7.148,-0.03095
7.152,-0.00795
7.156,0.01186
7.16,-0.02676
7.164,-0.06175
7.168,0.02759
7.172,0.02633
7.176,-0.02704
7.18,0.00153
7.184,0.00737
7.188,-0.01504
7.192,0.05465
7.196,0.04031
7.2,0.05614
7.204,0.09645
7.208,0.05843
7.212,0.1671
7.216,0.0167
7.22,0.15397
7.224,0.0806
7.228,0.06766
7.232,0.04062
7.236,0.02521
7.24,0.10304
7.244,0.06973
7.248,0.05471
7.252,0.14688
7.256,-0.0248
7.26,0.04352
7.264,-0.00768
7.268,0.02366
7.272,-0.03977
7.276,0.0362
7.28,-0.00407
7.284,0.01571
7.288,0.0017
7.292,0.01247
7.296,-0.02538
7.3,-0.01668
7.304,0.01067
7.308,-0.04772
7.312,-0.02527
7.316,0.04089
7.32,-0.00474
7.324,0.06494
7.328,-0.04514
7.332,-0.03496
7.336,-0.04133
7.34,-0.09916
7.344,-0.11404
7.348,-0.08989
7.352,-0.0353
7.356,0.04711
7.36,0.07971
7.364,0.32968
7.368,0.46557
7.372,0.62202
7.376,0.64447
7.38,0.65356
7.384,0.60929
7.388,0.50615
7.392,0.3216
7.396,0.15397
7.4,0.01083
7.404,-0.09342
7.408,-0.25216
7.412,-0.18935
7.416,-0.18827
7.42,-0.12111
7.424,-0.08268
7.428,-0.07126
7.432,-0.02368
7.436,0.03591
7.44,-0.01835
7.444,-0.0017
7.448,-0.00915
7.452,0.02494
7.456,-0.01233
7.46,0.01618
7.464,-0.05312
7.468,0.02156
7.472,-0.04912
7.476,-0.05415
7.48,-0.03659
7.484,-0.01382
7.488,0.02683
7.492,0.03284
7.496,-0.04996
7.5,-0.10411
7.504,-0.03245
7.508,-0.01816
7.512,0.00728
7.516,-0.07557
7.52,-0.00142
7.524,-0.02945
7.528,-0.00449
7.532,-0.05349
7.536,-0.01281
7.54,-0.00385
7.544,0.00143
7.548,0.01271
7.552,0.02286
7.556,0.01554
7.56,0.026
7.564,-0.00555
7.568,0.05306
7.572,0.00222
7.576,0.03753
7.58,0.04344
7.584,0.05691
7.588,0.03972
7.592,0.07088
7.596,0.03123
7.6,0.04309
7.604,0.13327
7.608,0.11651
7.612,0.14139
7.616,0.1708
7.62,0.06661
7.624,0.1144
7.628,0.09667
7.632,0.15979
7.636,0.11078
7.64,0.16951
7.644,0.13921
7.648,0.18155
7.652,0.20889
7.656,0.2471
7.66,0.23087
7.664,0.25093
7.668,0.23287
7.672,0.1394
7.676,0.19995
7.68,0.16344
7.684,0.17426
7.688,0.19841
7.692,0.2079
7.696,0.17712
7.7,0.11671
7.704,0.08579
7.708,0.11475
7.712,-0.01642
7.716,0.02726
7.72,0.08368
7.724,0.08819
7.728,0.05131
7.732,0.01806
7.736,0.06371
7.74,0.03997
7.744,0.05503
7.748,0.0663
7.752,0.02421
7.756,-7e-05
7.76,0.01712
7.764,0.03219
7.768,0.06233
7.772,-0.06244
7.776,-0.01886
7.78,0.0382
7.784,0.00845
7.788,0.00512
7.792,-0.02675
7.796,-0.02094
7.8,0.02077
7.804,-0.02783
7.808,-0.01985
7.812,-0.03341
7.816,-0.06595
7.82,0.00327
7.824,-0.07518
7.828,-0.0364
7.832,-0.02134
7.836,-0.02893
7.84,0.0308
7.844,-0.04755
7.848,-0.03493
7.852,-0.01357
7.856,0.01181
7.86,-0.09537
7.864,-0.03709
7.868,-0.07608
7.872,0.01988
7.876,-0.12663
7.88,-0.04659
7.884,-0.06219
7.888,0.03062
7.892,-0.06811
7.896,-0.05134
7.9,-0.0327
7.904,-0.09609
7.908,-0.05811
7.912,-0.05013
7.916,-0.05581
7.92,-0.04457
7.924,-0.04673
7.928,-0.02052
7.932,-0.043
7.936,0.00262
7.94,0.03002
7.944,-0.02896
7.948,-0.06698
7.952,-0.01524
7.956,-0.02363
7.96,0.02498
7.964,-0.03683
7.968,-0.02329
7.972,-0.01281
7.976,-0.00525
7.98,-0.00557
7.984,-0.02728
7.988,-0.00974
7.992,-0.03695
7.996,-0.04324
8.0,0.0566
8.004,0.05641
8.008,0.00938
8.012,-0.03849
8.016,-0.00127
8.02,-0.08113
8.024,-0.03869
8.028,-0.0084
8.032,-0.02771
8.036,-0.01448
8.04,-0.0349
8.044,-0.05137
8.048,-0.02339
8.052,0.01209
8.056,0.01943
8.06,-0.05341
8.064,-0.07374
8.068,-0.0055
8.072,-0.02933
8.076,0.04211
8.08,0.01442
8.084,-0.05696
8.088,-0.0513
8.092,-0.00397
8.096,-0.00577
8.1,-0.03682
8.104,-0.05536
8.108,-0.00457
8.112,-0.02735
8.116,0.00456
8.12,-0.06651
8.124,0.00064
8.128,0.02757
8.132,-0.02972
8.136,-0.03556
8.14,-0.0212
8.144,0.00612
8.148,0.01761
8.152,0.04125
8.156,0.08618
8.16,0.0816
8.164,0.0761
8.168,0.07544
8.172,0.06065
8.176,0.03768
8.18,0.08703
8.184,0.08208
8.188,0.01371
8.192,0.0554
8.196,-0.01684
8.2,0.03064
8.204,0.03379
8.208,0.01082
8.212,0.02752
8.216,-0.004
8.22,-0.01183
8.224,-0.04147
8.228,0.00099
8.232,-0.08522
8.236,-0.0582
8.24,-0.05549
8.244,-0.01058
8.248,-0.07173
8.252,0.02702
8.256,0.03197
8.26,-0.05134
8.264,-0.05679
8.268,0.01355
8.272,-0.07548
8.276,-0.07307
8.28,0.05132
8.284,-0.02407
8.288,-0.06678
8.292,-0.10732
8.296,-0.14541
8.3,-0.09807
8.304,-0.10741
8.308,-0.11977
8.312,0.10007
8.316,0.28263
8.32,0.49315
8.324,0.676
8.328,0.89916
8.332,0.96578
8.336,0.94698
8.34,0.88691
8.344,0.62819
8.348,0.36455
8.352,0.17343
8.356,-0.07293
8.36,-0.17785
8.364,-0.13621
8.368,-0.22257
8.372,-0.14603
8.376,-0.08892
8.38,-0.05378
8.384,-0.00946
8.388,-0.09303
8.392,-0.08245
8.396,0.00335
8.4,-0.03545
8.404,-0.05244
8.408,0.02873
8.412,-0.10242
8.416,-0.1125
8.42,-0.00299
8.424,-0.08806
8.428,-0.07062
8.432,-0.049
8.436,-0.03701
8.44,0.00543
8.444,0.00862
8.448,-0.0357
8.452,-0.01141
8.456,-0.02314
8.46,0.01046
8.464,-0.0147
8.468,-0.04997
8.472,-0.10351
8.476,-0.0124
8.48,-0.01565
8.484,0.00645
8.488,-0.00244
8.492,-0.00966
8.496,0.00933
8.5,-0.02572
8.504,-0.01488
8.508,-0.00744
8.512,-0.00308
8.516,-0.04278
8.52,-0.02939
8.524,-0.06467
8.528,-0.03095
8.532,0.01339
8.536,0.00861
8.54,0.02313
8.544,-0.00184
8.548,0.03049
8.552,0.09674
8.556,0.01867
8.56,0.10067
8.564,0.10183
8.568,0.12336
8.572,0.11989
8.576,0.17445
8.58,0.15981
8.584,0.16525
8.588,0.14711
8.592,0.11585
8.596,0.23341
8.6,0.18532
8.604,0.23499
8.608,0.22052
8.612,0.23611
8.616,0.18703
8.62,0.20057
8.624,0.16017
8.628,0.26551
8.632,0.18384
8.636,0.23356
8.64,0.23384
8.644,0.24512
8.648,0.22449
8.652,0.16581
8.656,0.23797
8.66,0.27537
8.664,0.18826
8.668,0.16009
8.672,0.11506
8.676,0.17352
8.68,0.14156
8.684,0.05528
8.688,0.07843
8.692,0.04248
8.696,0.03166
8.7,-0.02114
8.704,0.04466
8.708,0.00279
8.712,-0.05161
8.716,0.0174
8.72,0.00651
8.724,0.09872
8.728,-0.0785
8.732,-0.00965
8.736,0.00143
8.74,-0.07986
8.744,-0.06782
8.748,-0.04047
8.752,-0.01408
8.756,-0.01456
8.76,-0.0375
8.764,0.00193
8.768,-0.08852
8.772,-0.08295
8.776,-0.1268
8.78,-0.10696
8.784,-0.12539
8.788,-0.04724
8.792,0.09589
8.796,0.24476
8.8,0.446
8.804,0.57187
8.808,0.83489
8.812,1.01307
8.816,0.93587
8.82,0.83454
8.824,0.6898
8.828,0.40979
8.832,0.15847
8.836,0.03503
8.84,-0.14091
8.844,-0.18854
8.848,-0.23225
8.852,-0.10661
8.856,-0.10471
8.86,-0.12193
8.864,-0.01565
8.868,-0.07634
8.872,-0.02093
8.876,0.0043
8.88,-0.01228
8.884,-0.10793
8.888,-0.0262
8.892,0.01954
8.896,-0.04615
8.9,-0.01342
8.904,0.0057
8.908,-0.03775
8.912,-0.05281
8.916,-0.04109
8.92,-0.07459
8.924,-0.0277
8.928,-0.06618
8.932,-0.06133
8.936,-0.0545
8.94,0.00661
8.944,0.00877
8.948,-0.04218
8.952,-0.05796
8.956,-0.11085
8.96,0.01192
8.964,-0.03141
8.968,0.00052
8.972,-0.08169
8.976,-0.04325
8.98,-0.0612
8.984,-0.0224
8.988,-0.03095
8.992,0.08422
8.996,0.01635
9.0,-0.0106
9.004,0.03386
9.008,-0.03307
9.012,0.11253
9.016,0.04584
9.02,-0.02841
9.024,0.07505
9.028,0.00118
9.032,0.05385
9.036,0.05334
9.04,0.13245
9.044,0.05173
9.048,0.08113
9.052,0.08992
9.056,0.11639
9.06,0.15137
9.064,0.1796
9.068,0.17228
9.072,0.18204
9.076,0.1874
9.08,0.22065
9.084,0.18167
9.088,0.1561
9.092,0.20703
9.096,0.21291
9.1,0.21229
9.104,0.22622
9.108,0.27032
9.112,0.24843
9.116,0.17405
9.12,0.2678
9.124,0.29356
9.128,0.28036
9.132,0.22832
9.136,0.20224
9.14,0.20054
9.144,0.15815
9.148,0.17066
9.152,0.03189
9.156,0.14225
9.16,0.05472
9.164,0.02201
9.168,0.0736
9.172,0.02578
9.176,0.03582
9.18,-0.04909
9.184,0.00581
9.188,-0.03819
9.192,-0.04291
9.196,-0.01477
9.2,0.00228
9.204,-0.05598
9.208,-0.07993
9.212,-0.01408
9.216,-0.01172
9.22,-0.03806
9.224,-0.07631
9.228,-0.05915
9.232,-0.04944
9.236,-0.03194
9.24,-0.0074
9.244,-0.01022
9.248,-0.00546
9.252,-0.09557
9.256,-0.08567
9.26,-0.11043
9.264,-0.12789
9.268,0.02302
9.272,0.19647
9.276,0.48457
9.28,0.62879
9.284,0.87343
9.288,0.92982
9.292,0.9808
9.296,0.81979
9.3,0.65635
9.304,0.4732
9.308,0.18393
9.312,0.03238
9.316,-0.08141
9.32,-0.11941
9.324,-0.20442
9.328,-0.11468
9.332,-0.14474
9.336,-0.03325
9.34,-0.08125
9.344,-0.03817
9.348,-0.03894
9.352,-0.00377
9.356,-0.06579
9.36,-0.0085
9.364,-0.01399
9.368,-0.08058
9.372,0.00999
9.376,-0.01857
9.38,0.00125
9.384,0.01857
9.388,-0.03578
9.392,-0.02919
9.396,-0.06971
9.4,-0.0297
9.404,-0.00546
9.408,-0.02442
9.412,-0.0154
9.416,0.04687
9.42,0.00689
9.424,0.01942
9.428,0.01488
9.432,-0.0175
9.436,-0.04235
9.44,-0.02675
9.444,-0.03313
9.448,0.00202
9.452,0.0123
9.456,0.01254
9.46,-0.00688
9.464,0.02575
9.468,0.00136
9.472,0.04511
9.476,0.06999
9.48,-0.02047
9.484,-0.00075
9.488,0.02261
9.492,0.02493
9.496,0.05122
9.5,0.05953
9.504,0.07768
9.508,0.05144
9.512,0.07298
9.516,0.12728
9.52,0.06625
9.524,0.08875
9.528,0.07851
9.532,0.10116
9.536,0.12869
9.54,0.17616
9.544,0.16127
9.548,0.17157
9.552,0.19428
9.556,0.22807
9.56,0.18963
9.564,0.12461
9.568,0.23526
9.572,0.21248
9.576,0.18227
9.58,0.24536
9.584,0.19952
9.588,0.14187
9.592,0.13887
9.596,0.23096
9.6,0.16443
9.604,0.18225
9.608,0.20194
9.612,0.16915
9.616,0.13777
9.62,0.15315
9.624,0.19776
9.628,0.11569
9.632,0.12852
9.636,0.20623
9.64,0.13946
9.644,0.18847
9.648,0.09871
9.652,0.16735
9.656,0.05166
9.66,0.09175
9.664,0.09561
9.668,0.07396
9.672,0.07883
9.676,0.01795
9.68,0.04463
9.684,-0.02426
9.688,-0.00434
9.692,0.00241
9.696,-0.02323
9.7,-0.08127
9.704,-0.00487
9.708,-0.00318
9.712,-0.01622
9.716,-0.03884
9.72,-0.01963
9.724,-0.02749
9.728,-0.02699
9.732,0.00964
9.736,-0.03369
9.74,-0.00373
9.744,-0.03819
9.748,0.02676
9.752,-0.06561
9.756,-0.0368
9.76,-0.05014
9.764,-0.12024
9.768,-0.11801
9.772,-0.1394
9.776,0.00358
9.78,0.11883
9.784,0.39449
9.788,0.64198
9.792,0.76665
9.796,0.97455
9.8,0.98393
9.804,0.89648
9.808,0.79354
9.812,0.54452
9.816,0.38283
9.82,0.08945
9.824,-0.09194
9.828,-0.12123
9.832,-0.24801
9.836,-0.13642
9.84,-0.10906
9.844,-0.09671
9.848,-0.04838
9.852,-0.03357
9.856,-0.00674
9.86,0.02203
9.864,-0.00227
9.868,0.00041
9.872,-0.00503
9.876,-0.01175
9.88,-0.00218
9.884,-0.02664
9.888,-0.03976
9.892,-0.01365
9.896,-0.01036
9.9,-0.04427
9.904,-0.06418
9.908,-0.05802
9.912,0.01002
9.916,-0.01596
9.92,-0.02442
9.924,-0.02619
9.928,0.04098
9.932,-0.00176
9.936,-0.02147
9.94,0.01878
9.944,0.06067
9.948,0.02689
9.952,-0.03328
9.956,-0.02316
9.96,0.04719
9.964,0.0221
9.968,0.05259
9.972,-0.02178
9.976,-0.0521
9.98,-0.00367
9.984,0.0366
9.988,-0.00119
9.992,0.0776
9.996,-0.01602
