t_seg,ecg_mV
0.0,0.01198
0.004,0.00649
0.008,0.01186
0.012,-0.03944
0.016,0.01557
0.02,0.00701
0.024,0.02962
0.028,0.03786
0.032,0.02115
0.036,0.04488
0.04,0.04275
0.044,0.00622
0.048,0.12756
0.052,-0.02275
0.056,0.00336
0.06,-0.00647
0.064,0.04305
0.068,0.03599
0.072,0.02461
0.076,0.02954
0.08,0.01466
0.084,0.01445
0.088,0.01098
0.092,-0.07537
0.096,0.09294
0.1,0.02368
0.104,0.02602
0.108,0.06167
0.112,0.01382
0.116,0.01203
0.12,0.05281
0.124,0.05325
0.128,0.06909
0.132,0.03196
0.136,0.01693
0.14,-0.03461
0.144,0.02774
0.148,-0.01325
0.152,0.02997
0.156,0.02473
0.16,0.05287
0.164,-0.06153
0.168,-0.00191
0.172,-0.00405
0.176,-0.07684
0.18,-0.00591
0.184,0.09056
0.188,0.01196
0.192,0.00282
0.196,0.02172
0.2,0.07933
0.204,-0.0151
0.208,0.00433
0.212,0.02338
0.216,0.00288
0.22,0.05912
0.224,0.07577
0.228,0.01096
0.232,0.12524
0.236,0.15019
0.24,0.09572
0.244,0.1244
0.248,0.09616
0.252,0.10055
0.256,0.11534
0.26,0.0643
0.264,0.1906
0.268,0.11191
0.272,0.09481
0.276,0.04621
0.28,0.13046
0.284,0.10837
0.288,0.10589
0.292,0.05156
0.296,0.07268
0.3,0.01929
0.304,-0.00496
0.308,0.04892
0.312,0.0053
0.316,0.04829
0.32,0.00587
0.324,0.03818
0.328,0.03532
0.332,0.02989
0.336,0.00185
0.34,0.07636
0.344,0.02318
0.348,0.01695
0.352,-0.04002
0.356,0.02516
0.36,0.03482
0.364,0.03809
0.368,0.06982
0.372,0.02789
0.376,-0.08412
0.38,-0.05808
0.384,-0.12124
0.388,-0.06236
0.392,0.04251
0.396,0.21268
0.4,0.38106
0.404,0.62531
0.408,0.83733
0.412,0.94511
0.416,1.05375
0.42,0.97505
0.424,0.78253
0.428,0.59327
0.432,0.25716
0.436,0.09712
0.44,-0.04415
0.444,-0.07804
0.448,-0.13436
0.452,-0.10452
0.456,-0.12651
0.46,-0.0537
0.464,0.05236
0.468,0.10444
0.472,0.08884
0.476,0.03641
0.48,0.06561
0.484,0.03812
0.488,0.06157
0.492,0.0077
0.496,0.01394
0.5,0.01083
0.504,0.00682
0.508,-0.03062
0.512,-0.04711
0.516,0.04965
0.52,0.02047
0.524,0.04904
0.528,0.00312
0.532,0.03093
0.536,0.01773
0.54,0.04177
0.544,0.01825
0.548,0.10257
0.552,0.04847
0.556,0.02368
0.56,-0.02016
0.564,0.02389
0.568,0.04311
0.572,-0.02947
0.576,0.03432
0.58,0.06454
0.584,0.03873
0.588,0.09274
0.592,0.07779
0.596,0.03618
0.6,0.09167
0.604,0.03147
0.608,0.03948
0.612,0.03141
0.616,0.05554
0.62,0.06319
0.624,0.07738
0.628,0.13876
0.632,0.11729
0.636,0.16458
0.64,0.14332
0.644,0.10669
0.648,0.17851
0.652,0.1951
0.656,0.1635
0.66,0.22639
0.664,0.22497
0.668,0.25047
0.672,0.22118
0.676,0.23208
0.68,0.2833
0.684,0.26307
0.688,0.2065
0.692,0.22977
0.696,0.25954
0.7,0.27608
0.704,0.30617
0.708,0.25445
0.712,0.2134
0.716,0.25386
0.72,0.28348
0.724,0.27295
0.728,0.18131
0.732,0.17874
0.736,0.20057
0.74,0.18183
0.744,0.17642
0.748,0.18487
0.752,0.1258
0.756,0.19046
0.76,0.20704
0.764,0.13984
0.768,0.16453
0.772,0.22477
0.776,0.20093
0.78,0.16372
0.784,0.13873
0.788,0.09232
0.792,0.05943
0.796,0.15363
0.8,0.09208
0.804,0.07763
0.808,-0.02807
0.812,0.07989
0.816,0.03578
0.82,-0.01843
0.824,0.00867
0.828,0.0836
0.832,0.04189
0.836,0.01393
0.84,-0.00203
0.844,0.06961
0.848,0.09956
0.852,0.00121
0.856,0.02808
0.86,0.05836
0.864,0.04816
0.868,0.01019
0.872,0.09724
0.876,0.02235
0.88,0.0274
0.884,-0.05407
0.888,-0.03808
0.892,-0.03093
0.896,-0.14123
0.9,-0.04842
0.904,0.13531
0.908,0.28635
0.912,0.54967
0.916,0.66571
0.92,0.88146
0.924,1.00155
0.928,1.00517
0.932,0.95919
0.936,0.72565
0.94,0.54907
0.944,0.25632
0.948,0.07534
0.952,-0.10397
0.956,-0.11008
0.96,-0.10461
0.964,-0.09656
0.968,-0.08108
0.972,-0.0664
0.976,-0.02994
0.98,0.02515
0.984,0.05988
0.988,0.0187
0.992,0.10387
0.996,0.15524
1.0,0.10417
1.004,0.11813
1.008,0.12336
1.012,0.1532
1.016,0.12725
1.02,0.14658
1.024,0.13616
1.028,0.13502
1.032,0.09025
1.036,0.12134
1.04,0.0412
1.044,0.07287
1.048,0.13793
1.052,0.09932
1.056,0.06479
1.06,0.04429
1.064,0.04833
1.068,0.08422
1.072,-0.01127
1.076,0.0594
1.08,0.05938
1.084,0.02438
1.088,0.05708
1.092,-0.0113
1.096,0.0011
1.1,0.0974
1.104,0.02294
1.108,0.02376
1.112,0.0463
1.116,0.09945
1.12,0.12829
1.124,0.07589
1.128,0.09953
1.132,0.03743
1.136,0.02308
1.14,0.03304
1.144,-0.027
1.148,0.00767
1.152,0.06988
1.156,0.25796
1.16,0.51513
1.164,0.71885
1.168,0.95895
1.172,1.13339
1.176,1.22303
1.18,1.16425
1.184,1.02685
1.188,0.8404
1.192,0.53611
1.196,0.43776
1.2,0.25942
1.204,0.14615
1.208,0.12109
1.212,0.11451
1.216,0.14327
1.22,0.10678
1.224,0.1785
1.228,0.17145
1.232,0.21712
1.236,0.26678
1.24,0.22083
1.244,0.22812
1.248,0.16098
1.252,0.18301
1.256,0.14666
1.26,0.16708
1.264,0.07211
1.268,0.0767
1.272,0.11644
1.276,0.12221
1.28,0.10068
1.284,0.12906
1.288,0.10303
1.292,0.0672
1.296,0.09631
1.3,0.02375
1.304,0.0089
1.308,0.07211
1.312,0.0287
1.316,0.05411
1.32,0.11727
1.324,-0.0038
1.328,0.06998
1.332,-0.00242
1.336,0.06248
1.34,0.00173
1.344,0.07562
1.348,0.02489
1.352,0.03448
1.356,0.03198
1.36,0.0354
1.364,0.09828
1.368,0.02677
1.372,0.07967
1.376,0.0895
1.38,0.03978
1.384,0.05596
1.388,0.11719
1.392,0.05071
1.396,0.11073
1.4,0.14482
1.404,0.14803
1.408,0.14361
1.412,0.09241
1.416,0.09779
1.42,0.11857
1.424,0.18479
1.428,0.18062
1.432,0.13615
1.436,0.22598
1.44,0.21038
1.444,0.18719
1.448,0.34402
1.452,0.25522
1.456,0.20851
1.46,0.20312
1.464,0.24214
1.468,0.23044
1.472,0.22783
1.476,0.18894
1.48,0.2366
1.484,0.20748
1.488,0.13367
1.492,0.11276
1.496,0.16354
1.5,0.16374
1.504,0.15467
1.508,0.21593
1.512,0.1386
1.516,0.15908
1.52,0.08022
1.524,0.0725
1.528,0.06732
1.532,0.07739
1.536,0.06607
1.54,0.07201
1.544,0.06101
1.548,0.08282
1.552,0.05845
1.556,0.04799
1.56,-0.00991
1.564,0.06994
1.568,0.03234
1.572,0.0463
1.576,0.05368
1.58,0.02635
1.584,0.04338
1.588,0.02716
1.592,0.09536
1.596,0.04535
1.6,0.0244
1.604,0.04021
1.608,0.04791
1.612,0.04867
1.616,0.04498
1.62,0.00306
1.624,-0.02032
1.628,-0.00978
1.632,0.05205
1.636,-0.01664
1.64,0.03707
1.644,0.03672
1.648,-0.00286
1.652,-0.03224
1.656,0.02695
1.66,0.05405
1.664,0.07903
1.668,0.00466
1.672,0.08615
1.676,0.01453
1.68,0.05382
1.684,0.13843
1.688,0.12162
1.692,0.0846
1.696,0.07726
1.7,0.08299
1.704,0.08803
1.708,0.14368
1.712,0.03289
1.716,0.05294
1.72,0.01651
1.724,-0.03056
1.728,0.01919
1.732,0.05782
1.736,0.06489
1.74,0.01273
1.744,0.06221
1.748,0.106
1.752,0.02651
1.756,0.01586
1.76,-0.05216
1.764,-0.01294
1.768,0.07448
1.772,0.02273
1.776,0.05209
1.78,0.01707
1.784,0.00177
1.788,-0.05406
1.792,0.05523
1.796,0.03349
1.8,0.05246
1.804,0.02895
1.808,0.00473
1.812,0.02729
1.816,-0.05241
1.82,-0.06168
1.824,-0.06429
1.828,0.00705
1.832,0.04325
1.836,0.24326
1.84,0.38008
1.844,0.65978
1.848,0.912
1.852,0.93744
1.856,1.0542
1.86,0.90952
1.864,0.74575
1.868,0.50001
1.872,0.32716
1.876,0.13535
1.88,-0.06586
1.884,-0.16091
1.888,-0.12568
1.892,-0.09382
1.896,-0.15298
1.9,-0.00835
1.904,-0.00661
1.908,-0.00921
1.912,0.02185
1.916,-0.01643
1.92,-0.03454
1.924,0.00607
1.928,0.01051
1.932,-0.01205
1.936,0.03675
1.94,0.02611
1.944,0.05109
1.948,0.07149
1.952,0.03313
1.956,-0.01718
1.96,-0.00402
1.964,0.05908
1.968,-0.00987
1.972,0.02353
1.976,-0.02865
1.98,0.04179
1.984,0.05639
1.988,0.07916
1.992,0.08743
1.996,0.17058
2.0,0.148
2.004,0.11234
2.008,0.05265
2.012,0.06928
2.016,0.12695
2.02,0.0811
2.024,0.07154
2.028,0.13343
2.032,0.04011
2.036,0.10532
2.04,-0.00716
2.044,0.06459
2.048,0.02402
2.052,0.08291
2.056,0.00519
2.06,0.09798
2.064,0.0427
2.068,0.05345
2.072,0.08327
2.076,0.02132
2.08,0.16564
2.084,0.07613
2.088,0.16302
2.092,0.0665
2.096,0.16461
2.1,0.17644
2.104,0.19983
2.108,0.1581
2.112,0.20469
2.116,0.18662
2.12,0.1547
2.124,0.17894
2.128,0.20117
2.132,0.08309
2.136,0.19465
2.14,0.3905
2.144,0.55036
2.148,0.75445
2.152,0.90238
2.156,1.13431
2.16,1.2333
2.164,1.17999
2.168,1.01488
2.172,0.78674
2.176,0.55602
2.18,0.33522
2.184,0.12281
2.188,-0.00539
2.192,-0.05135
2.196,-0.1151
2.2,-0.03538
2.204,-0.01467
2.208,0.04181
2.212,0.05983
2.216,0.12345
2.22,0.03907
2.224,0.02638
2.228,0.03188
2.232,-0.03278
2.236,-0.02437
2.24,0.03592
2.244,-0.0022
2.248,0.02725
2.252,0.00991
2.256,0.06192
2.26,-0.01071
2.264,0.04069
2.268,0.00725
2.272,-0.01167
2.276,-0.05126
2.28,0.00146
2.284,-0.0326
2.288,-0.00672
2.292,0.0652
2.296,-0.03456
2.3,0.02282
2.304,0.0755
2.308,0.0056
2.312,0.00887
2.316,-0.02934
2.32,-0.03392
2.324,-0.0419
2.328,0.0126
2.332,0.00205
2.336,-0.00994
2.34,0.03738
2.344,-0.00211
2.348,0.068
2.352,-0.00125
2.356,0.04608
2.36,0.0485
2.364,0.01286
2.368,0.04524
2.372,0.02891
2.376,0.12166
2.38,0.12247
2.384,0.08269
2.388,0.08472
2.392,0.1024
2.396,0.16424
2.4,0.22306
2.404,0.191
2.408,0.13959
2.412,0.13191
2.416,0.22761
2.42,0.12402
2.424,0.25327
2.428,0.28234
2.432,0.23569
2.436,0.22825
2.44,0.24485
2.444,0.18091
2.448,0.20487
2.452,0.20951
2.456,0.17851
2.46,0.17244
2.464,0.16926
2.468,0.18908
2.472,0.1736
2.476,0.09755
2.48,0.10931
2.484,0.1058
2.488,0.14925
2.492,0.09613
2.496,0.07126
2.5,0.12375
2.504,0.0947
2.508,0.09637
2.512,0.07649
2.516,0.04741
2.52,-0.00937
2.524,0.01852
2.528,-0.03607
2.532,0.03515
2.536,0.05805
2.54,-0.00642
2.544,0.05129
2.548,0.0381
2.552,0.01241
2.556,-0.05154
2.56,-0.03469
2.564,0.03475
2.568,-0.03876
2.572,-0.03454
2.576,0.06841
2.58,-0.00474
2.584,-0.02266
2.588,-0.00649
2.592,0.05292
2.596,-0.06654
2.6,0.0086
2.604,0.04548
2.608,0.0382
2.612,-0.02159
2.616,0.05384
2.62,0.06638
2.624,0.07609
2.628,0.04313
2.632,0.09722
2.636,0.10917
2.64,0.10382
2.644,0.03804
2.648,0.03908
2.652,0.09176
2.656,0.05872
2.66,0.04486
2.664,-0.0369
2.668,0.04726
2.672,0.03434
2.676,-0.00578
2.68,-0.01578
2.684,-0.06106
2.688,-0.03546
2.692,-0.05701
2.696,0.01425
2.7,-0.0106
2.704,-0.02263
2.708,-0.01122
2.712,5e-05
2.716,0.01873
2.72,0.01468
2.724,0.00564
2.728,-0.04973
2.732,0.00993
2.736,-0.04397
2.74,0.00329
2.744,0.07553
2.748,0.03659
2.752,-0.0788
2.756,-0.09219
2.76,-0.06596
2.764,-0.15414
2.768,-0.10697
2.772,-0.05357
2.776,0.01762
2.78,0.24955
2.784,0.46316
2.788,0.64794
2.792,0.76112
2.796,0.93251
2.8,0.92963
2.804,0.82384
2.808,0.65379
2.812,0.44991
2.816,0.2458
2.82,0.06225
2.824,-0.12898
2.828,-0.14605
2.832,-0.21779
2.836,-0.17183
2.84,-0.08946
2.844,-0.0785
2.848,0.00225
2.852,-0.03881
2.856,-0.04001
2.86,-0.0224
2.864,0.08601
2.868,0.0007
2.872,-0.03937
2.876,-0.06384
2.88,-0.03691
2.884,-0.01698
2.888,-0.02032
2.892,-0.0143
2.896,0.01425
2.9,-0.02784
2.904,-0.0145
2.908,-0.00425
2.912,-0.0496
2.916,-0.03677
2.92,-0.03953
2.924,0.01056
2.928,-0.02768
2.932,-0.03588
2.936,0.02102
2.94,-0.06784
2.944,0.08329
2.948,-0.05041
2.952,0.00679
2.956,-0.05326
2.96,-0.0563
2.964,0.00584
2.968,-0.00392
2.972,0.0133
2.976,-0.01526
2.98,-0.04441
2.984,-0.03005
2.988,0.06942
2.992,0.02592
2.996,0.02989
3.0,0.06196
3.004,0.03916
3.008,0.03287
3.012,0.00314
3.016,0.04198
3.02,0.08634
3.024,0.17127
3.028,0.07918
3.032,0.06799
3.036,0.14957
3.04,0.18344
3.044,0.11612
3.048,0.11947
3.052,0.17967
3.056,0.17697
3.06,0.10647
3.064,0.16299
3.068,0.14087
3.072,0.21509
3.076,0.13004
3.08,0.22273
3.084,0.15826
3.088,0.18683
3.092,0.25906
3.096,0.23706
3.1,0.09978
3.104,0.19629
3.108,0.12163
3.112,0.10295
3.116,0.11353
3.12,0.13144
3.124,0.06661
3.128,0.09393
3.132,0.10617
3.136,0.06032
3.14,0.09016
3.144,0.06149
3.148,0.11506
3.152,0.0273
3.156,0.03181
3.16,0.02735
3.164,-0.0178
3.168,0.00419
3.172,0.0035
3.176,-0.00904
3.18,-0.01784
3.184,0.01812
3.188,0.02604
3.192,-0.04821
3.196,-0.01781
3.2,0.01209
3.204,-0.00604
3.208,0.04959
3.212,0.05354
3.216,0.0067
3.22,0.06348
3.224,0.07542
3.228,0.07832
3.232,0.07055
3.236,0.02232
3.24,0.05324
3.244,0.00254
3.248,0.07494
3.252,0.0295
3.256,-0.01242
3.26,0.03045
3.264,-0.0375
3.268,0.0306
3.272,-0.00918
3.276,-0.07516
3.28,-0.02898
3.284,0.0104
3.288,-0.02121
3.292,0.02344
3.296,-0.03721
3.3,-0.03204
3.304,-0.04882
3.308,-0.0289
3.312,-0.04564
3.316,-0.04616
3.32,-0.04207
3.324,-0.03448
3.328,-0.06079
3.332,-0.07019
3.336,-0.00252
3.34,-0.01963
3.344,-0.00669
3.348,-0.10454
3.352,-0.09693
3.356,-0.1288
3.36,-0.07642
3.364,-0.0441
3.368,0.12274
3.372,0.32756
3.376,0.47254
3.38,0.72267
3.384,0.89324
3.388,0.92139
3.392,0.95858
3.396,0.77775
3.4,0.54551
3.404,0.34307
3.408,0.14769
3.412,0.00336
3.416,-0.14842
3.42,-0.13332
3.424,-0.16868
3.428,-0.1602
3.432,-0.16241
3.436,-0.11978
3.44,-0.06563
3.444,-0.02146
3.448,0.00313
3.452,-0.04309
3.456,-0.03189
3.46,-0.05765
3.464,0.02032
3.468,-0.05755
3.472,-0.08934
3.476,-0.01226
3.48,-0.07707
3.484,-0.07507
3.488,-0.01109
3.492,-0.04095
3.496,-0.02506
3.5,0.0095
3.504,-0.01879
3.508,-0.07101
3.512,-0.04935
3.516,-0.00972
3.52,-0.04737
3.524,0.03522
3.528,-0.00219
3.532,-0.00013
3.536,-0.04963
3.54,-0.05542
3.544,-0.06675
3.548,-0.00245
3.552,-0.06443
3.556,-0.07406
3.56,-0.05086
3.564,0.00842
3.568,-0.01014
3.572,0.01115
3.576,-0.07226
3.58,0.0119
3.584,0.04377
3.588,0.04933
3.592,0.04159
3.596,0.00311
3.6,-0.00573
3.604,0.05467
3.608,0.13951
3.612,0.05725
3.616,0.10037
3.62,0.10956
3.624,0.07861
3.628,0.07405
3.632,0.07007
3.636,0.16712
3.64,0.1616
3.644,0.14666
3.648,0.15885
3.652,0.13973
3.656,0.15485
3.66,0.22058
3.664,0.17836
3.668,0.14781
3.672,0.20173
3.676,0.17236
3.68,0.19522
3.684,0.1769
3.688,0.15955
3.692,0.18349
3.696,0.12263
3.7,0.14006
3.704,0.16903
3.708,0.11989
3.712,0.09757
3.716,0.14292
3.72,0.11859
3.724,0.101
3.728,0.1009
3.732,-0.00289
3.736,0.00717
3.74,0.05846
3.744,0.06984
3.748,-0.0508
3.752,-0.01299
3.756,-0.05771
3.76,-0.00731
3.764,0.05364
3.768,-0.02607
3.772,-0.06258
3.776,0.02948
3.78,-0.02918
3.784,-0.04108
3.788,-0.07783
3.792,-0.03389
3.796,-0.0273
3.8,0.00782
3.804,0.00181
3.808,0.02598
3.812,-0.08538
3.816,0.00097
3.82,0.02622
3.824,0.01039
3.828,0.03096
3.832,0.07284
3.836,0.05223
3.84,0.12824
3.844,0.02815
3.848,0.06978
3.852,0.06286
3.856,0.04466
3.86,0.1109
3.864,0.0264
3.868,0.03286
3.872,-0.04948
3.876,0.05248
3.88,-0.01496
3.884,-0.02222
3.888,-0.0977
3.892,0.00283
3.896,0.00967
3.9,0.01124
3.904,-0.07338
3.908,-0.04225
3.912,-0.06118
3.916,-0.07316
3.92,-0.0628
3.924,-0.01632
3.928,-0.04162
3.932,0.02542
3.936,-0.13552
3.94,-0.04187
3.944,-0.07596
3.948,-0.03527
3.952,-0.135
3.956,-0.04366
3.96,-0.00863
3.964,-0.06031
3.968,-0.08929
3.972,-0.16338
3.976,-0.09439
3.98,-0.01514
3.984,-0.01008
3.988,0.15231
3.992,0.39877
3.996,0.63122
4.0,0.78343
4.004,0.95617
4.008,0.96419
4.012,0.92555
4.016,0.75223
4.02,0.50468
4.024,0.19482
4.028,-0.01039
4.032,-0.0714
4.036,-0.13702
4.04,-0.20659
4.044,-0.22316
4.048,-0.09347
4.052,-0.15109
4.056,-0.14989
4.06,-0.03208
4.064,-0.05293
4.068,-0.05756
4.072,-0.02005
4.076,-0.03449
4.08,-0.00548
4.084,-0.09235
4.088,-0.0541
4.092,-0.02904
4.096,-0.03794
4.1,0.03259
4.104,-0.04925
4.108,-0.03368
4.112,-0.01373
4.116,-0.00224
4.12,-0.10367
4.124,-0.07538
4.128,-0.0071
4.132,-0.05508
4.136,-0.0074
4.14,-0.06718
4.144,0.05281
4.148,-0.04446
4.152,0.00208
4.156,0.01531
4.16,-0.01892
4.164,-0.03428
4.168,-0.06069
4.172,-0.0276
4.176,0.01568
4.18,-0.00069
4.184,0.02781
4.188,-0.0107
4.192,0.042
4.196,0.05028
4.2,-0.00256
4.204,0.04121
4.208,0.04589
4.212,0.01656
4.216,0.03524
4.22,-0.00961
4.224,0.06923
4.228,0.04389
4.232,0.05965
4.236,0.10884
4.24,0.07066
4.244,0.08641
4.248,0.03373
4.252,0.10434
4.256,0.18048
4.26,0.09058
4.264,0.17798
4.268,0.19323
4.272,0.16948
4.276,0.17272
4.28,0.1766
4.284,0.19081
4.288,0.20905
4.292,0.1707
4.296,0.19005
4.3,0.27714
4.304,0.19837
4.308,0.18708
4.312,0.20034
4.316,0.1163
4.32,0.20125
4.324,0.06707
4.328,0.10021
4.332,0.07588
4.336,0.10474
4.34,0.0788
4.344,0.03528
4.348,0.11113
4.352,0.04157
4.356,0.08553
4.36,-0.00567
4.364,0.04938
4.368,0.04922
4.372,0.05327
4.376,0.03193
4.38,0.04609
4.384,-0.0172
4.388,-0.00728
4.392,0.03733
4.396,-0.04093
4.4,0.0227
4.404,-0.03543
4.408,-0.00451
4.412,-0.01498
4.416,-0.03148
4.42,0.01795
4.424,0.10108
4.428,0.01148
4.432,0.04654
4.436,0.00348
4.44,0.0845
4.444,0.08233
4.448,0.06505
4.452,0.10146
4.456,0.083
4.46,0.04202
4.464,0.05744
4.468,0.02531
4.472,0.04338
4.476,0.00814
4.48,-0.04556
4.484,0.01926
4.488,-0.0245
4.492,-0.0114
4.496,-0.03531
4.5,-0.04051
4.504,-0.02397
4.508,-0.0239
4.512,-0.07722
4.516,0.00476
4.52,-0.02523
4.524,-0.03622
4.528,-0.08704
4.532,-0.09562
4.536,-0.07624
4.54,-0.0172
4.544,0.01902
4.548,-0.01106
4.552,-0.00181
4.556,-0.01787
4.56,-0.05872
4.564,-0.07167
4.568,-0.14262
4.572,-0.19299
4.576,-0.12752
4.58,-0.05839
4.584,0.14874
4.588,0.38974
4.592,0.49724
4.596,0.7677
4.6,0.84038
4.604,0.94242
4.608,0.92206
4.612,0.80291
4.616,0.57202
4.62,0.34758
4.624,0.1312
4.628,-0.08104
4.632,-0.17653
4.636,-0.23194
4.64,-0.1756
4.644,-0.18025
4.648,-0.17701
4.652,-0.0476
4.656,0.01743
4.66,0.01965
4.664,-0.12894
4.668,-0.05672
4.672,-0.06027
4.676,-0.02666
4.68,-0.03954
4.684,-0.02324
4.688,0.00289
4.692,-0.0338
4.696,-0.04942
4.7,-0.0388
4.704,-0.0146
4.708,-0.01534
4.712,0.00876
4.716,0.03296
4.72,0.02035
4.724,0.02968
4.728,-0.08714
4.732,-0.01541
4.736,0.00393
4.74,-0.01241
4.744,0.01181
4.748,-0.0276
4.752,-0.04591
4.756,0.02273
4.76,0.01352
4.764,-0.01469
4.768,-0.09131
4.772,-0.00144
4.776,-0.05849
4.78,-0.01352
4.784,-0.06732
4.788,0.04946
4.792,-0.02299
4.796,0.00313
4.8,0.0288
4.804,-0.04052
4.808,0.07621
4.812,0.0383
4.816,0.03936
4.82,0.00051
4.824,0.09964
4.828,0.10675
4.832,0.07131
4.836,0.08144
4.84,0.12527
4.844,0.12792
4.848,0.12659
4.852,0.18574
4.856,0.19658
4.86,0.14701
4.864,0.1773
4.868,0.21508
4.872,0.19711
4.876,0.17987
4.88,0.2599
4.884,0.25416
4.888,0.23395
4.892,0.16619
4.896,0.17622
4.9,0.19261
4.904,0.21084
4.908,0.19326
4.912,0.17702
4.916,0.17635
4.92,0.17098
4.924,0.1797
4.928,0.12373
4.932,0.12421
4.936,0.13613
4.94,0.1007
4.944,0.12358
4.948,0.06771
4.952,0.05511
4.956,0.0421
4.96,0.00824
4.964,0.04132
4.968,-0.01201
4.972,0.03708
4.976,0.07685
4.98,-0.00423
4.984,0.02661
4.988,0.02302
4.992,-0.00139
4.996,-0.04737
5.0,-0.03345
5.004,-0.05368
5.008,0.01247
5.012,-0.01171
5.016,0.04133
5.02,-0.04457
5.024,-0.05041
5.028,0.01342
5.032,0.02104
5.036,0.04913
5.04,-0.02177
5.044,-0.00909
5.048,-0.00983
5.052,0.06507
5.056,-0.01385
5.06,0.07161
5.064,0.03466
5.068,0.04944
5.072,0.05341
5.076,0.07612
5.08,0.0243
5.084,0.07585
5.088,0.08649
5.092,0.09855
5.096,0.06436
5.1,0.11305
5.104,0.03315
5.108,0.06335
5.112,0.03167
5.116,0.01263
5.12,0.05013
5.124,0.02236
5.128,0.02815
5.132,-0.01463
5.136,0.03041
5.14,-0.0088
5.144,-0.07008
5.148,-0.01696
5.152,0.00625
5.156,-0.04937
5.16,-0.05513
5.164,0.01172
5.168,-0.02397
5.172,0.0432
5.176,0.00471
5.18,-0.05222
5.184,-0.03131
5.188,-0.03641
5.192,0.03959
5.196,-0.03413
5.2,-0.00896
5.204,-0.0266
5.208,-0.09099
5.212,-0.10884
5.216,-0.16149
5.22,-0.10069
5.224,0.02144
5.228,0.09
5.232,0.43159
5.236,0.58188
5.24,0.80939
5.244,0.96009
5.248,0.94829
5.252,0.96244
5.256,0.76295
5.26,0.55518
5.264,0.35644
5.268,0.13072
5.272,-0.03402
5.276,-0.19449
5.28,-0.19055
5.284,-0.165
5.288,-0.13805
5.292,-0.0623
5.296,-0.09069
5.3,-0.03925
5.304,-0.0801
5.308,0.03742
5.312,-0.00791
5.316,0.00332
5.32,-0.11856
5.324,-0.03693
5.328,-0.01941
5.332,0.01595
5.336,0.0507
5.34,-0.0361
5.344,-0.01923
5.348,0.0019
5.352,-0.05318
5.356,-0.01351
5.36,-0.00362
5.364,0.04143
5.368,-0.01835
5.372,-0.04452
5.376,-0.00365
5.38,0.04677
5.384,-0.00216
5.388,-0.00843
5.392,0.0011
5.396,0.01369
5.4,-0.06967
5.404,0.03569
5.408,0.08436
5.412,0.00843
5.416,-0.04625
5.42,0.0258
5.424,-0.03563
5.428,0.07801
5.432,-0.00449
5.436,0.07109
5.44,0.00465
5.444,0.01467
5.448,0.07106
5.452,0.0688
5.456,0.12399
5.46,0.08217
5.464,0.09872
5.468,0.02942
5.472,0.09364
5.476,0.13729
5.48,0.00891
5.484,0.12769
5.488,0.1298
5.492,0.17309
5.496,0.1809
5.5,0.14856
5.504,0.18011
5.508,0.19296
5.512,0.23854
5.516,0.26155
5.52,0.22704
5.524,0.18122
5.528,0.17168
5.532,0.24388
5.536,0.13499
5.54,0.24748
5.544,0.23821
5.548,0.12861
5.552,0.24837
5.556,0.20251
5.56,0.18965
5.564,0.11751
5.568,0.11201
5.572,0.14483
5.576,0.1073
5.58,0.12323
5.584,0.0948
5.588,0.06429
5.592,0.08329
5.596,0.08884
5.6,0.10701
5.604,0.06062
5.608,0.05493
5.612,0.02898
5.616,0.04608
5.62,0.00964
5.624,0.04415
5.628,0.00105
5.632,0.01099
5.636,0.06399
5.64,-0.02551
5.644,-0.00633
5.648,0.02938
5.652,0.0075
5.656,0.03175
5.66,-0.04415
5.664,-0.0077
5.668,-0.01518
5.672,0.02154
5.676,-0.00122
5.68,0.03494
5.684,-0.03245
5.688,0.029
5.692,0.04538
5.696,0.07608
5.7,0.12928
5.704,0.13104
5.708,0.07764
5.712,0.06263
5.716,0.07924
5.72,0.03899
5.724,0.06927
5.728,0.02036
5.732,0.02434
5.736,-0.02348
5.74,0.00852
5.744,0.00659
5.748,0.0407
5.752,-0.05266
5.756,0.00358
5.76,0.07629
5.764,-0.00983
5.768,0.03234
5.772,0.05309
5.776,-0.01917
5.78,-0.05793
5.784,-0.00146
5.788,0.02417
5.792,-0.0437
5.796,0.00269
5.8,-0.01756
5.804,0.03894
5.808,-0.03631
5.812,0.00323
5.816,-0.01237
5.82,0.01027
5.824,-0.02022
5.828,0.01787
5.832,-0.06184
5.836,-0.13086
5.84,-0.12867
5.844,-0.09293
5.848,0.00769
5.852,0.12416
5.856,0.35892
5.86,0.56409
5.864,0.7497
5.868,0.97851
5.872,1.06146
5.876,0.94005
5.88,0.82543
5.884,0.6545
5.888,0.40411
5.892,0.1634
5.896,-0.0078
5.9,-0.06985
5.904,-0.20246
5.908,-0.11958
5.912,-0.14096
5.916,-0.0775
5.92,-0.0931
5.924,-0.00145
5.928,0.00244
5.932,0.02913
5.936,-0.03648
5.94,0.00649
5.944,0.00858
5.948,-0.02209
5.952,0.01617
5.956,-0.03548
5.96,0.01085
5.964,0.03578
5.968,-0.02381
5.972,-0.01227
5.976,0.02269
5.98,-0.05468
5.984,-0.04481
5.988,-0.00607
5.992,-0.04931
5.996,-0.00012
6.0,-0.00471
6.004,-0.02923
6.008,0.00168
6.012,0.02084
6.016,0.02524
6.02,0.12549
6.024,0.02334
6.028,-0.06047
6.032,0.02718
6.036,-0.04252
6.04,0.03998
6.044,-0.00254
6.048,0.03619
6.052,0.00303
6.056,0.07383
6.06,-0.00627
6.064,0.06595
6.068,0.05225
6.072,0.04728
6.076,0.10638
6.08,0.10683
6.084,0.06827
6.088,0.06951
6.092,0.11554
6.096,0.14877
6.1,0.20294
6.104,0.1292
6.108,0.16628
6.112,0.20818
6.116,0.12389
6.12,0.17157
6.124,0.18701
6.128,0.23321
6.132,0.19613
6.136,0.22191
6.14,0.24859
6.144,0.26166
6.148,0.27872
6.152,0.23051
6.156,0.18738
6.16,0.21363
6.164,0.2468
6.168,0.20169
6.172,0.16816
6.176,0.24274
6.18,0.21752
6.184,0.18096
6.188,0.19001
6.192,0.20026
6.196,0.15999
6.2,0.08425
6.204,0.10883
6.208,0.07091
6.212,0.14127
6.216,0.11213
6.22,0.19551
6.224,0.12475
6.228,0.08272
6.232,0.08395
6.236,0.06023
6.24,0.08291
6.244,0.03212
6.248,0.01748
6.252,0.05059
6.256,0.04473
6.26,-0.0276
6.264,0.05778
6.268,0.00049
6.272,0.03382
6.276,0.07834
6.28,0.01568
6.284,0.01345
6.288,0.03706
6.292,0.02149
6.296,0.03158
6.3,0.09494
6.304,0.07682
6.308,0.02544
6.312,0.05494
6.316,0.00065
6.32,0.05933
6.324,0.03517
6.328,0.11262
6.332,0.11098
6.336,0.01791
6.34,0.14567
6.344,0.09139
6.348,0.1211
6.352,0.06947
6.356,0.09215
6.36,0.19831
6.364,0.07688
6.368,0.06266
6.372,0.02259
6.376,0.1166
6.38,0.06827
6.384,0.04473
6.388,0.049
6.392,0.038
6.396,0.01543
6.4,0.05285
6.404,0.06369
6.408,-0.01553
6.412,0.03831
6.416,0.06138
6.42,0.00631
6.424,0.03523
6.428,0.04072
6.432,0.0244
6.436,0.01096
6.44,0.02922
6.444,0.02396
6.448,0.02562
6.452,0.0128
6.456,0.00377
6.46,0.05808
6.464,0.09646
6.468,0.00932
6.472,0.04161
6.476,-0.0259
6.48,-0.11509
6.484,-0.0224
6.488,-0.07035
6.492,0.04451
6.496,0.26907
6.5,0.46904
6.504,0.7286
6.508,0.86858
6.512,1.03033
6.516,0.97273
6.52,0.90994
6.524,0.72956
6.528,0.58435
6.532,0.36811
6.536,0.1266
6.54,-0.02401
6.544,-0.1083
6.548,-0.14018
6.552,-0.12961
6.556,-0.06578
6.56,-0.02305
6.564,-0.02169
6.568,0.04647
6.572,0.0384
6.576,0.01029
6.58,0.06501
6.584,-0.00991
6.588,0.01515
6.592,0.04679
6.596,-0.05309
6.6,0.05949
6.604,0.01016
6.608,0.0011
6.612,0.00264
6.616,0.01599
6.62,-0.03008
6.624,0.01769
6.628,0.05899
6.632,0.03242
6.636,0.03865
6.64,0.02612
6.644,0.01833
6.648,0.05398
6.652,0.07892
6.656,-0.04159
6.66,0.0125
6.664,0.06103
6.668,0.0273
6.672,-0.05744
6.676,0.03863
6.68,0.10436
6.684,-0.00218
6.688,-0.03908
6.692,0.05343
6.696,0.06395
6.7,0.01241
6.704,0.08769
6.708,0.08424
6.712,0.1345
6.716,0.09292
6.72,0.05473
6.724,0.01351
6.728,0.10379
6.732,0.08871
6.736,0.13546
6.74,0.15702
6.744,0.1147
6.748,0.16176
6.752,0.14426
6.756,0.24924
6.76,0.17513
6.764,0.1331
6.768,0.2549
6.772,0.24795
6.776,0.22944
6.78,0.30918
6.784,0.24203
6.788,0.31231
6.792,0.32234
6.796,0.31627
6.8,0.33839
6.804,0.31001
6.808,0.3351
6.812,0.33294
6.816,0.34313
6.82,0.29196
6.824,0.31671
6.828,0.30003
6.832,0.25692
6.836,0.21244
6.84,0.23834
6.844,0.1434
6.848,0.16655
6.852,0.13485
6.856,0.15746
6.86,0.0956
6.864,0.06498
6.868,0.11817
6.872,0.1209
6.876,0.04429
6.88,0.09422
6.884,0.0382
6.888,0.0542
6.892,0.12296
6.896,0.07785
6.9,0.07069
6.904,0.01801
6.908,0.06662
6.912,0.02739
6.916,0.03349
6.92,0.01639
6.924,0.02514
6.928,-0.02199
6.932,0.00504
6.936,-0.01823
6.94,-0.00695
6.944,-0.09469
6.948,-0.0297
6.952,-0.02993
6.956,0.13937
6.96,0.31607
6.964,0.61263
6.968,0.77679
6.972,0.97858
6.976,1.02401
6.98,1.00825
6.984,0.82947
6.988,0.62222
6.992,0.43557
6.996,0.1852
7.0,-0.0308
7.004,-0.10574
7.008,-0.13104
7.012,-0.10594
7.016,-0.09005
7.02,-0.03899
7.024,-0.08572
7.028,0.02956
7.032,0.04927
7.036,0.05947
7.04,0.06544
7.044,0.04079
7.048,0.02699
7.052,0.02953
7.056,0.00382
7.06,0.03336
7.064,0.03058
7.068,0.00937
7.072,0.00911
7.076,0.08938
7.08,0.03126
7.084,0.04838
7.088,0.05688
7.092,0.04216
7.096,0.07578
7.1,-0.01673
7.104,0.03917
7.108,0.01185
7.112,-0.02049
7.116,0.01733
7.12,0.07474
7.124,0.03141
7.128,0.03665
7.132,0.0125
7.136,0.07865
7.14,0.02775
7.144,-0.01051
7.148,0.06095
7.152,0.00334
7.156,0.02271
7.16,0.07221
7.164,-0.04514
7.168,0.07319
7.172,0.07191
7.176,0.1721
7.18,0.09437
7.184,0.08552
7.188,0.07237
7.192,0.13839
7.196,0.09378
7.2,0.1297
7.204,0.12942
7.208,0.17628
7.212,0.20067
7.216,0.19882
7.22,0.14885
7.224,0.20117
7.228,0.21583
7.232,0.14166
7.236,0.20387
7.24,0.28018
7.244,0.26626
7.248,0.20259
7.252,0.24431
7.256,0.22104
7.26,0.251
7.264,0.25009
7.268,0.19259
7.272,0.21759
7.276,0.21915
7.28,0.23647
7.284,0.24539
7.288,0.14889
7.292,0.13727
7.296,0.26739
7.3,0.19761
7.304,0.16347
7.308,0.19261
7.312,0.1598
7.316,0.0998
7.32,0.17899
7.324,0.17259
7.328,0.14078
7.332,0.11418
7.336,0.08273
7.34,0.13104
7.344,0.06064
7.348,-0.01645
7.352,-0.01584
7.356,-0.03118
7.36,0.03933
7.364,0.02207
7.368,0.05327
7.372,0.08977
7.376,0.02115
7.38,0.08024
7.384,0.05658
7.388,0.05804
7.392,0.10808
7.396,0.08046
7.4,0.00933
7.404,0.13489
7.408,0.11446
7.412,0.10581
7.416,0.06092
7.42,0.17832
7.424,0.16881
7.428,0.09806
7.432,0.0968
7.436,0.05304
7.44,0.10779
7.444,0.12129
7.448,0.03613
7.452,0.09286
7.456,0.05478
7.46,-0.0224
7.464,0.06789
7.468,0.06933
7.472,0.02444
7.476,-0.02004
7.48,0.06693
7.484,-0.00432
7.488,-0.06375
7.492,0.04911
7.496,0.01089
7.5,0.02595
7.504,-0.01926
7.508,0.07614
7.512,0.07768
7.516,0.01558
7.52,0.04495
7.524,0.01788
7.528,-0.00642
7.532,0.02591
7.536,0.02482
7.54,-0.06335
7.544,0.05788
7.548,-0.08726
7.552,-0.08158
7.556,-0.04148
7.56,0.07573
7.564,0.1726
7.568,0.32147
7.572,0.5857
7.576,0.7879
7.58,0.90537
7.584,1.07715
7.588,0.98616
7.592,0.85408
7.596,0.63107
7.6,0.37654
7.604,0.21647
7.608,0.05882
7.612,-0.12084
7.616,-0.08692
7.62,-0.153
7.624,-0.09586
7.628,0.06372
7.632,-0.03512
7.636,-0.01951
7.64,0.06426
7.644,-0.03909
7.648,0.01682
7.652,0.02027
7.656,0.00531
7.66,0.04044
7.664,-0.01592
7.668,-0.00253
7.672,0.09224
7.676,0.08343
7.68,0.06721
7.684,-0.05958
7.688,0.01261
7.692,0.02778
7.696,0.0431
7.7,0.01031
7.704,0.06337
7.708,0.06715
7.712,0.03665
7.716,0.03813
7.72,0.05541
7.724,-0.02551
7.728,0.08809
7.732,-0.0067
7.736,0.05294
7.74,0.03813
7.744,-0.0151
7.748,0.03985
7.752,0.07516
7.756,-0.01559
7.76,0.0125
7.764,0.12133
7.768,0.06718
7.772,0.08019
7.776,0.00247
7.78,0.08042
7.784,0.06101
7.788,0.01837
7.792,0.1057
7.796,0.04008
7.8,0.19541
7.804,0.06529
7.808,0.10457
7.812,0.15616
7.816,0.16982
7.82,0.15591
7.824,0.21929
7.828,0.1986
7.832,0.25657
7.836,0.23164
7.84,0.29968
7.844,0.35344
7.848,0.28223
7.852,0.35614
7.856,0.33359
7.86,0.31356
7.864,0.31476
7.868,0.33717
7.872,0.33807
7.876,0.2685
7.88,0.30117
7.884,0.23871
7.888,0.22128
7.892,0.2741
7.896,0.13374
7.9,0.13288
7.904,0.2162
7.908,0.19408
7.912,0.10354
7.916,0.1795
7.92,0.08408
7.924,0.23069
7.928,0.08107
7.932,0.04855
7.936,-0.02042
7.94,0.04666
7.944,0.08863
7.948,0.07461
7.952,0.03864
7.956,0.12863
7.96,0.03724
7.964,0.09656
7.968,0.02679
7.972,0.03051
7.976,-0.00387
7.98,-0.02103
7.984,-0.08579
7.988,-0.06437
7.992,-0.08553
7.996,-0.03448
8.0,0.17589
8.004,0.32073
8.008,0.5105
8.012,0.80537
8.016,0.93026
8.02,1.02393
8.024,0.99832
8.028,0.86629
8.032,0.59276
8.036,0.46385
8.04,0.21381
8.044,0.10539
8.048,-0.0226
8.052,-0.161
8.056,-0.13112
8.06,-0.11061
8.064,-0.08193
8.068,0.0081
8.072,-0.05847
8.076,0.03484
8.08,0.0052
8.084,-0.01111
8.088,0.02849
8.092,0.00617
8.096,-0.013
8.1,0.04157
8.104,-0.02032
8.108,0.03736
8.112,0.0068
8.116,0.07358
8.12,0.05018
8.124,0.07891
8.128,0.1039
8.132,0.12649
8.136,0.09167
8.14,0.10893
8.144,0.1359
8.148,0.11846
8.152,0.12691
8.156,0.18551
8.16,0.08595
8.164,0.01451
8.168,0.0682
8.172,0.01973
8.176,0.01344
8.18,0.029
8.184,0.04841
8.188,0.09671
8.192,0.02068
8.196,-0.04311
8.2,0.03628
8.204,0.06873
8.208,0.04901
8.212,0.02112
8.216,0.03802
8.22,-0.00355
8.224,0.04934
8.228,0.08859
8.232,0.07857
8.236,0.07
8.24,0.10883
8.244,0.14097
8.248,0.15008
8.252,0.18392
8.256,0.18713
8.26,0.16902
8.264,0.15678
8.268,0.05395
8.272,0.09194
8.276,0.11567
8.28,0.21659
8.284,0.43309
8.288,0.56553
8.292,0.82019
8.296,0.97421
8.3,1.15444
8.304,1.22863
8.308,1.18448
8.312,0.96658
8.316,0.79737
8.32,0.57384
8.324,0.37434
8.328,0.2257
8.332,0.09061
8.336,0.01268
8.34,0.00504
8.344,0.02069
8.348,0.10019
8.352,0.12827
8.356,0.10236
8.36,0.1199
8.364,0.08068
8.368,0.06235
8.372,0.09484
8.376,0.07924
8.38,0.01005
8.384,0.12467
8.388,0.07282
8.392,-0.00928
8.396,0.01429
8.4,-0.03959
8.404,-0.01773
8.408,-0.0227
8.412,0.03309
8.416,-0.02368
8.42,0.0361
8.424,0.02974
8.428,0.0869
8.432,0.06846
8.436,0.03481
8.44,0.03706
8.444,-0.04391
8.448,0.06529
8.452,0.04905
8.456,-0.00862
8.46,0.03503
8.464,0.02157
8.468,0.0569
8.472,0.00447
8.476,-0.00631
8.48,0.03683
8.484,0.0561
8.488,0.06432
8.492,0.02921
8.496,0.02038
8.5,0.05943
8.504,0.05347
8.508,0.0591
8.512,0.01477
8.516,0.11755
8.52,0.1201
8.524,0.09339
8.528,0.13099
8.532,0.18404
8.536,0.12043
8.54,0.20377
8.544,0.16317
8.548,0.12526
8.552,0.25511
8.556,0.19999
8.56,0.21149
8.564,0.18016
8.568,0.20307
8.572,0.20637
8.576,0.23878
8.58,0.22681
8.584,0.31331
8.588,0.26853
8.592,0.23668
8.596,0.30738
8.6,0.28211
8.604,0.29308
8.608,0.31927
8.612,0.35301
8.616,0.27074
8.62,0.30491
8.624,0.23638
8.628,0.24025
8.632,0.16493
8.636,0.18506
8.64,0.19041
8.644,0.15958
8.648,0.13022
8.652,0.05221
8.656,0.12707
8.66,0.06018
8.664,0.07467
8.668,0.03833
8.672,0.03479
8.676,0.06434
8.68,-0.01574
8.684,0.03208
8.688,0.09524
8.692,0.0111
8.696,0.02807
8.7,-0.0648
8.704,0.04195
8.708,-0.00714
8.712,0.01187
8.716,-0.01732
8.72,0.06059
8.724,0.03448
8.728,-0.00802
8.732,0.03713
8.736,-0.05411
8.74,-0.10906
8.744,-0.07999
8.748,-0.0758
8.752,0.01176
8.756,0.17746
8.76,0.33245
8.764,0.54485
8.768,0.74559
8.772,0.95284
8.776,1.07439
8.78,0.94645
8.784,0.81968
8.788,0.57707
8.792,0.35015
8.796,0.09555
8.8,-0.02897
8.804,-0.17256
8.808,-0.18785
8.812,-0.21121
8.816,-0.14714
8.82,-0.08352
8.824,-0.05755
8.828,-0.05529
8.832,-0.05557
8.836,-0.00937
8.84,-0.00837
8.844,0.05445
8.848,-2e-05
8.852,-0.01163
8.856,0.02512
8.86,-0.01927
8.864,-0.02713
8.868,0.00133
8.872,-0.04239
8.876,-0.0133
8.88,-0.00088
8.884,-0.02794
8.888,0.01574
8.892,0.00077
8.896,0.00184
8.9,-0.00389
8.904,0.06847
8.908,0.07247
8.912,-0.02699
8.916,-0.01092
8.92,-0.00942
8.924,0.00544
8.928,0.00032
8.932,-0.01121
8.936,0.07646
8.94,-0.03731
8.944,0.01428
8.948,0.06738
8.952,-0.00256
8.956,0.0172
8.96,0.08034
8.964,-0.06545
8.968,0.06566
8.972,0.0122
8.976,0.01522
8.98,0.04118
8.984,0.06497
8.988,0.13066
8.992,0.09407
8.996,0.10418
9.0,0.0794
9.004,0.11533
9.008,0.20323
9.012,0.10907
9.016,0.05532
9.02,0.12339
9.024,0.17824
9.028,0.11825
9.032,0.20765
9.036,0.23925
9.04,0.2299
9.044,0.23999
9.048,0.24189
9.052,0.16764
9.056,0.24783
9.06,0.22695
9.064,0.1997
9.068,0.20896
9.072,0.19442
9.076,0.21899
9.08,0.13574
9.084,0.19512
9.088,0.19037
9.092,0.15795
9.096,0.08533
9.1,0.08284
9.104,0.11734
9.108,0.06326
9.112,0.11469
9.116,0.10339
9.12,0.00245
9.124,0.12476
9.128,0.02974
9.132,0.03319
9.136,0.00547
9.14,0.04748
9.144,0.0341
9.148,0.03056
9.152,-0.04136
9.156,-0.03889
9.16,0.01627
9.164,0.04814
9.168,-0.0539
9.172,-0.00119
9.176,-0.01512
9.18,0.01622
9.184,-0.04223
9.188,-0.02715
9.192,0.00993
9.196,0.02773
9.2,-0.00316
9.204,-0.01626
9.208,-0.00726
9.212,0.04438
9.216,-0.03334
9.22,0.07575
9.224,-0.04858
9.228,0.02371
9.232,-0.00642
9.236,-0.03968
9.24,-0.05308
9.244,0.07192
9.248,-0.02782
9.252,-0.02298
9.256,0.01858
9.26,-0.03755
9.264,0.03628
9.268,-0.04129
9.272,0.03577
9.276,-0.04731
9.28,0.04357
9.284,0.01715
9.288,0.01123
9.292,0.00827
9.296,0.06391
9.3,0.03047
9.304,0.04992
9.308,0.07767
9.312,0.13596
9.316,0.09658
9.32,0.0669
9.324,0.04673
9.328,0.09504
9.332,0.09175
9.336,0.07967
9.34,0.07862
9.344,0.03246
9.348,0.02934
9.352,-0.0023
9.356,-0.00328
9.36,0.03053
9.364,0.03316
9.368,-0.00831
9.372,-0.0055
9.376,-0.02284
9.38,-0.02438
9.384,-0.04086
9.388,-0.00265
9.392,0.0451
9.396,-0.04743
9.4,0.01015
9.404,0.01088
9.408,-0.02431
9.412,-0.0346
9.416,-0.02333
9.42,-0.02345
9.424,-0.00736
9.428,-0.01749
9.432,-0.02735
9.436,-0.10824
9.44,-0.11965
9.444,-0.14396
9.448,-0.05634
9.452,0.08033
9.456,0.29768
9.46,0.50904
9.464,0.73134
9.468,0.88158
9.472,0.99144
9.476,1.00097
9.48,0.8387
9.484,0.67609
9.488,0.39791
9.492,0.17152
9.496,0.07929
9.5,-0.15662
9.504,-0.19313
9.508,-0.21629
9.512,-0.0993
9.516,-0.12731
9.52,-0.08262
9.524,-0.01856
9.528,-0.00286
9.532,-0.06802
9.536,-0.02052
9.54,0.05002
9.544,-0.04827
9.548,0.0136
9.552,0.02372
9.556,0.00834
9.56,0.01315
9.564,-0.02424
9.568,-0.05438
9.572,0.06802
9.576,-0.04128
9.58,-0.01087
9.584,0.04858
9.588,0.03902
9.592,-0.04258
9.596,-0.0424
9.6,-0.00526
9.604,0.05907
9.608,0.01959
9.612,-0.06664
9.616,0.01565
9.62,0.06153
9.624,0.00079
9.628,-0.00219
9.632,-0.00816
9.636,-0.09325
9.64,0.03485
9.644,-0.00566
9.648,0.00698
9.652,0.07256
9.656,-0.02624
9.66,0.019
9.664,0.04477
9.668,-0.02767
9.672,0.05921
9.676,-0.017
9.68,0.02127
9.684,0.06082
9.688,0.05985
9.692,0.08431
9.696,0.04213
9.7,0.13755
9.704,0.10107
9.708,0.1076
9.712,0.12326
9.716,0.09869
9.72,0.08796
9.724,0.16767
9.728,0.13695
9.732,0.11389
9.736,0.17768
9.74,0.22332
9.744,0.23349
9.748,0.16318
9.752,0.24735
9.756,0.22161
9.76,0.16025
9.764,0.22978
9.768,0.24503
9.772,0.23501
9.776,0.25747
9.78,0.29549
9.784,0.23427
9.788,0.28858
9.792,0.22394
9.796,0.13676
9.8,0.16903
9.804,0.14712
9.808,0.19561
9.812,0.15383
9.816,0.10308
9.82,0.12754
9.824,0.09885
9.828,0.07392
9.832,0.11354
9.836,0.05596
9.84,0.00297
9.844,0.02159
9.848,0.01342
9.852,-0.04554
9.856,0.01674
9.86,-0.00763
9.864,-0.06969
9.868,-0.01195
9.872,-0.02101
9.876,-0.02079
9.88,0.00767
9.884,-0.03311
9.888,0.00279
9.892,-0.03764
9.896,0.01319
9.9,0.03075
9.904,0.02491
9.908,-0.09289
9.912,-0.05335
9.916,-0.07796
9.92,-0.09926
9.924,-0.15309
9.928,-0.13189
9.932,-0.11132
9.936,0.08626
9.94,0.21631
9.944,0.41709
9.948,0.67112
9.952,0.83278
9.956,0.91758
9.96,0.93394
9.964,0.79273
9.968,0.63146
9.972,0.48608
9.976,0.28208
9.98,0.05587
9.984,-0.13655
9.988,-0.12556
9.992,-0.19879
9.996,-0.12965
