t_seg,ecg_mV
0.0,-0.02177
0.004,0.01
0.008,-0.0053
0.012,0.00536
0.016,-0.00264
0.02,0.00925
0.024,0.0038
0.028,0.02257
0.032,0.01134
0.036,0.00113
0.04,-0.00228
0.044,0.03802
0.048,0.01391
0.052,-0.0049
0.056,-0.01925
0.06,0.01919
0.064,-0.01173
0.068,0.00234
0.072,0.02213
0.076,0.00298
0.08,-0.00209
0.084,0.00643
0.088,0.02295
0.092,-0.01474
0.096,-0.034
0.1,0.00871
0.104,0.02273
0.108,0.00152
0.112,0.00229
0.116,-0.02991
0.12,0.01657
0.124,0.01932
0.128,-0.01089
0.132,-0.00342
0.136,-0.00218
0.14,0.00725
0.144,-0.00929
0.148,-0.00279
0.152,0.01572
0.156,-0.00971
0.16,0.02489
0.164,0.01584
0.168,0.01591
0.172,0.01859
0.176,0.01905
0.18,-0.0321
0.184,0.00265
0.188,0.0098
0.192,0.03043
0.196,-0.01671
0.2,-0.00783
0.204,-0.0065
0.208,0.00972
0.212,0.01744
0.216,-0.00607
0.22,0.00335
0.224,-0.00641
0.228,0.00601
0.232,0.00768
0.236,0.03031
0.24,-0.01228
0.244,0.02352
0.248,0.02388
0.252,0.02406
0.256,0.02701
0.26,0.00533
0.264,-0.00457
0.268,-0.02009
0.272,-0.01677
0.276,0.014
0.28,0.00978
0.284,0.01178
0.288,0.01745
0.292,0.00436
0.296,-0.00618
0.3,-0.00797
0.304,0.01718
0.308,0.01448
0.312,0.02223
0.316,-0.01127
0.32,0.01419
0.324,0.01897
0.328,0.03463
0.332,-0.00189
0.336,0.0144
0.34,0.01247
0.344,-0.02097
0.348,0.0053
0.352,0.00163
0.356,0.02035
0.36,0.01643
0.364,-0.0152
0.368,0.02191
0.372,0.01454
0.376,0.00979
0.38,0.03828
0.384,0.00191
0.388,0.01149
0.392,0.01043
0.396,-0.00288
0.4,0.01013
0.404,0.00928
0.408,0.01201
0.412,0.01116
0.416,0.02567
0.42,0.02309
0.424,0.05543
0.428,0.05847
0.432,0.10277
0.436,0.08973
0.44,0.11075
0.444,0.08081
0.448,0.09409
0.452,0.09995
0.456,0.10872
0.46,0.09506
0.464,0.09242
0.468,0.05683
0.472,0.08136
0.476,0.04241
0.48,0.0525
0.484,0.05449
0.488,0.05841
0.492,0.04398
0.496,0.04243
0.5,0.02571
0.504,0.03047
0.508,0.02321
0.512,-0.00519
0.516,-0.00302
0.52,0.00421
0.524,0.01286
0.528,-0.00695
0.532,0.03531
0.536,0.00071
0.54,0.03515
0.544,0.02051
0.548,0.00653
0.552,0.0148
0.556,0.02227
0.56,0.00794
0.564,-0.0058
0.568,-0.04138
0.572,-0.06784
0.576,-0.10367
0.58,-0.07768
0.584,-0.01765
0.588,0.09085
0.592,0.29353
0.596,0.52288
0.6,0.70998
0.604,0.90008
0.608,1.00068
0.612,0.97999
0.616,0.86979
0.62,0.66687
0.624,0.48044
0.628,0.23426
0.632,0.05036
0.636,-0.09832
0.64,-0.16597
0.644,-0.14904
0.648,-0.12543
0.652,-0.0574
0.656,-0.0468
0.66,-0.00794
0.664,0.0059
0.668,0.03231
0.672,0.01885
0.676,0.02147
0.68,0.03931
0.684,0.03253
0.688,0.04155
0.692,0.0094
0.696,0.03425
0.7,0.02497
0.704,0.03038
0.708,0.01382
0.712,0.02691
0.716,0.02294
0.72,0.01961
0.724,0.01703
0.728,0.03071
0.732,0.00293
0.736,0.02591
0.74,0.00974
0.744,0.00921
0.748,0.01735
0.752,0.01316
0.756,0.02512
0.76,0.01634
0.764,0.00937
0.768,0.04096
0.772,0.00579
0.776,0.02649
0.78,0.01176
0.784,0.04231
0.788,0.03413
0.792,0.03553
0.796,0.04669
0.8,0.07331
0.804,0.03659
0.808,0.05999
0.812,0.03724
0.816,0.08213
0.82,0.06534
0.824,0.0982
0.828,0.11698
0.832,0.14739
0.836,0.1505
0.84,0.14912
0.844,0.13493
0.848,0.14155
0.852,0.18004
0.856,0.19303
0.86,0.20267
0.864,0.20348
0.868,0.23336
0.872,0.23644
0.876,0.2351
0.88,0.23907
0.884,0.24754
0.888,0.22993
0.892,0.23903
0.896,0.23832
0.9,0.24621
0.904,0.21315
0.908,0.25711
0.912,0.20273
0.916,0.19943
0.92,0.19431
0.924,0.18064
0.928,0.1699
0.932,0.16749
0.936,0.14516
0.94,0.14209
0.944,0.10172
0.948,0.14016
0.952,0.12585
0.956,0.12428
0.96,0.07561
0.964,0.08736
0.968,0.07836
0.972,0.05961
0.976,0.07367
0.98,0.0699
0.984,0.0622
0.988,0.04149
0.992,0.04745
0.996,0.05179
1.0,0.01701
1.004,0.04137
1.008,0.00522
1.012,0.01761
1.016,0.01614
1.02,0.05646
1.024,0.04425
1.028,0.00849
1.032,0.02762
1.036,-0.00231
1.04,0.05237
1.044,0.01227
1.048,0.01691
1.052,0.00225
1.056,0.01424
1.06,-0.00798
1.064,0.0309
1.068,0.02559
1.072,0.0386
1.076,0.00773
1.08,0.04156
1.084,0.01731
1.088,0.0327
1.092,0.01965
1.096,0.03341
1.1,0.05604
1.104,0.0403
1.108,0.02432
1.112,0.03612
1.116,0.02131
1.12,-0.00012
1.124,0.0385
1.128,0.022
1.132,0.01191
1.136,0.04361
1.14,0.02017
1.144,0.04842
1.148,0.03517
1.152,0.01777
1.156,-0.00055
1.16,0.00742
1.164,0.03228
1.168,0.043
1.172,0.02455
1.176,0.03126
1.18,0.03573
1.184,0.03664
1.188,0.00478
1.192,0.03886
1.196,0.01879
1.2,0.04121
1.204,0.02362
1.208,0.04499
1.212,0.02303
1.216,0.01594
1.22,0.03324
1.224,0.02189
1.228,0.04561
1.232,0.01294
1.236,0.03479
1.24,0.06242
1.244,0.04982
1.248,0.05121
1.252,0.03772
1.256,0.0257
1.26,0.04289
1.264,0.05142
1.268,0.0281
1.272,0.06019
1.276,0.05192
1.28,0.06023
1.284,0.07328
1.288,0.07532
1.292,0.09343
1.296,0.13422
1.3,0.11393
1.304,0.11515
1.308,0.13849
1.312,0.13015
1.316,0.15772
1.32,0.08866
1.324,0.1222
1.328,0.09432
1.332,0.10158
1.336,0.05208
1.34,0.05985
1.344,0.05362
1.348,0.07212
1.352,0.04633
1.356,0.02797
1.36,0.0384
1.364,0.03518
1.368,0.04275
1.372,0.00969
1.376,0.01344
1.38,0.02731
1.384,0.03143
1.388,0.05552
1.392,0.03399
1.396,0.0227
1.4,0.03596
1.404,0.0547
1.408,0.02352
1.412,0.01134
1.416,-0.00665
1.42,0.02745
1.424,0.00462
1.428,-0.01369
1.432,-0.08992
1.436,-0.08361
1.44,-0.04483
1.444,0.04181
1.448,0.24014
1.452,0.43163
1.456,0.61925
1.46,0.84043
1.464,0.97049
1.468,1.02669
1.472,0.96441
1.476,0.83056
1.48,0.61122
1.484,0.4075
1.488,0.1662
1.492,-0.00705
1.496,-0.08929
1.5,-0.1219
1.504,-0.14079
1.508,-0.06905
1.512,-0.06452
1.516,-0.016
1.52,0.03287
1.524,0.00418
1.528,0.01162
1.532,0.01519
1.536,0.04185
1.54,0.02049
1.544,0.02609
1.548,0.02686
1.552,-0.00093
1.556,0.02325
1.56,0.05288
1.564,0.01223
1.568,0.02683
1.572,0.0361
1.576,0.0256
1.58,0.02663
1.584,0.03584
1.588,0.0554
1.592,0.02479
1.596,0.01875
1.6,0.0268
1.604,0.02527
1.608,0.01916
1.612,0.02852
1.616,0.04219
1.62,0.03119
1.624,0.01893
1.628,0.03336
1.632,0.04571
1.636,0.05572
1.64,0.04939
1.644,0.0384
1.648,0.05128
1.652,0.03129
1.656,0.03804
1.66,0.07689
1.664,0.08719
1.668,0.11211
1.672,0.07357
1.676,0.07671
1.68,0.08928
1.684,0.09941
1.688,0.09733
1.692,0.10594
1.696,0.13342
1.7,0.15398
1.704,0.17311
1.708,0.22097
1.712,0.18742
1.716,0.22566
1.72,0.24308
1.724,0.20825
1.728,0.23031
1.732,0.23306
1.736,0.22664
1.74,0.26483
1.744,0.23561
1.748,0.25839
1.752,0.2427
1.756,0.23425
1.76,0.22721
1.764,0.22518
1.768,0.20766
1.772,0.23591
1.776,0.19647
1.78,0.22352
1.784,0.18985
1.788,0.20565
1.792,0.16196
1.796,0.16201
1.8,0.14572
1.804,0.1051
1.808,0.14591
1.812,0.1258
1.816,0.10274
1.82,0.10005
1.824,0.10673
1.828,0.09317
1.832,0.05614
1.836,0.04269
1.84,0.04306
1.844,0.02072
1.848,0.0592
1.852,0.04536
1.856,0.02444
1.86,0.03712
1.864,0.02654
1.868,0.0055
1.872,0.02352
1.876,0.004
1.88,0.00731
1.884,0.02657
1.888,0.04707
1.892,0.01792
1.896,0.03315
1.9,0.0077
1.904,0.00942
1.908,0.01062
1.912,0.05686
1.916,0.01437
1.92,0.02233
1.924,0.02462
1.928,0.01523
1.932,0.02849
1.936,0.04523
1.94,0.01131
1.944,0.006
1.948,0.03999
1.952,0.05135
1.956,0.03141
1.96,0.02254
1.964,0.00859
1.968,0.04976
1.972,0.01051
1.976,0.03461
1.98,0.03949
1.984,-0.00215
1.988,0.02732
1.992,0.03025
1.996,0.04165
2.0,0.02673
2.004,0.01916
2.008,0.00492
2.012,0.01568
2.016,0.03384
2.02,0.04492
2.024,0.01994
2.028,0.0315
2.032,0.04895
2.036,0.01153
2.04,0.03428
2.044,0.02499
2.048,-0.00261
2.052,0.03465
2.056,0.0363
2.06,0.02734
2.064,0.02613
2.068,0.02845
2.072,0.02726
2.076,0.02217
2.08,0.03893
2.084,0.03305
2.088,0.02933
2.092,0.03161
2.096,0.03961
2.1,0.02653
2.104,0.02996
2.108,0.03897
2.112,0.04853
2.116,0.04609
2.12,0.05244
2.124,0.0817
2.128,0.12286
2.132,0.11826
2.136,0.091
2.14,0.15085
2.144,0.13567
2.148,0.13647
2.152,0.10522
2.156,0.10392
2.16,0.09487
2.164,0.10068
2.168,0.08486
2.172,0.06529
2.176,0.04889
2.18,0.0934
2.184,0.03046
2.188,0.02623
2.192,0.02445
2.196,0.05653
2.2,0.0327
2.204,0.03863
2.208,0.01892
2.212,0.01758
2.216,0.00461
2.22,0.03611
2.224,0.01868
2.228,0.04965
2.232,0.0344
2.236,0.01102
2.24,0.03864
2.244,0.01835
2.248,0.01186
2.252,0.02504
2.256,0.02223
2.26,0.00326
2.264,-0.03123
2.268,-0.05616
2.272,-0.09316
2.276,-0.08685
2.28,0.00678
2.284,0.12188
2.288,0.30696
2.292,0.51918
2.296,0.7408
2.3,0.88174
2.304,1.01591
2.308,0.99535
2.312,0.91315
2.316,0.66896
2.32,0.48812
2.324,0.24044
2.328,0.08593
2.332,-0.07538
2.336,-0.12542
2.34,-0.137
2.344,-0.10611
2.348,-0.06608
2.352,-0.02081
2.356,0.00826
2.36,0.00113
2.364,0.03646
2.368,0.03764
2.372,0.03452
2.376,0.01556
2.38,0.0247
2.384,0.05982
2.388,0.00683
2.392,-0.02
2.396,0.04241
2.4,0.02815
2.404,0.03924
2.408,0.02103
2.412,0.00441
2.416,0.02896
2.42,0.00945
2.424,0.00066
2.428,0.01165
2.432,0.03808
2.436,0.02427
2.44,0.00928
2.444,0.0175
2.448,0.0209
2.452,0.05211
2.456,0.01293
2.46,0.01876
2.464,0.00969
2.468,0.04956
2.472,0.02624
2.476,0.0376
2.48,0.04104
2.484,0.02741
2.488,0.06699
2.492,0.05812
2.496,0.04242
2.5,0.08845
2.504,0.04063
2.508,0.05765
2.512,0.05865
2.516,0.08071
2.52,0.09877
2.524,0.10283
2.528,0.11744
2.532,0.10435
2.536,0.14545
2.54,0.14214
2.544,0.18466
2.548,0.19591
2.552,0.16421
2.556,0.20183
2.56,0.21683
2.564,0.20994
2.568,0.24875
2.572,0.22324
2.576,0.26816
2.58,0.26372
2.584,0.23395
2.588,0.24125
2.592,0.23267
2.596,0.24384
2.6,0.25207
2.604,0.23899
2.608,0.22673
2.612,0.21328
2.616,0.1871
2.62,0.18159
2.624,0.17111
2.628,0.14596
2.632,0.14696
2.636,0.14156
2.64,0.14559
2.644,0.12097
2.648,0.12479
2.652,0.10214
2.656,0.09242
2.66,0.07469
2.664,0.0554
2.668,0.05571
2.672,0.07294
2.676,0.08122
2.68,0.03607
2.684,0.01342
2.688,0.0058
2.692,0.02049
2.696,0.02516
2.7,0.00935
2.704,0.02539
2.708,0.02356
2.712,0.01463
2.716,0.01635
2.72,0.03759
2.724,0.00052
2.728,0.01818
2.732,0.02918
2.736,0.04238
2.74,0.03743
2.744,0.02115
2.748,0.00084
2.752,0.01253
2.756,0.00968
2.76,0.02341
2.764,0.01551
2.768,0.02518
2.772,0.00601
2.776,-0.00544
2.78,0.02173
2.784,0.01932
2.788,0.01378
2.792,0.01066
2.796,0.02512
2.8,-0.01176
2.804,-0.00738
2.808,0.05011
2.812,0.01177
2.816,0.01227
2.82,0.05148
2.824,0.02422
2.828,0.0263
2.832,0.00861
2.836,0.04609
2.84,0.07258
2.844,0.04994
2.848,0.08703
2.852,0.06908
2.856,0.07297
2.86,0.06943
2.864,0.10917
2.868,0.09889
2.872,0.1143
2.876,0.11875
2.88,0.11169
2.884,0.09479
2.888,0.09195
2.892,0.05506
2.896,0.05566
2.9,0.03946
2.904,0.02695
2.908,0.00524
2.912,0.02657
2.916,0.02961
2.92,0.0115
2.924,0.03098
2.928,-0.01817
2.932,-0.00872
2.936,-0.03247
2.94,0.00666
2.944,0.03876
2.948,0.02732
2.952,0.00088
2.956,0.02035
2.96,0.03614
2.964,-0.00476
2.968,-0.00479
2.972,0.02588
2.976,-0.00449
2.98,-0.00371
2.984,-0.02506
2.988,-0.02889
2.992,-0.06043
2.996,-0.10887
3.0,-0.06836
3.004,0.01109
3.008,0.17615
3.012,0.35782
3.016,0.58213
3.02,0.78807
3.024,0.94654
3.028,0.98369
3.032,0.95446
3.036,0.8561
3.04,0.61471
3.044,0.37968
3.048,0.17146
3.052,-0.01503
3.056,-0.10658
3.06,-0.14379
3.064,-0.14036
3.068,-0.10115
3.072,-0.08593
3.076,-0.05164
3.08,-0.03536
3.084,0.00421
3.088,-0.00063
3.092,-0.01098
3.096,0.01566
3.1,0.04307
3.104,0.00089
3.108,-0.00185
3.112,-0.02769
3.116,0.00154
3.12,0.03359
3.124,-0.01247
3.128,0.03124
3.132,0.00548
3.136,0.01464
3.14,0.00871
3.144,0.01269
3.148,0.00341
3.152,0.02299
3.156,0.0085
3.16,0.00227
3.164,-0.02524
3.168,-0.02715
3.172,-0.01013
3.176,0.02398
3.18,0.00898
3.184,0.01552
3.188,0.02556
3.192,0.00853
3.196,-0.00648
3.2,0.01082
3.204,0.01688
3.208,0.0305
3.212,0.02073
3.216,0.0181
3.22,0.01479
3.224,0.01891
3.228,0.05451
3.232,0.03386
3.236,0.0531
3.24,0.09412
3.244,0.08276
3.248,0.09734
3.252,0.116
3.256,0.09514
3.26,0.14238
3.264,0.12973
3.268,0.13828
3.272,0.15398
3.276,0.19018
3.28,0.18066
3.284,0.21229
3.288,0.22882
3.292,0.21698
3.296,0.22197
3.3,0.21343
3.304,0.22265
3.308,0.20678
3.312,0.2146
3.316,0.21622
3.32,0.20616
3.324,0.19724
3.328,0.20678
3.332,0.19475
3.336,0.17962
3.34,0.19269
3.344,0.16356
3.348,0.11393
3.352,0.14081
3.356,0.12552
3.36,0.12315
3.364,0.09868
3.368,0.08281
3.372,0.09948
3.376,0.05525
3.38,0.0533
3.384,0.03337
3.388,0.05074
3.392,0.02612
3.396,0.01251
3.4,0.01181
3.404,0.04705
3.408,0.00585
3.412,0.02462
3.416,-0.03078
3.42,0.00608
3.424,0.02278
3.428,-0.0025
3.432,0.00437
3.436,0.00535
3.44,0.00677
3.444,0.01088
3.448,-0.01005
3.452,-0.00618
3.456,0.02708
3.46,0.00944
3.464,0.00638
3.468,0.00436
3.472,-0.02514
3.476,-0.00546
3.48,-0.01011
3.484,0.00435
3.488,-0.00689
3.492,0.00588
3.496,-0.01097
3.5,0.00374
3.504,0.01286
3.508,-0.00236
3.512,-0.00427
3.516,-0.03638
3.52,-0.00106
3.524,-0.01784
3.528,0.02754
3.532,-0.0029
3.536,-0.00735
3.54,0.00301
3.544,0.01322
3.548,-0.00512
3.552,-0.00208
3.556,-3e-05
3.56,-0.00409
3.564,-0.00257
3.568,0.00566
3.572,-0.02099
3.576,-0.01143
3.58,-0.01319
3.584,-0.02263
3.588,-0.00123
3.592,0.00372
3.596,0.01981
3.6,-0.00311
3.604,0.00686
3.608,-0.02513
3.612,0.01567
3.616,0.02773
3.62,0.00806
3.624,0.02918
3.628,0.04624
3.632,0.08626
3.636,0.0893
3.64,0.09413
3.644,0.09635
3.648,0.08107
3.652,0.07473
3.656,0.06284
3.66,0.07263
3.664,0.07406
3.668,0.03506
3.672,0.0222
3.676,0.01565
3.68,0.02132
3.684,0.01783
3.688,0.00433
3.692,-0.01723
3.696,0.02467
3.7,0.0023
3.704,-0.00607
3.708,0.00751
3.712,-0.01228
3.716,-0.02856
3.72,0.00702
3.724,-0.0031
3.728,-0.00965
3.732,-0.00591
3.736,0.00179
3.74,0.00157
3.744,-0.00056
3.748,-0.01492
3.752,0.01206
3.756,0.00649
3.76,-0.02141
3.764,-0.04002
3.768,-0.08672
3.772,-0.094
3.776,-0.13547
3.78,-0.13728
3.784,-0.02149
3.788,0.1278
3.792,0.33832
3.796,0.53516
3.8,0.74983
3.804,0.88667
3.808,0.96741
3.812,0.93967
3.816,0.78749
3.82,0.56346
3.824,0.37523
3.828,0.17388
3.832,-0.01472
3.836,-0.12804
3.84,-0.1862
3.844,-0.15632
3.848,-0.12641
3.852,-0.10381
3.856,-0.04981
3.86,-0.02032
3.864,-0.03902
3.868,-0.01289
3.872,0.00231
3.876,-0.01746
3.88,0.00279
3.884,-0.0134
3.888,-0.01892
3.892,-0.02024
3.896,-0.02084
3.9,-0.00211
3.904,-0.00226
3.908,-0.05142
3.912,-0.00543
3.916,-0.00526
3.92,-0.03413
3.924,-0.02238
3.928,-0.01828
3.932,-0.01289
3.936,-0.04872
3.94,0.00841
3.944,-0.00076
3.948,-0.0061
3.952,0.00172
3.956,-0.01778
3.96,0.01672
3.964,0.00017
3.968,-0.00517
3.972,-0.02567
3.976,-0.0385
3.98,-0.02594
3.984,0.0109
3.988,-0.00476
3.992,-0.01714
3.996,0.00905
4.0,0.00872
4.004,0.01974
4.008,0.01608
4.012,0.03254
4.016,0.04508
4.02,0.05298
4.024,0.05022
4.028,0.07171
4.032,0.0639
4.036,0.08456
4.04,0.10508
4.044,0.10842
4.048,0.12983
4.052,0.1262
4.056,0.14813
4.06,0.17683
4.064,0.17799
4.068,0.17435
4.072,0.18446
4.076,0.17924
4.08,0.20939
4.084,0.19397
4.088,0.22138
4.092,0.19955
4.096,0.18664
4.1,0.21761
4.104,0.1777
4.108,0.17168
4.112,0.17292
4.116,0.14529
4.12,0.13312
4.124,0.122
4.128,0.12008
4.132,0.13872
4.136,0.09816
4.14,0.10296
4.144,0.06403
4.148,0.08406
4.152,0.0642
4.156,0.04769
4.16,0.03654
4.164,0.02586
4.168,0.0206
4.172,0.00142
4.176,0.00619
4.18,0.02008
4.184,0.01705
4.188,-0.0089
4.192,0.02007
4.196,-0.00795
4.2,-0.01762
4.204,-0.00091
4.208,0.01836
4.212,-0.00578
4.216,-0.02971
4.22,-0.01044
4.224,-0.02856
4.228,-0.01141
4.232,-0.0177
4.236,-0.02296
4.24,-0.03536
4.244,0.00619
4.248,-0.03056
4.252,-0.03716
4.256,-0.05837
4.26,-0.04839
4.264,-0.01117
4.268,-0.01294
4.272,-0.00875
4.276,-0.02934
4.28,-0.00426
4.284,-0.04703
4.288,-0.03005
4.292,-0.01308
4.296,-0.00814
4.3,-0.01541
4.304,-0.00596
4.308,-0.01691
4.312,0.00739
4.316,-0.02305
4.32,-0.03759
4.324,-0.0561
4.328,-0.06531
4.332,-0.02209
4.336,-0.03566
4.34,-0.03378
4.344,-0.03854
4.348,0.01493
4.352,0.01245
4.356,-0.00244
4.36,-0.02679
4.364,-0.03585
4.368,-0.01847
4.372,-0.0266
4.376,-0.02982
4.38,-0.01175
4.384,0.00206
4.388,-0.04523
4.392,-0.03681
4.396,-0.02849
4.4,-0.00943
4.404,-0.01114
4.408,-0.02338
4.412,-0.01493
4.416,-0.01964
4.42,-0.03363
4.424,-0.00705
4.428,-0.03575
4.432,0.00226
4.436,-0.00233
4.44,-0.01273
4.444,-0.03464
4.448,0.02019
4.452,0.01312
4.456,0.05553
4.46,0.03082
4.464,0.05871
4.468,0.03312
4.472,0.09595
4.476,0.07025
4.48,0.07711
4.484,0.05467
4.488,0.05836
4.492,0.04501
4.496,0.04416
4.5,0.00097
4.504,0.04551
4.508,0.0311
4.512,0.00728
4.516,-0.0132
4.52,-0.03848
4.524,-0.01891
4.528,-0.01442
4.532,-0.00863
4.536,-0.03388
4.54,-0.0211
4.544,0.00545
4.548,-0.02919
4.552,-0.03317
4.556,-0.02685
4.56,-0.01721
4.564,-0.01234
4.568,-0.00357
4.572,-0.04786
4.576,-0.02856
4.58,-0.03716
4.584,-0.03294
4.588,-0.02845
4.592,-0.02439
4.596,-0.06489
4.6,-0.11656
4.604,-0.1332
4.608,-0.14842
4.612,-0.06776
4.616,0.07229
4.62,0.24677
4.624,0.48538
4.628,0.65927
4.632,0.86307
4.636,0.97122
4.64,0.9428
4.644,0.80616
4.648,0.66835
4.652,0.43141
4.656,0.1724
4.66,0.00498
4.664,-0.13751
4.668,-0.16533
4.672,-0.19353
4.676,-0.16864
4.68,-0.12763
4.684,-0.07333
4.688,-0.07627
4.692,-0.03906
4.696,-0.00821
4.7,-0.02224
4.704,-0.02267
4.708,-0.04001
4.712,-0.04763
4.716,-0.03455
4.72,-0.03785
4.724,-0.03666
4.728,-0.05055
4.732,-0.02352
4.736,-0.02828
4.74,-0.0382
4.744,-0.03365
4.748,-0.02319
4.752,-0.02481
4.756,-0.0127
4.76,-0.01552
4.764,-0.04867
4.768,-0.029
4.772,-0.00313
4.776,-0.03074
4.78,-0.02844
4.784,-0.01875
4.788,-0.03836
4.792,-0.04889
4.796,-0.01406
4.8,0.00053
4.804,-0.04805
4.808,-0.03427
4.812,-0.00396
4.816,-0.00745
4.82,-0.01162
4.824,-0.01026
4.828,0.01005
4.832,0.0139
4.836,0.00704
4.84,0.01956
4.844,0.02962
4.848,0.01529
4.852,0.0633
4.856,0.06817
4.86,0.05648
4.864,0.08589
4.868,0.07385
4.872,0.09662
4.876,0.13042
4.88,0.14106
4.884,0.12912
4.888,0.12847
4.892,0.14302
4.896,0.16881
4.9,0.15644
4.904,0.19353
4.908,0.17794
4.912,0.20728
4.916,0.19084
4.92,0.17196
4.924,0.17414
4.928,0.1898
4.932,0.17742
4.936,0.18225
4.94,0.19166
4.944,0.15671
4.948,0.11513
4.952,0.13868
4.956,0.11964
4.96,0.14954
4.964,0.08816
4.968,0.10485
4.972,0.06754
4.976,0.05668
4.98,0.04481
4.984,0.04905
4.988,0.02126
4.992,0.02545
4.996,0.03057
5.0,-0.00589
5.004,-0.02714
5.008,0.00321
5.012,0.0177
5.016,-0.01091
5.02,-0.00686
5.024,-0.00202
5.028,-0.0329
5.032,-0.04415
5.036,-0.0259
5.04,-0.03347
5.044,-0.02183
5.048,-0.02334
5.052,-0.02411
5.056,-0.01869
5.06,-0.02638
5.064,-0.02346
5.068,-0.01722
5.072,-0.01984
5.076,-0.0481
5.08,-0.03358
5.084,-0.05012
5.088,-0.04794
5.092,-0.03355
5.096,-0.00115
5.1,-0.03132
5.104,-0.01433
5.108,-0.0084
5.112,-0.03904
5.116,-0.0555
5.12,-0.01678
5.124,-0.04833
5.128,-0.04051
5.132,-0.05732
5.136,-0.05392
5.14,-0.03919
5.144,-0.02726
5.148,-0.0158
5.152,-0.0134
5.156,-0.03837
5.16,-0.02236
5.164,-0.00194
5.168,-0.03749
5.172,-0.04915
5.176,-0.04547
5.18,-0.04414
5.184,-0.03678
5.188,-0.02103
5.192,-0.04444
5.196,-0.04557
5.2,-0.04631
5.204,-0.0392
5.208,-0.02583
5.212,-0.04371
5.216,-0.02691
5.22,-0.00974
5.224,-0.05253
5.228,-0.03475
5.232,-0.03879
5.236,-0.03934
5.24,-0.05666
5.244,-0.04572
5.248,-0.01137
5.252,-0.03777
5.256,-0.01601
5.26,-0.0382
5.264,-0.01156
5.268,-0.03439
5.272,-0.03577
5.276,-0.01699
5.28,-0.03296
5.284,-0.02684
5.288,-0.01393
5.292,-0.00554
5.296,-0.03737
5.3,-0.01272
5.304,-0.00224
5.308,-0.0177
5.312,-0.00025
5.316,0.00981
5.32,0.05365
5.324,0.05614
5.328,0.06948
5.332,0.06039
5.336,0.04937
5.34,0.04517
5.344,0.08975
5.348,0.05356
5.352,0.05395
5.356,0.04161
5.36,0.04185
5.364,0.00939
5.368,0.00483
5.372,0.0122
5.376,-0.01331
5.38,-0.01609
5.384,-0.03929
5.388,-0.0427
5.392,-0.02599
5.396,-0.01735
5.4,-0.04387
5.404,-0.01668
5.408,-0.0454
5.412,-0.01304
5.416,-0.03442
5.42,-0.03136
5.424,-0.02333
5.428,-0.01326
5.432,-0.00034
5.436,-0.0339
5.44,-0.04479
5.444,-0.03903
5.448,-0.03891
5.452,-0.04546
5.456,-0.06223
5.46,-0.06795
5.464,-0.12601
5.468,-0.13544
5.472,-0.10313
5.476,-0.02399
5.48,0.14784
5.484,0.34366
5.488,0.54566
5.492,0.75024
5.496,0.94148
5.5,0.97257
5.504,0.91294
5.508,0.75655
5.512,0.55652
5.516,0.35025
5.52,0.10207
5.524,-0.06985
5.528,-0.14641
5.532,-0.17811
5.536,-0.22037
5.54,-0.14694
5.544,-0.11169
5.548,-0.04935
5.552,-0.06197
5.556,-0.0167
5.56,-0.02407
5.564,-0.03938
5.568,-0.02624
5.572,-0.02165
5.576,-0.02878
5.58,-0.04812
5.584,-0.05967
5.588,-0.02734
5.592,-0.01838
5.596,-0.03152
5.6,-0.00539
5.604,-0.0414
5.608,-0.00639
5.612,-0.02659
5.616,-0.03304
5.62,-0.01191
5.624,-0.04465
5.628,-0.02345
5.632,-0.04219
5.636,-0.02499
5.64,-0.02816
5.644,0.00174
5.648,-0.01533
5.652,-0.02767
5.656,-0.02811
5.66,0.00785
5.664,-0.02391
5.668,-0.01583
5.672,-0.02129
5.676,-0.01153
5.68,-0.02308
5.684,-0.01041
5.688,0.01012
5.692,0.02064
5.696,0.00917
5.7,0.0168
5.704,0.03571
5.708,0.06744
5.712,0.04414
5.716,0.03203
5.72,0.05367
5.724,0.09392
5.728,0.08394
5.732,0.10179
5.736,0.09275
5.74,0.12942
5.744,0.13171
5.748,0.14329
5.752,0.13713
5.756,0.17848
5.76,0.15121
5.764,0.20184
5.768,0.17883
5.772,0.21215
5.776,0.20056
5.78,0.18794
5.784,0.18
5.788,0.20508
5.792,0.16808
5.796,0.1966
5.8,0.16617
5.804,0.17425
5.808,0.17768
5.812,0.13476
5.816,0.12509
5.82,0.11351
5.824,0.13535
5.828,0.11224
5.832,0.0712
5.836,0.08291
5.84,0.08642
5.844,0.04228
5.848,0.06019
5.852,0.04138
5.856,0.01856
5.86,0.00635
5.864,0.0142
5.868,0.027
5.872,0.01477
5.876,-0.00025
5.88,-0.00303
5.884,-0.02172
5.888,0.01102
5.892,-0.03688
5.896,0.01609
5.9,0.00406
5.904,-0.01892
5.908,-0.04517
5.912,-0.00328
5.916,0.00929
5.92,-0.02556
5.924,-0.03597
5.928,0.00405
5.932,-0.01204
5.936,-0.02987
5.94,-0.02549
5.944,-0.02119
5.948,-0.03155
5.952,-0.02808
5.956,-0.0087
5.96,-0.01859
5.964,0.00699
5.968,-0.03723
5.972,0.00997
5.976,-0.0269
5.98,-0.00815
5.984,-0.01781
5.988,0.01158
5.992,-0.00449
5.996,-0.03408
6.0,-0.02873
6.004,-0.01676
6.008,-0.02256
6.012,-0.02875
6.016,-0.02691
6.02,-0.0189
6.024,-0.03697
6.028,-0.01859
6.032,0.00809
6.036,-0.04401
6.04,-0.00652
6.044,-0.02324
6.048,-0.03291
6.052,-0.03844
6.056,-0.02428
6.06,-0.01614
6.064,0.0094
6.068,-0.03153
6.072,0.01575
6.076,0.0242
6.08,0.01999
6.084,0.02467
6.088,0.07384
6.092,0.05232
6.096,0.08114
6.1,0.08629
6.104,0.07657
6.108,0.08714
6.112,0.07372
6.116,0.08004
6.12,0.07169
6.124,0.03812
6.128,0.05003
6.132,0.02651
6.136,0.02563
6.14,-0.00508
6.144,-0.00927
6.148,0.00089
6.152,-0.01632
6.156,-0.01034
6.16,-0.01319
6.164,-0.01702
6.168,-0.02393
6.172,-0.01702
6.176,-0.01055
6.18,-0.01103
6.184,-0.01014
6.188,-0.00524
6.192,0.00819
6.196,-0.06065
6.2,-0.01135
6.204,-0.03062
6.208,-0.02096
6.212,-0.01988
6.216,-0.038
6.22,-0.03581
6.224,-0.0679
6.228,-0.07481
6.232,-0.12068
6.236,-0.14136
6.24,-0.05105
6.244,0.10145
6.248,0.30363
6.252,0.49532
6.256,0.72979
6.26,0.92094
6.264,0.96599
6.268,0.95802
6.272,0.82288
6.276,0.6175
6.28,0.40676
6.284,0.18132
6.288,0.02786
6.292,-0.07274
6.296,-0.16148
6.3,-0.16689
6.304,-0.15309
6.308,-0.09076
6.312,-0.073
6.316,-0.02658
6.32,-0.02116
6.324,-0.01714
6.328,-0.02492
6.332,-0.00431
6.336,-0.02764
6.34,-0.02549
6.344,0.00805
6.348,-0.03251
6.352,-0.00085
6.356,-0.03565
6.36,-0.01273
6.364,0.01676
6.368,-0.02385
6.372,-0.01039
6.376,-0.01627
6.38,-0.00025
6.384,-0.00767
6.388,0.00349
6.392,0.03224
6.396,-0.04064
6.4,0.01903
6.404,-0.02518
6.408,-0.02649
6.412,0.01179
6.416,-0.00424
6.42,-0.00025
6.424,0.02139
6.428,0.00286
6.432,0.01385
6.436,-0.00689
6.44,-0.00341
6.444,0.008
6.448,-0.00687
6.452,0.02086
6.456,0.02233
6.46,0.00559
6.464,0.07339
6.468,0.02421
6.472,0.03682
6.476,0.07264
6.48,0.09829
6.484,0.07575
6.488,0.09741
6.492,0.10341
6.496,0.10948
6.5,0.13058
6.504,0.13606
6.508,0.15227
6.512,0.17665
6.516,0.21538
6.52,0.15206
6.524,0.19452
6.528,0.18778
6.532,0.20766
6.536,0.20251
6.54,0.21789
6.544,0.20223
6.548,0.19346
6.552,0.21186
6.556,0.21674
6.56,0.19556
6.564,0.20115
6.568,0.17847
6.572,0.16147
6.576,0.16769
6.58,0.16851
6.584,0.15134
6.588,0.1327
6.592,0.11344
6.596,0.09802
6.6,0.09509
6.604,0.06029
6.608,0.09759
6.612,0.07053
6.616,0.06264
6.62,0.03167
6.624,0.04812
6.628,0.0145
6.632,0.02442
6.636,0.01231
6.64,0.03796
6.644,0.05197
6.648,-0.00619
6.652,0.05113
6.656,0.02397
6.66,0.01489
6.664,-0.01164
6.668,-0.00868
6.672,-0.0038
6.676,0.01397
6.68,0.00415
6.684,-0.00319
6.688,-0.00421
6.692,-0.00926
6.696,-0.00739
6.7,-0.00122
6.704,0.01625
6.708,0.007
6.712,-0.00985
6.716,-0.00791
6.72,-0.00894
6.724,-0.0234
6.728,-0.02662
6.732,0.00234
6.736,0.00678
6.74,0.00973
6.744,-0.00568
6.748,-0.01268
6.752,-0.02766
6.756,0.0344
6.76,0.00829
6.764,-0.00052
6.768,0.00283
6.772,-0.00708
6.776,0.00456
6.78,-0.02675
6.784,-0.00294
6.788,-0.01019
6.792,0.01038
6.796,0.00058
6.8,-0.00618
6.804,-0.01942
6.808,0.02445
6.812,0.00973
6.816,0.00743
6.82,-0.00882
6.824,-0.00016
6.828,0.00275
6.832,-0.00791
6.836,-0.00345
6.84,-0.00412
6.844,-0.0225
6.848,0.00951
6.852,0.0276
6.856,0.0337
6.86,-0.01422
6.864,-0.00302
6.868,0.00571
6.872,-0.00703
6.876,0.0126
6.88,0.0019
6.884,0.00528
6.888,-0.00679
6.892,-0.00585
6.896,-0.00101
6.9,-0.00026
6.904,0.00925
6.908,0.01086
6.912,-0.02388
6.916,0.0131
6.92,0.01032
6.924,-0.00456
6.928,0.01371
6.932,0.00329
6.936,0.01753
6.94,0.01095
6.944,-0.02488
6.948,0.02153
6.952,-0.0161
6.956,-0.00328
6.96,0.03402
6.964,-0.0034
6.968,-0.00442
6.972,0.02622
6.976,0.0291
6.98,-0.00184
6.984,0.00517
6.988,0.02982
6.992,0.00722
6.996,0.00349
7.0,0.01039
7.004,-0.01261
7.008,-0.00704
7.012,0.0054
7.016,0.00096
7.02,0.03892
7.024,-0.00585
7.028,0.00592
7.032,0.0407
7.036,-0.00394
7.04,0.02911
7.044,0.03944
7.048,0.0155
7.052,0.003
7.056,0.00249
7.06,0.02677
7.064,-0.00946
7.068,-0.00799
7.072,0.0023
7.076,0.00097
7.08,-0.00985
7.084,-0.00395
7.088,0.01146
7.092,0.02821
7.096,-0.00337
7.1,0.01867
7.104,0.01537
7.108,0.0095
7.112,0.02233
7.116,0.02808
7.12,0.00409
7.124,-0.0268
7.128,0.00936
7.132,-0.00778
7.136,0.00855
7.14,-0.00135
7.144,0.02267
7.148,-0.00042
7.152,0.0034
7.156,0.01229
7.16,-0.00121
7.164,0.02472
7.168,0.02738
7.172,0.0619
7.176,0.05066
7.18,0.04615
7.184,0.06174
7.188,0.09041
7.192,0.08039
7.196,0.10089
7.2,0.09568
7.204,0.10721
7.208,0.13189
7.212,0.09394
7.216,0.0915
7.22,0.09882
7.224,0.09411
7.228,0.07738
7.232,0.05207
7.236,0.05377
7.24,0.03963
7.244,0.02269
7.248,0.04076
7.252,0.01668
7.256,0.02942
7.26,0.03039
7.264,0.01071
7.268,0.01731
7.272,0.0259
7.276,0.00553
7.28,0.02997
7.284,0.00875
7.288,0.03359
7.292,0.01889
7.296,-0.01294
7.3,0.04085
7.304,0.02263
7.308,0.01554
7.312,0.03997
7.316,0.02175
7.32,0.02148
7.324,-0.01068
7.328,-0.02714
7.332,-0.06667
7.336,-0.10267
7.34,-0.05537
7.344,0.00358
7.348,0.18261
7.352,0.37541
7.356,0.59035
7.36,0.75914
7.364,0.93274
7.368,1.02506
7.372,0.96934
7.376,0.81719
7.38,0.61817
7.384,0.40397
7.388,0.19894
7.392,0.00567
7.396,-0.06924
7.4,-0.16109
7.404,-0.15677
7.408,-0.11761
7.412,-0.06019
7.416,-0.04526
7.42,-0.01686
7.424,0.01606
7.428,0.01533
7.432,0.01087
7.436,0.04513
7.44,-0.02318
7.444,0.02741
7.448,0.03288
7.452,0.00209
7.456,0.04292
7.46,0.00824
7.464,0.03687
7.468,0.00272
7.472,0.02983
7.476,-0.00449
7.48,0.02414
7.484,0.03576
7.488,0.03594
7.492,0.0599
7.496,0.00903
7.5,0.01766
7.504,0.02554
7.508,0.02264
7.512,0.00897
7.516,0.0496
7.52,0.04695
7.524,0.02804
7.528,0.01102
7.532,0.02156
7.536,0.04366
7.54,0.02688
7.544,0.0194
7.548,0.04858
7.552,0.01812
7.556,0.06428
7.56,0.03136
7.564,0.09027
7.568,0.0532
7.572,0.06788
7.576,0.06504
7.58,0.06954
7.584,0.10725
7.588,0.10499
7.592,0.12207
7.596,0.15448
7.6,0.15165
7.604,0.15045
7.608,0.17851
7.612,0.16455
7.616,0.18173
7.62,0.1804
7.624,0.20628
7.628,0.19987
7.632,0.24225
7.636,0.22756
7.64,0.22302
7.644,0.26368
7.648,0.24892
7.652,0.25481
7.656,0.23679
7.66,0.27072
7.664,0.26321
7.668,0.18518
7.672,0.21578
7.676,0.23268
7.68,0.21565
7.684,0.19254
7.688,0.18198
7.692,0.18913
7.696,0.15989
7.7,0.15826
7.704,0.12923
7.708,0.09061
7.712,0.08353
7.716,0.10008
7.72,0.09918
7.724,0.06757
7.728,0.06342
7.732,0.0654
7.736,0.06579
7.74,0.11241
7.744,0.05425
7.748,0.01335
7.752,0.04029
7.756,0.05116
7.76,0.05505
7.764,0.02417
7.768,0.05169
7.772,0.04369
7.776,0.01268
7.78,0.03297
7.784,0.03699
7.788,-0.00365
7.792,0.01798
7.796,0.02808
7.8,0.04287
7.804,0.00646
7.808,0.00291
7.812,0.04339
7.816,0.0283
7.82,0.03066
7.824,0.02061
7.828,0.04988
7.832,0.02096
7.836,0.00214
7.84,0.0367
7.844,0.01681
7.848,0.02413
7.852,0.03499
7.856,0.03323
7.86,-0.00567
7.864,0.03087
7.868,0.05921
7.872,0.01783
7.876,0.0422
7.88,0.03079
7.884,0.01545
7.888,0.02185
7.892,0.01374
7.896,0.0277
7.9,0.02237
7.904,0.02781
7.908,0.00269
7.912,0.02718
7.916,0.04965
7.92,0.01237
7.924,0.00981
7.928,-0.00666
7.932,0.02163
7.936,0.04708
7.94,0.03616
7.944,0.01609
7.948,0.03437
7.952,0.06591
7.956,0.03713
7.96,0.04607
7.964,0.05016
7.968,0.02919
7.972,0.05109
7.976,0.02896
7.98,0.02147
7.984,0.06837
7.988,0.07854
7.992,0.09155
7.996,0.11374
8.0,0.13408
8.004,0.14022
8.008,0.11888
8.012,0.12759
8.016,0.11675
8.02,0.10773
8.024,0.10787
8.028,0.07978
8.032,0.08376
8.036,0.06644
8.04,0.06587
8.044,0.02485
8.048,0.03205
8.052,0.06004
8.056,0.02799
8.06,0.0579
8.064,0.04649
8.068,0.05134
8.072,0.01705
8.076,0.03143
8.08,0.03152
8.084,0.00219
8.088,0.03638
8.092,0.02443
8.096,0.00362
8.1,0.02009
8.104,0.05596
8.108,0.04216
8.112,0.02274
8.116,0.0006
8.12,0.00351
8.124,-0.02752
8.128,-0.01655
8.132,-0.05826
8.136,-0.11267
8.14,-0.07359
8.144,0.03931
8.148,0.16574
8.152,0.33094
8.156,0.51174
8.16,0.72124
8.164,0.91875
8.168,1.03374
8.172,1.02208
8.176,0.8747
8.18,0.68391
8.184,0.46791
8.188,0.24153
8.192,0.03569
8.196,-0.06538
8.2,-0.1507
8.204,-0.13429
8.208,-0.12128
8.212,-0.07049
8.216,-0.02705
8.22,0.02619
8.224,0.00103
8.228,0.01601
8.232,0.02348
8.236,0.01325
8.24,0.02979
8.244,-0.00217
8.248,0.01394
8.252,-0.00409
8.256,0.03658
8.26,0.05171
8.264,0.03101
8.268,0.02421
8.272,0.01388
8.276,0.03073
8.28,0.02387
8.284,0.01654
8.288,0.04985
8.292,0.05857
8.296,0.04568
8.3,-0.01058
8.304,0.04408
8.308,0.01803
8.312,0.02391
8.316,0.04938
8.32,0.05042
8.324,0.03006
8.328,0.03445
8.332,0.05013
8.336,0.03905
8.34,0.08039
8.344,0.04774
8.348,0.05179
8.352,0.05095
8.356,0.05364
8.36,0.0484
8.364,0.06779
8.368,0.06766
8.372,0.08981
8.376,0.08158
8.38,0.11179
8.384,0.09526
8.388,0.11056
8.392,0.14397
8.396,0.14644
8.4,0.16587
8.404,0.1579
8.408,0.15735
8.412,0.15829
8.416,0.19215
8.42,0.19836
8.424,0.21483
8.428,0.21097
8.432,0.20039
8.436,0.23624
8.44,0.2556
8.444,0.25732
8.448,0.24071
8.452,0.26743
8.456,0.2621
8.46,0.26344
8.464,0.2404
8.468,0.21409
8.472,0.20879
8.476,0.23474
8.48,0.1949
8.484,0.19653
8.488,0.20787
8.492,0.16421
8.496,0.16077
8.5,0.1358
8.504,0.16225
8.508,0.08732
8.512,0.12908
8.516,0.10564
8.52,0.09678
8.524,0.10675
8.528,0.06615
8.532,0.06503
8.536,0.08185
8.54,0.06096
8.544,0.03694
8.548,0.08017
8.552,0.04334
8.556,0.03838
8.56,0.04705
8.564,0.04517
8.568,0.02507
8.572,0.04205
8.576,0.01646
8.58,0.04319
8.584,0.04425
8.588,0.01562
8.592,0.05972
8.596,-0.00028
8.6,0.03809
8.604,0.0314
8.608,0.00923
8.612,0.03545
8.616,0.04085
8.62,0.02733
8.624,0.05866
8.628,0.02337
8.632,0.02626
8.636,0.01062
8.64,0.02889
8.644,0.02298
8.648,0.02874
8.652,0.03293
8.656,0.03885
8.66,0.03024
8.664,0.03196
8.668,0.01226
8.672,0.04298
8.676,0.04976
8.68,0.01997
8.684,0.05412
8.688,0.04072
8.692,0.03729
8.696,0.03144
8.7,0.02993
8.704,0.00756
8.708,0.05912
8.712,-0.01155
8.716,0.02723
8.72,0.02082
8.724,0.03295
8.728,0.03009
8.732,0.03283
8.736,0.00638
8.74,0.02755
8.744,0.02061
8.748,-0.00545
8.752,0.04557
8.756,0.02604
8.76,0.01403
8.764,-0.0051
8.768,0.04906
8.772,-0.00345
8.776,0.03042
8.78,0.04465
8.784,0.02551
8.788,0.03636
8.792,0.04407
8.796,-0.00686
8.8,0.0443
8.804,0.04581
8.808,0.04235
8.812,0.08112
8.816,0.05655
8.82,0.07444
8.824,0.07747
8.828,0.09199
8.832,0.11315
8.836,0.12427
8.84,0.14527
8.844,0.1484
8.848,0.11553
8.852,0.13081
8.856,0.10208
8.86,0.12853
8.864,0.10366
8.868,0.07624
8.872,0.07861
8.876,0.07875
8.88,0.04481
8.884,0.02553
8.888,0.03046
8.892,0.01403
8.896,0.03077
8.9,0.03585
8.904,0.02131
8.908,0.00692
8.912,0.06293
8.916,0.03794
8.92,0.05087
8.924,0.03121
8.928,0.02192
8.932,0.01831
8.936,0.04617
8.94,0.05406
8.944,0.01984
8.948,0.02882
8.952,0.03896
8.956,0.01087
8.96,-0.03297
8.964,-0.0075
8.968,-0.07154
8.972,-0.09769
8.976,-0.072
8.98,-0.00326
8.984,0.18521
8.988,0.35304
8.992,0.55896
8.996,0.76833
9.0,0.93719
9.004,1.03352
9.008,0.97114
9.012,0.83755
9.016,0.68105
9.02,0.41313
9.024,0.20304
9.028,0.03877
9.032,-0.07599
9.036,-0.11921
9.04,-0.14518
9.044,-0.10636
9.048,-0.0589
9.052,-0.02226
9.056,-0.0116
9.06,0.03307
9.064,0.04929
9.068,0.02388
9.072,0.04752
9.076,0.01049
9.08,0.01382
9.084,0.0261
9.088,-0.00089
9.092,0.04798
9.096,0.05348
9.1,0.02472
9.104,0.00994
9.108,0.0279
9.112,0.01984
9.116,0.01795
9.12,0.02196
9.124,0.03146
9.128,0.03309
9.132,0.00763
9.136,0.02059
9.14,0.01676
9.144,0.01886
9.148,0.0038
9.152,0.01318
9.156,0.0564
9.16,0.0372
9.164,0.01896
9.168,0.04393
9.172,0.02026
9.176,0.05779
9.18,0.0325
9.184,0.07415
9.188,0.04352
9.192,0.0584
9.196,0.03025
9.2,0.0566
9.204,0.06707
9.208,0.03409
9.212,0.07822
9.216,0.08916
9.22,0.11047
9.224,0.09448
9.228,0.11623
9.232,0.13121
9.236,0.13058
9.24,0.1291
9.244,0.16088
9.248,0.14602
9.252,0.19007
9.256,0.20225
9.26,0.19603
9.264,0.17425
9.268,0.22122
9.272,0.22358
9.276,0.21411
9.28,0.24017
9.284,0.22883
9.288,0.26073
9.292,0.20962
9.296,0.22343
9.3,0.22825
9.304,0.247
9.308,0.20882
9.312,0.23177
9.316,0.19817
9.32,0.18234
9.324,0.18396
9.328,0.16515
9.332,0.11803
9.336,0.14918
9.34,0.12205
9.344,0.10845
9.348,0.09467
9.352,0.0895
9.356,0.08773
9.36,0.10388
9.364,0.07054
9.368,0.04978
9.372,0.05674
9.376,0.0642
9.38,0.04679
9.384,0.01768
9.388,0.03052
9.392,0.03252
9.396,0.03469
9.4,0.01059
9.404,0.02281
9.408,0.02816
9.412,0.0188
9.416,0.01179
9.42,0.02142
9.424,0.00803
9.428,0.04408
9.432,0.03274
9.436,0.00882
9.44,-0.00771
9.444,0.03808
9.448,-0.00179
9.452,0.01423
9.456,0.02911
9.46,0.00963
9.464,0.01952
9.468,0.02989
9.472,0.02989
9.476,0.02711
9.48,0.01309
9.484,0.00562
9.488,0.01772
9.492,0.01861
9.496,0.02777
9.5,0.01986
9.504,0.01108
9.508,0.01068
9.512,0.00795
9.516,0.00487
9.52,0.0147
9.524,0.02128
9.528,0.0287
9.532,0.02222
9.536,-0.01587
9.54,0.00457
9.544,0.01476
9.548,0.01136
9.552,0.02388
9.556,0.0402
9.56,0.00877
9.564,0.02005
9.568,0.02358
9.572,0.02232
9.576,0.0322
9.58,0.0082
9.584,0.0226
9.588,0.00296
9.592,-0.00313
9.596,0.01234
9.6,0.02585
9.604,0.01335
9.608,0.02125
9.612,0.01811
9.616,0.03716
9.62,0.00956
9.624,0.01441
9.628,0.00578
9.632,0.03018
9.636,0.00889
9.64,0.01893
9.644,0.00782
9.648,0.00855
9.652,0.01126
9.656,0.00916
9.66,0.00661
9.664,-0.0158
9.668,0.00896
9.672,0.00417
9.676,-0.00254
9.68,0.02471
9.684,-0.0296
9.688,0.01696
9.692,0.00539
9.696,-0.00655
9.7,0.03921
9.704,0.02026
9.708,0.02457
9.712,0.03104
9.716,-0.01549
9.72,0.00612
9.724,0.02816
9.728,0.00654
9.732,-0.00637
9.736,0.03659
9.74,0.01507
9.744,0.01557
9.748,0.03516
9.752,0.03952
9.756,0.05313
9.76,0.05083
9.764,0.08019
9.768,0.0746
9.772,0.09816
9.776,0.08644
9.78,0.11312
9.784,0.09227
9.788,0.13067
9.792,0.10389
9.796,0.1189
9.8,0.0912
9.804,0.0805
9.808,0.06302
9.812,0.04778
9.816,0.02081
9.82,0.04859
9.824,0.01908
9.828,-0.00646
9.832,0.0361
9.836,-0.00625
9.84,-0.0073
9.844,0.02249
9.848,0.00731
9.852,-0.03086
9.856,0.03052
9.86,0.02631
9.864,-0.02724
9.868,0.00164
9.872,0.01857
9.876,0.01231
9.88,0.01462
9.884,-0.0243
9.888,-0.01155
9.892,0.00758
9.896,-0.01402
9.9,-0.03666
9.904,-0.01994
9.908,-0.09438
9.912,-0.10865
9.916,-0.09315
9.92,-0.05894
9.924,0.06101
9.928,0.22579
9.932,0.43525
9.936,0.64409
9.94,0.82836
9.944,0.94657
9.948,0.99287
9.952,0.89408
9.956,0.73551
9.96,0.49992
9.964,0.29163
9.968,0.06999
9.972,-0.06385
9.976,-0.12644
9.98,-0.18094
9.984,-0.13777
9.988,-0.14392
9.992,-0.04636
9.996,-0.02613
