t_seg,ecg_mV
0.0,0.03025
0.004,0.01358
0.008,0.02792
0.012,0.03771
0.016,0.03086
0.02,0.02937
0.024,0.04509
0.028,0.02413
0.032,0.02237
0.036,0.00811
0.04,-0.06563
0.044,-0.06158
0.048,-0.07205
0.052,-0.05785
0.056,0.08261
0.06,0.22634
0.064,0.43942
0.068,0.63429
0.072,0.87692
0.076,0.99131
0.08,0.98606
0.084,0.92834
0.088,0.77912
0.092,0.53237
0.096,0.3471
0.1,0.13732
0.104,-0.0275
0.108,-0.11372
0.112,-0.14436
0.116,-0.12378
0.12,-0.06498
0.124,-0.0393
0.128,-0.01074
0.132,0.00816
0.136,0.03746
0.14,0.01857
0.144,0.00472
0.148,0.05467
0.152,0.03092
0.156,0.03622
0.16,0.02011
0.164,0.02691
0.168,0.03726
0.172,0.01493
0.176,0.03521
0.18,0.03561
0.184,0.05786
0.188,0.02832
0.192,0.04767
0.196,0.02049
0.2,0.01538
0.204,0.04837
0.208,0.05015
0.212,0.03107
0.216,0.03215
0.22,0.03275
0.224,0.04151
0.228,0.02319
0.232,0.05391
0.236,0.00702
0.24,0.03889
0.244,0.05163
0.248,0.06076
0.252,0.05035
0.256,0.0502
0.26,0.04021
0.264,0.05293
0.268,0.07047
0.272,0.03953
0.276,0.07562
0.28,0.09669
0.284,0.08904
0.288,0.10872
0.292,0.08384
0.296,0.09387
0.3,0.12104
0.304,0.12974
0.308,0.15021
0.312,0.13457
0.316,0.142
0.32,0.20892
0.324,0.20103
0.328,0.24544
0.332,0.20378
0.336,0.22914
0.34,0.23255
0.344,0.25244
0.348,0.25778
0.352,0.23642
0.356,0.24176
0.36,0.25981
0.364,0.23696
0.368,0.24986
0.372,0.23472
0.376,0.23873
0.38,0.22436
0.384,0.22567
0.388,0.2147
0.392,0.19479
0.396,0.18693
0.4,0.16909
0.404,0.14063
0.408,0.16111
0.412,0.14705
0.416,0.15266
0.42,0.13193
0.424,0.11606
0.428,0.12868
0.432,0.10669
0.436,0.10896
0.44,0.07384
0.444,0.06027
0.448,0.06462
0.452,0.05455
0.456,0.0404
0.46,0.0404
0.464,0.04209
0.468,0.02814
0.472,0.03755
0.476,0.0417
0.48,0.05044
0.484,0.02031
0.488,0.03656
0.492,0.02872
0.496,0.03483
0.5,0.03519
0.504,0.00818
0.508,0.01215
0.512,0.03033
0.516,0.04291
0.52,0.03823
0.524,0.02618
0.528,0.03951
0.532,0.02416
0.536,0.05111
0.54,0.03726
0.544,0.02113
0.548,0.02191
0.552,0.03949
0.556,0.06101
0.56,0.01693
0.564,0.02955
0.568,0.01057
0.572,0.00369
0.576,0.04163
0.58,0.01974
0.584,0.02639
0.588,0.02986
0.592,0.01734
0.596,0.04089
0.6,0.04118
0.604,0.016
0.608,0.02859
0.612,0.02852
0.616,0.03248
0.62,0.03938
0.624,-0.00242
0.628,0.02083
0.632,0.00242
0.636,0.02277
0.64,0.03972
0.644,0.03384
0.648,0.05193
0.652,0.0189
0.656,0.03457
0.66,0.03708
0.664,0.02358
0.668,0.01962
0.672,0.02509
0.676,0.04752
0.68,0.04758
0.684,0.06765
0.688,0.08239
0.692,0.09529
0.696,0.09349
0.7,0.08622
0.704,0.12415
0.708,0.1441
0.712,0.1609
0.716,0.12704
0.72,0.09959
0.724,0.11068
0.728,0.12866
0.732,0.08053
0.736,0.12505
0.74,0.06806
0.744,0.10172
0.748,0.06496
0.752,0.05571
0.756,0.03335
0.76,0.01783
0.764,0.00542
0.768,0.05266
0.772,0.0314
0.776,0.03208
0.78,0.01542
0.784,0.02316
0.788,0.01933
0.792,0.02227
0.796,0.02828
0.8,0.03191
0.804,0.01322
0.808,0.03342
0.812,0.03186
0.816,0.03305
0.82,0.04828
0.824,0.02796
0.828,0.0152
0.832,-0.03671
0.836,-0.0312
0.84,-0.09973
0.844,-0.0869
0.848,-0.01159
0.852,0.09019
0.856,0.26902
0.86,0.48747
0.864,0.70215
0.868,0.87741
0.872,1.02291
0.876,1.00308
0.88,0.91705
0.884,0.74239
0.888,0.52508
0.892,0.2891
0.896,0.11071
0.9,-0.05571
0.904,-0.12434
0.908,-0.12921
0.912,-0.12368
0.916,-0.06587
0.92,-0.02399
0.924,0.00644
0.928,-0.00732
0.932,0.04815
0.936,0.01068
0.94,0.02699
0.944,0.01278
0.948,0.0099
0.952,0.04493
0.956,0.01268
0.96,0.0109
0.964,0.05129
0.968,0.05542
0.972,-0.00048
0.976,0.05446
0.98,0.00205
0.984,0.04743
0.988,0.02427
0.992,0.03995
0.996,0.03577
1.0,0.02415
1.004,0.022
1.008,0.03036
1.012,0.03943
1.016,0.02268
1.02,0.01894
1.024,0.03314
1.028,0.06296
1.032,0.03813
1.036,0.02981
1.04,0.01603
1.044,0.02998
1.048,0.0448
1.052,0.03668
1.056,0.05291
1.06,0.04834
1.064,0.05683
1.068,0.03903
1.072,0.05463
1.076,0.05552
1.08,0.08157
1.084,0.08341
1.088,0.12066
1.092,0.08489
1.096,0.12225
1.1,0.11603
1.104,0.14278
1.108,0.13971
1.112,0.1615
1.116,0.17545
1.12,0.18442
1.124,0.1711
1.128,0.21071
1.132,0.21403
1.136,0.21927
1.14,0.23319
1.144,0.2364
1.148,0.2297
1.152,0.24472
1.156,0.23866
1.16,0.22654
1.164,0.2283
1.168,0.21073
1.172,0.22875
1.176,0.22876
1.18,0.18919
1.184,0.19451
1.188,0.21618
1.192,0.16453
1.196,0.16579
1.2,0.13488
1.204,0.16959
1.208,0.13361
1.212,0.12058
1.216,0.10572
1.22,0.08008
1.224,0.10277
1.228,0.10855
1.232,0.09969
1.236,0.06364
1.24,0.05849
1.244,0.05875
1.248,0.03975
1.252,0.04401
1.256,0.02289
1.26,0.0168
1.264,0.02694
1.268,0.02505
1.272,0.03213
1.276,0.03205
1.28,0.02591
1.284,0.00199
1.288,0.05221
1.292,0.03023
1.296,0.00582
1.3,0.01952
1.304,0.01434
1.308,0.02119
1.312,-0.0043
1.316,0.01995
1.32,-0.00284
1.324,0.00367
1.328,0.03275
1.332,0.01556
1.336,0.02205
1.34,0.00105
1.344,0.00543
1.348,0.02335
1.352,0.01623
1.356,0.03111
1.36,0.00133
1.364,0.02207
1.368,0.03023
1.372,0.01035
1.376,0.03834
1.38,0.02934
1.384,0.02249
1.388,0.02177
1.392,0.0087
1.396,0.03609
1.4,0.02198
1.404,0.00294
1.408,0.00213
1.412,0.01077
1.416,0.01764
1.42,-0.01899
1.424,0.00356
1.428,0.02881
1.432,0.01998
1.436,0.03489
1.44,0.0009
1.444,0.01476
1.448,0.02115
1.452,0.01641
1.456,0.02791
1.46,0.04475
1.464,0.03762
1.468,0.03685
1.472,0.06409
1.476,0.1041
1.48,0.08009
1.484,0.09364
1.488,0.10693
1.492,0.09436
1.496,0.12315
1.5,0.10858
1.504,0.12701
1.508,0.09537
1.512,0.09381
1.516,0.08739
1.52,0.08886
1.524,0.06165
1.528,0.06176
1.532,0.03179
1.536,0.02529
1.54,-0.00712
1.544,0.04411
1.548,0.01211
1.552,0.03207
1.556,0.02966
1.56,0.0166
1.564,0.01233
1.568,0.00681
1.572,0.01523
1.576,0.00072
1.58,0.02787
1.584,0.03099
1.588,0.03334
1.592,0.01326
1.596,0.00433
1.6,0.0056
1.604,0.00739
1.608,0.00515
1.612,-0.00632
1.616,-0.0063
1.62,-0.05031
1.624,-0.10011
1.628,-0.09429
1.632,-0.09868
1.636,0.01723
1.64,0.14262
1.644,0.38044
1.648,0.55151
1.652,0.78131
1.656,0.92436
1.66,1.00032
1.664,0.93286
1.668,0.79877
1.672,0.57501
1.676,0.34265
1.68,0.18427
1.684,-0.00499
1.688,-0.11988
1.692,-0.16805
1.696,-0.16738
1.7,-0.09725
1.704,-0.08472
1.708,-0.03635
1.712,-0.02042
1.716,-0.00708
1.72,0.00689
1.724,0.04151
1.728,0.00177
1.732,-6e-05
1.736,-0.01365
1.74,-0.00601
1.744,0.01196
1.748,-0.01634
1.752,0.00183
1.756,0.03111
1.76,0.01309
1.764,0.04178
1.768,0.01998
1.772,0.00168
1.776,0.00822
1.78,-0.008
1.784,0.04234
1.788,-0.00011
1.792,-0.00068
1.796,0.01415
1.8,0.01229
1.804,0.00411
1.808,0.00042
1.812,0.01843
1.816,-0.00703
1.82,0.0108
1.824,0.02352
1.828,0.02459
1.832,0.01209
1.836,0.02055
1.84,0.0176
1.844,0.01472
1.848,0.03066
1.852,0.02959
1.856,0.04363
1.86,0.02082
1.864,0.07039
1.868,0.06031
1.872,0.06164
1.876,0.08886
1.88,0.08646
1.884,0.10607
1.888,0.11381
1.892,0.12637
1.896,0.13028
1.9,0.14961
1.904,0.15498
1.908,0.15362
1.912,0.17557
1.916,0.20772
1.92,0.20881
1.924,0.22276
1.928,0.20613
1.932,0.20244
1.936,0.22914
1.94,0.21243
1.944,0.22998
1.948,0.22809
1.952,0.20712
1.956,0.22087
1.96,0.19208
1.964,0.19995
1.968,0.16731
1.972,0.15814
1.976,0.1541
1.98,0.13302
1.984,0.13851
1.988,0.11843
1.992,0.11293
1.996,0.10814
2.0,0.11646
2.004,0.09742
2.008,0.04909
2.012,0.06333
2.016,0.06167
2.02,0.06272
2.024,0.01928
2.028,0.01983
2.032,0.01365
2.036,0.01925
2.04,0.0019
2.044,0.01546
2.048,0.0197
2.052,-0.01408
2.056,0.03356
2.06,-0.00467
2.064,-0.00933
2.068,-0.00413
2.072,0.01475
2.076,0.00437
2.08,-0.00034
2.084,0.01382
2.088,0.01566
2.092,0.00221
2.096,0.00048
2.1,-0.0128
2.104,0.00235
2.108,0.00906
2.112,-0.00399
2.116,-0.01658
2.12,-0.00099
2.124,0.00293
2.128,-0.006
2.132,-0.00638
2.136,0.00686
2.14,-0.01914
2.144,0.02878
2.148,-0.0069
2.152,-0.00097
2.156,-0.00111
2.16,-0.00744
2.164,-3e-05
2.168,0.02001
2.172,-0.00805
2.176,0.01262
2.18,0.01404
2.184,-0.00814
2.188,0.0292
2.192,0.01378
2.196,-0.01507
2.2,-0.00094
2.204,0.01565
2.208,0.00147
2.212,-0.00642
2.216,-0.01185
2.22,0.01142
2.224,0.00113
2.228,-0.0052
2.232,-0.02433
2.236,0.00901
2.24,-0.01574
2.244,-0.00316
2.248,0.00102
2.252,0.00586
2.256,-0.00912
2.26,0.00252
2.264,-0.02674
2.268,0.02159
2.272,-0.01636
2.276,-0.00574
2.28,0.02984
2.284,-0.01502
2.288,-0.03356
2.292,0.0241
2.296,-0.01516
2.3,0.01069
2.304,-0.00378
2.308,-0.00417
2.312,-0.01215
2.316,0.00173
2.32,0.01298
2.324,-0.0036
2.328,-0.03522
2.332,-0.00355
2.336,-0.00015
2.34,-0.00529
2.344,-0.0063
2.348,0.00749
2.352,-0.0249
2.356,-0.01035
2.36,0.00116
2.364,-0.00653
2.368,0.01967
2.372,0.01202
2.376,-0.0113
2.38,0.01284
2.384,0.0105
2.388,0.04423
2.392,0.01969
2.396,0.07349
2.4,0.10049
2.404,0.09139
2.408,0.07535
2.412,0.0844
2.416,0.0774
2.42,0.06904
2.424,0.08182
2.428,0.04133
2.432,0.06211
2.436,0.04413
2.44,0.02725
2.444,0.02947
2.448,0.00906
2.452,-0.01146
2.456,-0.02073
2.46,-0.02898
2.464,-0.00503
2.468,-0.02644
2.472,-0.00102
2.476,-0.01057
2.48,-0.00807
2.484,-0.01393
2.488,-0.00383
2.492,-0.00266
2.496,-0.02552
2.5,-0.00218
2.504,-0.01068
2.508,-0.01728
2.512,-0.00415
2.516,-0.01751
2.52,-0.03825
2.524,-0.04453
2.528,-0.02458
2.532,-0.0689
2.536,-0.10587
2.54,-0.10787
2.544,-0.08595
2.548,0.01663
2.552,0.11427
2.556,0.33041
2.56,0.55126
2.564,0.73116
2.568,0.9081
2.572,1.00341
2.576,0.95759
2.58,0.84716
2.584,0.57575
2.588,0.37419
2.592,0.16094
2.596,-0.00312
2.6,-0.11664
2.604,-0.19546
2.608,-0.18452
2.612,-0.11014
2.616,-0.10477
2.62,-0.04183
2.624,-0.03616
2.628,-0.01734
2.632,-0.025
2.636,-0.00981
2.64,-0.03212
2.644,-0.0195
2.648,-0.00214
2.652,-0.00266
2.656,-0.01926
2.66,0.00135
2.664,-0.01938
2.668,-0.01235
2.672,-0.02684
2.676,-0.03922
2.68,-0.00601
2.684,0.00963
2.688,-0.02058
2.692,-0.04067
2.696,-0.01699
2.7,0.00703
2.704,-0.00386
2.708,-0.02602
2.712,-0.03993
2.716,-0.02559
2.72,-0.029
2.724,-0.02142
2.728,-0.01421
2.732,-0.01194
2.736,-0.00567
2.74,0.00012
2.744,-0.02459
2.748,-0.00391
2.752,-0.02898
2.756,-0.00534
2.76,-0.0209
2.764,0.00099
2.768,0.00247
2.772,0.03188
2.776,0.01682
2.78,-0.00757
2.784,0.04796
2.788,0.07402
2.792,0.09596
2.796,0.07702
2.8,0.07997
2.804,0.11192
2.808,0.10877
2.812,0.14853
2.816,0.14246
2.82,0.15657
2.824,0.15098
2.828,0.18068
2.832,0.16027
2.836,0.22347
2.84,0.18654
2.844,0.19089
2.848,0.17466
2.852,0.1918
2.856,0.19946
2.86,0.20106
2.864,0.18905
2.868,0.17159
2.872,0.19442
2.876,0.17373
2.88,0.16767
2.884,0.13203
2.888,0.14125
2.892,0.12601
2.896,0.10534
2.9,0.10731
2.904,0.11033
2.908,0.08592
2.912,0.07573
2.916,0.05893
2.92,0.07454
2.924,0.00573
2.928,0.00011
2.932,0.02925
2.936,0.00509
2.94,0.01462
2.944,0.01559
2.948,0.00722
2.952,0.02508
2.956,0.01846
2.96,-0.00155
2.964,-0.02072
2.968,0.00093
2.972,0.01102
2.976,-0.02794
2.98,-0.00749
2.984,-0.02278
2.988,0.0053
2.992,-0.00773
2.996,-0.02264
3.0,-0.03463
3.004,-0.00598
3.008,-0.00102
3.012,-0.04248
3.016,-0.0261
3.02,-0.04094
3.024,-0.027
3.028,-0.01016
3.032,-0.05802
3.036,-0.0109
3.04,-0.02736
3.044,-0.00947
3.048,-0.02238
3.052,-0.02518
3.056,-0.04108
3.06,-0.02506
3.064,-0.0213
3.068,0.00083
3.072,-0.02009
3.076,-0.02849
3.08,-0.03578
3.084,-0.04471
3.088,-0.03655
3.092,-0.04946
3.096,-0.03425
3.1,-0.02374
3.104,-0.03391
3.108,-0.00218
3.112,-0.04222
3.116,-0.02844
3.12,-0.03894
3.124,-0.01345
3.128,-0.03553
3.132,-0.04808
3.136,0.00124
3.14,-0.01723
3.144,-0.04746
3.148,-0.01605
3.152,-0.0359
3.156,-0.00989
3.16,-0.04694
3.164,-0.03503
3.168,-0.03196
3.172,-0.00427
3.176,-0.01058
3.18,-0.03027
3.184,-0.02891
3.188,-0.01584
3.192,-0.01595
3.196,-0.01759
3.2,-0.01217
3.204,-0.03082
3.208,-0.00638
3.212,-0.02347
3.216,-0.01547
3.22,0.01807
3.224,-0.00989
3.228,-0.01292
3.232,-0.00142
3.236,0.02562
3.24,0.02234
3.244,0.0298
3.248,0.05655
3.252,0.06729
3.256,0.06073
3.26,0.10368
3.264,0.06319
3.268,0.07071
3.272,0.06857
3.276,0.08252
3.28,0.03757
3.284,0.03427
3.288,0.03667
3.292,0.00552
3.296,-0.01247
3.3,-0.00177
3.304,-0.01868
3.308,-0.03197
3.312,-0.00812
3.316,-0.01959
3.32,-0.00501
3.324,-0.0275
3.328,-0.06124
3.332,-0.0316
3.336,-0.00744
3.34,0.00978
3.344,-0.04919
3.348,-0.04269
3.352,-0.01757
3.356,-0.02883
3.36,0.01003
3.364,-0.01828
3.368,-0.03725
3.372,-0.01928
3.376,-0.01858
3.38,-0.058
3.384,-0.09363
3.388,-0.1314
3.392,-0.16992
3.396,-0.11518
3.4,0.00644
3.404,0.16515
3.408,0.36971
3.412,0.57737
3.416,0.75657
3.42,0.95594
3.424,0.9729
3.428,0.89891
3.432,0.76231
3.436,0.51952
3.44,0.31703
3.444,0.0863
3.448,-0.05511
3.452,-0.17079
3.456,-0.21084
3.46,-0.15901
3.464,-0.14886
3.468,-0.10095
3.472,-0.06863
3.476,-0.03624
3.48,-0.02303
3.484,-0.0045
3.488,-0.02017
3.492,-0.03366
3.496,-0.02257
3.5,-0.0276
3.504,-0.02455
3.508,-0.00318
3.512,-0.04285
3.516,-0.02398
3.52,-0.01699
3.524,0.00557
3.528,-0.03317
3.532,-0.05638
3.536,-0.03103
3.54,0.01745
3.544,-0.05484
3.548,-0.02376
3.552,-0.04313
3.556,-0.02412
3.56,-0.02091
3.564,-0.04522
3.568,-0.0335
3.572,-0.01076
3.576,-0.02729
3.58,-0.02283
3.584,-0.03795
3.588,-0.0353
3.592,-0.01885
3.596,-0.01633
3.6,0.00337
3.604,-0.00616
3.608,0.00524
3.612,-0.00525
3.616,0.01648
3.62,0.00382
3.624,0.01366
3.628,0.02368
3.632,0.05007
3.636,0.03001
3.64,0.04444
3.644,0.03394
3.648,0.07748
3.652,0.08887
3.656,0.09773
3.66,0.12475
3.664,0.10475
3.668,0.13649
3.672,0.15876
3.676,0.1318
3.68,0.14594
3.684,0.1676
3.688,0.15906
3.692,0.18605
3.696,0.17732
3.7,0.18737
3.704,0.21008
3.708,0.19835
3.712,0.18564
3.716,0.19274
3.72,0.177
3.724,0.18004
3.728,0.15436
3.732,0.15406
3.736,0.16007
3.74,0.09115
3.744,0.13144
3.748,0.1241
3.752,0.09869
3.756,0.07721
3.76,0.04909
3.764,0.04589
3.768,0.06595
3.772,0.0469
3.776,0.03618
3.78,0.02092
3.784,0.0157
3.788,-0.00599
3.792,0.00347
3.796,0.00194
3.8,-0.00471
3.804,-0.01361
3.808,0.00557
3.812,-0.01168
3.816,-0.02967
3.82,-0.02819
3.824,-0.01983
3.828,-0.00745
3.832,-0.01211
3.836,-0.02616
3.84,-0.01507
3.844,-0.02749
3.848,-0.02696
3.852,-0.02728
3.856,-0.01212
3.86,-0.01361
3.864,-0.02286
3.868,-0.02897
3.872,-0.03541
3.876,-0.03131
3.88,-0.02022
3.884,-0.03804
3.888,-0.01564
3.892,-0.04022
3.896,-0.01873
3.9,-0.03228
3.904,-0.04461
3.908,-0.01914
3.912,-0.02595
3.916,-0.03034
3.92,-0.02694
3.924,-0.01998
3.928,-0.0236
3.932,-0.04776
3.936,-0.02132
3.94,0.00216
3.944,-0.04954
3.948,-0.01892
3.952,-0.01487
3.956,-0.00477
3.96,-0.01826
3.964,-0.03636
3.968,-0.04218
3.972,-0.00991
3.976,-0.02453
3.98,-0.02816
3.984,-0.02682
3.988,-0.01981
3.992,-0.01003
3.996,0.00797
4.0,-0.02811
4.004,-0.00173
4.008,-0.01735
4.012,-0.03504
4.016,-0.02482
4.02,-0.02519
4.024,-0.05445
4.028,-0.00386
4.032,-0.00595
4.036,0.00315
4.04,0.01481
4.044,0.00679
4.048,0.02638
4.052,0.04751
4.056,0.04682
4.06,0.04795
4.064,0.06113
4.068,0.09306
4.072,0.06638
4.076,0.07248
4.08,0.05043
4.084,0.05201
4.088,0.059
4.092,0.01593
4.096,0.02174
4.1,-0.01955
4.104,0.00694
4.108,0.00819
4.112,-0.01338
4.116,-0.00977
4.12,-0.02123
4.124,-0.0315
4.128,0.002
4.132,-0.03133
4.136,-0.04716
4.14,-0.02066
4.144,-0.02601
4.148,-0.03449
4.152,-0.00289
4.156,-0.02332
4.16,-0.06733
4.164,-0.04362
4.168,-0.02986
4.172,-0.03272
4.176,-0.01644
4.18,-0.01093
4.184,-0.04527
4.188,-0.0241
4.192,-0.07952
4.196,-0.1276
4.2,-0.15086
4.204,-0.07931
4.208,-0.00322
4.212,0.1416
4.216,0.35118
4.22,0.57357
4.224,0.75431
4.228,0.94442
4.232,0.96659
4.236,0.90652
4.24,0.74068
4.244,0.52742
4.248,0.31533
4.252,0.11651
4.256,-0.04317
4.26,-0.12737
4.264,-0.17612
4.268,-0.16721
4.272,-0.10799
4.276,-0.114
4.28,-0.08829
4.284,-0.06059
4.288,-0.03833
4.292,-0.02699
4.296,-0.04984
4.3,-0.01144
4.304,-0.01589
4.308,-0.06034
4.312,-0.00964
4.316,-0.04155
4.32,0.0069
4.324,-0.01531
4.328,-0.03659
4.332,-0.00303
4.336,-0.0351
4.34,-0.01242
4.344,-0.02512
4.348,-0.03375
4.352,-0.04911
4.356,-0.0295
4.36,-0.03479
4.364,-0.04078
4.368,-0.01159
4.372,-0.01886
4.376,-0.0289
4.38,-0.03355
4.384,-0.00601
4.388,-0.02411
4.392,-0.01221
4.396,-0.01609
4.4,-0.00657
4.404,-0.01485
4.408,-0.02452
4.412,-0.00088
4.416,-0.01119
4.42,-0.00313
4.424,0.01773
4.428,-0.0011
4.432,0.0341
4.436,0.02478
4.44,0.05591
4.444,0.04622
4.448,0.10018
4.452,0.06647
4.456,0.09706
4.46,0.10987
4.464,0.11617
4.468,0.12299
4.472,0.1487
4.476,0.12375
4.48,0.13995
4.484,0.1738
4.488,0.20692
4.492,0.15142
4.496,0.15697
4.5,0.21451
4.504,0.18359
4.508,0.20087
4.512,0.19428
4.516,0.17209
4.52,0.19871
4.524,0.18506
4.528,0.18397
4.532,0.17867
4.536,0.18448
4.54,0.13406
4.544,0.15168
4.548,0.12649
4.552,0.12542
4.556,0.11272
4.56,0.10083
4.564,0.10453
4.568,0.0859
4.572,0.07518
4.576,0.06197
4.58,0.03073
4.584,0.03488
4.588,0.03094
4.592,0.0332
4.596,0.01738
4.6,0.02135
4.604,-0.00649
4.608,0.00401
4.612,-0.00441
4.616,-0.00215
4.62,0.00828
4.624,-0.00846
4.628,-0.02708
4.632,-0.00694
4.636,0.00576
4.64,-0.01081
4.644,-0.00931
4.648,-0.04033
4.652,0.00271
4.656,-0.02223
4.66,-0.01689
4.664,-0.01339
4.668,-0.04251
4.672,-0.02779
4.676,-0.02908
4.68,-0.01964
4.684,0.00515
4.688,-0.033
4.692,-0.00066
4.696,-0.03023
4.7,0.0011
4.704,-0.01688
4.708,-0.00084
4.712,-0.02068
4.716,-0.00738
4.72,-0.00392
4.724,0.0094
4.728,0.01894
4.732,0.04385
4.736,0.07665
4.74,0.05906
4.744,0.10499
4.748,0.10594
4.752,0.08925
4.756,0.07228
4.76,0.08022
4.764,0.10458
4.768,0.09311
4.772,0.03148
4.776,0.0468
4.78,-0.00165
4.784,0.01838
4.788,-0.01472
4.792,-0.03293
4.796,-0.01278
4.8,-0.02318
4.804,0.00343
4.808,-0.00104
4.812,0.01752
4.816,-0.02701
4.82,0.0075
4.824,-0.0159
4.828,-0.01106
4.832,-0.0131
4.836,-0.03037
4.84,0.00724
4.844,0.008
4.848,-0.00132
4.852,-0.03374
4.856,-0.02714
4.86,-0.0003
4.864,0.00284
4.868,-0.06021
4.872,-0.0572
4.876,-0.09256
4.88,-0.13021
4.884,-0.11827
4.888,-0.02484
4.892,0.10794
4.896,0.32599
4.9,0.52415
4.904,0.7498
4.908,0.88329
4.912,0.97379
4.916,0.94714
4.92,0.83559
4.924,0.60951
4.928,0.39464
4.932,0.1712
4.936,-0.01668
4.94,-0.13119
4.944,-0.18978
4.948,-0.19623
4.952,-0.14732
4.956,-0.09324
4.96,-0.07465
4.964,-0.02287
4.968,-0.01677
4.972,0.00068
4.976,-0.02357
4.98,-0.01641
4.984,-0.001
4.988,-0.009
4.992,-0.01063
4.996,-0.00748
5.0,-0.00023
5.004,-0.00329
5.008,0.00656
5.012,-0.03085
5.016,-0.00803
5.02,-0.01443
5.024,-0.01675
5.028,-0.02548
5.032,0.00266
5.036,0.0494
5.04,-0.00771
5.044,-0.00635
5.048,-0.00014
5.052,-0.0159
5.056,-0.01112
5.06,-0.03542
5.064,-0.02648
5.068,0.00769
5.072,-0.00807
5.076,-0.02615
5.08,-0.01429
5.084,0.01347
5.088,0.03862
5.092,0.00588
5.096,0.02503
5.1,0.02799
5.104,0.02031
5.108,0.03053
5.112,0.03743
5.116,0.0415
5.12,0.04554
5.124,0.07743
5.128,0.0544
5.132,0.10318
5.136,0.10695
5.14,0.10586
5.144,0.13119
5.148,0.13566
5.152,0.15008
5.156,0.16635
5.16,0.15357
5.164,0.1605
5.168,0.19333
5.172,0.17762
5.176,0.20211
5.18,0.20344
5.184,0.22456
5.188,0.24004
5.192,0.19359
5.196,0.21422
5.2,0.20825
5.204,0.236
5.208,0.19757
5.212,0.19739
5.216,0.17504
5.22,0.18664
5.224,0.12256
5.228,0.1532
5.232,0.14411
5.236,0.11723
5.24,0.14628
5.244,0.0934
5.248,0.09143
5.252,0.10361
5.256,0.07483
5.26,0.08049
5.264,0.05405
5.268,0.04883
5.272,0.03707
5.276,0.01223
5.28,0.03383
5.284,0.02003
5.288,0.01472
5.292,0.01624
5.296,0.03538
5.3,0.01021
5.304,0.00287
5.308,0.02029
5.312,0.00041
5.316,0.02346
5.32,-0.00885
5.324,-0.00778
5.328,-0.00398
5.332,-0.00482
5.336,0.01339
5.34,0.01402
5.344,0.01506
5.348,-0.02504
5.352,0.00285
5.356,0.01224
5.36,0.00388
5.364,-0.01189
5.368,0.02831
5.372,0.00288
5.376,0.01081
5.38,-0.01685
5.384,-0.00887
5.388,0.02661
5.392,-0.00842
5.396,-0.00831
5.4,0.02734
5.404,0.00765
5.408,-0.00507
5.412,0.01456
5.416,-0.00138
5.42,0.01217
5.424,-0.00538
5.428,0.00893
5.432,0.00097
5.436,0.02839
5.44,0.01304
5.444,0.03321
5.448,0.03154
5.452,0.05269
5.456,0.03739
5.46,0.0516
5.464,0.07308
5.468,0.08298
5.472,0.10252
5.476,0.08118
5.48,0.09782
5.484,0.09553
5.488,0.08781
5.492,0.14223
5.496,0.09879
5.5,0.04742
5.504,0.04988
5.508,0.05999
5.512,0.0505
5.516,0.02732
5.52,0.0422
5.524,0.04384
5.528,-0.00387
5.532,0.01291
5.536,-0.00297
5.54,0.03496
5.544,-0.01667
5.548,0.00365
5.552,0.00709
5.556,0.0069
5.56,0.01325
5.564,0.01329
5.568,0.01445
5.572,0.01246
5.576,-0.001
5.58,0.00052
5.584,0.00255
5.588,-0.0019
5.592,-0.00571
5.596,-0.0211
5.6,-0.05238
5.604,-0.08431
5.608,-0.10303
5.612,-0.09971
5.616,-0.01587
5.62,0.10482
5.624,0.31357
5.628,0.52476
5.632,0.75905
5.636,0.89572
5.64,0.98465
5.644,0.95848
5.648,0.84447
5.652,0.63302
5.656,0.434
5.66,0.21842
5.664,0.03256
5.668,-0.08435
5.672,-0.17752
5.676,-0.1709
5.68,-0.10664
5.684,-0.07016
5.688,-0.05943
5.692,-0.02439
5.696,-0.00422
5.7,0.00657
5.704,0.00952
5.708,0.02769
5.712,-0.00041
5.716,-0.01312
5.72,0.01714
5.724,0.00366
5.728,0.01419
5.732,-0.01903
5.736,-0.01198
5.74,-0.00271
5.744,0.02902
5.748,-0.00043
5.752,0.00546
5.756,0.02592
5.76,0.01622
5.764,-0.01206
5.768,0.01234
5.772,0.01117
5.776,0.01276
5.78,0.00692
5.784,-0.00343
5.788,0.00726
5.792,0.02361
5.796,0.0222
5.8,0.02998
5.804,0.01541
5.808,-0.00334
5.812,0.02311
5.816,0.02099
5.82,0.0281
5.824,0.07255
5.828,0.03967
5.832,0.05561
5.836,0.05945
5.84,0.0623
5.844,0.08645
5.848,0.07298
5.852,0.05902
5.856,0.07614
5.86,0.09773
5.864,0.08598
5.868,0.1393
5.872,0.1261
5.876,0.13035
5.88,0.18385
5.884,0.1607
5.888,0.20045
5.892,0.21013
5.896,0.21911
5.9,0.21219
5.904,0.19621
5.908,0.22812
5.912,0.21754
5.916,0.23583
5.92,0.21398
5.924,0.24075
5.928,0.23727
5.932,0.24457
5.936,0.21112
5.94,0.20289
5.944,0.1991
5.948,0.19607
5.952,0.19427
5.956,0.18039
5.96,0.16547
5.964,0.15297
5.968,0.138
5.972,0.14427
5.976,0.12109
5.98,0.10016
5.984,0.09575
5.988,0.10432
5.992,0.10348
5.996,0.07026
6.0,0.07126
6.004,0.07447
6.008,0.06274
6.012,0.03257
6.016,0.04832
6.02,0.03468
6.024,0.02603
6.028,0.02086
6.032,0.05224
6.036,0.02303
6.04,0.00426
6.044,0.02214
6.048,0.01099
6.052,0.01894
6.056,0.00641
6.06,0.02361
6.064,0.02719
6.068,0.01408
6.072,0.0001
6.076,0.03375
6.08,-0.01112
6.084,0.02248
6.088,0.02648
6.092,0.04424
6.096,0.03143
6.1,0.04741
6.104,0.00719
6.108,0.04524
6.112,0.02859
6.116,0.02882
6.12,-0.00633
6.124,0.00023
6.128,0.01435
6.132,0.03268
6.136,-0.00889
6.14,0.02917
6.144,0.00457
6.148,0.04786
6.152,0.01823
6.156,0.01122
6.16,0.02412
6.164,0.02272
6.168,0.0046
6.172,0.02198
6.176,0.0097
6.18,0.0042
6.184,0.03158
6.188,0.02575
6.192,0.03957
6.196,0.00401
6.2,0.01924
6.204,-0.00268
6.208,0.03204
6.212,0.024
6.216,0.03294
6.22,0.03388
6.224,0.05687
6.228,0.02203
6.232,0.01106
6.236,0.02356
6.24,0.03386
6.244,0.03984
6.248,0.01828
6.252,0.02427
6.256,-0.00016
6.26,0.01433
6.264,-0.00129
6.268,0.06322
6.272,0.01546
6.276,0.02455
6.28,0.01954
6.284,0.0185
6.288,0.02719
6.292,0.02492
6.296,0.03204
6.3,0.02561
6.304,0.0505
6.308,0.04789
6.312,0.03915
6.316,0.03344
6.32,0.04512
6.324,0.08308
6.328,0.07614
6.332,0.06263
6.336,0.13637
6.34,0.10207
6.344,0.0987
6.348,0.12475
6.352,0.12334
6.356,0.12288
6.36,0.11207
6.364,0.09712
6.368,0.09044
6.372,0.06573
6.376,0.04282
6.38,0.07098
6.384,0.04628
6.388,0.02395
6.392,0.04878
6.396,0.03458
6.4,0.02686
6.404,0.03418
6.408,0.02989
6.412,0.02085
6.416,0.02865
6.42,0.02782
6.424,0.02017
6.428,0.03792
6.432,0.04596
6.436,0.01702
6.44,0.01408
6.444,0.01872
6.448,0.03143
6.452,0.0406
6.456,0.01686
6.46,-0.00344
6.464,-0.00463
6.468,-0.04928
6.472,-0.05027
6.476,-0.06826
6.48,-0.07296
6.484,-0.01359
6.488,0.13759
6.492,0.27883
6.496,0.51
6.5,0.71019
6.504,0.90906
6.508,1.01474
6.512,1.00206
6.516,0.89957
6.52,0.69109
6.524,0.46649
6.528,0.26888
6.532,0.10368
6.536,-0.04062
6.54,-0.138
6.544,-0.15883
6.548,-0.10868
6.552,-0.08094
6.556,-0.0218
6.56,0.0008
6.564,-0.00966
6.568,0.01365
6.572,0.06815
6.576,0.04935
6.58,0.03055
6.584,0.01497
6.588,0.03969
6.592,0.05255
6.596,0.00187
6.6,0.0225
6.604,-0.00817
6.608,0.0163
6.612,0.03439
6.616,0.01709
6.62,0.04938
6.624,0.0449
6.628,0.01023
6.632,-0.00848
6.636,0.0329
6.64,0.04199
6.644,0.0371
6.648,0.02969
6.652,0.04147
6.656,0.03231
6.66,0.02306
6.664,0.03281
6.668,0.05145
6.672,0.03604
6.676,0.06879
6.68,0.06033
6.684,0.02999
6.688,0.06184
6.692,0.04343
6.696,0.07624
6.7,0.04603
6.704,0.06605
6.708,0.07301
6.712,0.06626
6.716,0.09236
6.72,0.09923
6.724,0.1003
6.728,0.13106
6.732,0.10557
6.736,0.14312
6.74,0.14799
6.744,0.16252
6.748,0.16903
6.752,0.1826
6.756,0.21073
6.76,0.25262
6.764,0.20122
6.768,0.20716
6.772,0.21984
6.776,0.22022
6.78,0.25261
6.784,0.21476
6.788,0.25998
6.792,0.22762
6.796,0.24557
6.8,0.23849
6.804,0.21653
6.808,0.21268
6.812,0.2408
6.816,0.23833
6.82,0.20589
6.824,0.20874
6.828,0.16246
6.832,0.17883
6.836,0.16378
6.84,0.14332
6.844,0.17007
6.848,0.11863
6.852,0.12599
6.856,0.10755
6.86,0.07185
6.864,0.06506
6.868,0.07657
6.872,0.05175
6.876,0.06175
6.88,0.06142
6.884,0.03475
6.888,0.0532
6.892,0.05091
6.896,0.04348
6.9,0.04703
6.904,0.01978
6.908,0.0275
6.912,0.03482
6.916,0.01709
6.92,0.04207
6.924,0.04696
6.928,0.01001
6.932,0.03008
6.936,0.04767
6.94,0.02037
6.944,0.05712
6.948,0.02462
6.952,0.04896
6.956,0.02091
6.96,0.02542
6.964,0.03324
6.968,0.02388
6.972,0.05164
6.976,0.02944
6.98,0.03929
6.984,0.01068
6.988,0.02918
6.992,0.00665
6.996,0.02273
7.0,0.02419
7.004,0.03296
7.008,0.03345
7.012,0.03646
7.016,0.04332
7.02,0.00883
7.024,0.03926
7.028,0.03646
7.032,0.01238
7.036,0.0109
7.04,0.03815
7.044,0.03916
7.048,0.058
7.052,0.03246
7.056,0.06266
7.06,0.0589
7.064,0.06077
7.068,0.08714
7.072,0.1036
7.076,0.11712
7.08,0.1285
7.084,0.10708
7.088,0.11352
7.092,0.11635
7.096,0.11402
7.1,0.13094
7.104,0.11049
7.108,0.07082
7.112,0.08944
7.116,0.09693
7.12,0.05688
7.124,0.07241
7.128,0.06192
7.132,0.05095
7.136,0.01118
7.14,0.04663
7.144,0.03129
7.148,0.03819
7.152,0.02798
7.156,0.04076
7.16,0.03606
7.164,0.0442
7.168,0.02632
7.172,0.02419
7.176,0.02249
7.18,0.01358
7.184,0.04671
7.188,0.0022
7.192,0.02801
7.196,0.01431
7.2,0.04251
7.204,0.03099
7.208,-0.0382
7.212,-0.05411
7.216,-0.08728
7.22,-0.11079
7.224,-0.0395
7.228,0.08803
7.232,0.26014
7.236,0.47319
7.24,0.67545
7.244,0.86843
7.248,0.99875
7.252,1.03597
7.256,0.94986
7.26,0.76762
7.264,0.54546
7.268,0.30524
7.272,0.10538
7.276,-0.03228
7.28,-0.08794
7.284,-0.13559
7.288,-0.09997
7.292,-0.07865
7.296,-0.03462
7.3,-0.03498
7.304,0.0257
7.308,0.0076
7.312,0.02311
7.316,-0.01692
7.32,0.04155
7.324,0.02336
7.328,0.0289
7.332,0.04497
7.336,0.0445
7.34,0.05217
7.344,0.04997
7.348,0.01554
7.352,0.04312
7.356,0.03691
7.36,0.01992
7.364,0.0542
7.368,0.03688
7.372,0.01198
7.376,0.04425
7.38,0.01248
7.384,0.04575
7.388,0.03227
7.392,0.01585
7.396,0.03032
7.4,0.01814
7.404,0.0282
7.408,0.04104
7.412,0.05823
7.416,0.058
7.42,0.04309
7.424,0.04963
7.428,0.04027
7.432,0.04645
7.436,0.04746
7.44,0.06362
7.444,0.06271
7.448,0.09784
7.452,0.09736
7.456,0.07359
7.46,0.12525
7.464,0.09452
7.468,0.10817
7.472,0.12752
7.476,0.13735
7.48,0.12575
7.484,0.14891
7.488,0.16723
7.492,0.17792
7.496,0.16686
7.5,0.20185
7.504,0.21785
7.508,0.20314
7.512,0.21991
7.516,0.25474
7.52,0.25408
7.524,0.24831
7.528,0.23974
7.532,0.2415
7.536,0.24688
7.54,0.24858
7.544,0.21792
7.548,0.2292
7.552,0.21552
7.556,0.23029
7.56,0.17671
7.564,0.17531
7.568,0.18692
7.572,0.16265
7.576,0.15097
7.58,0.15283
7.584,0.12165
7.588,0.13403
7.592,0.13779
7.596,0.08475
7.6,0.08432
7.604,0.09394
7.608,0.09745
7.612,0.067
7.616,0.0521
7.62,0.02766
7.624,0.04358
7.628,0.05904
7.632,0.0375
7.636,0.03643
7.64,0.00441
7.644,0.04372
7.648,0.02318
7.652,0.0359
7.656,0.03701
7.66,0.02807
7.664,0.03838
7.668,0.03472
7.672,0.0304
7.676,0.03869
7.68,0.00167
7.684,0.0251
7.688,0.01766
7.692,0.0294
7.696,0.0353
7.7,-0.0007
7.704,0.02959
7.708,0.01949
7.712,0.03368
7.716,0.02866
7.72,0.01998
7.724,0.04247
7.728,0.01377
7.732,0.05389
7.736,0.05914
7.74,0.04414
7.744,0.07752
7.748,0.08461
7.752,0.09471
7.756,0.08062
7.76,0.11607
7.764,0.1195
7.768,0.11592
7.772,0.12424
7.776,0.10933
7.78,0.08609
7.784,0.08935
7.788,0.07951
7.792,0.08869
7.796,0.05436
7.8,0.03795
7.804,0.05246
7.808,0.02218
7.812,0.0313
7.816,0.01438
7.82,0.05742
7.824,0.03818
7.828,0.0355
7.832,0.00495
7.836,-0.00141
7.84,-0.00653
7.844,0.0469
7.848,-0.00426
7.852,0.00524
7.856,0.02271
7.86,0.03916
7.864,0.02074
7.868,0.03695
7.872,0.00584
7.876,0.00565
7.88,0.01455
7.884,-0.01811
7.888,-0.04292
7.892,-0.09721
7.896,-0.1184
7.9,-0.05718
7.904,0.05129
7.908,0.19006
7.912,0.41288
7.916,0.6479
7.92,0.86297
7.924,0.98026
7.928,1.02859
7.932,0.94745
7.936,0.78983
7.94,0.58186
7.944,0.30452
7.948,0.10557
7.952,-0.02107
7.956,-0.12882
7.96,-0.16623
7.964,-0.12856
7.968,-0.09008
7.972,-0.02956
7.976,-0.03468
7.98,0.01461
7.984,0.00094
7.988,0.00044
7.992,0.00966
7.996,0.04716
8.0,0.02492
8.004,0.02142
8.008,0.02693
8.012,0.01198
8.016,0.01058
8.02,0.01688
8.024,0.02183
8.028,0.04325
8.032,0.01025
8.036,0.03286
8.04,0.04005
8.044,0.00637
8.048,-0.00167
8.052,0.05485
8.056,0.0153
8.06,0.02491
8.064,0.01065
8.068,0.0366
8.072,0.01201
8.076,0.0232
8.08,0.01043
8.084,0.03382
8.088,0.02333
8.092,0.04092
8.096,0.02299
8.1,0.03901
8.104,0.03898
8.108,0.04482
8.112,0.04305
8.116,0.01698
8.12,0.02423
8.124,0.03716
8.128,0.04979
8.132,0.05949
8.136,0.05609
8.14,0.09583
8.144,0.11164
8.148,0.12237
8.152,0.12111
8.156,0.12834
8.16,0.14471
8.164,0.17833
8.168,0.15453
8.172,0.19562
8.176,0.20793
8.18,0.17596
8.184,0.20464
8.188,0.23338
8.192,0.20694
8.196,0.20803
8.2,0.20316
8.204,0.22344
8.208,0.2408
8.212,0.22388
8.216,0.20451
8.22,0.20532
8.224,0.20545
8.228,0.1942
8.232,0.2122
8.236,0.20646
8.24,0.19939
8.244,0.17333
8.248,0.11978
8.252,0.15858
8.256,0.13149
8.26,0.12673
8.264,0.0938
8.268,0.08568
8.272,0.05623
8.276,0.08491
8.28,0.06892
8.284,0.04557
8.288,0.06867
8.292,0.0761
8.296,0.0592
8.3,0.03377
8.304,0.05935
8.308,0.02279
8.312,0.01714
8.316,0.02131
8.32,0.00809
8.324,0.0174
8.328,0.03226
8.332,0.04429
8.336,0.0187
8.34,0.00831
8.344,0.02206
8.348,0.00877
8.352,0.0001
8.356,0.01797
8.36,-0.01182
8.364,0.00989
8.368,-0.00545
8.372,0.00879
8.376,0.01372
8.38,0.00144
8.384,-0.0144
8.388,0.05087
8.392,-0.01004
8.396,-0.00462
8.4,0.01465
8.404,0.03326
8.408,0.01426
8.412,0.01939
8.416,0.01661
8.42,0.00948
8.424,0.01231
8.428,0.0233
8.432,-0.00849
8.436,0.02597
8.44,0.0263
8.444,0.00913
8.448,0.00831
8.452,0.02009
8.456,0.03291
8.46,0.01183
8.464,0.00149
8.468,-0.01843
8.472,0.01812
8.476,0.01914
8.48,-0.01785
8.484,0.00591
8.488,-0.00912
8.492,0.02406
8.496,0.01179
8.5,0.01473
8.504,0.00972
8.508,-0.01281
8.512,0.00775
8.516,-0.01509
8.52,0.01849
8.524,0.01131
8.528,-0.00641
8.532,0.00413
8.536,-0.01538
8.54,0.00678
8.544,-0.00012
8.548,0.01053
8.552,0.01107
8.556,0.0256
8.56,0.03865
8.564,0.01022
8.568,0.02905
8.572,0.01794
8.576,0.03843
8.58,0.02923
8.584,0.04827
8.588,0.05286
8.592,0.05052
8.596,0.09531
8.6,0.07169
8.604,0.1048
8.608,0.09737
8.612,0.1173
8.616,0.08455
8.62,0.11537
8.624,0.06208
8.628,0.0794
8.632,0.06593
8.636,0.02926
8.64,0.01837
8.644,0.04187
8.648,-0.00177
8.652,0.01828
8.656,0.00091
8.66,0.00778
8.664,0.035
8.668,-0.00223
8.672,0.02236
8.676,0.02772
8.68,-0.00136
8.684,0.01179
8.688,0.01305
8.692,-0.00131
8.696,-0.01235
8.7,-0.00986
8.704,-0.0322
8.708,0.00166
8.712,0.00115
8.716,0.01935
8.72,-0.01584
8.724,-0.03223
8.728,-0.04265
8.732,-0.09177
8.736,-0.11636
8.74,-0.09603
8.744,-0.00569
8.748,0.138
8.752,0.34911
8.756,0.57761
8.76,0.72556
8.764,0.93416
8.768,1.02215
8.772,0.94083
8.776,0.76512
8.78,0.56658
8.784,0.35982
8.788,0.14247
8.792,-0.02605
8.796,-0.10986
8.8,-0.17582
8.804,-0.1805
8.808,-0.14223
8.812,-0.08718
8.816,-0.03814
8.82,-0.05502
8.824,0.00711
8.828,0.00699
8.832,-0.00054
8.836,-0.00682
8.84,-0.00567
8.844,-0.00134
8.848,-0.00176
8.852,-0.00589
8.856,-0.01419
8.86,0.01465
8.864,0.01869
8.868,-0.02465
8.872,-0.03046
8.876,-0.0106
8.88,-0.00182
8.884,-0.01847
8.888,-0.0342
8.892,-0.03065
8.896,0.00299
8.9,0.01352
8.904,0.02233
8.908,-0.00025
8.912,-0.0229
8.916,-0.03577
8.92,0.00085
8.924,0.01466
8.928,0.00537
8.932,0.01708
8.936,0.00666
8.94,0.03
8.944,-0.00905
8.948,-0.00341
8.952,-0.01975
8.956,0.00448
8.96,0.02109
8.964,0.02777
8.968,0.06075
8.972,0.05727
8.976,0.05963
8.98,0.07427
8.984,0.07577
8.988,0.09
8.992,0.09646
8.996,0.09688
9.0,0.12253
9.004,0.12021
9.008,0.13175
9.012,0.15189
9.016,0.1569
9.02,0.19057
9.024,0.1468
9.028,0.20749
9.032,0.2098
9.036,0.23412
9.04,0.19015
9.044,0.22416
9.048,0.22474
9.052,0.22534
9.056,0.18569
9.06,0.22279
9.064,0.22701
9.068,0.20539
9.072,0.20182
9.076,0.17621
9.08,0.17517
9.084,0.12092
9.088,0.12465
9.092,0.13928
9.096,0.11939
9.1,0.09875
9.104,0.11072
9.108,0.0688
9.112,0.04239
9.116,0.07451
9.12,0.03687
9.124,0.04384
9.128,0.03666
9.132,0.00625
9.136,0.03337
9.14,0.00071
9.144,0.02649
9.148,0.00457
9.152,-0.00548
9.156,-0.02523
9.16,-0.00757
9.164,-0.02366
9.168,-0.00301
9.172,-0.00932
9.176,-0.05586
9.18,-0.01476
9.184,-0.01813
9.188,-0.00236
9.192,-0.00963
9.196,-0.0234
9.2,-0.0322
9.204,-0.0107
9.208,-0.00744
9.212,-0.00909
9.216,-0.00487
9.22,-0.01161
9.224,-0.0104
9.228,0.0101
9.232,-0.03458
9.236,-0.02819
9.24,-0.00517
9.244,-0.01591
9.248,-0.03567
9.252,-0.04922
9.256,-0.00717
9.26,-0.02388
9.264,0.00249
9.268,-0.02134
9.272,0.00289
9.276,0.00146
9.28,0.00569
9.284,-0.00958
9.288,-0.03045
9.292,-0.00408
9.296,-0.03395
9.3,-0.01992
9.304,-0.0175
9.308,-0.01387
9.312,-0.01898
9.316,-0.03089
9.32,-0.00978
9.324,-0.0021
9.328,-0.01286
9.332,-0.0244
9.336,-0.02147
9.34,0.01117
9.344,-0.02998
9.348,0.00335
9.352,-0.00293
9.356,-0.01531
9.36,-0.02224
9.364,0.02016
9.368,-0.01225
9.372,0.01753
9.376,0.02045
9.38,0.03636
9.384,0.05667
9.388,0.06466
9.392,0.07361
9.396,0.08172
9.4,0.09898
9.404,0.07043
9.408,0.06425
9.412,0.08987
9.416,0.06965
9.42,0.04268
9.424,0.0382
9.428,0.02317
9.432,0.02134
9.436,-0.01705
9.44,0.00306
9.444,0.0147
9.448,-0.01488
9.452,-0.00439
9.456,-0.02166
9.46,-0.02515
9.464,-0.02739
9.468,-0.0162
9.472,-0.01066
9.476,-0.00959
9.48,-0.02641
9.484,-0.01191
9.488,-0.03218
9.492,-0.02774
9.496,-0.003
9.5,-0.02719
9.504,-0.02496
9.508,-0.03357
9.512,-0.00729
9.516,-0.03054
9.52,-0.04726
9.524,-0.10158
9.528,-0.11265
9.532,-0.11967
9.536,-0.04823
9.54,0.07616
9.544,0.22026
9.548,0.44895
9.552,0.66705
9.556,0.82987
9.56,0.95241
9.564,0.96158
9.568,0.87162
9.572,0.66179
9.576,0.43239
9.58,0.21355
9.584,0.04393
9.588,-0.10858
9.592,-0.161
9.596,-0.19259
9.6,-0.16512
9.604,-0.11327
9.608,-0.08139
9.612,-0.06602
9.616,-0.03831
9.62,-0.03275
9.624,-0.02613
9.628,-0.0034
9.632,-0.02743
9.636,-0.0156
9.64,-0.02934
9.644,-0.00912
9.648,-0.0162
9.652,-0.00235
9.656,-0.01848
9.66,-0.01253
9.664,-0.04181
9.668,-0.01951
9.672,-0.02634
9.676,-0.00982
9.68,-0.03999
9.684,-0.0295
9.688,-0.03437
9.692,-0.03473
9.696,-0.0391
9.7,-0.02822
9.704,-0.02281
9.708,-0.00944
9.712,-0.02679
9.716,-0.05647
9.72,-0.01583
9.724,0.00758
9.728,-0.02142
9.732,-0.0301
9.736,0.00595
9.74,-0.03557
9.744,0.00872
9.748,0.00785
9.752,0.01942
9.756,0.00567
9.76,0.02065
9.764,-0.00061
9.768,0.03538
9.772,0.04546
9.776,0.02196
9.78,0.05972
9.784,0.06652
9.788,0.10319
9.792,0.07846
9.796,0.10508
9.8,0.11746
9.804,0.14031
9.808,0.12448
9.812,0.16407
9.816,0.15325
9.82,0.16492
9.824,0.18607
9.828,0.20258
9.832,0.20198
9.836,0.19276
9.84,0.17636
9.844,0.20537
9.848,0.19686
9.852,0.17471
9.856,0.19045
9.86,0.17776
9.864,0.16806
9.868,0.13792
9.872,0.1597
9.876,0.15893
9.88,0.1256
9.884,0.11161
9.888,0.12218
9.892,0.07522
9.896,0.06122
9.9,0.0762
9.904,0.02921
9.908,0.06324
9.912,0.01809
9.916,0.05443
9.92,0.02258
9.924,0.02791
9.928,-0.00957
9.932,0.02435
9.936,-0.03505
9.94,0.02637
9.944,-0.02178
9.948,-0.0072
9.952,-0.01023
9.956,-0.00115
9.96,-0.0392
9.964,-0.02502
9.968,-0.01305
9.972,-0.02691
9.976,-0.0063
9.98,-0.02212
9.984,-0.03464
9.988,-0.02685
9.992,-0.04158
9.996,-0.03493
