t_seg,ecg_mV
0.0,0.00512
0.004,-0.00634
0.008,0.01891
0.012,0.02879
0.016,0.01655
0.02,0.01429
0.024,0.00592
0.028,0.0212
0.032,0.01891
0.036,0.00419
0.04,0.0084
0.044,0.0071
0.048,0.01976
0.052,-0.01315
0.056,0.03072
0.06,0.01884
0.064,0.008
0.068,0.00915
0.072,0.01114
0.076,0.01497
0.08,0.00756
0.084,0.00388
0.088,0.03514
0.092,0.00568
0.096,0.02607
0.1,0.00684
0.104,0.01682
0.108,0.02288
0.112,0.0298
0.116,0.02982
0.12,0.02109
0.124,0.00978
0.128,0.00409
0.132,0.02765
0.136,0.02179
0.14,0.0434
0.144,0.00091
0.148,-0.0086
0.152,0.00361
0.156,0.00648
0.16,0.02429
0.164,0.01568
0.168,0.01387
0.172,0.00882
0.176,0.00721
0.18,0.01176
0.184,0.01674
0.188,-0.02368
0.192,-0.00131
0.196,0.01271
0.2,0.00544
0.204,0.03251
0.208,0.01731
0.212,0.01717
0.216,0.00594
0.22,0.0098
0.224,0.01054
0.228,0.00789
0.232,0.02219
0.236,0.0297
0.24,0.00947
0.244,-0.0026
0.248,0.02437
0.252,0.02328
0.256,-0.00869
0.26,-0.01686
0.264,0.02009
0.268,0.00648
0.272,0.02116
0.276,0.00902
0.28,-0.00706
0.284,0.018
0.288,0.00147
0.292,0.04899
0.296,0.00971
0.3,0.0136
0.304,0.00956
0.308,0.00391
0.312,0.00606
0.316,-0.00424
0.32,0.02698
0.324,0.03685
0.328,0.01697
0.332,0.00703
0.336,0.03077
0.34,0.03281
0.344,0.04482
0.348,0.07356
0.352,0.07662
0.356,0.10579
0.36,0.10653
0.364,0.11134
0.368,0.11399
0.372,0.12988
0.376,0.09849
0.38,0.09311
0.384,0.10308
0.388,0.06665
0.392,0.06668
0.396,0.05139
0.4,0.02808
0.404,0.02807
0.408,0.02727
0.412,0.03421
0.416,0.01651
0.42,-0.00715
0.424,0.01073
0.428,0.0054
0.432,0.02406
0.436,0.01124
0.44,0.01228
0.444,-0.02201
0.448,-0.00389
0.452,-0.02135
0.456,0.00186
0.46,0.00525
0.464,0.00234
0.468,-0.0134
0.472,-0.02844
0.476,-0.03407
0.48,-0.02103
0.484,-0.03113
0.488,-0.05403
0.492,-0.07879
0.496,-0.09665
0.5,-0.08817
0.504,-0.01312
0.508,0.11801
0.512,0.31257
0.516,0.50911
0.52,0.70835
0.524,0.87698
0.528,1.00018
0.532,0.95412
0.536,0.85458
0.54,0.65648
0.544,0.43024
0.548,0.18924
0.552,0.01405
0.556,-0.08987
0.56,-0.17034
0.564,-0.16771
0.568,-0.14922
0.572,-0.08685
0.576,-0.05439
0.58,-0.01654
0.584,-0.02397
0.588,0.01888
0.592,-0.01491
0.596,0.00207
0.6,0.01281
0.604,0.00248
0.608,-0.00436
0.612,-0.0046
0.616,0.01015
0.62,0.00533
0.624,-0.01361
0.628,-0.02216
0.632,0.00097
0.636,0.02721
0.64,0.00659
0.644,0.00339
0.648,0.01356
0.652,0.01806
0.656,-0.00588
0.66,-0.01399
0.664,-0.0023
0.668,-0.01616
0.672,-0.0037
0.676,0.0284
0.68,-0.02141
0.684,-0.01122
0.688,0.00831
0.692,-0.00479
0.696,0.01228
0.7,0.01245
0.704,-0.02521
0.708,0.01315
0.712,0.04496
0.716,0.02842
0.72,0.02276
0.724,0.05408
0.728,0.0477
0.732,0.0509
0.736,0.05698
0.74,0.06058
0.744,0.09457
0.748,0.08022
0.752,0.09453
0.756,0.10525
0.76,0.13085
0.764,0.1163
0.768,0.14664
0.772,0.15074
0.776,0.1851
0.78,0.17099
0.784,0.18642
0.788,0.17115
0.792,0.18908
0.796,0.20115
0.8,0.2303
0.804,0.20846
0.808,0.22162
0.812,0.2167
0.816,0.20876
0.82,0.20334
0.824,0.20769
0.828,0.18448
0.832,0.17672
0.836,0.17854
0.84,0.18543
0.844,0.15199
0.848,0.15271
0.852,0.13106
0.856,0.11373
0.86,0.11841
0.864,0.11326
0.868,0.10913
0.872,0.06007
0.876,0.06822
0.88,0.06924
0.884,0.06602
0.888,0.04831
0.892,0.03574
0.896,0.02173
0.9,0.03288
0.904,0.03665
0.908,0.00166
0.912,0.00669
0.916,0.02412
0.92,0.01174
0.924,-0.01275
0.928,0.01405
0.932,-0.0038
0.936,-0.03058
0.94,0.00154
0.944,-0.01061
0.948,-0.0207
0.952,-0.01117
0.956,0.02229
0.96,-0.01853
0.964,-0.00962
0.968,-0.03002
0.972,-0.00216
0.976,0.00593
0.98,-0.05419
0.984,-0.02297
0.988,0.00401
0.992,-0.01797
0.996,-0.03589
1.0,-0.02117
1.004,0.00111
1.008,-0.03222
1.012,0.00943
1.016,-0.02377
1.02,-0.00485
1.024,0.00554
1.028,0.00622
1.032,-0.0147
1.036,-0.01801
1.04,0.01384
1.044,-0.03224
1.048,0.03072
1.052,-0.00948
1.056,-0.02356
1.06,-0.00718
1.064,-0.00597
1.068,0.00506
1.072,-0.0139
1.076,-0.01316
1.08,-0.00484
1.084,0.01365
1.088,0.01344
1.092,-0.03553
1.096,-0.00348
1.1,-0.00607
1.104,0.02911
1.108,-0.0193
1.112,-0.00361
1.116,-0.02924
1.12,-0.01696
1.124,-0.01008
1.128,-0.01764
1.132,-0.00833
1.136,0.00671
1.14,-0.02583
1.144,-0.01189
1.148,-0.03478
1.152,-0.0426
1.156,-0.00794
1.16,-0.02721
1.164,-0.01602
1.168,0.01124
1.172,0.00827
1.176,-0.00073
1.18,0.02037
1.184,0.0075
1.188,-0.01149
1.192,0.01862
1.196,0.02153
1.2,0.03778
1.204,0.02709
1.208,0.02
1.212,0.0547
1.216,0.05037
1.22,0.08188
1.224,0.10909
1.228,0.09149
1.232,0.09383
1.236,0.09112
1.24,0.07632
1.244,0.05765
1.248,0.05746
1.252,0.04056
1.256,0.04129
1.26,0.03187
1.264,-0.01411
1.268,0.01803
1.272,0.00704
1.276,-0.02052
1.28,-0.03304
1.284,-0.02568
1.288,-0.02305
1.292,-0.01819
1.296,-0.00819
1.3,-0.01702
1.304,-0.02392
1.308,-0.04262
1.312,0.0183
1.316,-0.04734
1.32,-0.02838
1.324,-0.00191
1.328,-0.03078
1.332,-0.02617
1.336,-0.03987
1.34,-0.01093
1.344,-0.01445
1.348,-0.08418
1.352,-0.12774
1.356,-0.13568
1.36,-0.07717
1.364,-0.02086
1.368,0.10813
1.372,0.30602
1.376,0.50419
1.38,0.70899
1.384,0.93723
1.388,0.98164
1.392,0.94669
1.396,0.82831
1.4,0.62018
1.404,0.36605
1.408,0.16349
1.412,-0.0288
1.416,-0.11859
1.42,-0.18237
1.424,-0.19628
1.428,-0.15208
1.432,-0.10675
1.436,-0.07633
1.44,-0.07481
1.444,-0.05366
1.448,-0.02296
1.452,-0.01295
1.456,-0.01147
1.46,-0.04196
1.464,-0.01207
1.468,-0.02941
1.472,-0.03859
1.476,-0.02537
1.48,-0.02293
1.484,-0.01531
1.488,-0.0235
1.492,-0.02862
1.496,-0.02648
1.5,-0.02635
1.504,-0.0264
1.508,-0.01509
1.512,-0.03294
1.516,-0.02657
1.52,0.0099
1.524,-0.02158
1.528,-0.00955
1.532,-0.03725
1.536,-0.02412
1.54,0.00285
1.544,-0.01686
1.548,-0.00073
1.552,-0.02214
1.556,-0.00225
1.56,0.00786
1.564,-0.03325
1.568,-0.0169
1.572,0.00712
1.576,0.0298
1.58,0.01857
1.584,-0.00026
1.588,0.02533
1.592,0.04495
1.596,0.03386
1.6,0.04057
1.604,0.06818
1.608,0.05732
1.612,0.05587
1.616,0.09064
1.62,0.10161
1.624,0.10523
1.628,0.11212
1.632,0.12278
1.636,0.16001
1.64,0.16083
1.644,0.16497
1.648,0.16673
1.652,0.19117
1.656,0.17651
1.66,0.19287
1.664,0.16319
1.668,0.1756
1.672,0.19262
1.676,0.20579
1.68,0.19719
1.684,0.18971
1.688,0.17122
1.692,0.19785
1.696,0.17947
1.7,0.15343
1.704,0.16495
1.708,0.1454
1.712,0.11824
1.716,0.09307
1.72,0.07515
1.724,0.05605
1.728,0.05107
1.732,0.05055
1.736,0.04312
1.74,0.07267
1.744,0.03296
1.748,0.04224
1.752,0.00984
1.756,0.00729
1.76,0.00583
1.764,-0.00693
1.768,-0.0082
1.772,-0.00951
1.776,-0.01761
1.78,-0.01449
1.784,-0.03341
1.788,-0.02519
1.792,-0.0349
1.796,-0.03154
1.8,0.00104
1.804,-0.02904
1.808,-0.01722
1.812,-0.02287
1.816,-0.03301
1.82,-0.01714
1.824,-0.0333
1.828,-0.0437
1.832,-0.04115
1.836,-0.04459
1.84,-0.01048
1.844,-0.02642
1.848,-0.0365
1.852,-0.02
1.856,-0.00678
1.86,-0.01498
1.864,-0.04133
1.868,-0.02103
1.872,-0.05798
1.876,-0.0413
1.88,-0.0193
1.884,-0.03459
1.888,-0.03428
1.892,-0.01024
1.896,-0.00511
1.9,-0.04725
1.904,-0.05166
1.908,-0.043
1.912,-0.05185
1.916,-0.05086
1.92,0.00246
1.924,-0.02232
1.928,-0.02603
1.932,-0.01195
1.936,-0.04124
1.94,-0.04919
1.944,-0.01431
1.948,-0.03913
1.952,-0.00691
1.956,-0.04837
1.96,-0.03752
1.964,-0.03049
1.968,-0.041
1.972,-0.02896
1.976,0.01038
1.98,-0.01905
1.984,-0.04578
1.988,-0.0327
1.992,-0.04222
1.996,-0.02438
2.0,0.0062
2.004,-0.01794
2.008,-0.04082
2.012,-0.02844
2.016,-0.04201
2.02,-0.03224
2.024,-0.02305
2.028,-0.04647
2.032,0.00474
2.036,0.00311
2.04,-0.01266
2.044,-0.03853
2.048,-0.04418
2.052,-0.0186
2.056,-0.04617
2.06,-0.02306
2.064,-0.0302
2.068,0.00474
2.072,0.00926
2.076,-0.00428
2.08,0.03167
2.084,0.04906
2.088,0.08742
2.092,0.05166
2.096,0.06538
2.1,0.0843
2.104,0.06672
2.108,0.06503
2.112,0.04037
2.116,0.03724
2.12,0.01323
2.124,0.01055
2.128,0.01659
2.132,-0.02364
2.136,-0.01008
2.14,-0.01861
2.144,-0.02751
2.148,-0.01484
2.152,-0.02244
2.156,-0.03984
2.16,-0.02784
2.164,-0.04521
2.168,-0.01587
2.172,-0.01475
2.176,-0.0408
2.18,-0.03015
2.184,-0.05069
2.188,0.00268
2.192,-0.01531
2.196,-0.04663
2.2,-0.02843
2.204,-0.01577
2.208,-0.0114
2.212,-0.03969
2.216,-0.09105
2.22,-0.10337
2.224,-0.11856
2.228,-0.17193
2.232,-0.10788
2.236,0.01541
2.24,0.17644
2.244,0.35684
2.248,0.56868
2.252,0.8085
2.256,0.93539
2.26,0.99025
2.264,0.9159
2.268,0.73928
2.272,0.54214
2.276,0.28761
2.28,0.10113
2.284,-0.0674
2.288,-0.15741
2.292,-0.22839
2.296,-0.1961
2.3,-0.1538
2.304,-0.10621
2.308,-0.09124
2.312,-0.03288
2.316,-0.03572
2.32,-0.04539
2.324,-0.04208
2.328,-0.00727
2.332,-0.03532
2.336,-0.05384
2.34,-0.01666
2.344,-0.02711
2.348,-0.05524
2.352,-0.04939
2.356,-0.01664
2.36,-0.03247
2.364,-0.03258
2.368,-0.00012
2.372,-0.03921
2.376,-0.02066
2.38,-0.01962
2.384,-0.00534
2.388,-0.02689
2.392,-0.03682
2.396,-0.03791
2.4,-0.03134
2.404,-0.02812
2.408,-0.02537
2.412,-0.03638
2.416,-0.03057
2.42,-0.02238
2.424,0.02142
2.428,-0.01493
2.432,-0.02571
2.436,-0.00754
2.44,-0.04098
2.444,0.01756
2.448,-0.00918
2.452,0.00596
2.456,0.02376
2.46,0.00616
2.464,0.0119
2.468,0.02712
2.472,0.03609
2.476,0.06494
2.48,0.0876
2.484,0.03853
2.488,0.09953
2.492,0.09874
2.496,0.11941
2.5,0.09943
2.504,0.14852
2.508,0.15824
2.512,0.15963
2.516,0.15053
2.52,0.15297
2.524,0.20383
2.528,0.20824
2.532,0.20345
2.536,0.19203
2.54,0.17939
2.544,0.20131
2.548,0.16871
2.552,0.18736
2.556,0.18662
2.56,0.16682
2.564,0.15734
2.568,0.16093
2.572,0.16674
2.576,0.14275
2.58,0.13178
2.584,0.09681
2.588,0.10507
2.592,0.0742
2.596,0.07407
2.6,0.08674
2.604,0.07307
2.608,0.04327
2.612,0.01481
2.616,0.04495
2.62,0.0318
2.624,-0.00124
2.628,0.02139
2.632,-0.01288
2.636,-0.01952
2.64,-0.0104
2.644,-0.02019
2.648,-0.00715
2.652,-0.04218
2.656,-0.03403
2.66,-0.02412
2.664,-0.0267
2.668,0.00155
2.672,-0.00525
2.676,-0.02531
2.68,-0.01504
2.684,-0.0182
2.688,-0.01433
2.692,-0.00556
2.696,-0.01822
2.7,-0.02184
2.704,-0.01586
2.708,-0.0355
2.712,-0.03041
2.716,-0.03941
2.72,-0.02033
2.724,0.0083
2.728,-0.00445
2.732,-0.0224
2.736,-0.05076
2.74,-0.01469
2.744,-0.03057
2.748,-0.02589
2.752,-0.04512
2.756,-0.02432
2.76,-0.0121
2.764,-0.00354
2.768,-0.01413
2.772,-0.04379
2.776,-0.01727
2.78,-0.03656
2.784,-0.00822
2.788,-0.02733
2.792,-0.00855
2.796,-0.04964
2.8,-0.00911
2.804,-0.01614
2.808,-0.02169
2.812,-0.01271
2.816,-0.0374
2.82,-0.04806
2.824,-0.01815
2.828,-0.00773
2.832,-0.00187
2.836,-0.01824
2.84,-0.00565
2.844,-0.04651
2.848,-0.04066
2.852,-0.02283
2.856,-0.03465
2.86,-0.02386
2.864,-0.0412
2.868,-0.05467
2.872,-0.03691
2.876,-0.00407
2.88,-0.02091
2.884,-0.05181
2.888,-0.02986
2.892,-0.0162
2.896,-0.02713
2.9,-0.01096
2.904,-0.03078
2.908,-0.03299
2.912,-0.02111
2.916,-0.05945
2.92,-0.02328
2.924,-0.03213
2.928,-0.03099
2.932,-0.02469
2.936,-0.03425
2.94,-0.01966
2.944,-0.03739
2.948,-0.03999
2.952,-0.00181
2.956,-0.02969
2.96,-0.02729
2.964,-0.03421
2.968,-0.00045
2.972,-0.01324
2.976,-0.00291
2.98,0.0045
2.984,-0.00148
2.988,0.05318
2.992,0.05102
2.996,0.03509
3.0,0.04148
3.004,0.06517
3.008,0.0768
3.012,0.1073
3.016,0.07981
3.02,0.06123
3.024,0.06271
3.028,0.04214
3.032,0.05888
3.036,0.00777
3.04,-0.02024
3.044,-0.01793
3.048,0.0119
3.052,-0.00552
3.056,-0.02185
3.06,-0.01764
3.064,-0.03547
3.068,-0.01496
3.072,-0.04626
3.076,-0.0106
3.08,-0.01657
3.084,-0.0178
3.088,-0.02501
3.092,-0.01274
3.096,-0.04209
3.1,-0.01471
3.104,-0.03262
3.108,-0.01985
3.112,-0.02266
3.116,-0.0142
3.12,-0.04924
3.124,-0.02194
3.128,-0.04872
3.132,-0.08014
3.136,-0.12129
3.14,-0.15934
3.144,-0.09827
3.148,-0.02144
3.152,0.12365
3.156,0.36132
3.16,0.55602
3.164,0.77491
3.168,0.91038
3.172,0.9923
3.176,0.92369
3.18,0.76906
3.184,0.54376
3.188,0.30248
3.192,0.12322
3.196,-0.04082
3.2,-0.15974
3.204,-0.18426
3.208,-0.16369
3.212,-0.14826
3.216,-0.11618
3.22,-0.07187
3.224,-0.03326
3.228,-0.02249
3.232,-0.01437
3.236,-0.0351
3.24,-0.03732
3.244,-0.03435
3.248,-0.04011
3.252,-0.03081
3.256,-0.02874
3.26,-0.03322
3.264,-0.00337
3.268,-0.02547
3.272,0.00703
3.276,-0.0519
3.28,-0.01103
3.284,-0.01755
3.288,-0.02843
3.292,-0.01922
3.296,-0.03201
3.3,-0.03292
3.304,-0.00448
3.308,0.02431
3.312,-0.01879
3.316,-0.01869
3.32,-0.03146
3.324,-0.01247
3.328,-0.00689
3.332,-0.04302
3.336,0.00721
3.34,0.01184
3.344,-0.00457
3.348,0.00941
3.352,-0.01575
3.356,0.01654
3.36,0.00338
3.364,0.00417
3.368,0.00528
3.372,0.0243
3.376,0.04794
3.38,0.05392
3.384,0.04792
3.388,0.07012
3.392,0.09353
3.396,0.06641
3.4,0.09547
3.404,0.11035
3.408,0.14487
3.412,0.12651
3.416,0.14346
3.42,0.16639
3.424,0.16837
3.428,0.16708
3.432,0.18861
3.436,0.18376
3.44,0.19002
3.444,0.19288
3.448,0.21588
3.452,0.18573
3.456,0.21194
3.46,0.18253
3.464,0.19851
3.468,0.18406
3.472,0.20393
3.476,0.17685
3.48,0.1756
3.484,0.1554
3.488,0.12537
3.492,0.14541
3.496,0.14409
3.5,0.11106
3.504,0.07843
3.508,0.06858
3.512,0.06124
3.516,0.07837
3.52,0.0514
3.524,0.06042
3.528,0.0412
3.532,0.02617
3.536,0.02073
3.54,0.02764
3.544,0.03171
3.548,0.00154
3.552,0.02285
3.556,-0.02652
3.56,-0.01539
3.564,0.01252
3.568,-0.03289
3.572,-0.02901
3.576,-0.00483
3.58,-0.0081
3.584,-0.01223
3.588,-0.01077
3.592,-0.00164
3.596,-0.02482
3.6,-0.00412
3.604,-0.0126
3.608,-0.02793
3.612,0.01971
3.616,0.01452
3.62,-0.03194
3.624,-0.01076
3.628,-0.00121
3.632,-0.01989
3.636,-0.03086
3.64,-0.01189
3.644,-0.01556
3.648,0.00062
3.652,0.03392
3.656,0.04923
3.66,0.05565
3.664,0.02905
3.668,0.03105
3.672,0.06694
3.676,0.07056
3.68,0.08191
3.684,0.10267
3.688,0.08235
3.692,0.08179
3.696,0.07596
3.7,0.05618
3.704,0.05689
3.708,0.04985
3.712,0.05046
3.716,0.05768
3.72,-0.00186
3.724,0.01246
3.728,0.02474
3.732,-0.00181
3.736,-0.01726
3.74,0.00193
3.744,0.00831
3.748,-0.01532
3.752,-0.02148
3.756,-0.00994
3.76,-0.00047
3.764,-0.01815
3.768,-0.01437
3.772,-0.01359
3.776,0.02356
3.78,0.0215
3.784,-0.00511
3.788,-0.01914
3.792,-0.00346
3.796,-0.02228
3.8,-0.01694
3.804,-0.02684
3.808,-0.10283
3.812,-0.10077
3.816,-0.12508
3.82,-0.04186
3.824,0.08908
3.828,0.24393
3.832,0.47865
3.836,0.66501
3.84,0.8869
3.844,0.98797
3.848,1.00003
3.852,0.85894
3.856,0.67902
3.86,0.44489
3.864,0.23021
3.868,0.02525
3.872,-0.11822
3.876,-0.1443
3.88,-0.16921
3.884,-0.14943
3.888,-0.09883
3.892,-0.06924
3.896,-0.03549
3.9,-0.00216
3.904,0.00166
3.908,0.00467
3.912,-0.00302
3.916,0.00481
3.92,-0.0249
3.924,-0.00955
3.928,0.01497
3.932,0.00087
3.936,-0.01609
3.94,-0.00432
3.944,-0.00802
3.948,0.00866
3.952,0.00794
3.956,0.00965
3.96,0.02823
3.964,0.01053
3.968,-0.00095
3.972,-0.00027
3.976,0.01093
3.98,-0.00472
3.984,0.00957
3.988,0.00653
3.992,-0.00866
3.996,-0.01811
4.0,-0.01856
4.004,0.0029
4.008,0.00074
4.012,0.00254
4.016,0.00962
4.02,0.03082
4.024,0.02791
4.028,0.02273
4.032,0.05606
4.036,0.02005
4.04,0.03519
4.044,0.02047
4.048,0.06039
4.052,0.04979
4.056,0.081
4.06,0.09387
4.064,0.09825
4.068,0.09623
4.072,0.09937
4.076,0.1408
4.08,0.15139
4.084,0.13213
4.088,0.1418
4.092,0.18655
4.096,0.22001
4.1,0.16148
4.104,0.19234
4.108,0.21501
4.112,0.19999
4.116,0.2341
4.12,0.24837
4.124,0.20585
4.128,0.19267
4.132,0.23528
4.136,0.21545
4.14,0.22492
4.144,0.20316
4.148,0.21206
4.152,0.16475
4.156,0.17183
4.16,0.17943
4.164,0.16097
4.168,0.13071
4.172,0.1353
4.176,0.11636
4.18,0.10334
4.184,0.10037
4.188,0.06554
4.192,0.04862
4.196,0.05605
4.2,0.07388
4.204,0.06656
4.208,0.06318
4.212,0.0761
4.216,0.05434
4.22,0.01828
4.224,0.0266
4.228,0.0345
4.232,0.00115
4.236,0.01542
4.24,0.01796
4.244,0.00441
4.248,-0.02149
4.252,0.03215
4.256,0.04307
4.26,0.01638
4.264,0.01215
4.268,0.00991
4.272,0.00758
4.276,0.02389
4.28,0.00453
4.284,0.01676
4.288,0.01481
4.292,0.01792
4.296,0.033
4.3,0.00947
4.304,0.03056
4.308,-0.00026
4.312,0.02637
4.316,0.00936
4.32,0.01854
4.324,0.00214
4.328,-0.00761
4.332,0.01535
4.336,0.01005
4.34,0.02807
4.344,0.03368
4.348,0.00962
4.352,0.0188
4.356,0.05999
4.36,0.05191
4.364,0.07987
4.368,0.08318
4.372,0.07426
4.376,0.10364
4.38,0.08797
4.384,0.1178
4.388,0.11261
4.392,0.07982
4.396,0.10061
4.4,0.08224
4.404,0.0722
4.408,0.05414
4.412,0.05018
4.416,0.02831
4.42,0.05687
4.424,0.02442
4.428,0.00309
4.432,0.00097
4.436,0.00742
4.44,0.02156
4.444,0.00711
4.448,0.00757
4.452,0.02392
4.456,0.00182
4.46,-0.00514
4.464,0.01045
4.468,0.00674
4.472,0.04557
4.476,0.01693
4.48,0.00995
4.484,0.00372
4.488,0.02359
4.492,-0.01014
4.496,-0.0017
4.5,-0.00097
4.504,-0.06215
4.508,-0.12046
4.512,-0.10807
4.516,-0.0901
4.52,0.0734
4.524,0.24546
4.528,0.39845
4.532,0.63686
4.536,0.84026
4.54,0.95878
4.544,1.01551
4.548,0.92796
4.552,0.77174
4.556,0.55275
4.56,0.31435
4.564,0.1195
4.568,-0.02378
4.572,-0.12835
4.576,-0.15782
4.58,-0.11825
4.584,-0.11032
4.588,-0.04783
4.592,-0.01227
4.596,0.00657
4.6,0.03844
4.604,-0.00324
4.608,0.01535
4.612,0.02991
4.616,-0.00877
4.62,0.03544
4.624,0.01005
4.628,0.036
4.632,0.00155
4.636,0.01037
4.64,0.01158
4.644,-0.00112
4.648,-0.00231
4.652,0.00273
4.656,0.02711
4.66,0.03584
4.664,0.00569
4.668,0.02053
4.672,0.02381
4.676,0.04554
4.68,0.00942
4.684,0.04269
4.688,0.01204
4.692,0.01141
4.696,0.0599
4.7,0.02915
4.704,0.05494
4.708,0.02999
4.712,0.03055
4.716,0.02297
4.72,0.07332
4.724,0.04188
4.728,0.07131
4.732,0.0477
4.736,0.05539
4.74,0.06657
4.744,0.05131
4.748,0.08741
4.752,0.06828
4.756,0.05946
4.76,0.10643
4.764,0.10668
4.768,0.13062
4.772,0.14347
4.776,0.15065
4.78,0.16401
4.784,0.16403
4.788,0.17909
4.792,0.18948
4.796,0.19494
4.8,0.21164
4.804,0.22997
4.808,0.213
4.812,0.25196
4.816,0.25897
4.82,0.2166
4.824,0.21288
4.828,0.229
4.832,0.24828
4.836,0.2103
4.84,0.23872
4.844,0.20619
4.848,0.20077
4.852,0.21725
4.856,0.17415
4.86,0.17311
4.864,0.14626
4.868,0.16684
4.872,0.20331
4.876,0.12663
4.88,0.11881
4.884,0.10074
4.888,0.13796
4.892,0.08486
4.896,0.07273
4.9,0.08826
4.904,0.07843
4.908,0.05716
4.912,0.08507
4.916,0.04627
4.92,0.05277
4.924,0.0422
4.928,0.00711
4.932,0.04919
4.936,0.03681
4.94,0.01331
4.944,0.01408
4.948,0.06585
4.952,0.04207
4.956,-0.02678
4.96,0.01578
4.964,0.01113
4.968,0.02424
4.972,0.01792
4.976,0.00703
4.98,0.02802
4.984,0.02219
4.988,0.03079
4.992,0.04398
4.996,0.007
5.0,0.01906
5.004,0.04546
5.008,0.00148
5.012,0.05565
5.016,0.02541
5.02,0.01318
5.024,0.04032
5.028,0.02019
5.032,0.03367
5.036,0.0322
5.04,0.04829
5.044,0.05179
5.048,0.06129
5.052,0.09148
5.056,0.07846
5.06,0.06557
5.064,0.09997
5.068,0.08402
5.072,0.1531
5.076,0.13733
5.08,0.09383
5.084,0.1081
5.088,0.12769
5.092,0.11255
5.096,0.13409
5.1,0.08363
5.104,0.09299
5.108,0.06967
5.112,0.04958
5.116,0.04656
5.12,0.03459
5.124,0.04007
5.128,0.03182
5.132,0.03746
5.136,0.04471
5.14,0.02911
5.144,0.01044
5.148,0.02189
5.152,0.02716
5.156,0.03003
5.16,0.0212
5.164,0.01279
5.168,0.00687
5.172,0.02384
5.176,0.03388
5.18,0.02315
5.184,0.01578
5.188,0.02751
5.192,0.01394
5.196,-0.00017
5.2,-0.03868
5.204,-0.07114
5.208,-0.07329
5.212,-0.05815
5.216,0.0024
5.22,0.15577
5.224,0.34689
5.228,0.54911
5.232,0.73044
5.236,0.90596
5.24,1.03991
5.244,0.99979
5.248,0.87173
5.252,0.67036
5.256,0.45851
5.26,0.23019
5.264,0.04979
5.268,-0.04287
5.272,-0.11648
5.276,-0.13551
5.28,-0.06368
5.284,-0.01424
5.288,-0.04411
5.292,0.00312
5.296,0.02532
5.3,0.01762
5.304,0.03086
5.308,0.04528
5.312,0.02326
5.316,0.04119
5.32,0.01325
5.324,0.02222
5.328,0.04103
5.332,0.00797
5.336,0.06035
5.34,0.04476
5.344,0.04378
5.348,0.01734
5.352,0.02457
5.356,0.02888
5.36,0.01173
5.364,0.03229
5.368,0.04178
5.372,0.03756
5.376,0.0413
5.38,0.05163
5.384,0.02795
5.388,0.03026
5.392,0.0322
5.396,0.04865
5.4,0.05325
5.404,0.04185
5.408,0.02545
5.412,0.0587
5.416,0.04738
5.42,0.04334
5.424,0.04272
5.428,0.03207
5.432,0.06006
5.436,0.05785
5.44,0.07885
5.444,0.05038
5.448,0.08217
5.452,0.09393
5.456,0.12941
5.46,0.09928
5.464,0.12506
5.468,0.13582
5.472,0.15875
5.476,0.1751
5.48,0.16547
5.484,0.1856
5.488,0.20372
5.492,0.21164
5.496,0.21052
5.5,0.21741
5.504,0.21172
5.508,0.24557
5.512,0.24551
5.516,0.26471
5.52,0.25056
5.524,0.23594
5.528,0.25852
5.532,0.26989
5.536,0.22238
5.54,0.21666
5.544,0.21821
5.548,0.21864
5.552,0.2103
5.556,0.19285
5.56,0.19181
5.564,0.16712
5.568,0.14756
5.572,0.13366
5.576,0.13221
5.58,0.12116
5.584,0.08639
5.588,0.11479
5.592,0.12274
5.596,0.07989
5.6,0.07491
5.604,0.07536
5.608,0.0756
5.612,0.04385
5.616,0.03755
5.62,0.02817
5.624,0.03623
5.628,0.0337
5.632,0.0556
5.636,0.03437
5.64,0.03718
5.644,0.06845
5.648,0.0399
5.652,0.02633
5.656,0.04185
5.66,0.03581
5.664,0.01846
5.668,0.03224
5.672,0.02231
5.676,0.02935
5.68,0.04251
5.684,0.06109
5.688,0.02895
5.692,0.0195
5.696,0.04942
5.7,0.05366
5.704,0.0117
5.708,0.03303
5.712,0.02419
5.716,0.01805
5.72,0.04625
5.724,0.05528
5.728,0.04031
5.732,0.00029
5.736,0.04063
5.74,0.03221
5.744,0.02256
5.748,0.03151
5.752,0.05075
5.756,0.01672
5.76,0.05034
5.764,0.05093
5.768,0.00729
5.772,0.04416
5.776,0.04549
5.78,0.03528
5.784,0.06258
5.788,0.03928
5.792,0.0475
5.796,0.04029
5.8,0.03997
5.804,0.02982
5.808,0.0033
5.812,0.01787
5.816,0.03926
5.82,0.02528
5.824,0.05013
5.828,0.0608
5.832,0.04752
5.836,0.01597
5.84,0.03644
5.844,0.06033
5.848,0.05248
5.852,0.03245
5.856,0.08351
5.86,0.06828
5.864,0.08077
5.868,0.09761
5.872,0.13267
5.876,0.11309
5.88,0.13634
5.884,0.13885
5.888,0.1191
5.892,0.15127
5.896,0.11279
5.9,0.08812
5.904,0.07858
5.908,0.08944
5.912,0.07615
5.916,0.05264
5.92,0.06289
5.924,0.03613
5.928,0.04197
5.932,0.02692
5.936,0.02706
5.94,0.03373
5.944,0.00157
5.948,0.01351
5.952,0.02138
5.956,0.02879
5.96,0.04021
5.964,0.02501
5.968,0.04096
5.972,0.01257
5.976,0.05261
5.98,0.01605
5.984,0.02124
5.988,0.05222
5.992,0.0267
5.996,0.03111
6.0,-0.0057
6.004,-0.03763
6.008,-0.09476
6.012,-0.07827
6.016,-0.03166
6.02,0.07644
6.024,0.29177
6.028,0.4988
6.032,0.71262
6.036,0.90073
6.04,0.98656
6.044,1.01711
6.048,0.90045
6.052,0.71872
6.056,0.52304
6.06,0.25429
6.064,0.08345
6.068,-0.0292
6.072,-0.12931
6.076,-0.13129
6.08,-0.11902
6.084,-0.09342
6.088,-0.02425
6.092,0.0076
6.096,0.0053
6.1,0.01025
6.104,0.00442
6.108,0.01938
6.112,-0.01328
6.116,0.03031
6.12,0.01901
6.124,0.04936
6.128,-0.00173
6.132,0.01939
6.136,0.03325
6.14,0.01212
6.144,-0.00924
6.148,0.04358
6.152,0.04246
6.156,0.02229
6.16,0.01794
6.164,0.01599
6.168,0.0176
6.172,0.05177
6.176,0.02381
6.18,0.01354
6.184,0.03035
6.188,0.01047
6.192,0.0349
6.196,0.02859
6.2,0.02271
6.204,0.00277
6.208,0.00079
6.212,0.03918
6.216,0.01638
6.22,0.03643
6.224,0.0532
6.228,0.03852
6.232,0.06498
6.236,0.06254
6.24,0.06837
6.244,0.06847
6.248,0.06829
6.252,0.09333
6.256,0.12252
6.26,0.11908
6.264,0.1443
6.268,0.12139
6.272,0.12837
6.276,0.15974
6.28,0.17777
6.284,0.18282
6.288,0.18709
6.292,0.20392
6.296,0.22947
6.3,0.23811
6.304,0.19264
6.308,0.24158
6.312,0.20979
6.316,0.28527
6.32,0.26231
6.324,0.26822
6.328,0.25372
6.332,0.2112
6.336,0.24053
6.34,0.22095
6.344,0.23036
6.348,0.19312
6.352,0.2299
6.356,0.2024
6.36,0.20345
6.364,0.16442
6.368,0.16496
6.372,0.1495
6.376,0.13782
6.38,0.11152
6.384,0.10129
6.388,0.11316
6.392,0.10853
6.396,0.06052
6.4,0.08207
6.404,0.05673
6.408,0.05933
6.412,0.05402
6.416,0.04803
6.42,0.03101
6.424,0.04343
6.428,0.02451
6.432,0.02823
6.436,0.02199
6.44,0.02546
6.444,0.04074
6.448,0.042
6.452,0.04343
6.456,0.03551
6.46,0.03166
6.464,0.02556
6.468,0.02416
6.472,0.02441
6.476,0.00463
6.48,-0.00115
6.484,0.01236
6.488,0.04313
6.492,0.03507
6.496,0.00179
6.5,0.0224
6.504,0.02505
6.508,0.02195
6.512,0.03714
6.516,0.01761
6.52,0.00474
6.524,-0.00629
6.528,0.00973
6.532,0.01754
6.536,0.04384
6.54,0.01164
6.544,0.05276
6.548,0.04325
6.552,0.03261
6.556,-0.01336
6.56,0.015
6.564,0.0183
6.568,0.00915
6.572,0.03279
6.576,0.00147
6.58,0.01708
6.584,0.01629
6.588,0.02441
6.592,0.03739
6.596,0.02588
6.6,0.00418
6.604,0.03715
6.608,0.01253
6.612,0.03299
6.616,0.03805
6.62,0.04905
6.624,-0.01781
6.628,0.01337
6.632,0.03164
6.636,-0.01492
6.64,0.06004
6.644,0.04007
6.648,0.03173
6.652,0.03927
6.656,0.01577
6.66,0.00036
6.664,0.01293
6.668,0.0071
6.672,0.00433
6.676,0.01009
6.68,0.00392
6.684,0.00785
6.688,0.00932
6.692,0.03364
6.696,0.01331
6.7,0.0241
6.704,0.01942
6.708,0.02818
6.712,0.00116
6.716,0.03106
6.72,0.04299
6.724,0.03966
6.728,0.07022
6.732,0.0583
6.736,0.07053
6.74,0.05932
6.744,0.09451
6.748,0.09252
6.752,0.08746
6.756,0.11244
6.76,0.09298
6.764,0.08082
6.768,0.10896
6.772,0.1253
6.776,0.08773
6.78,0.06247
6.784,0.05387
6.788,0.02064
6.792,-0.00033
6.796,-0.00508
6.8,0.03951
6.804,0.04703
6.808,0.00916
6.812,0.03808
6.816,0.02081
6.82,0.03015
6.824,0.01476
6.828,0.01575
6.832,0.02627
6.836,0.03379
6.84,0.03777
6.844,0.01606
6.848,0.03184
6.852,0.00984
6.856,0.01997
6.86,0.01071
6.864,0.01479
6.868,0.01639
6.872,0.00252
6.876,-0.02863
6.88,-0.05139
6.884,-0.07759
6.888,-0.1124
6.892,-0.05838
6.896,0.07862
6.9,0.24979
6.904,0.42126
6.908,0.66707
6.912,0.85887
6.916,0.99954
6.92,0.99614
6.924,0.92336
6.928,0.71236
6.932,0.50097
6.936,0.2744
6.94,0.06705
6.944,-0.04555
6.948,-0.12405
6.952,-0.16128
6.956,-0.12543
6.96,-0.10158
6.964,-0.05361
6.968,-0.03445
6.972,-0.00199
6.976,-0.00383
6.98,0.01736
6.984,0.00684
6.988,-0.01247
6.992,0.02368
6.996,0.01295
7.0,0.0008
7.004,0.01705
7.008,0.0284
7.012,0.00519
7.016,0.00745
7.02,0.00193
7.024,0.01468
7.028,0.00223
7.032,0.01599
7.036,-0.00595
7.04,-0.01515
7.044,0.0029
7.048,-0.00611
7.052,-0.00883
7.056,0.03009
7.06,0.00301
7.064,0.00729
7.068,-0.00236
7.072,0.00622
7.076,0.00538
7.08,0.03475
7.084,-0.00642
7.088,0.0082
7.092,0.03129
7.096,0.00598
7.1,0.01594
7.104,0.04008
7.108,0.03655
7.112,0.0578
7.116,0.04903
7.12,0.06402
7.124,0.04008
7.128,0.08559
7.132,0.10392
7.136,0.09524
7.14,0.09623
7.144,0.12709
7.148,0.11189
7.152,0.16209
7.156,0.14536
7.16,0.14444
7.164,0.1417
7.168,0.18418
7.172,0.18097
7.176,0.22652
7.18,0.18535
7.184,0.22398
7.188,0.22028
7.192,0.20883
7.196,0.22457
7.2,0.21512
7.204,0.23595
7.208,0.25016
7.212,0.229
7.216,0.20547
7.22,0.16671
7.224,0.19623
7.228,0.18159
7.232,0.17664
7.236,0.14191
7.24,0.15386
7.244,0.14918
7.248,0.14331
7.252,0.09988
7.256,0.10238
7.26,0.06501
7.264,0.08842
7.268,0.07762
7.272,0.0569
7.276,0.06222
7.28,0.02542
7.284,0.02805
7.288,0.04318
7.292,0.03671
7.296,0.04982
7.3,-0.00021
7.304,0.01201
7.308,0.00814
7.312,-0.0076
7.316,-0.01249
7.32,0.0272
7.324,0.00419
7.328,-0.01587
7.332,0.01324
7.336,0.01053
7.34,-0.02636
7.344,-0.01456
7.348,0.02285
7.352,-0.00295
7.356,-0.02696
7.36,-0.02982
7.364,0.0147
7.368,0.01425
7.372,-0.00425
7.376,0.00687
7.38,-0.00593
7.384,0.01666
7.388,-0.01171
7.392,-0.01022
7.396,-0.00771
7.4,-0.01621
7.404,0.01207
7.408,0.02025
7.412,0.01465
7.416,-0.02644
7.42,-0.00112
7.424,-0.03192
7.428,-0.01626
7.432,-0.00233
7.436,-0.00313
7.44,-0.01452
7.444,-0.00665
7.448,0.00053
7.452,0.02781
7.456,-0.02042
7.46,0.00411
7.464,-0.01019
7.468,-0.01351
7.472,0.00263
7.476,0.01473
7.48,-0.01624
7.484,0.01964
7.488,-0.01024
7.492,-0.01523
7.496,-0.01707
7.5,-0.02956
7.504,0.00649
7.508,0.00487
7.512,-0.01386
7.516,0.00135
7.52,0.00925
7.524,-0.00077
7.528,0.01083
7.532,0.00252
7.536,0.00177
7.54,-0.01876
7.544,-0.01534
7.548,0.00433
7.552,-0.00097
7.556,-0.02007
7.56,-0.03963
7.564,-0.00888
7.568,-0.00154
7.572,-0.03041
7.576,0.00349
7.58,-0.00129
7.584,-0.02973
7.588,-0.03105
7.592,0.01092
7.596,0.00705
7.6,-0.00202
7.604,0.01972
7.608,0.04159
7.612,0.02081
7.616,0.05623
7.62,0.05223
7.624,0.06937
7.628,0.10602
7.632,0.11182
7.636,0.09537
7.64,0.0693
7.644,0.0751
7.648,0.0796
7.652,0.0607
7.656,0.05457
7.66,0.05758
7.664,0.03809
7.668,0.00027
7.672,0.01261
7.676,0.02426
7.68,-0.00475
7.684,-0.00775
7.688,-0.00638
7.692,-0.00191
7.696,-0.0045
7.7,-0.02792
7.704,0.02539
7.708,-0.01468
7.712,0.01765
7.716,-0.03984
7.72,-0.01358
7.724,-0.02597
7.728,0.01205
7.732,0.0007
7.736,-0.00979
7.74,-0.01991
7.744,-0.00102
7.748,-0.01798
7.752,-0.03353
7.756,-0.08061
7.76,-0.10323
7.764,-0.13957
7.768,-0.1009
7.772,-0.01272
7.776,0.13311
7.78,0.35142
7.784,0.5586
7.788,0.77221
7.792,0.93101
7.796,1.019
7.8,0.94554
7.804,0.79205
7.808,0.56917
7.812,0.34638
7.816,0.14036
7.82,-0.02646
7.824,-0.10799
7.828,-0.18653
7.832,-0.14796
7.836,-0.11152
7.84,-0.1115
7.844,-0.06273
7.848,-0.0313
7.852,-0.01677
7.856,-0.02777
7.86,-0.0211
7.864,-0.02446
7.868,0.01236
7.872,-0.00625
7.876,-0.02171
7.88,0.0102
7.884,7e-05
7.888,-0.01414
7.892,-0.03072
7.896,0.0056
7.9,-0.01461
7.904,-0.00477
7.908,-0.01353
7.912,-0.02001
7.916,-0.02595
7.92,-0.02234
7.924,-0.04646
7.928,-0.01009
7.932,-0.00101
7.936,-0.01047
7.94,-0.02906
7.944,-0.01583
7.948,-0.00147
7.952,0.01486
7.956,-0.00583
7.96,-0.01074
7.964,-0.00574
7.968,0.00829
7.972,0.01472
7.976,-0.01467
7.98,0.01131
7.984,0.03491
7.988,0.0177
7.992,-0.01795
7.996,0.05175
8.0,0.0262
8.004,0.03045
8.008,0.06361
8.012,0.08507
8.016,0.09293
8.02,0.06978
8.024,0.08166
8.028,0.10257
8.032,0.11408
8.036,0.14736
8.04,0.13529
8.044,0.15844
8.048,0.18964
8.052,0.15608
8.056,0.18855
8.06,0.17978
8.064,0.14764
8.068,0.20154
8.072,0.20713
8.076,0.21345
8.08,0.19202
8.084,0.20428
8.088,0.19916
8.092,0.1803
8.096,0.1979
8.1,0.18104
8.104,0.12542
8.108,0.17308
8.112,0.15586
8.116,0.12132
8.12,0.10874
8.124,0.09873
8.128,0.09554
8.132,0.08943
8.136,0.03837
8.14,0.04142
8.144,0.03513
8.148,0.03612
8.152,0.03185
8.156,0.03688
8.16,0.00542
8.164,0.0165
8.168,0.0089
8.172,0.00455
8.176,0.00219
8.18,-0.00535
8.184,-0.02367
8.188,0.00098
8.192,-0.02092
8.196,-0.00987
8.2,-0.04686
8.204,-0.01654
8.208,-0.0354
8.212,-0.02585
8.216,-0.02024
8.22,0.0
8.224,-0.02168
8.228,-0.0355
8.232,-0.02607
8.236,-0.0013
8.24,-0.02793
8.244,0.01356
8.248,-0.01728
8.252,0.00666
8.256,-0.01337
8.26,-0.0096
8.264,-0.01765
8.268,-0.03769
8.272,-0.02892
8.276,0.00203
8.28,-0.00571
8.284,-0.01138
8.288,0.00672
8.292,0.02404
8.296,0.034
8.3,0.05127
8.304,0.07399
8.308,0.08925
8.312,0.07591
8.316,0.0855
8.32,0.06353
8.324,0.04502
8.328,0.04792
8.332,0.06226
8.336,0.05855
8.34,0.03006
8.344,-0.01488
8.348,-0.00268
8.352,-0.00842
8.356,-0.02017
8.36,-0.00797
8.364,-0.01748
8.368,-0.0232
8.372,-0.02224
8.376,-0.04901
8.38,-0.03356
8.384,-0.0531
8.388,-0.03035
8.392,-0.02133
8.396,-0.02835
8.4,-0.04479
8.404,-0.04328
8.408,-0.04646
8.412,-0.00646
8.416,-0.04503
8.42,-0.02964
8.424,-0.04493
8.428,-0.03055
8.432,-0.07269
8.436,-0.13334
8.44,-0.14291
8.444,-0.15956
8.448,-0.08712
8.452,0.03229
8.456,0.23006
8.46,0.41459
8.464,0.62194
8.468,0.8094
8.472,0.95246
8.476,0.99631
8.48,0.87169
8.484,0.69717
8.488,0.47408
8.492,0.2341
8.496,0.06107
8.5,-0.12184
8.504,-0.16023
8.508,-0.1935
8.512,-0.14004
8.516,-0.14723
8.52,-0.10174
8.524,-0.0806
8.528,-0.03347
8.532,-0.0389
8.536,-0.03412
8.54,-0.03524
8.544,-0.04344
8.548,-0.02574
8.552,-0.02178
8.556,-0.03116
8.56,-0.02604
8.564,-0.01797
8.568,-0.04346
8.572,-0.04311
8.576,-0.02911
8.58,-0.02557
8.584,-0.05501
8.588,-0.01818
8.592,-0.04787
8.596,-0.0161
8.6,-0.03626
8.604,-0.00316
8.608,-0.01536
8.612,-0.02927
8.616,-0.04087
8.62,0.0009
8.624,-0.04189
8.628,-0.04442
8.632,-0.0351
8.636,-0.03199
8.64,-0.00527
8.644,0.00136
8.648,0.01405
8.652,0.00176
8.656,-0.03233
8.66,0.00659
8.664,0.03337
8.668,-0.00464
8.672,0.01395
8.676,0.02232
8.68,0.04687
8.684,0.01974
8.688,0.04811
8.692,0.06135
8.696,0.02647
8.7,0.08737
8.704,0.10995
8.708,0.08083
8.712,0.12581
8.716,0.15496
8.72,0.11542
8.724,0.15657
8.728,0.1606
8.732,0.15652
8.736,0.17237
8.74,0.16591
8.744,0.17845
8.748,0.19691
8.752,0.19489
8.756,0.207
8.76,0.16426
8.764,0.15509
8.768,0.20502
8.772,0.18573
8.776,0.16566
8.78,0.15177
8.784,0.1356
8.788,0.16065
8.792,0.153
8.796,0.07894
8.8,0.11627
8.804,0.09578
8.808,0.08594
8.812,0.0814
8.816,0.07432
8.82,0.04196
8.824,0.04329
8.828,0.02656
8.832,0.00177
8.836,-0.00466
8.84,0.00109
8.844,0.01431
8.848,-0.03096
8.852,-0.00843
8.856,0.00236
8.86,-0.01672
8.864,-0.0329
8.868,-0.00935
8.872,0.00957
8.876,-0.00717
8.88,-0.02762
8.884,-0.02851
8.888,-0.03222
8.892,-0.02297
8.896,-0.01588
8.9,-0.0195
8.904,-0.0168
8.908,-0.03668
8.912,-0.02879
8.916,-0.02129
8.92,-0.02974
8.924,-0.03325
8.928,-0.02983
8.932,-0.02204
8.936,-0.05218
8.94,-0.04318
8.944,-0.01461
8.948,-0.02614
8.952,-0.04398
8.956,-0.01857
8.96,-0.02557
8.964,-0.04332
8.968,-0.05194
8.972,-0.05117
8.976,-0.05606
8.98,-0.04119
8.984,-0.00797
8.988,-0.05001
8.992,-0.02704
8.996,-0.02857
9.0,-0.02211
9.004,-0.02743
9.008,-0.02955
9.012,-0.04346
9.016,-0.01433
9.02,-0.02854
9.024,-0.00798
9.028,-0.02307
9.032,-0.03002
9.036,-0.02111
9.04,-0.02715
9.044,-0.03313
9.048,-0.01451
9.052,-0.0288
9.056,0.01039
9.06,0.00138
9.064,0.00215
9.068,0.02492
9.072,0.03111
9.076,0.0338
9.08,0.0434
9.084,0.08308
9.088,0.08217
9.092,0.07257
9.096,0.07354
9.1,0.0422
9.104,0.06593
9.108,0.02237
9.112,0.05827
9.116,0.02148
9.12,0.00498
9.124,0.00551
9.128,-0.02397
9.132,-0.0021
9.136,-0.02649
9.14,-0.04771
9.144,-0.0337
9.148,-0.03678
9.152,-0.01646
9.156,-0.03226
9.16,0.00793
9.164,-0.06007
9.168,-0.01001
9.172,-0.03041
9.176,-0.03308
9.18,-0.01174
9.184,-0.02108
9.188,-0.01363
9.192,-0.04863
9.196,-0.06905
9.2,-0.02229
9.204,-0.03708
9.208,-0.06514
9.212,-0.08506
9.216,-0.1202
9.22,-0.15129
9.224,-0.12933
9.228,-0.0525
9.232,0.0685
9.236,0.26867
9.24,0.47056
9.244,0.68785
9.248,0.86817
9.252,0.95866
9.256,0.94776
9.26,0.81856
9.264,0.63791
9.268,0.39587
9.272,0.16514
9.276,0.00334
9.28,-0.15241
9.284,-0.20261
9.288,-0.17243
9.292,-0.16451
9.296,-0.11697
9.3,-0.07514
9.304,-0.0593
9.308,-0.05549
9.312,-0.05393
9.316,-0.02927
9.32,-0.01942
9.324,-0.01723
9.328,-0.02058
9.332,-0.02187
9.336,-0.01217
9.34,-0.03531
9.344,-0.00148
9.348,-0.02131
9.352,-0.04791
9.356,-0.02462
9.36,-0.00079
9.364,-0.02822
9.368,-0.02684
9.372,-0.04238
9.376,-0.03593
9.38,-0.00614
9.384,-0.0331
9.388,-0.0129
9.392,-0.02394
9.396,-0.03655
9.4,-2e-05
9.404,-0.03311
9.408,-0.05187
9.412,-0.02672
9.416,-0.01734
9.42,-0.02068
9.424,-0.01237
9.428,-0.02167
9.432,-0.00205
9.436,-0.00371
9.44,-0.00861
9.444,0.01904
9.448,0.02217
9.452,0.02803
9.456,0.04288
9.46,0.01231
9.464,0.07095
9.468,0.04863
9.472,0.07347
9.476,0.09869
9.48,0.09235
9.484,0.07346
9.488,0.07352
9.492,0.11741
9.496,0.1196
9.5,0.13278
9.504,0.14797
9.508,0.1756
9.512,0.20896
9.516,0.1964
9.52,0.18635
9.524,0.22592
9.528,0.2009
9.532,0.18462
9.536,0.17849
9.54,0.19108
9.544,0.16601
9.548,0.13763
9.552,0.1655
9.556,0.1739
9.56,0.16498
9.564,0.14193
9.568,0.14057
9.572,0.1254
9.576,0.11299
9.58,0.10843
9.584,0.06966
9.588,0.09303
9.592,0.07399
9.596,0.05673
9.6,0.05853
9.604,0.03813
9.608,0.0502
9.612,0.02352
9.616,0.02743
9.62,0.02245
9.624,0.00123
9.628,0.02204
9.632,-0.01778
9.636,-0.00691
9.64,-0.00492
9.644,0.01721
9.648,-0.02101
9.652,-0.03327
9.656,-0.03381
9.66,-0.0114
9.664,-0.02431
9.668,-0.01937
9.672,-0.00483
9.676,-0.01596
9.68,-0.01549
9.684,-0.04335
9.688,0.01262
9.692,-0.03509
9.696,-0.01464
9.7,-0.04738
9.704,-0.00517
9.708,-0.02867
9.712,-0.01668
9.716,-0.0391
9.72,-0.03548
9.724,-0.04179
9.728,-0.03304
9.732,-0.0356
9.736,-0.0351
9.74,-0.00178
9.744,-0.02254
9.748,-0.02169
9.752,-0.01809
9.756,-0.04825
9.76,-0.00805
9.764,-0.00954
9.768,-0.00935
9.772,-0.01615
9.776,-0.01055
9.78,-0.00213
9.784,-0.01072
9.788,-0.02512
9.792,-0.03383
9.796,-0.03832
9.8,-0.04143
9.804,-0.02704
9.808,-0.0414
9.812,-0.02968
9.816,-0.04288
9.82,-0.01431
9.824,-0.0451
9.828,-0.02998
9.832,-0.02244
9.836,-0.0006
9.84,-0.04237
9.844,-0.02486
9.848,-0.026
9.852,-0.04775
9.856,-0.01032
9.86,-0.02416
9.864,-0.04183
9.868,-0.02731
9.872,-0.01393
9.876,-0.02406
9.88,-0.05457
9.884,-0.00646
9.888,-0.00681
9.892,-0.04448
9.896,-0.00036
9.9,0.01506
9.904,-0.00628
9.908,-0.02156
9.912,-0.00391
9.916,-0.00723
9.92,-0.04288
9.924,-0.02136
9.928,-0.01181
9.932,0.01127
9.936,-0.00296
9.94,-0.00989
9.944,-0.03092
9.948,-0.01441
9.952,-0.01639
9.956,0.01241
9.96,-0.02912
9.964,-0.01544
9.968,-0.01678
9.972,-0.02329
9.976,0.01358
9.98,-0.02489
9.984,-0.0231
9.988,-0.01523
9.992,-0.03719
9.996,-0.01109
