t_seg,ecg_mV
0.0,0.01056
0.004,0.00546
0.008,0.00122
0.012,0.02343
0.016,0.05269
0.02,0.01757
0.024,0.00606
0.028,-0.02451
0.032,0.02073
0.036,0.04755
0.04,-0.00167
0.044,0.02472
0.048,0.10045
0.052,0.00272
0.056,0.06516
0.06,-0.03804
0.064,0.02754
0.068,0.00483
0.072,0.00454
0.076,0.03589
0.08,0.06065
0.084,-0.04318
0.088,0.04462
0.092,0.03534
0.096,-0.03259
0.1,0.02509
0.104,0.00701
0.108,0.07711
0.112,0.02811
0.116,-0.02062
0.12,0.02456
0.124,0.03278
0.128,0.04827
0.132,0.0278
0.136,0.08625
0.14,0.02051
0.144,0.00814
0.148,0.11535
0.152,-0.01638
0.156,0.04762
0.16,-0.00611
0.164,0.06897
0.168,-0.00222
0.172,0.05263
0.176,0.00686
0.18,0.04716
0.184,-0.00758
0.188,0.01239
0.192,0.06029
0.196,0.02896
0.2,0.06927
0.204,0.02974
0.208,0.07876
0.212,0.06783
0.216,0.0026
0.22,0.06165
0.224,0.02663
0.228,0.08729
0.232,0.07749
0.236,0.02048
0.24,0.03333
0.244,0.03103
0.248,-0.01255
0.252,0.00686
0.256,0.06076
0.26,0.09243
0.264,0.00642
0.268,0.12316
0.272,0.06793
0.276,-0.06031
0.28,0.02059
0.284,-0.00798
0.288,-0.0175
0.292,0.04799
0.296,0.05088
0.3,0.08016
0.304,0.06629
0.308,0.03
0.312,-0.01703
0.316,-0.01019
0.32,-0.0713
0.324,0.06905
0.328,-0.01926
0.332,0.00484
0.336,-0.06416
0.34,0.04948
0.344,-0.02449
0.348,0.0179
0.352,0.04261
0.356,0.00837
0.36,0.05208
0.364,0.05513
0.368,-0.00918
0.372,0.0686
0.376,0.06743
0.38,0.05841
0.384,0.02734
0.388,0.14842
0.392,0.08136
0.396,0.11221
0.4,0.09329
0.404,0.12588
0.408,0.0891
0.412,0.07817
0.416,0.12133
0.42,0.12993
0.424,0.14502
0.428,0.18283
0.432,0.04036
0.436,0.02119
0.44,0.03901
0.444,0.07429
0.448,0.07454
0.452,0.07372
0.456,0.00818
0.46,0.08195
0.464,0.01527
0.468,0.0453
0.472,0.03741
0.476,0.07268
0.48,0.05839
0.484,0.0141
0.488,0.02438
0.492,0.02828
0.496,0.03356
0.5,0.02608
0.504,0.00732
0.508,0.05444
0.512,0.02178
0.516,0.02859
0.52,-0.00842
0.524,-0.00976
0.528,-0.03942
0.532,-0.08874
0.536,-0.12571
0.54,-0.07323
0.544,0.04683
0.548,0.27259
0.552,0.39798
0.556,0.69764
0.56,0.90576
0.564,1.0209
0.568,0.98734
0.572,0.95627
0.576,0.77275
0.58,0.54843
0.584,0.21592
0.588,0.10369
0.592,-0.07105
0.596,-0.1373
0.6,-0.15237
0.604,-0.10514
0.608,-0.13028
0.612,0.00358
0.616,-0.00807
0.62,0.01408
0.624,0.04324
0.628,0.01454
0.632,0.0099
0.636,0.06966
0.64,0.03075
0.644,-0.04415
0.648,0.04676
0.652,0.03495
0.656,0.03953
0.66,-0.03632
0.664,0.01469
0.668,-0.02253
0.672,-0.01249
0.676,0.01704
0.68,-0.006
0.684,-0.01274
0.688,0.00694
0.692,0.02402
0.696,0.09633
0.7,0.06917
0.704,0.0023
0.708,0.07624
0.712,0.0009
0.716,0.01986
0.72,0.03607
0.724,0.06332
0.728,0.03582
0.732,0.0077
0.736,0.05349
0.74,0.03902
0.744,0.03916
0.748,0.08889
0.752,0.01717
0.756,0.07205
0.76,0.06045
0.764,0.07092
0.768,0.03891
0.772,0.0765
0.776,0.15015
0.78,0.04329
0.784,0.13282
0.788,0.17188
0.792,0.09586
0.796,0.09557
0.8,0.1739
0.804,0.17969
0.808,0.13529
0.812,0.19282
0.816,0.23336
0.82,0.20329
0.824,0.17965
0.828,0.24529
0.832,0.23277
0.836,0.26127
0.84,0.20802
0.844,0.22067
0.848,0.28054
0.852,0.22791
0.856,0.25158
0.86,0.25643
0.864,0.2457
0.868,0.20507
0.872,0.25819
0.876,0.22381
0.88,0.21347
0.884,0.15395
0.888,0.21557
0.892,0.12288
0.896,0.1429
0.9,0.08799
0.904,0.13901
0.908,0.10532
0.912,0.03137
0.916,0.16544
0.92,0.08443
0.924,0.03142
0.928,0.04092
0.932,0.03252
0.936,0.06598
0.94,0.01224
0.944,0.06356
0.948,0.01244
0.952,0.0734
0.956,0.0463
0.96,0.09436
0.964,0.03169
0.968,0.06112
0.972,0.08293
0.976,0.01676
0.98,0.05139
0.984,0.03736
0.988,0.06205
0.992,0.00628
0.996,0.05263
1.0,0.09591
1.004,0.09597
1.008,0.14733
1.012,0.14172
1.016,0.11237
1.02,0.06013
1.024,0.16821
1.028,0.07027
1.032,0.06759
1.036,0.03942
1.04,0.0714
1.044,0.02122
1.048,0.02164
1.052,0.02278
1.056,0.03345
1.06,-0.00905
1.064,0.025
1.068,0.05895
1.072,0.0312
1.076,-0.06401
1.08,0.01823
1.084,-0.00115
1.088,0.09703
1.092,0.01139
1.096,-0.00332
1.1,0.03022
1.104,0.04545
1.108,0.0126
1.112,0.02487
1.116,-0.03584
1.12,0.01467
1.124,-0.00053
1.128,0.04944
1.132,-0.01769
1.136,-0.05609
1.14,-0.05253
1.144,-0.0858
1.148,-0.09158
1.152,0.0604
1.156,0.11922
1.16,0.29095
1.164,0.49501
1.168,0.71983
1.172,0.91901
1.176,1.00324
1.18,0.99977
1.184,0.8696
1.188,0.67213
1.192,0.46188
1.196,0.22797
1.2,0.06269
1.204,-0.09837
1.208,-0.20024
1.212,-0.17545
1.216,-0.14494
1.22,-0.08462
1.224,-0.08698
1.228,-0.06361
1.232,-0.02514
1.236,0.05221
1.24,-0.04333
1.244,0.03294
1.248,0.07076
1.252,-0.00014
1.256,0.06576
1.26,0.04551
1.264,0.00678
1.268,0.0114
1.272,0.00988
1.276,0.01302
1.28,0.05331
1.284,0.04501
1.288,0.03361
1.292,-0.02633
1.296,0.02605
1.3,0.10026
1.304,-0.03452
1.308,0.0258
1.312,-0.02494
1.316,0.02479
1.32,0.06214
1.324,0.05806
1.328,0.02681
1.332,-0.02054
1.336,0.02726
1.34,0.02538
1.344,0.0259
1.348,0.06089
1.352,0.06115
1.356,0.04031
1.36,0.0362
1.364,0.01431
1.368,0.05275
1.372,0.09684
1.376,0.07014
1.38,0.04944
1.384,0.01277
1.388,0.04475
1.392,0.06143
1.396,0.11363
1.4,0.13644
1.404,0.19296
1.408,0.15523
1.412,0.1181
1.416,0.11654
1.42,0.27413
1.424,0.20675
1.428,0.21211
1.432,0.23355
1.436,0.26941
1.44,0.21839
1.444,0.30987
1.448,0.30715
1.452,0.332
1.456,0.3979
1.46,0.38722
1.464,0.35313
1.468,0.2986
1.472,0.2774
1.476,0.19639
1.48,0.22349
1.484,0.16692
1.488,0.26415
1.492,0.1854
1.496,0.15405
1.5,0.15621
1.504,0.11413
1.508,0.11831
1.512,0.00855
1.516,0.10672
1.52,0.07989
1.524,0.06125
1.528,0.07063
1.532,0.09542
1.536,-0.00885
1.54,0.04479
1.544,0.02528
1.548,0.02658
1.552,0.04051
1.556,-0.03787
1.56,-0.03538
1.564,0.09198
1.568,0.0433
1.572,0.02348
1.576,-0.09248
1.58,-0.01144
1.584,-0.15046
1.588,-0.07355
1.592,0.0219
1.596,0.12968
1.6,0.42947
1.604,0.60336
1.608,0.77186
1.612,0.9285
1.616,1.01709
1.62,0.98034
1.624,0.79843
1.628,0.5545
1.632,0.34098
1.636,0.10947
1.64,-0.04218
1.644,-0.13006
1.648,-0.15254
1.652,-0.14693
1.656,-0.10513
1.66,-0.11116
1.664,-0.01996
1.668,-0.00826
1.672,0.02898
1.676,-0.01642
1.68,0.00546
1.684,0.01012
1.688,0.02127
1.692,-0.04124
1.696,-0.01978
1.7,-0.00322
1.704,0.01678
1.708,-0.00845
1.712,0.00323
1.716,-0.02875
1.72,-0.07417
1.724,0.03108
1.728,0.03003
1.732,0.02225
1.736,-0.02824
1.74,-0.02954
1.744,0.00328
1.748,-0.03587
1.752,0.06662
1.756,-0.04749
1.76,0.03019
1.764,0.08902
1.768,0.0018
1.772,-0.00924
1.776,-0.0309
1.78,-0.01109
1.784,-0.05046
1.788,0.06006
1.792,-0.02989
1.796,-0.03771
1.8,0.02129
1.804,-0.02688
1.808,0.01518
1.812,0.0748
1.816,0.07237
1.82,0.03888
1.824,0.06058
1.828,0.07866
1.832,0.02885
1.836,0.13861
1.84,0.10707
1.844,0.11118
1.848,0.12556
1.852,0.14847
1.856,0.18438
1.86,0.14687
1.864,0.18949
1.868,0.18489
1.872,0.2003
1.876,0.1571
1.88,0.2147
1.884,0.20945
1.888,0.20402
1.892,0.24685
1.896,0.17446
1.9,0.21063
1.904,0.2064
1.908,0.28779
1.912,0.18916
1.916,0.22103
1.92,0.12441
1.924,0.15962
1.928,0.12373
1.932,0.16089
1.936,0.14196
1.94,0.21525
1.944,0.21349
1.948,0.2198
1.952,0.14571
1.956,0.21829
1.96,0.17719
1.964,0.17373
1.968,0.30151
1.972,0.22635
1.976,0.14078
1.98,0.06567
1.984,0.06971
1.988,0.09939
1.992,0.07704
1.996,0.03352
2.0,0.04126
2.004,0.02647
2.008,-0.02336
2.012,-0.0588
2.016,-0.01471
2.02,0.02928
2.024,0.02421
2.028,0.01836
2.032,-0.09272
2.036,-0.00966
2.04,-0.06106
2.044,-0.0875
2.048,0.01934
2.052,-0.10135
2.056,-0.00178
2.06,-0.05644
2.064,-0.03981
2.068,-0.04383
2.072,0.01696
2.076,0.0147
2.08,-0.00685
2.084,-0.09035
2.088,-0.13582
2.092,-0.12751
2.096,-0.09626
2.1,-0.07057
2.104,0.16534
2.108,0.31493
2.112,0.53696
2.116,0.69067
2.12,0.89598
2.124,0.9624
2.128,0.97387
2.132,0.84196
2.136,0.65654
2.14,0.37614
2.144,0.16094
2.148,-0.011
2.152,-0.16247
2.156,-0.16116
2.16,-0.18357
2.164,-0.1667
2.168,-0.08766
2.172,-0.05467
2.176,-0.03971
2.18,0.01965
2.184,-0.01861
2.188,-0.02236
2.192,-0.0066
2.196,-0.04398
2.2,-0.12841
2.204,-0.00601
2.208,-0.05241
2.212,-0.05709
2.216,-0.05678
2.22,-0.01623
2.224,0.01437
2.228,0.00043
2.232,-0.04193
2.236,-0.04946
2.24,-0.0062
2.244,-0.02934
2.248,-0.05561
2.252,-0.01139
2.256,-0.02684
2.26,-0.10273
2.264,-0.07012
2.268,-0.02915
2.272,-0.03443
2.276,-0.04619
2.28,-0.00152
2.284,0.03636
2.288,-0.0304
2.292,0.07062
2.296,-0.00891
2.3,0.01763
2.304,0.05545
2.308,0.05241
2.312,0.03009
2.316,0.00151
2.32,0.12063
2.324,0.06676
2.328,0.06973
2.332,0.0321
2.336,0.12952
2.34,0.11594
2.344,0.14008
2.348,0.10821
2.352,0.21977
2.356,0.25283
2.36,0.20981
2.364,0.22545
2.368,0.21051
2.372,0.24822
2.376,0.25859
2.38,0.22566
2.384,0.16508
2.388,0.26882
2.392,0.19129
2.396,0.2296
2.4,0.26341
2.404,0.25145
2.408,0.21527
2.412,0.20925
2.416,0.22735
2.42,0.16408
2.424,0.1346
2.428,0.14303
2.432,0.15648
2.436,0.13587
2.44,0.17108
2.444,0.11029
2.448,0.10512
2.452,0.1032
2.456,0.12497
2.46,0.0685
2.464,0.08218
2.468,0.08118
2.472,0.00547
2.476,-0.02187
2.48,-0.05351
2.484,-0.07747
2.488,-0.06772
2.492,0.08672
2.496,0.20145
2.5,0.47075
2.504,0.6611
2.508,0.77369
2.512,0.94566
2.516,0.99772
2.52,0.90673
2.524,0.70922
2.528,0.50269
2.532,0.28673
2.536,0.08447
2.54,-0.09873
2.544,-0.17246
2.548,-0.25104
2.552,-0.18263
2.556,-0.11032
2.56,-0.03919
2.564,-0.15263
2.568,-0.00337
2.572,0.00437
2.576,-0.01567
2.58,-0.04703
2.584,0.01065
2.588,-0.01332
2.592,-0.00248
2.596,-0.05543
2.6,0.04989
2.604,0.0612
2.608,0.06799
2.612,0.10353
2.616,0.07175
2.62,0.14929
2.624,0.0478
2.628,0.11653
2.632,0.05285
2.636,0.02896
2.64,0.02092
2.644,-0.05507
2.648,0.06664
2.652,-0.03469
2.656,-0.05783
2.66,-0.02948
2.664,-0.03943
2.668,0.0251
2.672,-0.03416
2.676,-0.03903
2.68,0.01416
2.684,0.01957
2.688,-0.05257
2.692,0.00811
2.696,-0.04123
2.7,0.00752
2.704,0.00906
2.708,-0.028
2.712,0.03971
2.716,0.01881
2.72,0.03933
2.724,0.03519
2.728,0.08594
2.732,-0.01493
2.736,0.06545
2.74,-0.00491
2.744,0.02289
2.748,-0.04163
2.752,0.01139
2.756,0.15987
2.76,0.28349
2.764,0.48077
2.768,0.65188
2.772,0.92076
2.776,1.11067
2.78,1.18384
2.784,1.14946
2.788,0.96221
2.792,0.84657
2.796,0.6859
2.8,0.35998
2.804,0.18993
2.808,0.05973
2.812,-0.02381
2.816,-1e-05
2.82,0.01625
2.824,0.01717
2.828,0.0832
2.832,0.10203
2.836,0.17031
2.84,0.08052
2.844,0.04568
2.848,0.06193
2.852,0.08886
2.856,0.08921
2.86,0.05111
2.864,0.05908
2.868,0.04212
2.872,0.07196
2.876,0.01771
2.88,0.00688
2.884,0.01026
2.888,0.04491
2.892,0.01319
2.896,-0.03964
2.9,0.05122
2.904,-0.02681
2.908,-0.0373
2.912,-0.00293
2.916,-0.0196
2.92,-0.00874
2.924,0.0092
2.928,0.01468
2.932,-0.03943
2.936,-0.0195
2.94,-0.00302
2.944,-0.0436
2.948,0.00431
2.952,-0.08056
2.956,-0.00642
2.96,-0.08159
2.964,-0.04434
2.968,0.00526
2.972,0.0156
2.976,0.02068
2.98,-0.00623
2.984,0.01576
2.988,0.00295
2.992,0.02181
2.996,0.04403
3.0,0.02166
3.004,0.12503
3.008,0.1287
3.012,0.10741
3.016,0.1106
3.02,0.05916
3.024,0.08795
3.028,0.08885
3.032,0.14366
3.036,0.14839
3.04,0.21178
3.044,0.15325
3.048,0.1847
3.052,0.19113
3.056,0.19483
3.06,0.20362
3.064,0.26217
3.068,0.21107
3.072,0.22765
3.076,0.16788
3.08,0.21918
3.084,0.20919
3.088,0.17427
3.092,0.2278
3.096,0.16801
3.1,0.18307
3.104,0.16342
3.108,0.21616
3.112,0.19335
3.116,0.19746
3.12,0.14605
3.124,0.11053
3.128,0.07084
3.132,0.06092
3.136,0.03452
3.14,0.05332
3.144,0.00214
3.148,0.08007
3.152,0.02769
3.156,-0.01334
3.16,0.03272
3.164,0.01469
3.168,-0.00201
3.172,-0.00535
3.176,-0.00244
3.18,-0.07557
3.184,-0.0338
3.188,0.03595
3.192,0.00713
3.196,0.00234
3.2,0.00593
3.204,-0.05599
3.208,-0.03488
3.212,-0.02952
3.216,-0.06035
3.22,-0.03621
3.224,-0.0292
3.228,-0.05904
3.232,-0.11271
3.236,-0.15319
3.24,-0.18699
3.244,-0.11222
3.248,-0.03671
3.252,0.15206
3.256,0.33543
3.26,0.62642
3.264,0.7625
3.268,0.98295
3.272,0.95416
3.276,0.91862
3.28,0.70224
3.284,0.58331
3.288,0.34867
3.292,0.06929
3.296,-0.10562
3.3,-0.16731
3.304,-0.18035
3.308,-0.14939
3.312,-0.16996
3.316,-0.07092
3.32,-0.06571
3.324,-0.0524
3.328,0.00814
3.332,-0.03899
3.336,0.00156
3.34,-0.08864
3.344,-0.05985
3.348,0.02417
3.352,-0.03776
3.356,-0.06024
3.36,-0.01144
3.364,-0.05304
3.368,-0.04801
3.372,-0.00721
3.376,-0.0231
3.38,-0.03791
3.384,-0.10327
3.388,-0.02454
3.392,-0.05222
3.396,-0.0589
3.4,-0.0195
3.404,-0.05566
3.408,-0.03215
3.412,-0.04513
3.416,-0.04761
3.42,-0.02799
3.424,-0.07693
3.428,-0.05685
3.432,-0.05378
3.436,-0.02654
3.44,-0.00344
3.444,-0.00874
3.448,0.0506
3.452,-0.0927
3.456,0.00961
3.46,0.03227
3.464,0.09029
3.468,0.04313
3.472,0.02151
3.476,0.06746
3.48,0.08405
3.484,0.00478
3.488,0.03995
3.492,0.05432
3.496,0.02723
3.5,0.08688
3.504,0.09261
3.508,0.13334
3.512,0.16263
3.516,0.10318
3.52,0.10753
3.524,0.17477
3.528,0.16659
3.532,0.14979
3.536,0.14517
3.54,0.16732
3.544,0.16539
3.548,0.2285
3.552,0.18711
3.556,0.13538
3.56,0.18794
3.564,0.2318
3.568,0.19636
3.572,0.23523
3.576,0.18951
3.58,0.18917
3.584,0.11891
3.588,0.11188
3.592,0.06824
3.596,0.07867
3.6,0.11476
3.604,0.07404
3.608,0.09025
3.612,0.07005
3.616,0.0528
3.62,-0.01643
3.624,0.03685
3.628,-0.00111
3.632,0.01631
3.636,0.00132
3.64,0.03351
3.644,0.03438
3.648,0.0288
3.652,-0.02924
3.656,0.00692
3.66,-0.0015
3.664,-0.06251
3.668,-0.04149
3.672,-0.05009
3.676,0.01803
3.68,-0.02209
3.684,-0.05485
3.688,-0.00138
3.692,-0.07384
3.696,0.02345
3.7,-0.0016
3.704,0.02391
3.708,0.01999
3.712,-0.04974
3.716,-0.05064
3.72,-0.01302
3.724,-0.04592
3.728,-0.06263
3.732,-0.03924
3.736,-0.03546
3.74,-0.02581
3.744,-0.03736
3.748,-0.08881
3.752,-0.00768
3.756,-0.01684
3.76,-0.06584
3.764,-0.08969
3.768,0.00163
3.772,-0.01206
3.776,-0.0177
3.78,-0.10733
3.784,-0.01602
3.788,-0.05677
3.792,-0.08949
3.796,-0.09082
3.8,0.00412
3.804,-0.02984
3.808,-0.10449
3.812,-0.05138
3.816,-0.00314
3.82,0.0103
3.824,-0.04721
3.828,-0.05952
3.832,0.02923
3.836,-0.06117
3.84,0.02874
3.844,-0.05364
3.848,-0.05421
3.852,-0.01433
3.856,-0.01376
3.86,-0.00381
3.864,-0.08506
3.868,-0.04659
3.872,-0.05608
3.876,-0.03698
3.88,0.00555
3.884,0.05346
3.888,-0.05213
3.892,-0.01213
3.896,0.02766
3.9,-0.09267
3.904,-0.03156
3.908,-0.0744
3.912,-0.06332
3.916,-0.07811
3.92,-0.00356
3.924,-0.07338
3.928,-0.02012
3.932,-0.01209
3.936,0.01574
3.94,0.01721
3.944,-0.00718
3.948,0.01339
3.952,0.02581
3.956,0.02677
3.96,0.01409
3.964,-0.02015
3.968,0.12809
3.972,0.0581
3.976,0.10575
3.98,0.02435
3.984,0.01108
3.988,0.08382
3.992,0.01699
3.996,-0.01251
4.0,0.01541
4.004,-0.03122
4.008,-0.0232
4.012,0.00415
4.016,-0.02658
4.02,-0.02756
4.024,-0.05437
4.028,0.00527
4.032,-0.03497
4.036,-0.03245
4.04,0.00953
4.044,-0.00531
4.048,-0.05605
4.052,-0.01783
4.056,-0.02533
4.06,-0.03204
4.064,-0.00395
4.068,-0.00922
4.072,-0.07226
4.076,-0.04238
4.08,-0.01212
4.084,-0.05634
4.088,-0.03052
4.092,-0.06003
4.096,-0.13469
4.1,-0.04118
4.104,0.03983
4.108,0.185
4.112,0.36791
4.116,0.55683
4.12,0.70329
4.124,0.99632
4.128,1.00714
4.132,0.87937
4.136,0.76216
4.14,0.62751
4.144,0.33815
4.148,0.10347
4.152,-0.04249
4.156,-0.09873
4.16,-0.23183
4.164,-0.22419
4.168,-0.16081
4.172,-0.11669
4.176,-0.0956
4.18,0.00022
4.184,-0.02003
4.188,-0.00609
4.192,-0.01842
4.196,0.01598
4.2,-0.04931
4.204,0.02319
4.208,-0.00487
4.212,-0.04461
4.216,-0.07385
4.22,0.01711
4.224,0.02352
4.228,-0.01054
4.232,-0.00034
4.236,0.03048
4.24,0.02497
4.244,-0.05928
4.248,-0.09675
4.252,-4e-05
4.256,0.02034
4.26,0.00221
4.264,-0.05419
4.268,-0.0106
4.272,-0.01992
4.276,0.0551
4.28,-0.04587
4.284,-0.04757
4.288,0.05323
4.292,0.02198
4.296,-0.02106
4.3,-0.02261
4.304,0.00502
4.308,-0.07884
4.312,0.0407
4.316,0.02106
4.32,0.05936
4.324,0.06552
4.328,0.06472
4.332,0.10666
4.336,0.05954
4.34,-0.00149
4.344,0.04933
4.348,0.06268
4.352,0.11139
4.356,0.0263
4.36,0.08566
4.364,0.17267
4.368,0.13775
4.372,0.14049
4.376,0.16555
4.38,0.17499
4.384,0.16738
4.388,0.14134
4.392,0.2278
4.396,0.16039
4.4,0.21162
4.404,0.18494
4.408,0.19826
4.412,0.18821
4.416,0.22606
4.42,0.17004
4.424,0.25923
4.428,0.11244
4.432,0.17222
4.436,0.18916
4.44,0.13965
4.444,0.13948
4.448,0.15586
4.452,0.12049
4.456,0.0976
4.46,0.00695
4.464,0.04178
4.468,0.105
4.472,0.07187
4.476,0.05162
4.48,0.05359
4.484,0.04748
4.488,-0.00156
4.492,0.07923
4.496,-0.03977
4.5,0.03701
4.504,-0.00224
4.508,0.01671
4.512,0.04411
4.516,-0.07123
4.52,0.00275
4.524,0.06801
4.528,-0.07055
4.532,-0.05761
4.536,-0.03956
4.54,-0.01793
4.544,0.04664
4.548,-0.0625
4.552,-0.041
4.556,-0.01238
4.56,-0.01599
4.564,-0.07792
4.568,-0.02204
4.572,-0.02228
4.576,0.00398
4.58,-0.05081
4.584,-0.00377
4.588,0.00976
4.592,-0.01367
4.596,0.02026
4.6,-0.00573
4.604,0.02457
4.608,0.02999
4.612,0.04078
4.616,-0.01586
4.62,0.03743
4.624,-0.00712
4.628,-0.00855
4.632,-0.05056
4.636,-0.02833
4.64,0.03216
4.644,0.02713
4.648,-0.02717
4.652,-0.06274
4.656,-0.01242
4.66,0.05811
4.664,0.0434
4.668,-0.0433
4.672,0.00441
4.676,0.0068
4.68,0.02343
4.684,-0.05723
4.688,-0.00719
4.692,0.01598
4.696,-0.02282
4.7,-0.04279
4.704,0.02166
4.708,-0.03197
4.712,0.017
4.716,0.01788
4.72,0.02222
4.724,-0.01025
4.728,0.07023
4.732,0.02317
4.736,0.04942
4.74,-0.00358
4.744,0.07082
4.748,0.06377
4.752,0.11193
4.756,0.12665
4.76,0.05019
4.764,0.12683
4.768,0.09558
4.772,0.06138
4.776,0.03188
4.78,0.05322
4.784,0.0095
4.788,-0.00942
4.792,0.04695
4.796,-0.00731
4.8,0.06414
4.804,0.00242
4.808,0.0456
4.812,0.01024
4.816,-0.00851
4.82,0.04544
4.824,-0.00379
4.828,-0.00936
4.832,-0.00687
4.836,-0.02967
4.84,0.01636
4.844,-0.05097
4.848,-0.00316
4.852,-0.00675
4.856,0.00158
4.86,0.03515
4.864,0.00141
4.868,-0.02367
4.872,-0.05182
4.876,-0.01207
4.88,-0.1128
4.884,-0.18026
4.888,-0.1409
4.892,0.02638
4.896,0.0997
4.9,0.35059
4.904,0.56572
4.908,0.79117
4.912,0.92867
4.916,1.00485
4.92,0.92097
4.924,0.79344
4.928,0.52246
4.932,0.3877
4.936,0.15278
4.94,-0.06404
4.944,-0.10961
4.948,-0.16051
4.952,-0.22439
4.956,-0.15424
4.96,-0.05623
4.964,-0.13489
4.968,0.04786
4.972,-0.01523
4.976,-0.01172
4.98,0.06877
4.984,0.03935
4.988,-0.01887
4.992,0.02894
4.996,-0.00952
5.0,-0.04396
5.004,0.01401
5.008,-0.02085
5.012,-0.04985
5.016,0.00393
5.02,0.00518
5.024,0.02276
5.028,0.04375
5.032,-0.02915
5.036,-0.04017
5.04,0.05097
5.044,0.04823
5.048,0.01069
5.052,0.01411
5.056,0.00258
5.06,0.03155
5.064,0.03376
5.068,0.00724
5.072,-0.01135
5.076,-0.00753
5.08,0.02122
5.084,-0.03862
5.088,0.03104
5.092,-0.0048
5.096,0.00661
5.1,0.10792
5.104,0.06271
5.108,0.07252
5.112,-0.00031
5.116,0.06707
5.12,0.07704
5.124,0.07475
5.128,0.09423
5.132,0.10202
5.136,0.10441
5.14,0.12305
5.144,0.13249
5.148,0.08216
5.152,0.14996
5.156,0.16726
5.16,0.17485
5.164,0.18166
5.168,0.1847
5.172,0.13415
5.176,0.14886
5.18,0.20116
5.184,0.17237
5.188,0.24546
5.192,0.22511
5.196,0.18401
5.2,0.19936
5.204,0.13441
5.208,0.19315
5.212,0.17828
5.216,0.24221
5.22,0.2187
5.224,0.16984
5.228,0.15564
5.232,0.20704
5.236,0.10631
5.24,0.16781
5.244,0.1213
5.248,0.03506
5.252,0.17474
5.256,0.11631
5.26,0.12245
5.264,0.04415
5.268,0.05363
5.272,0.04405
5.276,0.04949
5.28,0.03216
5.284,0.05898
5.288,-0.00695
5.292,0.09571
5.296,-0.02831
5.3,-0.00207
5.304,0.0198
5.308,0.05242
5.312,0.0724
5.316,-0.01673
5.32,0.04198
5.324,-0.02313
5.328,0.05416
5.332,0.06441
5.336,0.02274
5.34,0.03723
5.344,0.01101
5.348,0.03588
5.352,0.1081
5.356,0.05158
5.36,0.04442
5.364,0.08733
5.368,0.05842
5.372,0.13336
5.376,0.05175
5.38,0.08612
5.384,0.12045
5.388,0.10143
5.392,0.12865
5.396,0.08934
5.4,0.03395
5.404,0.08631
5.408,0.09749
5.412,0.07641
5.416,-0.01363
5.42,0.01113
5.424,0.00283
5.428,0.04186
5.432,-0.00224
5.436,-0.01821
5.44,-0.01045
5.444,0.00052
5.448,-0.0216
5.452,0.04459
5.456,0.11019
5.46,0.03383
5.464,0.01021
5.468,0.05109
5.472,0.0283
5.476,0.03173
5.48,0.01488
5.484,0.01097
5.488,0.00573
5.492,0.02442
5.496,-0.01582
5.5,0.00316
5.504,-0.10104
5.508,-0.04221
5.512,-0.07798
5.516,-0.03414
5.52,0.05462
5.524,0.22699
5.528,0.42481
5.532,0.66553
5.536,0.84308
5.54,0.97746
5.544,1.05182
5.548,0.87946
5.552,0.75205
5.556,0.50269
5.56,0.34849
5.564,0.03717
5.568,-0.04662
5.572,-0.16567
5.576,-0.15018
5.58,-0.14068
5.584,-0.0546
5.588,-0.05645
5.592,0.00275
5.596,-0.00474
5.6,-0.01342
5.604,-0.00542
5.608,0.02858
5.612,0.07247
5.616,-0.03624
5.62,-0.00308
5.624,0.06391
5.628,0.07607
5.632,-0.02339
5.636,-0.00726
5.64,0.00352
5.644,0.01318
5.648,0.01316
5.652,0.01239
5.656,0.06068
5.66,0.02298
5.664,0.02247
5.668,0.0197
5.672,0.02499
5.676,-0.03671
5.68,-0.01881
5.684,0.01909
5.688,-0.00268
5.692,0.07944
5.696,0.01405
5.7,0.02075
5.704,0.0259
5.708,0.02418
5.712,0.0073
5.716,0.01552
5.72,0.02258
5.724,0.04114
5.728,-0.0048
5.732,0.07504
5.736,-0.00277
5.74,0.08806
5.744,0.06505
5.748,0.12291
5.752,0.07152
5.756,0.12249
5.76,0.09407
5.764,0.08999
5.768,0.14072
5.772,0.08883
5.776,0.15109
5.78,0.1977
5.784,0.18677
5.788,0.20942
5.792,0.1999
5.796,0.23982
5.8,0.19313
5.804,0.18447
5.808,0.17945
5.812,0.25313
5.816,0.22885
5.82,0.2375
5.824,0.2628
5.828,0.27756
5.832,0.19399
5.836,0.28186
5.84,0.18239
5.844,0.22054
5.848,0.13629
5.852,0.20186
5.856,0.17348
5.86,0.1848
5.864,0.17664
5.868,0.15762
5.872,0.16654
5.876,0.1595
5.88,0.15666
5.884,0.12684
5.888,0.14528
5.892,0.16871
5.896,0.15677
5.9,0.13609
5.904,0.15894
5.908,0.11976
5.912,0.14446
5.916,0.11579
5.92,0.09533
5.924,0.06397
5.928,0.10192
5.932,0.06388
5.936,0.04391
5.94,0.02593
5.944,0.02554
5.948,0.04903
5.952,0.05064
5.956,0.04288
5.96,0.02685
5.964,-0.00019
5.968,-0.01463
5.972,0.02565
5.976,0.05495
5.98,0.06896
5.984,0.01842
5.988,0.04709
5.992,0.07736
5.996,0.09259
6.0,0.07831
6.004,0.04594
6.008,0.02769
6.012,0.0515
6.016,0.04713
6.02,-0.02966
6.024,-0.11662
6.028,-0.09798
6.032,-0.02866
6.036,0.04055
6.04,0.14319
6.044,0.40026
6.048,0.64783
6.052,0.82201
6.056,0.95744
6.06,1.00602
6.064,0.94985
6.068,0.86739
6.072,0.62224
6.076,0.38647
6.08,0.14861
6.084,-0.00978
6.088,-0.12565
6.092,-0.11701
6.096,-0.18041
6.1,-0.06068
6.104,-0.04757
6.108,-0.012
6.112,0.0331
6.116,0.01307
6.12,0.067
6.124,0.02073
6.128,-0.00568
6.132,0.07087
6.136,0.02467
6.14,0.02648
6.144,0.01525
6.148,0.06777
6.152,-0.01522
6.156,0.08171
6.16,0.05432
6.164,-0.03254
6.168,0.07703
6.172,0.03669
6.176,0.00607
6.18,0.00335
6.184,-0.01283
6.188,0.08064
6.192,0.06133
6.196,0.02501
6.2,0.03652
6.204,0.04548
6.208,0.02631
6.212,0.05948
6.216,0.03344
6.22,-0.02926
6.224,-0.0575
6.228,0.02983
6.232,0.03714
6.236,0.04715
6.24,0.0806
6.244,0.01168
6.248,-0.01185
6.252,0.01804
6.256,0.03828
6.26,0.10594
6.264,0.09516
6.268,0.06766
6.272,0.0318
6.276,0.12269
6.28,0.16422
6.284,0.12843
6.288,0.15518
6.292,0.17196
6.296,0.17679
6.3,0.15763
6.304,0.15511
6.308,0.19286
6.312,0.16409
6.316,0.16015
6.32,0.17339
6.324,0.26586
6.328,0.22851
6.332,0.15652
6.336,0.14517
6.34,0.19704
6.344,0.25099
6.348,0.28637
6.352,0.25905
6.356,0.2082
6.36,0.27167
6.364,0.22088
6.368,0.15886
6.372,0.12224
6.376,0.22445
6.38,0.13418
6.384,0.15605
6.388,0.14273
6.392,0.16352
6.396,0.13946
6.4,0.15321
6.404,0.12105
6.408,0.08626
6.412,0.1134
6.416,0.10972
6.42,0.09342
6.424,0.06728
6.428,0.10512
6.432,0.05592
6.436,0.06231
6.44,0.01767
6.444,0.02172
6.448,0.00858
6.452,0.01389
6.456,0.01332
6.46,0.06454
6.464,-0.00743
6.468,0.09941
6.472,-0.00208
6.476,0.08483
6.48,0.07333
6.484,0.11035
6.488,0.11788
6.492,0.08716
6.496,0.16474
6.5,0.17641
6.504,0.12442
6.508,0.09868
6.512,0.14205
6.516,0.01137
6.52,0.15143
6.524,0.10491
6.528,0.13608
6.532,0.08876
6.536,0.01687
6.54,0.09252
6.544,0.06419
6.548,0.0291
6.552,0.05435
6.556,0.07803
6.56,0.04925
6.564,-0.01599
6.568,0.05994
6.572,0.06429
6.576,0.05907
6.58,0.05903
6.584,0.06594
6.588,0.03591
6.592,0.0097
6.596,0.11045
6.6,-0.00749
6.604,0.04555
6.608,0.03895
6.612,0.03882
6.616,-0.01224
6.62,0.00443
6.624,-0.02357
6.628,0.02625
6.632,-0.12048
6.636,-0.0478
6.64,0.07507
6.644,0.27079
6.648,0.42961
6.652,0.67344
6.656,0.9
6.66,0.96228
6.664,1.0565
6.668,0.96092
6.672,0.71811
6.676,0.543
6.68,0.35213
6.684,0.14009
6.688,-0.00569
6.692,-0.14359
6.696,-0.13376
6.7,-0.16551
6.704,-0.07167
6.708,-0.03112
6.712,-0.0199
6.716,0.10191
6.72,-0.0258
6.724,0.04459
6.728,-0.02486
6.732,0.02953
6.736,0.05581
6.74,0.02025
6.744,0.04535
6.748,0.03745
6.752,-0.04611
6.756,0.0855
6.76,0.0479
6.764,0.02826
6.768,0.02537
6.772,0.0348
6.776,0.01317
6.78,0.11774
6.784,0.01961
6.788,0.02637
6.792,0.07167
6.796,0.02523
6.8,-0.02241
6.804,0.02531
6.808,-0.00024
6.812,0.00585
6.816,0.05042
6.82,0.08792
6.824,0.00916
6.828,0.07096
6.832,0.10009
6.836,0.07187
6.84,-0.02422
6.844,0.13494
6.848,0.01341
6.852,0.10352
6.856,0.09766
6.86,0.10253
6.864,0.03133
6.868,0.0957
6.872,0.10686
6.876,0.10857
6.88,0.0965
6.884,0.17091
6.888,0.04358
6.892,0.19294
6.896,0.12995
6.9,0.20047
6.904,0.17646
6.908,0.16566
6.912,0.19871
6.916,0.21892
6.92,0.22776
6.924,0.24
6.928,0.26305
6.932,0.24253
6.936,0.30853
6.94,0.2178
6.944,0.28864
6.948,0.29214
6.952,0.21528
6.956,0.19293
6.96,0.28553
6.964,0.22265
6.968,0.17675
6.972,0.30367
6.976,0.26341
6.98,0.23251
6.984,0.1589
6.988,0.09968
6.992,0.17163
6.996,0.1167
7.0,0.16855
7.004,0.14101
7.008,0.0696
7.012,0.06604
7.016,0.04246
7.02,0.09389
7.024,0.03523
7.028,0.03343
7.032,0.04619
7.036,0.05322
7.04,0.02875
7.044,0.07791
7.048,0.00805
7.052,0.02052
7.056,0.07519
7.06,0.04534
7.064,0.05601
7.068,0.04459
7.072,0.06525
7.076,-0.02072
7.08,0.03384
7.084,0.00643
7.088,0.14237
7.092,0.03468
7.096,0.10869
7.1,0.10227
7.104,0.11504
7.108,0.12099
7.112,0.13199
7.116,0.11791
7.12,0.10375
7.124,0.1003
7.128,0.09213
7.132,0.07909
7.136,0.1386
7.14,0.06016
7.144,0.09095
7.148,0.04235
7.152,0.07366
7.156,0.07776
7.16,0.04347
7.164,-0.03321
7.168,-0.01989
7.172,0.07125
7.176,0.07822
7.18,0.02655
7.184,-0.00849
7.188,0.00118
7.192,0.02906
7.196,0.04789
7.2,-0.01042
7.204,0.03736
7.208,-0.01754
7.212,-0.0097
7.216,-0.07299
7.22,0.00737
7.224,0.00429
7.228,0.04174
7.232,0.05639
7.236,0.00724
7.24,-0.07778
7.244,-0.06215
7.248,-0.10454
7.252,-0.03245
7.256,0.02985
7.26,0.20402
7.264,0.46895
7.268,0.7063
7.272,0.82079
7.276,0.90921
7.28,1.02465
7.284,0.92486
7.288,0.7674
7.292,0.55086
7.296,0.27856
7.3,0.14124
7.304,0.00307
7.308,-0.08752
7.312,-0.0966
7.316,-0.10614
7.32,-0.1489
7.324,-0.00578
7.328,0.01577
7.332,0.02306
7.336,-0.02371
7.34,0.02723
7.344,0.04737
7.348,-0.04155
7.352,-0.01909
7.356,-0.02012
7.36,0.02048
7.364,0.05373
7.368,0.03737
7.372,0.03508
7.376,0.08348
7.38,0.03162
7.384,0.02268
7.388,-0.02892
7.392,0.04074
7.396,0.03965
7.4,-0.01022
7.404,0.04649
7.408,-0.01116
7.412,0.04768
7.416,0.04011
7.42,-0.02519
7.424,-0.0172
7.428,0.04559
7.432,0.05252
7.436,0.11536
7.44,0.07328
7.444,0.07037
7.448,0.03677
7.452,0.02518
7.456,0.0937
7.46,0.05345
7.464,0.02985
7.468,0.04652
7.472,0.05768
7.476,0.0616
7.48,0.10992
7.484,0.10161
7.488,0.133
7.492,0.08943
7.496,0.06202
7.5,0.15063
7.504,0.11779
7.508,0.1445
7.512,0.12008
7.516,0.1712
7.52,0.19204
7.524,0.23201
7.528,0.20104
7.532,0.23312
7.536,0.21667
7.54,0.26156
7.544,0.29377
7.548,0.24839
7.552,0.16736
7.556,0.32307
7.56,0.19691
7.564,0.22597
7.568,0.2174
7.572,0.21845
7.576,0.24012
7.58,0.17896
7.584,0.21506
7.588,0.18576
7.592,0.17882
7.596,0.17316
7.6,0.15426
7.604,0.11723
7.608,0.08554
7.612,0.13973
7.616,0.07195
7.62,0.08086
7.624,0.12776
7.628,0.03056
7.632,0.06674
7.636,0.08855
7.64,-0.02967
7.644,0.13555
7.648,0.06437
7.652,0.07503
7.656,0.05163
7.66,-0.04505
7.664,-0.02214
7.668,0.04356
7.672,0.06585
7.676,0.06431
7.68,0.0511
7.684,-0.01379
7.688,0.03355
7.692,0.07174
7.696,0.06213
7.7,0.05871
7.704,0.09023
7.708,0.05533
7.712,0.08869
7.716,0.08822
7.72,0.06608
7.724,0.06809
7.728,0.14739
7.732,0.05279
7.736,0.13054
7.74,0.09029
7.744,0.10322
7.748,0.09206
7.752,0.18975
7.756,-0.00318
7.76,0.08947
7.764,0.05318
7.768,-0.01051
7.772,0.03794
7.776,0.04375
7.78,0.04419
7.784,-0.01608
7.788,0.06488
7.792,-0.01679
7.796,0.00522
7.8,0.05746
7.804,0.0134
7.808,-0.06016
7.812,-0.04288
7.816,0.00353
7.82,-0.01186
7.824,0.04724
7.828,0.041
7.832,-0.01896
7.836,-0.01448
7.84,0.03833
7.844,-0.00757
7.848,-0.0817
7.852,-0.06534
7.856,-0.10772
7.86,-0.08163
7.864,-0.04104
7.868,0.08762
7.872,0.25706
7.876,0.47082
7.88,0.67019
7.884,0.91165
7.888,0.93658
7.892,0.98138
7.896,0.93314
7.9,0.71737
7.904,0.48805
7.908,0.22477
7.912,0.07479
7.916,-0.06122
7.92,-0.18618
7.924,-0.18698
7.928,-0.1244
7.932,-0.03393
7.936,-0.08929
7.94,-0.06352
7.944,-0.05587
7.948,-0.04762
7.952,0.03987
7.956,0.00621
7.96,0.04724
7.964,0.04948
7.968,0.03768
7.972,-0.00075
7.976,0.04672
7.98,0.00689
7.984,0.00716
7.988,0.08224
7.992,-0.03956
7.996,0.02852
8.0,-0.02414
8.004,0.00498
8.008,0.02597
8.012,-0.01161
8.016,0.01669
8.02,0.00754
8.024,0.08939
8.028,0.00597
8.032,0.00291
8.036,0.02962
8.04,0.06378
8.044,-0.05158
8.048,0.02051
8.052,0.01016
8.056,-0.04935
8.06,0.01724
8.064,0.01303
8.068,0.03067
8.072,0.02373
8.076,0.00272
8.08,0.08392
8.084,0.04613
8.088,0.04657
8.092,0.0137
8.096,0.07761
8.1,0.06842
8.104,0.08587
8.108,0.11176
8.112,0.1001
8.116,0.09014
8.12,0.08873
8.124,0.16717
8.128,0.10788
8.132,0.13861
8.136,0.2293
8.14,0.20329
8.144,0.19812
8.148,0.21027
8.152,0.20119
8.156,0.28028
8.16,0.16871
8.164,0.20468
8.168,0.27773
8.172,0.23789
8.176,0.17562
8.18,0.21323
8.184,0.23539
8.188,0.24681
8.192,0.22667
8.196,0.18553
8.2,0.1486
8.204,0.17606
8.208,0.17988
8.212,0.1264
8.216,0.22677
8.22,0.10378
8.224,0.14655
8.228,0.08383
8.232,0.07281
8.236,0.06012
8.24,0.05351
8.244,0.06954
8.248,0.07686
8.252,-0.00425
8.256,0.07408
8.26,-0.00102
8.264,0.07238
8.268,0.08563
8.272,0.01494
8.276,0.03045
8.28,0.03638
8.284,-0.01303
8.288,-0.00145
8.292,0.03721
8.296,0.04932
8.3,0.08526
8.304,0.08654
8.308,0.10603
8.312,0.01435
8.316,0.15302
8.32,0.06447
8.324,0.08429
8.328,0.06206
8.332,0.03067
8.336,0.03507
8.34,0.1072
8.344,0.06343
8.348,0.03586
8.352,0.03723
8.356,0.06236
8.36,0.02575
8.364,0.0187
8.368,0.02852
8.372,-0.0639
8.376,0.01307
8.38,-0.02026
8.384,-0.00359
8.388,-0.06616
8.392,0.0329
8.396,0.01858
8.4,0.00678
8.404,0.00774
8.408,0.02547
8.412,0.01298
8.416,-0.0325
8.42,-0.01421
8.424,0.01563
8.428,-0.06152
8.432,-0.00757
8.436,0.01648
8.44,-0.0565
8.444,-0.1002
8.448,-0.08711
8.452,-0.11552
8.456,-0.00403
8.46,0.08556
8.464,0.2682
8.468,0.40314
8.472,0.46312
8.476,0.56061
8.48,0.52717
8.484,0.50439
8.488,0.39941
8.492,0.27824
8.496,0.09726
8.5,0.03301
8.504,-0.10065
8.508,-0.14442
8.512,-0.19094
8.516,-0.17695
8.52,-0.06073
8.524,-0.05049
8.528,-0.08755
8.532,-0.05036
8.536,0.07941
8.54,-0.0322
8.544,-0.0503
8.548,-0.00112
8.552,-0.03263
8.556,0.0367
8.56,-0.06925
8.564,6e-05
8.568,-0.0276
8.572,0.07879
8.576,0.02014
8.58,-0.02113
8.584,-0.05621
8.588,-0.02468
8.592,-0.02339
8.596,0.05123
8.6,0.03781
8.604,0.09223
8.608,-0.05831
8.612,0.03343
8.616,-0.03548
8.62,-0.01055
8.624,-0.03413
8.628,0.00508
8.632,-0.04539
8.636,-0.01226
8.64,0.01116
8.644,-0.00523
8.648,-0.04506
8.652,0.02849
8.656,0.02035
8.66,0.04371
8.664,0.05972
8.668,-0.05094
8.672,0.05615
8.676,0.05147
8.68,0.01847
8.684,0.02436
8.688,0.09033
8.692,0.10905
8.696,0.09786
8.7,0.10711
8.704,0.18046
8.708,0.14136
8.712,0.1032
8.716,0.14779
8.72,0.11878
8.724,0.13652
8.728,0.12232
8.732,0.20758
8.736,0.25867
8.74,0.17839
8.744,0.12502
8.748,0.23332
8.752,0.18759
8.756,0.27007
8.76,0.21126
8.764,0.1979
8.768,0.19829
8.772,0.19436
8.776,0.24092
8.78,0.22996
8.784,0.15821
8.788,0.12264
8.792,0.11984
8.796,0.11343
8.8,0.19595
8.804,0.12079
8.808,0.05272
8.812,0.07191
8.816,0.13019
8.82,0.12691
8.824,0.0582
8.828,0.01757
8.832,0.05766
8.836,-0.00458
8.84,0.06649
8.844,0.07529
8.848,-0.02096
8.852,0.02721
8.856,-0.02764
8.86,0.01869
8.864,0.03749
8.868,0.02209
8.872,0.01855
8.876,0.01349
8.88,-0.02619
8.884,0.02273
8.888,0.02125
8.892,-0.08165
8.896,-0.04118
8.9,-0.0434
8.904,0.00453
8.908,-0.03331
8.912,0.02043
8.916,-0.02201
8.92,0.06494
8.924,-0.08288
8.928,-0.0049
8.932,-0.0602
8.936,-0.03036
8.94,0.02144
8.944,0.05513
8.948,-0.01304
8.952,-0.02756
8.956,-0.02381
8.96,0.05905
8.964,0.01033
8.968,0.00115
8.972,0.03052
8.976,0.02356
8.98,-0.05446
8.984,-0.0329
8.988,0.03857
8.992,0.00985
8.996,0.04248
9.0,0.1095
9.004,0.01404
9.008,0.09091
9.012,0.09533
9.016,0.10962
9.02,0.04946
9.024,0.15024
9.028,0.05523
9.032,0.03085
9.036,0.00801
9.04,-0.0176
9.044,-0.01127
9.048,-0.01663
9.052,0.05139
9.056,-0.08601
9.06,0.05827
9.064,0.00183
9.068,0.01835
9.072,-0.02876
9.076,0.03103
9.08,0.0005
9.084,-0.03579
9.088,-0.01749
9.092,-0.0815
9.096,0.00329
9.1,-0.04521
9.104,0.0031
9.108,-0.0275
9.112,-0.00945
9.116,-0.01502
9.12,-0.02731
9.124,-0.06151
9.128,-0.00494
9.132,-0.04185
9.136,-0.08019
9.14,-0.15169
9.144,-0.11339
9.148,-0.09059
9.152,0.07884
9.156,0.23258
9.16,0.4775
9.164,0.65367
9.168,0.84026
9.172,0.95177
9.176,0.97363
9.18,0.84967
9.184,0.65415
9.188,0.49867
9.192,0.16283
9.196,0.04178
9.2,-0.17614
9.204,-0.1939
9.208,-0.19503
9.212,-0.10585
9.216,-0.048
9.22,-0.0525
9.224,-0.10994
9.228,-0.0276
9.232,-0.02651
9.236,-0.08663
9.24,-0.05834
9.244,0.00535
9.248,-0.05541
9.252,-0.05673
9.256,-0.06523
9.26,0.01152
9.264,-0.04131
9.268,-0.00265
9.272,-0.01466
9.276,-0.03633
9.28,0.01767
9.284,-0.04644
9.288,0.00299
9.292,0.0073
9.296,-0.05221
9.3,-0.05762
9.304,0.01768
9.308,-0.03714
9.312,-0.03855
9.316,-0.0353
9.32,-0.03434
9.324,-0.01832
9.328,-0.00233
9.332,-0.05617
9.336,-0.02601
9.34,0.00711
9.344,-0.07912
9.348,0.02221
9.352,-0.0198
9.356,0.03523
9.36,0.00508
9.364,-0.04745
9.368,-0.02035
9.372,0.01341
9.376,0.07842
9.38,0.0555
9.384,0.01153
9.388,0.03416
9.392,0.02515
9.396,0.13254
9.4,0.0408
9.404,0.1152
9.408,0.12285
9.412,0.11626
9.416,0.18704
9.42,0.18345
9.424,0.14753
9.428,0.21305
9.432,0.10545
9.436,0.19517
9.44,0.23737
9.444,0.16476
9.448,0.21679
9.452,0.19254
9.456,0.17267
9.46,0.24025
9.464,0.17929
9.468,0.17816
9.472,0.23167
9.476,0.16654
9.48,0.11617
9.484,0.14383
9.488,0.13732
9.492,0.12906
9.496,0.08337
9.5,0.10137
9.504,0.07634
9.508,0.11468
9.512,-0.00407
9.516,0.05722
9.52,0.03819
9.524,0.02095
9.528,-0.00427
9.532,-0.0127
9.536,0.00944
9.54,-0.01762
9.544,0.01575
9.548,0.00478
9.552,0.00774
9.556,-0.04273
9.56,-0.0032
9.564,0.103
9.568,-0.01059
9.572,-0.00414
9.576,-0.02368
9.58,-0.06001
9.584,-0.02
9.588,-0.03172
9.592,-0.03719
9.596,-0.05657
9.6,-0.05286
9.604,-0.03502
9.608,0.01934
9.612,-0.06579
9.616,-0.05342
9.62,-0.03121
9.624,-0.03594
9.628,-0.06623
9.632,0.00343
9.636,0.00825
9.64,-0.00106
9.644,-0.04768
9.648,0.02956
9.652,0.05895
9.656,-0.03807
9.66,-0.0287
9.664,0.00424
9.668,-0.13126
9.672,-0.00297
9.676,-0.07718
9.68,-0.01838
9.684,0.05302
9.688,0.09559
9.692,0.05115
9.696,0.03352
9.7,-0.02847
9.704,0.00804
9.708,0.03217
9.712,0.06724
9.716,0.07285
9.72,0.08625
9.724,0.12456
9.728,0.07866
9.732,0.05111
9.736,-0.00616
9.74,0.02815
9.744,-0.05995
9.748,-0.01258
9.752,-0.01791
9.756,-0.02128
9.76,0.00332
9.764,-0.02834
9.768,-0.01485
9.772,-0.00433
9.776,-0.00176
9.78,-0.01319
9.784,-0.08076
9.788,-0.01015
9.792,-0.03641
9.796,-0.06008
9.8,-0.03011
9.804,-0.02202
9.808,-0.04621
9.812,-0.03117
9.816,-0.04981
9.82,-0.04175
9.824,-0.03013
9.828,-0.00151
9.832,-0.11317
9.836,-0.16104
9.84,-0.08333
9.844,-0.1007
9.848,-0.10989
9.852,0.07579
9.856,0.25811
9.86,0.47976
9.864,0.66747
9.868,0.83401
9.872,0.96879
9.876,0.88927
9.88,0.84755
9.884,0.71217
9.888,0.47385
9.892,0.18052
9.896,0.03883
9.9,-0.02291
9.904,-0.18801
9.908,-0.17076
9.912,-0.15258
9.916,-0.06307
9.92,-0.09459
9.924,-0.12081
9.928,-0.0029
9.932,-0.0755
9.936,-0.02548
9.94,-0.07315
9.944,-0.02025
9.948,-0.00607
9.952,0.01919
9.956,0.00391
9.96,-0.00483
9.964,-0.05815
9.968,-0.02726
9.972,-0.08256
9.976,-0.03168
9.98,-0.02502
9.984,-0.02283
9.988,0.00121
9.992,-0.03015
9.996,-0.01853
