t_seg,ecg_mV
0.0,-0.04518
0.004,-0.04258
0.008,-0.05229
0.012,-0.00075
0.016,-0.02927
0.02,0.00028
0.024,-0.02342
0.028,-0.05981
0.032,-0.00387
0.036,-0.03348
0.04,0.00173
0.044,-0.06983
0.048,-0.04202
0.052,0.00327
0.056,-0.02988
0.06,-0.04508
0.064,0.02128
0.068,-0.06262
0.072,-0.0458
0.076,-0.05084
0.08,0.00181
0.084,0.03319
0.088,-0.01756
0.092,-0.02724
0.096,0.01284
0.1,-0.03956
0.104,-0.025
0.108,-0.0864
0.112,-0.03512
0.116,-0.06747
0.12,-0.0242
0.124,0.00477
0.128,-0.02752
0.132,-0.01702
0.136,-0.00469
0.14,-0.05688
0.144,-0.05308
0.148,-0.01096
0.152,-0.01525
0.156,-0.02939
0.16,0.00362
0.164,0.03012
0.168,0.00517
0.172,-0.0673
0.176,-0.04978
0.18,-0.08831
0.184,-0.03443
0.188,-0.04522
0.192,-0.0459
0.196,-0.01654
0.2,0.01888
0.204,-0.04148
0.208,-0.02734
0.212,-0.05054
0.216,-0.04161
0.22,-0.05834
0.224,-0.01149
0.228,-0.05953
0.232,0.00691
0.236,2e-05
0.24,-0.0325
0.244,-0.03951
0.248,-0.03684
0.252,-0.02333
0.256,-0.00782
0.26,-0.00989
0.264,-0.02611
0.268,-0.05828
0.272,0.03511
0.276,-0.01403
0.28,0.04617
0.284,-0.04493
0.288,0.00857
0.292,-0.02589
0.296,-0.00794
0.3,-0.04884
0.304,0.00339
0.308,-0.03344
0.312,-0.048
0.316,-0.03968
0.32,-0.05193
0.324,0.01254
0.328,-0.05583
0.332,-0.02629
0.336,0.04393
0.34,-0.02651
0.344,-0.07507
0.348,0.0304
0.352,-0.0311
0.356,0.00909
0.36,0.09029
0.364,0.02714
0.368,0.07684
0.372,0.12036
0.376,0.08141
0.38,0.09342
0.384,0.04983
0.388,0.13052
0.392,0.13006
0.396,0.00682
0.4,0.07946
0.404,0.06387
0.408,-0.00885
0.412,0.02284
0.416,-0.0082
0.42,0.01683
0.424,-0.05897
0.428,0.051
0.432,-0.04043
0.436,-0.03738
0.44,-0.04019
0.444,-0.03811
0.448,-0.05185
0.452,-0.01579
0.456,-0.01625
0.46,0.01421
0.464,-0.05418
0.468,-0.00787
0.472,-0.04497
0.476,-0.00324
0.48,-0.03063
0.484,-0.0586
0.488,-0.0237
0.492,0.01001
0.496,-0.02331
0.5,-0.07616
0.504,-0.10703
0.508,-0.1341
0.512,-0.17697
0.516,-0.16049
0.52,0.02841
0.524,0.15032
0.528,0.40476
0.532,0.58581
0.536,0.8056
0.54,0.85702
0.544,0.9454
0.548,0.85693
0.552,0.7594
0.556,0.48507
0.56,0.34271
0.564,0.15878
0.568,-0.06447
0.572,-0.1241
0.576,-0.24029
0.58,-0.13142
0.584,-0.14179
0.588,-0.12888
0.592,-0.09933
0.596,-0.03136
0.6,-0.06657
0.604,0.06608
0.608,-0.01207
0.612,-0.01369
0.616,-0.0199
0.62,-0.03807
0.624,-0.1025
0.628,-0.04221
0.632,-0.03445
0.636,-0.08019
0.64,-0.03499
0.644,5e-05
0.648,-0.03183
0.652,-0.06172
0.656,-0.05334
0.66,-0.03501
0.664,-0.00963
0.668,0.03655
0.672,-0.02621
0.676,0.00479
0.68,-0.05635
0.684,-0.1123
0.688,0.00472
0.692,0.01478
0.696,-0.08808
0.7,-0.07588
0.704,0.00513
0.708,-0.01709
0.712,0.00447
0.716,0.0237
0.72,0.02487
0.724,0.06992
0.728,0.02329
0.732,0.04301
0.736,0.00224
0.74,-0.04987
0.744,0.02005
0.748,0.05265
0.752,0.07375
0.756,0.00272
0.76,0.05725
0.764,0.0944
0.768,0.13288
0.772,0.08202
0.776,0.10029
0.78,0.14082
0.784,0.1058
0.788,0.1612
0.792,0.14333
0.796,0.15776
0.8,0.18858
0.804,0.17983
0.808,0.21175
0.812,0.24615
0.816,0.22524
0.82,0.18658
0.824,0.21284
0.828,0.19364
0.832,0.14514
0.836,0.22697
0.84,0.12972
0.844,0.17993
0.848,0.15214
0.852,0.18334
0.856,0.15899
0.86,0.17101
0.864,0.1684
0.868,0.12676
0.872,0.06591
0.876,0.07523
0.88,0.0939
0.884,0.0578
0.888,-0.00614
0.892,0.02839
0.896,0.01903
0.9,-0.02449
0.904,0.02241
0.908,0.05478
0.912,-0.0111
0.916,0.05454
0.92,-0.06809
0.924,-0.04202
0.928,-0.0435
0.932,-0.07326
0.936,0.01927
0.94,-0.01248
0.944,-0.06968
0.948,-0.00592
0.952,-0.01043
0.956,-0.06049
0.96,-0.06121
0.964,-0.08816
0.968,-0.0449
0.972,-0.01709
0.976,-0.0451
0.98,-0.04616
0.984,-0.05637
0.988,0.0217
0.992,-0.03289
0.996,0.00445
1.0,-0.04165
1.004,-0.00705
1.008,0.02127
1.012,0.01736
1.016,-0.01084
1.02,-0.00325
1.024,-0.0149
1.028,0.00388
1.032,0.05076
1.036,-0.06867
1.04,-0.05786
1.044,-0.0396
1.048,-0.03268
1.052,-0.08399
1.056,-0.03001
1.06,-0.06062
1.064,-0.04625
1.068,0.02873
1.072,-0.00434
1.076,0.05415
1.08,-0.05055
1.084,-0.03335
1.088,-0.06938
1.092,-0.03416
1.096,-0.0032
1.1,-0.05328
1.104,-0.00624
1.108,-0.04537
1.112,-0.04078
1.116,-0.03199
1.12,-0.01007
1.124,-0.05926
1.128,-0.10263
1.132,-0.01631
1.136,-0.07744
1.14,-0.04145
1.144,-0.02677
1.148,0.0028
1.152,-0.02116
1.156,-0.00759
1.16,-0.02253
1.164,0.01367
1.168,0.01007
1.172,0.05866
1.176,0.01912
1.18,0.01222
1.184,0.01143
1.188,0.0144
1.192,0.0771
1.196,0.04207
1.2,0.07761
1.204,0.17857
1.208,0.06169
1.212,0.08273
1.216,0.17207
1.22,0.06421
1.224,0.03811
1.228,0.0682
1.232,-0.02126
1.236,-0.02032
1.24,-0.04159
1.244,0.03876
1.248,0.05766
1.252,-0.02438
1.256,0.00174
1.26,-0.02087
1.264,-0.02443
1.268,-0.03461
1.272,-0.02847
1.276,-0.02684
1.28,0.01449
1.284,-0.04804
1.288,-0.03349
1.292,-0.07236
1.296,-0.05539
1.3,0.03799
1.304,0.00579
1.308,0.00187
1.312,0.01101
1.316,-0.05982
1.32,-0.07792
1.324,-0.10679
1.328,-0.17679
1.332,-0.10497
1.336,-0.07449
1.34,0.10554
1.344,0.30487
1.348,0.56562
1.352,0.75054
1.356,0.88185
1.36,0.98459
1.364,0.86252
1.368,0.78888
1.372,0.57805
1.376,0.32616
1.38,0.17218
1.384,-0.07733
1.388,-0.13725
1.392,-0.14311
1.396,-0.1757
1.4,-0.09975
1.404,-0.07518
1.408,-0.12562
1.412,-0.0345
1.416,0.01224
1.42,0.00256
1.424,0.04592
1.428,-0.04082
1.432,-0.02171
1.436,-0.07589
1.44,0.01177
1.444,0.04323
1.448,-0.0223
1.452,-0.02155
1.456,-0.0817
1.46,-0.03347
1.464,-0.04026
1.468,-0.10516
1.472,-0.05036
1.476,0.00668
1.48,-0.0529
1.484,0.01054
1.488,-0.04152
1.492,-0.00056
1.496,-0.09617
1.5,0.02635
1.504,-0.02203
1.508,-0.0489
1.512,-0.03397
1.516,-0.02414
1.52,0.03181
1.524,-0.00563
1.528,-0.02053
1.532,-0.03416
1.536,-0.0927
1.54,-0.02924
1.544,0.0474
1.548,0.02962
1.552,0.02199
1.556,0.03523
1.56,-0.00682
1.564,0.07924
1.568,0.09419
1.572,0.06314
1.576,0.05068
1.58,0.04905
1.584,0.08646
1.588,0.10344
1.592,0.19778
1.596,0.10999
1.6,0.06557
1.604,0.26287
1.608,0.1529
1.612,0.1648
1.616,0.1516
1.62,0.15766
1.624,0.1236
1.628,0.21179
1.632,0.15973
1.636,0.21361
1.64,0.19986
1.644,0.23497
1.648,0.28885
1.652,0.17516
1.656,0.12883
1.66,0.22358
1.664,0.13879
1.668,0.13306
1.672,0.09781
1.676,0.16983
1.68,0.11402
1.684,0.14907
1.688,0.07774
1.692,0.12037
1.696,0.06273
1.7,0.1203
1.704,0.05471
1.708,0.04004
1.712,0.03504
1.716,0.03154
1.72,0.00487
1.724,-0.0176
1.728,0.02516
1.732,-0.02806
1.736,0.02804
1.74,0.02282
1.744,-0.03128
1.748,0.01314
1.752,-0.0665
1.756,-0.03477
1.76,-0.03878
1.764,-0.02243
1.768,-0.03507
1.772,0.01976
1.776,-0.01658
1.78,-0.00722
1.784,-0.00589
1.788,0.00933
1.792,-0.05646
1.796,-0.00186
1.8,0.01266
1.804,-0.04274
1.808,0.00917
1.812,-0.0189
1.816,0.01673
1.82,0.04062
1.824,-0.01972
1.828,-0.01504
1.832,0.00994
1.836,-0.00107
1.84,0.01196
1.844,-0.06254
1.848,-0.0239
1.852,-0.03224
1.856,0.01496
1.86,0.0298
1.864,-0.02761
1.868,0.03591
1.872,-0.0009
1.876,-0.01829
1.88,0.05507
1.884,0.01255
1.888,-0.00615
1.892,-0.0188
1.896,-0.03398
1.9,0.0002
1.904,0.01388
1.908,-0.04201
1.912,-0.05999
1.916,-0.00577
1.92,-0.0175
1.924,-0.00116
1.928,0.0066
1.932,-0.03108
1.936,-0.01838
1.94,-0.03101
1.944,0.06562
1.948,0.01515
1.952,0.00833
1.956,-0.02707
1.96,0.01818
1.964,0.0328
1.968,-0.01699
1.972,0.00731
1.976,0.00296
1.98,-0.0232
1.984,0.02615
1.988,0.02416
1.992,0.00405
1.996,-0.02611
2.0,-0.05118
2.004,-0.06954
2.008,-0.02112
2.012,0.01308
2.016,-0.07177
2.02,0.00479
2.024,-0.01607
2.028,0.00722
2.032,-0.03937
2.036,-0.06255
2.04,0.01221
2.044,0.00698
2.048,-0.04355
2.052,-0.03097
2.056,0.01211
2.06,0.00198
2.064,-0.02725
2.068,0.02504
2.072,-0.04059
2.076,0.02837
2.08,-0.00791
2.084,-0.00024
2.088,-0.02839
2.092,0.0302
2.096,-0.00851
2.1,0.06275
2.104,0.01074
2.108,-0.07696
2.112,0.02328
2.116,0.02063
2.12,0.01852
2.124,-0.02218
2.128,-0.06054
2.132,0.0209
2.136,0.06741
2.14,0.0991
2.144,0.08002
2.148,0.1252
2.152,0.14845
2.156,0.07156
2.16,0.03851
2.164,0.13299
2.168,0.09522
2.172,0.11687
2.176,0.06712
2.18,0.03439
2.184,0.02471
2.188,0.0045
2.192,0.02778
2.196,-0.0739
2.2,0.0326
2.204,0.05129
2.208,0.03113
2.212,-0.08228
2.216,-0.00757
2.22,0.01972
2.224,0.01761
2.228,0.00912
2.232,0.02207
2.236,-0.01807
2.24,0.06093
2.244,0.00833
2.248,-0.04735
2.252,-0.02211
2.256,0.01922
2.26,0.03336
2.264,-0.01628
2.268,-0.03725
2.272,-0.0209
2.276,-0.03777
2.28,-0.07252
2.284,-0.11581
2.288,-0.10777
2.292,-0.09897
2.296,-0.01708
2.3,-0.00013
2.304,0.1893
2.308,0.43015
2.312,0.68386
2.316,0.83474
2.32,1.01173
2.324,1.02116
2.328,0.93044
2.332,0.73256
2.336,0.4914
2.34,0.24844
2.344,0.03229
2.348,-0.10701
2.352,-0.1744
2.356,-0.19283
2.36,-0.19087
2.364,-0.11767
2.368,-0.06137
2.372,-0.03352
2.376,-0.04465
2.38,0.03302
2.384,0.00041
2.388,0.01381
2.392,0.03534
2.396,-0.02304
2.4,-0.01805
2.404,0.00086
2.408,-0.03809
2.412,-0.00339
2.416,-0.0164
2.42,-0.0322
2.424,6e-05
2.428,-0.04286
2.432,-0.02354
2.436,-0.00118
2.44,-0.06248
2.444,0.07799
2.448,0.04741
2.452,0.07792
2.456,-0.00833
2.46,-0.03473
2.464,0.08262
2.468,0.01937
2.472,-0.01799
2.476,-0.02884
2.48,0.01601
2.484,0.0275
2.488,-0.01671
2.492,0.01706
2.496,0.00804
2.5,0.05065
2.504,0.01481
2.508,0.03537
2.512,0.08248
2.516,0.03303
2.52,0.03072
2.524,0.03474
2.528,-0.02528
2.532,0.0595
2.536,0.08729
2.54,0.10897
2.544,0.14185
2.548,0.12313
2.552,0.08949
2.556,0.09737
2.56,0.15172
2.564,0.15525
2.568,0.19423
2.572,0.18061
2.576,0.20022
2.58,0.24378
2.584,0.18679
2.588,0.16324
2.592,0.21622
2.596,0.20126
2.6,0.24319
2.604,0.24987
2.608,0.213
2.612,0.28079
2.616,0.24896
2.62,0.22162
2.624,0.13311
2.628,0.25303
2.632,0.15125
2.636,0.07829
2.64,0.17872
2.644,0.13485
2.648,0.12071
2.652,0.16617
2.656,0.11882
2.66,0.0724
2.664,0.12376
2.668,0.07766
2.672,0.0691
2.676,0.04146
2.68,0.10319
2.684,0.05724
2.688,-0.0033
2.692,-0.05297
2.696,0.04654
2.7,-0.03115
2.704,0.00293
2.708,0.03067
2.712,0.02916
2.716,0.06863
2.72,0.0477
2.724,0.06047
2.728,0.00283
2.732,-0.01381
2.736,0.00205
2.74,-0.02996
2.744,0.00603
2.748,-0.00519
2.752,0.00169
2.756,0.07355
2.76,-0.01077
2.764,0.0124
2.768,0.09371
2.772,0.05531
2.776,0.03086
2.78,0.0613
2.784,-0.01711
2.788,0.001
2.792,0.04242
2.796,0.03511
2.8,-0.05044
2.804,-0.02244
2.808,-0.03528
2.812,0.0635
2.816,0.03426
2.82,0.02208
2.824,0.06262
2.828,-0.02162
2.832,0.04845
2.836,0.00297
2.84,-0.03981
2.844,0.00812
2.848,-0.03433
2.852,0.00523
2.856,0.0156
2.86,-0.02637
2.864,0.04858
2.868,-0.02255
2.872,0.04112
2.876,0.03871
2.88,0.1477
2.884,0.07082
2.888,0.03658
2.892,0.11694
2.896,0.15608
2.9,0.09175
2.904,0.11983
2.908,0.09816
2.912,0.14292
2.916,0.16522
2.92,0.10637
2.924,0.12008
2.928,0.12317
2.932,0.09101
2.936,0.05268
2.94,0.06276
2.944,0.01765
2.948,0.02213
2.952,-0.00039
2.956,0.05631
2.96,-0.01263
2.964,0.03132
2.968,0.05542
2.972,-0.0255
2.976,0.03016
2.98,0.02155
2.984,0.0602
2.988,-0.01728
2.992,0.07319
2.996,-0.01857
3.0,0.02405
3.004,-0.06417
3.008,4e-05
3.012,0.08548
3.016,0.01136
3.02,-0.00036
3.024,0.03294
3.028,-0.03277
3.032,-0.08198
3.036,-0.11129
3.04,-0.07414
3.044,-0.00117
3.048,0.07725
3.052,0.20954
3.056,0.45115
3.06,0.70095
3.064,0.85982
3.068,0.95976
3.072,1.05647
3.076,0.97985
3.08,0.70429
3.084,0.52264
3.088,0.23926
3.092,0.13882
3.096,-0.08509
3.1,-0.15089
3.104,-0.11401
3.108,-0.17702
3.112,-0.06722
3.116,0.00173
3.12,-0.04594
3.124,-0.01298
3.128,0.03493
3.132,-0.04826
3.136,0.00792
3.14,0.01331
3.144,0.06632
3.148,0.00918
3.152,0.04097
3.156,0.00126
3.16,-0.01704
3.164,-0.00506
3.168,-0.00535
3.172,0.02308
3.176,0.03657
3.18,-0.00089
3.184,0.02138
3.188,0.05143
3.192,-0.00469
3.196,0.02177
3.2,-0.00585
3.204,-0.01419
3.208,-0.01881
3.212,-0.02495
3.216,0.03267
3.22,0.00553
3.224,-0.00384
3.228,-0.04639
3.232,0.02363
3.236,0.02308
3.24,0.01162
3.244,0.04238
3.248,0.032
3.252,0.04073
3.256,0.04565
3.26,0.0496
3.264,0.10062
3.268,0.05713
3.272,0.11404
3.276,0.07653
3.28,0.09474
3.284,0.10993
3.288,0.1483
3.292,0.06368
3.296,0.10736
3.3,0.13885
3.304,0.18268
3.308,0.07939
3.312,0.19722
3.316,0.14388
3.32,0.21347
3.324,0.18978
3.328,0.1607
3.332,0.1899
3.336,0.19169
3.34,0.26938
3.344,0.33725
3.348,0.2142
3.352,0.23467
3.356,0.29011
3.36,0.25171
3.364,0.23965
3.368,0.22383
3.372,0.17996
3.376,0.28522
3.38,0.2892
3.384,0.29453
3.388,0.2941
3.392,0.32976
3.396,0.23981
3.4,0.23525
3.404,0.28941
3.408,0.18759
3.412,0.27547
3.416,0.16085
3.42,0.19582
3.424,0.10929
3.428,0.16452
3.432,0.09825
3.436,0.04376
3.44,0.07021
3.444,0.06886
3.448,0.04986
3.452,0.0342
3.456,0.04003
3.46,0.07523
3.464,0.03218
3.468,0.06611
3.472,0.03367
3.476,0.04489
3.48,0.05192
3.484,0.01179
3.488,0.02274
3.492,0.00201
3.496,0.02475
3.5,0.09048
3.504,0.06733
3.508,0.05799
3.512,0.01107
3.516,0.02088
3.52,0.04284
3.524,-0.07531
3.528,-0.09522
3.532,-0.06013
3.536,0.04609
3.54,0.20944
3.544,0.37448
3.548,0.55535
3.552,0.74958
3.556,0.97359
3.56,1.01212
3.564,1.00956
3.568,0.9089
3.572,0.68174
3.576,0.36203
3.58,0.26798
3.584,-0.01935
3.588,-0.06178
3.592,-0.12416
3.596,-0.14053
3.6,-0.06461
3.604,-0.1128
3.608,0.01304
3.612,0.00552
3.616,0.05358
3.62,0.11143
3.624,0.0133
3.628,0.0103
3.632,0.01654
3.636,0.03777
3.64,0.00095
3.644,0.03434
3.648,0.01597
3.652,4e-05
3.656,0.00863
3.66,0.04437
3.664,0.03184
3.668,0.0464
3.672,0.02138
3.676,0.05353
3.68,0.02161
3.684,0.03807
3.688,0.03627
3.692,0.02669
3.696,-0.0052
3.7,0.02002
3.704,0.04853
3.708,0.01737
3.712,0.05436
3.716,0.02716
3.72,0.00169
3.724,0.07919
3.728,0.04664
3.732,0.01777
3.736,0.03813
3.74,0.0711
3.744,-0.04127
3.748,0.0537
3.752,0.01145
3.756,0.02368
3.76,0.06183
3.764,0.05853
3.768,0.09293
3.772,0.11123
3.776,0.13965
3.78,0.14092
3.784,0.12539
3.788,0.08408
3.792,0.19712
3.796,0.22342
3.8,0.21176
3.804,0.1769
3.808,0.20137
3.812,0.14812
3.816,0.1881
3.82,0.27857
3.824,0.23904
3.828,0.33484
3.832,0.29099
3.836,0.20803
3.84,0.2738
3.844,0.29066
3.848,0.20926
3.852,0.20853
3.856,0.25949
3.86,0.18128
3.864,0.18039
3.868,0.2383
3.872,0.25601
3.876,0.17952
3.88,0.21576
3.884,0.17481
3.888,0.21887
3.892,0.16734
3.896,0.1792
3.9,0.09836
3.904,0.09333
3.908,0.11145
3.912,0.07521
3.916,0.06218
3.92,0.09818
3.924,0.06049
3.928,0.04766
3.932,0.02056
3.936,0.04673
3.94,-0.00287
3.944,0.09732
3.948,0.09264
3.952,0.03474
3.956,0.08762
3.96,0.04767
3.964,0.09763
3.968,0.07344
3.972,0.09235
3.976,0.04612
3.98,0.05318
3.984,0.08625
3.988,0.04949
3.992,0.06953
3.996,0.04823
4.0,0.11426
4.004,0.08978
4.008,0.08305
4.012,0.1865
4.016,0.16438
4.02,0.16236
4.024,0.10734
4.028,0.13628
4.032,0.14806
4.036,0.13295
4.04,0.05555
4.044,0.12062
4.048,0.07151
4.052,0.06511
4.056,0.01191
4.06,0.06186
4.064,0.0378
4.068,0.01425
4.072,0.06828
4.076,0.04187
4.08,0.07145
4.084,0.05428
4.088,0.06622
4.092,0.04925
4.096,-0.01604
4.1,-0.00157
4.104,0.00348
4.108,0.01656
4.112,0.05016
4.116,0.01096
4.12,0.02839
4.124,0.138
4.128,-0.06216
4.132,0.00218
4.136,-0.08505
4.14,-0.09026
4.144,-0.1038
4.148,-0.05904
4.152,0.01316
4.156,0.13821
4.16,0.39117
4.164,0.52635
4.168,0.73853
4.172,0.97268
4.176,1.0424
4.18,0.98425
4.184,0.87122
4.188,0.73856
4.192,0.4683
4.196,0.23177
4.2,0.03176
4.204,-0.06154
4.208,-0.10515
4.212,-0.16207
4.216,-0.13174
4.22,-0.07758
4.224,-0.00969
4.228,-0.03202
4.232,-0.00355
4.236,0.10974
4.24,-0.00651
4.244,-0.00623
4.248,0.05969
4.252,-0.00677
4.256,0.02438
4.26,0.0368
4.264,0.04502
4.268,0.02399
4.272,0.03816
4.276,0.06497
4.28,0.00129
4.284,0.03078
4.288,-0.04794
4.292,0.05603
4.296,0.00374
4.3,-0.0026
4.304,0.03422
4.308,0.06915
4.312,0.02548
4.316,0.10054
4.32,0.01614
4.324,0.0414
4.328,0.00546
4.332,0.0119
4.336,0.01158
4.34,0.08583
4.344,0.00255
4.348,0.11093
4.352,0.0624
4.356,0.05408
4.36,0.01088
4.364,0.0618
4.368,0.09499
4.372,0.07074
4.376,0.11311
4.38,0.09068
4.384,0.10753
4.388,0.05742
4.392,0.17111
4.396,0.16671
4.4,0.11086
4.404,0.12601
4.408,0.1522
4.412,0.14395
4.416,0.15318
4.42,0.1711
4.424,0.17787
4.428,0.20172
4.432,0.27298
4.436,0.18006
4.44,0.26848
4.444,0.21707
4.448,0.19616
4.452,0.28932
4.456,0.20999
4.46,0.25035
4.464,0.21715
4.468,0.26144
4.472,0.21014
4.476,0.2462
4.48,0.18375
4.484,0.25537
4.488,0.20072
4.492,0.24314
4.496,0.14646
4.5,0.19968
4.504,0.16383
4.508,0.18421
4.512,0.18902
4.516,0.08113
4.52,0.09891
4.524,0.0992
4.528,0.06683
4.532,0.07054
4.536,0.05709
4.54,0.06851
4.544,0.05668
4.548,0.05272
4.552,0.10301
4.556,0.07304
4.56,0.07728
4.564,0.05085
4.568,0.10577
4.572,-0.00018
4.576,0.00418
4.58,0.0421
4.584,0.03549
4.588,-0.01693
4.592,0.00457
4.596,0.05513
4.6,0.00042
4.604,0.00071
4.608,0.04367
4.612,0.00679
4.616,0.01454
4.62,0.03042
4.624,0.07187
4.628,-0.05182
4.632,-0.02424
4.636,0.04157
4.64,0.01299
4.644,0.06951
4.648,-0.00015
4.652,-0.01013
4.656,0.02
4.66,0.06428
4.664,0.04328
4.668,0.00757
4.672,0.08035
4.676,0.05427
4.68,0.01258
4.684,-0.0455
4.688,0.00731
4.692,0.07628
4.696,0.01419
4.7,0.02005
4.704,0.00569
4.708,0.02174
4.712,0.02253
4.716,0.08659
4.72,0.10087
4.724,0.07925
4.728,0.05662
4.732,0.17524
4.736,0.11197
4.74,0.06956
4.744,0.16405
4.748,0.05226
4.752,0.17365
4.756,0.09577
4.76,0.16817
4.764,0.07294
4.768,0.08092
4.772,0.10825
4.776,0.10068
4.78,0.0081
4.784,0.04222
4.788,0.02697
4.792,0.09716
4.796,0.03241
4.8,0.0128
4.804,0.04458
4.808,-0.00547
4.812,0.05993
4.816,-0.00397
4.82,0.02993
4.824,0.09935
4.828,0.04622
4.832,-0.01597
4.836,-0.00578
4.84,0.08884
4.844,0.01249
4.848,0.01115
4.852,0.07026
4.856,0.00052
4.86,0.04951
4.864,-0.02479
4.868,-0.06737
4.872,-0.08855
4.876,-0.04611
4.88,-0.0898
4.884,0.03416
4.888,0.20804
4.892,0.3709
4.896,0.68059
4.9,0.85067
4.904,0.92189
4.908,0.98644
4.912,0.98442
4.916,0.75892
4.92,0.61681
4.924,0.38481
4.928,0.14437
4.932,-0.01749
4.936,-0.13769
4.94,-0.19512
4.944,-0.12254
4.948,-0.05549
4.952,-0.01192
4.956,-0.005
4.96,-0.0283
4.964,-0.02275
4.968,-0.00283
4.972,0.04232
4.976,-0.01594
4.98,0.08211
4.984,0.03363
4.988,0.01387
4.992,0.0554
4.996,0.09249
5.0,0.02757
5.004,0.10385
5.008,0.04159
5.012,-0.00061
5.016,0.00933
5.02,-0.02708
5.024,0.03526
5.028,0.01072
5.032,-0.05231
5.036,-0.00949
5.04,0.01572
5.044,0.00588
5.048,0.00964
5.052,0.00104
5.056,0.02611
5.06,0.08139
5.064,0.00867
5.068,-0.02779
5.072,0.00556
5.076,0.05
5.08,0.06653
5.084,0.03384
5.088,0.08928
5.092,0.05718
5.096,0.04201
5.1,0.04543
5.104,0.00314
5.108,0.00038
5.112,0.06092
5.116,0.02741
5.12,0.08609
5.124,0.05228
5.128,0.09268
5.132,0.09783
5.136,0.05734
5.14,0.12236
5.144,0.17022
5.148,0.17364
5.152,0.187
5.156,0.21115
5.16,0.2289
5.164,0.19393
5.168,0.2328
5.172,0.14682
5.176,0.18006
5.18,0.25531
5.184,0.24613
5.188,0.18585
5.192,0.24274
5.196,0.22732
5.2,0.24111
5.204,0.17255
5.208,0.22921
5.212,0.25783
5.216,0.21578
5.22,0.17434
5.224,0.17163
5.228,0.16769
5.232,0.13391
5.236,0.15018
5.24,0.07862
5.244,0.17456
5.248,0.09452
5.252,0.09024
5.256,0.04881
5.26,0.03588
5.264,0.07107
5.268,0.07769
5.272,0.06161
5.276,0.04029
5.28,0.045
5.284,0.02352
5.288,0.02394
5.292,0.01061
5.296,0.0537
5.3,-0.00518
5.304,0.02841
5.308,0.04493
5.312,0.02598
5.316,0.01741
5.32,0.03113
5.324,0.01049
5.328,0.00719
5.332,0.01598
5.336,-0.01372
5.34,0.01836
5.344,-0.00719
5.348,0.04683
5.352,0.03781
5.356,-0.04894
5.36,0.05433
5.364,-0.06463
5.368,0.02757
5.372,0.02595
5.376,0.05192
5.38,0.04758
5.384,0.06457
5.388,0.04107
5.392,0.04615
5.396,0.02043
5.4,0.02891
5.404,0.06642
5.408,0.01397
5.412,0.04818
5.416,0.08738
5.42,0.08536
5.424,0.08656
5.428,0.10661
5.432,0.18386
5.436,0.08087
5.44,0.03362
5.444,0.06734
5.448,0.11765
5.452,0.0753
5.456,0.14054
5.46,0.09648
5.464,0.03851
5.468,0.09836
5.472,0.05247
5.476,0.06206
5.48,-0.01784
5.484,0.08386
5.488,-0.05745
5.492,-0.03392
5.496,-0.00213
5.5,0.00167
5.504,-0.01647
5.508,0.02886
5.512,-0.02424
5.516,0.03718
5.52,0.01785
5.524,-0.03329
5.528,0.00871
5.532,0.0003
5.536,0.00835
5.54,-0.00121
5.544,0.0243
5.548,-0.01783
5.552,0.00187
5.556,-0.07336
5.56,-0.08375
5.564,-0.12524
5.568,-0.13067
5.572,-0.04215
5.576,0.08329
5.58,0.20606
5.584,0.44497
5.588,0.66573
5.592,0.8655
5.596,1.00744
5.6,0.90482
5.604,0.8807
5.608,0.68513
5.612,0.43512
5.616,0.24951
5.62,0.04944
5.624,-0.0654
5.628,-0.12867
5.632,-0.19483
5.636,-0.14688
5.64,-0.13322
5.644,-0.0514
5.648,-0.05281
5.652,-0.0661
5.656,0.01468
5.66,-0.01068
5.664,-0.0004
5.668,-0.00323
5.672,-0.02393
5.676,-0.05488
5.68,0.04008
5.684,0.00417
5.688,-0.0016
5.692,0.03628
5.696,-0.06042
5.7,-0.01793
5.704,0.03587
5.708,-0.01015
5.712,-0.02234
5.716,-0.02837
5.72,-0.06126
5.724,0.06741
5.728,-0.02465
5.732,-0.03273
5.736,0.01068
5.74,0.00712
5.744,0.00704
5.748,0.04882
5.752,0.03382
5.756,0.03789
5.76,-0.04503
5.764,0.04979
5.768,0.05468
5.772,0.05862
5.776,0.01294
5.78,0.05067
5.784,0.07216
5.788,0.01816
5.792,-0.00271
5.796,0.02405
5.8,0.03329
5.804,0.01566
5.808,0.06077
5.812,0.03311
5.816,0.11089
5.82,0.0739
5.824,0.119
5.828,0.076
5.832,0.12393
5.836,0.16222
5.84,0.19171
5.844,0.13889
5.848,0.1401
5.852,0.20959
5.856,0.25288
5.86,0.17703
5.864,0.21346
5.868,0.19466
5.872,0.24746
5.876,0.18288
5.88,0.21827
5.884,0.20465
5.888,0.12577
5.892,0.18696
5.896,0.13643
5.9,0.10191
5.904,0.17091
5.908,0.16153
5.912,0.14268
5.916,0.18104
5.92,0.11986
5.924,0.16342
5.928,0.1541
5.932,0.09434
5.936,0.11271
5.94,0.07399
5.944,0.06182
5.948,-0.01964
5.952,0.06184
5.956,0.02826
5.96,0.06723
5.964,0.04343
5.968,0.02855
5.972,0.02464
5.976,0.06259
5.98,0.00737
5.984,0.00303
5.988,0.01547
5.992,0.04015
5.996,0.00999
6.0,0.03083
6.004,0.00502
6.008,-0.01876
6.012,0.06545
6.016,-0.05675
6.02,-0.00868
6.024,-0.00479
6.028,0.02792
6.032,-0.09437
6.036,0.0615
6.04,0.00554
6.044,0.00731
6.048,0.02402
6.052,0.02742
6.056,-0.03662
6.06,0.02381
6.064,-0.09349
6.068,0.00558
6.072,-0.01024
6.076,-0.04822
6.08,-0.01163
6.084,-0.07238
6.088,0.09472
6.092,-0.05911
6.096,0.01954
6.1,-0.0044
6.104,0.02059
6.108,0.02587
6.112,-0.10912
6.116,-0.0436
6.12,-0.08011
6.124,-0.00811
6.128,-0.02778
6.132,0.01659
6.136,0.00307
6.14,-0.04986
6.144,-0.08084
6.148,-0.02744
6.152,-0.03064
6.156,-0.03968
6.16,-0.05114
6.164,0.00296
6.168,-0.03181
6.172,-0.06496
6.176,-0.00771
6.18,0.05324
6.184,0.01058
6.188,-0.02973
6.192,-0.0507
6.196,0.00843
6.2,-0.00104
6.204,0.04373
6.208,-0.02743
6.212,0.01817
6.216,0.07449
6.22,0.05857
6.224,0.09295
6.228,0.08022
6.232,0.11518
6.236,0.13013
6.24,0.0875
6.244,0.16758
6.248,0.12749
6.252,0.07793
6.256,0.14285
6.26,0.04763
6.264,0.02922
6.268,-0.00463
6.272,-0.01071
6.276,-0.03034
6.28,-0.01531
6.284,-0.05049
6.288,-0.01469
6.292,-0.05153
6.296,-0.03148
6.3,0.003
6.304,0.00186
6.308,-0.03348
6.312,-0.03398
6.316,-0.07053
6.32,0.0162
6.324,0.01202
6.328,-0.0392
6.332,-0.04416
6.336,0.02856
6.34,-0.01983
6.344,-0.00597
6.348,0.02458
6.352,0.01433
6.356,-0.04851
6.36,-0.05213
6.364,-0.11569
6.368,-0.16274
6.372,-0.03712
6.376,0.05673
6.38,0.21155
6.384,0.34972
6.388,0.61746
6.392,0.75329
6.396,0.99286
6.4,0.98855
6.404,0.8907
6.408,0.74502
6.412,0.4918
6.416,0.28991
6.42,0.16261
6.424,-0.06417
6.428,-0.12082
6.432,-0.25029
6.436,-0.19756
6.44,-0.08803
6.444,-0.08923
6.448,-0.00823
6.452,0.0439
6.456,0.00291
6.46,-0.06511
6.464,-0.01473
6.468,-0.00223
6.472,-0.03927
6.476,-0.02575
6.48,-0.0439
6.484,-0.0013
6.488,0.03955
6.492,-0.0543
6.496,-0.08237
6.5,0.03485
6.504,0.0238
6.508,-0.00936
6.512,-0.06746
6.516,-0.01767
6.52,-0.01676
6.524,-0.03791
6.528,-0.0087
6.532,-0.0138
6.536,-0.00337
6.54,-0.02392
6.544,-0.08288
6.548,-0.04838
6.552,0.00294
6.556,-0.08848
6.56,-0.01623
6.564,-0.03134
6.568,-0.01218
6.572,0.03022
6.576,-0.05844
6.58,-0.01046
6.584,-0.04673
6.588,0.01947
6.592,-0.00215
6.596,-0.02828
6.6,0.05658
6.604,-0.06539
6.608,0.07599
6.612,0.06356
6.616,0.02798
6.62,0.00723
6.624,0.01239
6.628,0.08988
6.632,0.06569
6.636,0.14116
6.64,0.1021
6.644,0.16789
6.648,0.12252
6.652,0.17173
6.656,0.15191
6.66,0.20485
6.664,0.1686
6.668,0.24682
6.672,0.25318
6.676,0.22047
6.68,0.20389
6.684,0.1475
6.688,0.15655
6.692,0.22842
6.696,0.15836
6.7,0.13171
6.704,0.16199
6.708,0.09793
6.712,0.14748
6.716,0.12749
6.72,0.08008
6.724,0.11143
6.728,0.10789
6.732,0.0337
6.736,0.10509
6.74,0.0617
6.744,0.03768
6.748,0.05762
6.752,0.05453
6.756,0.03029
6.76,-0.01321
6.764,0.08241
6.768,-0.03199
6.772,0.00267
6.776,-0.03125
6.78,0.01421
6.784,0.04257
6.788,-0.06481
6.792,0.03699
6.796,-0.00068
6.8,-0.02415
6.804,-0.06303
6.808,-0.038
6.812,-0.02152
6.816,-0.02661
6.82,-0.01099
6.824,-0.03553
6.828,-0.04189
6.832,-0.0024
6.836,0.01724
6.84,-0.05794
6.844,0.01968
6.848,-0.02602
6.852,0.00466
6.856,-0.01179
6.86,-0.03757
6.864,-0.00077
6.868,-0.00347
6.872,-0.02384
6.876,-0.00828
6.88,-0.05251
6.884,-0.07908
6.888,0.03479
6.892,-0.04691
6.896,-0.00718
6.9,-0.02868
6.904,0.00256
6.908,-0.05686
6.912,0.0285
6.916,-0.04846
6.92,-0.02368
6.924,-0.00718
6.928,-0.01564
6.932,-0.00436
6.936,-0.09866
6.94,-0.02203
6.944,0.00431
6.948,0.00344
6.952,-0.11016
6.956,-0.04814
6.96,0.02485
6.964,0.00768
6.968,0.00993
6.972,-0.0522
6.976,0.01402
6.98,-0.03455
6.984,0.01769
6.988,0.00324
6.992,-0.01661
6.996,0.10603
7.0,-0.03566
7.004,0.07499
7.008,0.00866
7.012,0.03698
7.016,0.07701
7.02,0.04081
7.024,0.06255
7.028,-0.00849
7.032,0.07194
7.036,0.04247
7.04,0.08846
7.044,0.00443
7.048,0.06072
7.052,0.02133
7.056,0.00693
7.06,0.01744
7.064,-0.03168
7.068,-0.08839
7.072,-0.05177
7.076,-0.00278
7.08,-0.02663
7.084,-0.0283
7.088,-0.07282
7.092,-0.06244
7.096,-0.01235
7.1,0.03393
7.104,-0.06364
7.108,-0.04515
7.112,-0.07504
7.116,0.05904
7.12,-0.02543
7.124,0.02625
7.128,-0.09388
7.132,0.03095
7.136,0.00708
7.14,-0.11847
7.144,-0.15855
7.148,-0.12846
7.152,-0.15486
7.156,-0.08068
7.16,-0.00754
7.164,0.20634
7.168,0.33442
7.172,0.59627
7.176,0.72399
7.18,0.96151
7.184,0.9522
7.188,0.92937
7.192,0.74555
7.196,0.65023
7.2,0.34758
7.204,0.06509
7.208,-0.04322
7.212,-0.1002
7.216,-0.1914
7.22,-0.15705
7.224,-0.11255
7.228,-0.0423
7.232,-0.08696
7.236,-0.01059
7.24,-0.07032
7.244,-0.0319
7.248,-0.05547
7.252,-0.04997
7.256,-0.03417
7.26,-0.00534
7.264,-0.03099
7.268,-0.04435
7.272,-0.00157
7.276,-0.06156
7.28,0.03701
7.284,0.00631
7.288,-0.07225
7.292,-0.01329
7.296,-0.0223
7.3,-0.04032
7.304,-0.03719
7.308,0.01249
7.312,-0.07044
7.316,0.00774
7.32,-0.09585
7.324,-0.04525
7.328,-0.0357
7.332,-0.03626
7.336,0.00443
7.34,-0.0733
7.344,-0.01149
7.348,-0.01491
7.352,-0.01552
7.356,-0.01675
7.36,-0.0159
7.364,0.01498
7.368,0.01257
7.372,0.01901
7.376,-0.0051
7.38,-0.00244
7.384,-0.01698
7.388,0.05423
7.392,0.02218
7.396,0.02887
7.4,0.0695
7.404,0.07438
7.408,0.02964
7.412,0.01784
7.416,0.13548
7.42,0.1722
7.424,0.04926
7.428,0.13172
7.432,0.13687
7.436,0.1957
7.44,0.15159
7.444,0.11305
7.448,0.12709
7.452,0.18644
7.456,0.15448
7.46,0.21737
7.464,0.18861
7.468,0.20259
7.472,0.15922
7.476,0.19848
7.48,0.15929
7.484,0.14401
7.488,0.24443
7.492,0.14513
7.496,0.09166
7.5,0.22928
7.504,0.20915
7.508,0.16417
7.512,0.1007
7.516,0.08248
7.52,0.04554
7.524,0.09562
7.528,0.01038
7.532,0.02247
7.536,0.01254
7.54,0.07539
7.544,0.05345
7.548,-0.00183
7.552,0.01589
7.556,-0.03194
7.56,-0.00882
7.564,0.02693
7.568,-0.0066
7.572,-0.00263
7.576,-0.00742
7.58,-0.04281
7.584,0.02
7.588,0.06781
7.592,-0.053
7.596,-0.11958
7.6,-0.01947
7.604,-0.0663
7.608,-0.07886
7.612,-0.02999
7.616,-0.07188
7.62,-0.05462
7.624,-0.07655
7.628,-0.06423
7.632,0.00353
7.636,0.00954
7.64,-0.01632
7.644,-0.03125
7.648,0.01171
7.652,0.01936
7.656,-0.02101
7.66,-0.01719
7.664,-0.0305
7.668,-0.0448
7.672,-0.05164
7.676,0.02322
7.68,-0.0504
7.684,-0.03725
7.688,-0.06391
7.692,-0.03182
7.696,-0.03568
7.7,-0.00374
7.704,-0.044
7.708,-0.04498
7.712,-0.01491
7.716,-0.05557
7.72,0.00959
7.724,-0.07129
7.728,-0.0523
7.732,0.00888
7.736,0.0165
7.74,-0.00799
7.744,-0.04454
7.748,-0.0852
7.752,-0.03906
7.756,-0.03799
7.76,0.00719
7.764,-0.04547
7.768,-0.06765
7.772,-0.04225
7.776,0.01192
7.78,-0.02209
7.784,0.02507
7.788,-0.08461
7.792,-0.03074
7.796,-0.10899
7.8,-0.06267
7.804,0.03982
7.808,-0.04637
7.812,0.00632
7.816,-0.0416
7.82,-0.0422
7.824,0.01287
7.828,-0.03981
7.832,-0.04953
7.836,0.0545
7.84,-0.04407
7.844,0.00431
7.848,-0.01324
7.852,-0.0569
7.856,-0.01866
7.86,0.03186
7.864,-0.02813
7.868,-0.01912
7.872,-0.05321
7.876,-0.00385
7.88,-0.01709
7.884,-0.0142
7.888,-0.02207
7.892,0.01085
7.896,-0.07799
7.9,0.03186
7.904,0.02327
7.908,-0.01373
7.912,-0.01005
7.916,0.03021
7.92,-0.04328
7.924,0.00597
7.928,0.03748
7.932,0.13903
7.936,-0.04325
7.94,0.00634
7.944,0.0802
7.948,0.07363
7.952,0.10106
7.956,0.10036
7.96,0.05428
7.964,0.05256
7.968,0.08897
7.972,-0.00999
7.976,0.05848
7.98,0.01894
7.984,-0.02113
7.988,0.05828
7.992,0.00527
7.996,0.02337
8.0,-0.06844
8.004,-0.01991
8.008,0.00253
8.012,-0.02329
8.016,-0.00206
8.02,-0.04111
8.024,-0.05117
8.028,-0.03645
8.032,-0.10104
8.036,-0.01049
8.04,-0.07643
8.044,-0.04273
8.048,-0.00971
8.052,-0.07767
8.056,-0.00709
8.06,0.0058
8.064,-0.00975
8.068,-0.03273
8.072,-0.04948
8.076,-0.09407
8.08,-0.11881
8.084,-0.17606
8.088,-0.1384
8.092,-0.00088
8.096,0.1223
8.1,0.35347
8.104,0.59192
8.108,0.76841
8.112,0.89081
8.116,1.03403
8.12,0.96605
8.124,0.74848
8.128,0.59778
8.132,0.3724
8.136,0.08561
8.14,-0.0618
8.144,-0.1828
8.148,-0.17216
8.152,-0.09563
8.156,-0.14097
8.16,-0.09063
8.164,-0.06137
8.168,-0.08364
8.172,-0.05138
8.176,-0.02358
8.18,0.03768
8.184,0.02438
8.188,-0.02676
8.192,0.03955
8.196,0.02754
8.2,0.00096
8.204,0.00155
8.208,-0.00059
8.212,-0.00146
8.216,7e-05
8.22,-0.02581
8.224,0.00984
8.228,-0.07195
8.232,0.00496
8.236,-0.00517
8.24,-0.05675
8.244,0.01956
8.248,-0.0798
8.252,-0.04894
8.256,-0.01644
8.26,-0.03971
8.264,-0.06102
8.268,-0.05216
8.272,-0.07863
8.276,-0.06198
8.28,-0.04028
8.284,-0.00313
8.288,0.02544
8.292,-0.02983
8.296,-0.01283
8.3,-0.00175
8.304,-0.02998
8.308,-0.0023
8.312,-0.01551
8.316,0.02124
8.32,0.03925
8.324,0.08297
8.328,0.02005
8.332,-0.00972
8.336,0.11271
8.34,0.09304
8.344,0.06233
8.348,0.08987
8.352,0.03522
8.356,0.11574
8.36,0.12213
8.364,0.20755
8.368,0.23925
8.372,0.17277
8.376,0.26128
8.38,0.2168
8.384,0.18582
8.388,0.19719
8.392,0.19343
8.396,0.18512
8.4,0.25148
8.404,0.16051
8.408,0.1595
8.412,0.18046
8.416,0.186
8.42,0.19044
8.424,0.16633
8.428,0.16092
8.432,0.11662
8.436,0.1116
8.44,0.14427
8.444,0.11307
8.448,0.09499
8.452,0.03379
8.456,0.03951
8.46,0.09467
8.464,0.07574
8.468,0.00234
8.472,0.07194
8.476,0.04733
8.48,0.00345
8.484,-0.00946
8.488,0.05565
8.492,-0.03634
8.496,0.02148
8.5,0.00213
8.504,0.04713
8.508,-0.00669
8.512,0.01587
8.516,0.04526
8.52,-0.06374
8.524,0.02456
8.528,-0.01943
8.532,-0.0259
8.536,-0.00962
8.54,-0.11145
8.544,-0.00011
8.548,-0.07091
8.552,-0.00094
8.556,0.03317
8.56,-0.03116
8.564,-0.04964
8.568,-0.02296
8.572,0.0219
8.576,-0.02978
8.58,-0.08231
8.584,-0.03806
8.588,0.06539
8.592,0.04163
8.596,0.05337
8.6,-0.06815
8.604,0.00191
8.608,0.00201
8.612,-0.01065
8.616,-0.01389
8.62,0.01019
8.624,-0.0662
8.628,0.00301
8.632,0.00042
8.636,-0.00128
8.64,0.0133
8.644,-0.02361
8.648,-0.03138
8.652,-0.03623
8.656,0.03629
8.66,-0.03388
8.664,0.05047
8.668,0.00997
8.672,0.02858
8.676,0.03013
8.68,0.01508
8.684,-0.04553
8.688,-0.04834
8.692,-0.01159
8.696,-0.00361
8.7,0.04544
8.704,-0.03145
8.708,-0.00939
8.712,-0.05123
8.716,-0.02435
8.72,0.04329
8.724,0.00073
8.728,0.00116
8.732,0.02538
8.736,-0.00312
8.74,-0.02401
8.744,-0.00392
8.748,-0.06161
8.752,0.04022
8.756,0.00294
8.76,0.01007
8.764,-0.00645
8.768,-0.03091
8.772,-0.00989
8.776,-0.01728
8.78,0.07375
8.784,0.01713
8.788,0.07093
8.792,0.03259
8.796,0.05888
8.8,0.09278
8.804,0.06727
8.808,0.09611
8.812,0.11127
8.816,0.12306
8.82,0.0878
8.824,0.03791
8.828,0.06176
8.832,0.05207
8.836,0.10973
8.84,0.02733
8.844,0.03238
8.848,-0.0165
8.852,-0.08609
8.856,-0.02003
8.86,-0.00991
8.864,0.03845
8.868,-0.04664
8.872,0.00478
8.876,0.02002
8.88,-0.01761
8.884,-0.02218
8.888,-0.08463
8.892,0.0411
8.896,0.0209
8.9,0.02352
8.904,-0.02149
8.908,-0.01114
8.912,-0.00629
8.916,0.04045
8.92,0.03506
8.924,-0.04749
8.928,-0.13407
8.932,-0.11822
8.936,-0.13058
8.94,-0.09719
8.944,0.06589
8.948,0.20386
8.952,0.28695
8.956,0.45059
8.96,0.53829
8.964,0.54307
8.968,0.61105
8.972,0.45222
8.976,0.25528
8.98,0.17449
8.984,-0.00445
8.988,-0.04173
8.992,-0.15069
8.996,-0.16344
9.0,-0.17995
9.004,-0.18707
9.008,-0.05718
9.012,-0.0493
9.016,-0.0379
9.02,-0.03705
9.024,0.03715
9.028,0.00647
9.032,-0.03782
9.036,-0.02111
9.04,0.00494
9.044,0.02007
9.048,0.02282
9.052,-0.0731
9.056,0.02047
9.06,-0.00781
9.064,0.04716
9.068,-0.00816
9.072,0.06025
9.076,0.01149
9.08,0.06101
9.084,-0.01505
9.088,-0.02767
9.092,0.01074
9.096,0.02516
9.1,1e-05
9.104,0.02259
9.108,-0.00396
9.112,0.01376
9.116,-0.00902
9.12,0.0373
9.124,-0.03547
9.128,0.10888
9.132,-0.01197
9.136,-0.03261
9.14,-0.02076
9.144,0.02006
9.148,0.01395
9.152,0.01962
9.156,0.04714
9.16,0.02248
9.164,0.1269
9.168,0.05272
9.172,0.08562
9.176,0.04295
9.18,0.06986
9.184,0.08303
9.188,0.1332
9.192,0.09924
9.196,0.14969
9.2,0.11786
9.204,0.17867
9.208,0.17998
9.212,0.13288
9.216,0.15567
9.22,0.16739
9.224,0.1862
9.228,0.19136
9.232,0.23297
9.236,0.22794
9.24,0.29684
9.244,0.26334
9.248,0.16751
9.252,0.19666
9.256,0.12324
9.26,0.24644
9.264,0.19789
9.268,0.20367
9.272,0.19529
9.276,0.1551
9.28,0.17918
9.284,0.09926
9.288,0.12833
9.292,0.13011
9.296,0.10555
9.3,0.10792
9.304,0.10225
9.308,0.05249
9.312,0.08325
9.316,0.01183
9.32,0.07743
9.324,0.07226
9.328,0.03981
9.332,0.01642
9.336,0.08235
9.34,0.03738
9.344,-0.00628
9.348,0.07125
9.352,0.019
9.356,-0.01886
9.36,0.04213
9.364,0.00815
9.368,0.01648
9.372,-0.01337
9.376,0.00439
9.38,0.03339
9.384,0.05295
9.388,0.04401
9.392,0.08545
9.396,0.11669
9.4,0.08297
9.404,0.14415
9.408,0.14089
9.412,0.08943
9.416,0.15325
9.42,0.06159
9.424,0.09345
9.428,0.03472
9.432,0.01405
9.436,0.03116
9.44,0.07191
9.444,0.00227
9.448,0.05284
9.452,0.04033
9.456,0.00191
9.46,0.06381
9.464,0.04809
9.468,0.00512
9.472,0.01738
9.476,-0.01607
9.48,0.00899
9.484,0.04178
9.488,0.00143
9.492,-0.02017
9.496,0.01465
9.5,0.09426
9.504,0.02905
9.508,-0.00436
9.512,-0.02673
9.516,0.03311
9.52,-0.00192
9.524,-0.02933
9.528,-0.10129
9.532,-0.11755
9.536,-0.10242
9.54,0.02081
9.544,0.10739
9.548,0.26556
9.552,0.41783
9.556,0.65338
9.56,0.88723
9.564,0.9395
9.568,0.95029
9.572,0.90188
9.576,0.79309
9.58,0.55049
9.584,0.32112
9.588,0.06724
9.592,-0.01576
9.596,-0.14433
9.6,-0.19544
9.604,-0.12631
9.608,-0.06583
9.612,-0.06259
9.616,-0.04667
9.62,-0.02306
9.624,0.0154
9.628,0.01911
9.632,0.02271
9.636,0.06475
9.64,0.00942
9.644,0.01549
9.648,0.02217
9.652,-9e-05
9.656,0.01918
9.66,-0.08352
9.664,0.02364
9.668,0.01096
9.672,-0.05703
9.676,0.05265
9.68,0.0198
9.684,0.03627
9.688,0.07818
9.692,0.04152
9.696,-0.00084
9.7,-0.0037
9.704,-0.04405
9.708,0.00315
9.712,0.00395
9.716,0.07061
9.72,0.03714
9.724,0.02849
9.728,0.0308
9.732,0.05704
9.736,0.04861
9.74,0.05414
9.744,0.05831
9.748,0.01007
9.752,-0.02427
9.756,0.08732
9.76,0.06243
9.764,0.086
9.768,0.01009
9.772,0.05475
9.776,0.10355
9.78,0.06572
9.784,0.11952
9.788,0.15222
9.792,0.10235
9.796,0.1312
9.8,0.1511
9.804,0.15624
9.808,0.13492
9.812,0.18309
9.816,0.18147
9.82,0.19111
9.824,0.19211
9.828,0.26632
9.832,0.17003
9.836,0.24763
9.84,0.22094
9.844,0.19698
9.848,0.23891
9.852,0.20673
9.856,0.15336
9.86,0.26124
9.864,0.20408
9.868,0.22581
9.872,0.23336
9.876,0.2124
9.88,0.27754
9.884,0.13421
9.888,0.17893
9.892,0.15135
9.896,0.11357
9.9,0.17788
9.904,0.1617
9.908,0.14598
9.912,0.07601
9.916,0.03282
9.92,0.07052
9.924,0.09557
9.928,0.03254
9.932,0.06187
9.936,0.03222
9.94,0.00101
9.944,0.01658
9.948,0.01796
9.952,0.11418
9.956,0.08087
9.96,0.07377
9.964,0.09149
9.968,0.09094
9.972,-0.03787
9.976,0.00219
9.98,0.02204
9.984,0.03001
9.988,0.04146
9.992,0.02785
9.996,0.05662
