t_seg,ecg_mV
0.0,0.02382
0.004,0.04532
0.008,0.05478
0.012,0.02029
0.016,0.00862
0.02,0.03279
0.024,0.03539
0.028,0.0399
0.032,0.05317
0.036,0.03524
0.04,0.04788
0.044,0.0375
0.048,0.01172
0.052,0.04341
0.056,0.04204
0.06,0.0095
0.064,0.03777
0.068,0.03688
0.072,0.00357
0.076,0.00138
0.08,-0.00277
0.084,0.0511
0.088,0.04143
0.092,0.01872
0.096,0.01127
0.1,0.0509
0.104,0.05027
0.108,0.01754
0.112,0.02255
0.116,0.03793
0.12,-0.00443
0.124,0.01077
0.128,0.03942
0.132,0.05355
0.136,0.02184
0.14,0.03859
0.144,0.03176
0.148,0.03324
0.152,0.03839
0.156,0.02014
0.16,0.02272
0.164,0.03104
0.168,0.04709
0.172,0.00816
0.176,0.02534
0.18,0.02103
0.184,0.02951
0.188,0.0204
0.192,0.03797
0.196,0.03256
0.2,0.03253
0.204,0.02624
0.208,0.01249
0.212,0.01591
0.216,0.0312
0.22,0.02909
0.224,0.04275
0.228,0.01396
0.232,0.03349
0.236,0.02733
0.24,0.0326
0.244,0.01553
0.248,0.04052
0.252,0.00083
0.256,0.00118
0.26,0.02202
0.264,0.04173
0.268,0.0351
0.272,0.02639
0.276,0.02566
0.28,0.03351
0.284,0.04866
0.288,0.02319
0.292,0.01619
0.296,0.03148
0.3,0.04359
0.304,0.02812
0.308,0.02406
0.312,0.03772
0.316,0.04713
0.32,0.00784
0.324,0.02716
0.328,0.02917
0.332,0.01658
0.336,0.04017
0.34,0.01967
0.344,0.04392
0.348,0.01236
0.352,0.0346
0.356,0.03394
0.36,0.01287
0.364,0.01296
0.368,0.03387
0.372,0.01928
0.376,0.01602
0.38,0.0106
0.384,0.0382
0.388,0.0335
0.392,0.03111
0.396,0.04403
0.4,0.002
0.404,0.02402
0.408,0.00121
0.412,0.03111
0.416,0.01084
0.42,0.01367
0.424,0.04275
0.428,0.02322
0.432,0.01284
0.436,0.00536
0.44,0.01883
0.444,0.0283
0.448,0.01632
0.452,0.01289
0.456,0.02676
0.46,0.03238
0.464,0.02622
0.468,-0.00084
0.472,0.03159
0.476,0.0029
0.48,0.03803
0.484,0.01336
0.488,0.0223
0.492,0.04612
0.496,0.02097
0.5,0.0338
0.504,0.03152
0.508,0.02867
0.512,0.02542
0.516,0.00566
0.52,0.04243
0.524,0.03035
0.528,0.02887
0.532,0.01816
0.536,0.03119
0.54,-0.0029
0.544,0.02549
0.548,0.01426
0.552,0.02784
0.556,-0.00898
0.56,0.01263
0.564,0.01006
0.568,0.03829
0.572,0.03586
0.576,0.01545
0.58,0.04663
0.584,0.03187
0.588,0.04263
0.592,0.07465
0.596,0.04503
0.6,0.06775
0.604,0.08108
0.608,0.0781
0.612,0.13
0.616,0.11348
0.62,0.12627
0.624,0.11025
0.628,0.11329
0.632,0.14181
0.636,0.12348
0.64,0.12752
0.644,0.05937
0.648,0.08346
0.652,0.06118
0.656,0.02991
0.66,0.03279
0.664,0.0345
0.668,0.03584
0.672,0.00288
0.676,0.03582
0.68,0.01061
0.684,0.04433
0.688,0.03232
0.692,0.04033
0.696,0.00594
0.7,0.03221
0.704,-0.00351
0.708,0.02863
0.712,-0.0011
0.716,0.01668
0.72,0.01742
0.724,0.00768
0.728,0.02825
0.732,0.04264
0.736,0.01666
0.74,-0.02306
0.744,-0.06963
0.748,-0.10467
0.752,-0.10736
0.756,-0.0563
0.76,0.06219
0.764,0.18987
0.768,0.38278
0.772,0.61675
0.776,0.77787
0.78,0.98501
0.784,1.00895
0.788,0.94939
0.792,0.78928
0.796,0.55802
0.8,0.32581
0.804,0.1237
0.808,-0.02073
0.812,-0.09455
0.816,-0.16498
0.82,-0.16748
0.824,-0.09661
0.828,-0.05292
0.832,-0.04694
0.836,-0.02438
0.84,0.00987
0.844,0.01129
0.848,0.00384
0.852,0.00375
0.856,0.01015
0.86,0.00675
0.864,0.02836
0.868,0.0411
0.872,0.01046
0.876,-0.01246
0.88,0.05424
0.884,0.03011
0.888,0.01484
0.892,-0.00738
0.896,0.00526
0.9,-0.01167
0.904,0.02742
0.908,0.02725
0.912,0.02649
0.916,0.05111
0.92,0.00658
0.924,0.02923
0.928,0.02039
0.932,0.02488
0.936,0.01796
0.94,0.02039
0.944,0.01956
0.948,0.04206
0.952,0.02551
0.956,0.01768
0.96,0.02608
0.964,0.01149
0.968,0.0539
0.972,0.03643
0.976,0.03866
0.98,0.06584
0.984,0.04509
0.988,0.06524
0.992,0.05101
0.996,0.05166
1.0,0.10583
1.004,0.08815
1.008,0.077
1.012,0.09205
1.016,0.13373
1.02,0.15271
1.024,0.17842
1.028,0.16748
1.032,0.21223
1.036,0.20148
1.04,0.20021
1.044,0.19716
1.048,0.22488
1.052,0.2315
1.056,0.23598
1.06,0.24243
1.064,0.21267
1.068,0.21536
1.072,0.23397
1.076,0.24021
1.08,0.23059
1.084,0.22189
1.088,0.205
1.092,0.18414
1.096,0.17285
1.1,0.17949
1.104,0.14609
1.108,0.14849
1.112,0.13491
1.116,0.13466
1.12,0.10702
1.124,0.09807
1.128,0.07129
1.132,0.07918
1.136,0.0812
1.14,0.07051
1.144,0.0921
1.148,0.03183
1.152,0.01737
1.156,0.02402
1.16,0.02218
1.164,0.02358
1.168,0.0614
1.172,0.01811
1.176,0.05805
1.18,-0.0004
1.184,0.00933
1.188,0.0035
1.192,0.03327
1.196,0.03511
1.2,0.00664
1.204,0.01408
1.208,-0.00207
1.212,0.01272
1.216,-0.00681
1.22,0.0018
1.224,-0.00836
1.228,-0.00667
1.232,-0.01829
1.236,-0.00016
1.24,0.00559
1.244,0.00842
1.248,-0.00608
1.252,-0.0021
1.256,-0.00523
1.26,0.03391
1.264,0.02305
1.268,0.0197
1.272,0.0266
1.276,0.05159
1.28,0.02843
1.284,0.0403
1.288,0.07369
1.292,0.07218
1.296,0.08671
1.3,0.08708
1.304,0.08987
1.308,0.10994
1.312,0.1049
1.316,0.11843
1.32,0.08689
1.324,0.09164
1.328,0.05828
1.332,0.0577
1.336,0.00512
1.34,0.02336
1.344,0.04012
1.348,0.01923
1.352,0.01182
1.356,0.00751
1.36,-0.02382
1.364,-0.00612
1.368,0.01841
1.372,-0.00381
1.376,0.00649
1.38,-0.00661
1.384,0.00759
1.388,0.01458
1.392,0.0086
1.396,-0.00036
1.4,0.00145
1.404,-0.01331
1.408,0.03159
1.412,0.03288
1.416,-0.00507
1.42,0.01461
1.424,-0.03477
1.428,-0.08366
1.432,-0.10605
1.436,-0.11735
1.44,-0.11687
1.444,-0.00766
1.448,0.13343
1.452,0.31774
1.456,0.5851
1.46,0.75238
1.464,0.91065
1.468,0.99966
1.472,0.9566
1.476,0.83593
1.48,0.63659
1.484,0.3776
1.488,0.20046
1.492,-0.03428
1.496,-0.13021
1.5,-0.17096
1.504,-0.17953
1.508,-0.14981
1.512,-0.09132
1.516,-0.05185
1.52,-0.02951
1.524,-0.0267
1.528,-0.01881
1.532,-0.01254
1.536,-0.02729
1.54,-0.02532
1.544,-0.04295
1.548,-0.0058
1.552,-0.011
1.556,-0.01964
1.56,0.02329
1.564,0.0129
1.568,0.01681
1.572,-0.01576
1.576,0.02478
1.58,-0.00748
1.584,-0.00705
1.588,-0.02681
1.592,-0.00998
1.596,-0.01276
1.6,-0.01221
1.604,0.02561
1.608,-0.04671
1.612,0.00696
1.616,0.01089
1.62,0.00126
1.624,-0.0231
1.628,-0.00941
1.632,-0.0039
1.636,-0.00086
1.64,-0.00333
1.644,0.01237
1.648,0.01838
1.652,0.03878
1.656,0.01383
1.66,0.0339
1.664,0.02356
1.668,0.05716
1.672,0.03984
1.676,0.01189
1.68,0.08117
1.684,0.05688
1.688,0.0745
1.692,0.09552
1.696,0.13693
1.7,0.10322
1.704,0.12424
1.708,0.11423
1.712,0.15848
1.716,0.14992
1.72,0.18133
1.724,0.17664
1.728,0.18175
1.732,0.18876
1.736,0.19906
1.74,0.19619
1.744,0.20853
1.748,0.18981
1.752,0.2481
1.756,0.19515
1.76,0.18607
1.764,0.17094
1.768,0.20511
1.772,0.1896
1.776,0.21268
1.78,0.15366
1.784,0.14686
1.788,0.14256
1.792,0.11376
1.796,0.10241
1.8,0.10925
1.804,0.11131
1.808,0.06087
1.812,0.06785
1.816,0.07546
1.82,0.0386
1.824,0.05895
1.828,0.0445
1.832,0.03652
1.836,0.00618
1.84,-0.00704
1.844,0.01994
1.848,-0.02224
1.852,-0.00522
1.856,-0.0327
1.86,-0.01592
1.864,-0.0175
1.868,-0.02967
1.872,-0.00226
1.876,-0.0158
1.88,-0.00612
1.884,-0.02517
1.888,-0.03408
1.892,-0.03673
1.896,0.00167
1.9,-0.01909
1.904,-0.02138
1.908,-0.01208
1.912,-0.03251
1.916,0.00658
1.92,-0.01464
1.924,-0.02273
1.928,-0.03574
1.932,-0.00524
1.936,-0.01869
1.94,-0.03534
1.944,-0.00479
1.948,0.00427
1.952,-0.04278
1.956,-0.00434
1.96,-0.04062
1.964,-0.00638
1.968,-0.00632
1.972,-0.00677
1.976,-0.03937
1.98,-0.0143
1.984,-0.00732
1.988,-0.0192
1.992,-0.01681
1.996,-0.03135
2.0,-0.01178
2.004,-0.00828
2.008,-0.00394
2.012,-0.02038
2.016,-0.02595
2.02,-0.0309
2.024,-0.00726
2.028,-0.02651
2.032,-0.02717
2.036,-0.00597
2.04,-0.01148
2.044,-0.02335
2.048,-0.01244
2.052,0.00845
2.056,0.0077
2.06,0.02968
2.064,0.03467
2.068,0.046
2.072,0.03443
2.076,0.0778
2.08,0.07865
2.084,0.06717
2.088,0.09043
2.092,0.08234
2.096,0.07433
2.1,0.06406
2.104,0.052
2.108,0.05577
2.112,0.05054
2.116,0.03766
2.12,0.01984
2.124,-0.00211
2.128,0.00848
2.132,-0.01203
2.136,0.00149
2.14,-0.02718
2.144,-0.0573
2.148,-0.04197
2.152,-0.01833
2.156,-0.01929
2.16,-0.01949
2.164,-0.0249
2.168,-0.02237
2.172,-0.03543
2.176,-0.00814
2.18,-0.01084
2.184,-0.02784
2.188,0.00493
2.192,-0.016
2.196,-0.02017
2.2,-0.0099
2.204,-0.06576
2.208,-0.0733
2.212,-0.11517
2.216,-0.13609
2.22,-0.11562
2.224,0.03809
2.228,0.21572
2.232,0.39652
2.236,0.58856
2.24,0.80051
2.244,0.9416
2.248,0.981
2.252,0.88885
2.256,0.7065
2.26,0.50192
2.264,0.29135
2.268,0.0966
2.272,-0.0583
2.276,-0.17668
2.28,-0.18901
2.284,-0.178
2.288,-0.12429
2.292,-0.08207
2.296,-0.05056
2.3,-0.04129
2.304,-0.03023
2.308,-0.02531
2.312,-0.02813
2.316,-0.01053
2.32,-0.03544
2.324,-0.0288
2.328,-0.03898
2.332,-0.02338
2.336,-0.02642
2.34,-0.03522
2.344,-0.01769
2.348,-0.01313
2.352,-0.01718
2.356,-0.02933
2.36,-0.00692
2.364,-0.04927
2.368,-0.01638
2.372,-0.0177
2.376,-0.00808
2.38,-0.0109
2.384,0.00346
2.388,-0.02924
2.392,-0.03799
2.396,0.00606
2.4,-0.01136
2.404,-0.04623
2.408,-0.03694
2.412,-0.04062
2.416,-0.02992
2.42,0.00283
2.424,-0.02217
2.428,-0.00625
2.432,-0.01845
2.436,-0.01281
2.44,0.01032
2.444,0.02363
2.448,0.02827
2.452,0.00946
2.456,0.03041
2.46,0.06826
2.464,0.04075
2.468,0.08431
2.472,0.06921
2.476,0.08644
2.48,0.09935
2.484,0.09286
2.488,0.1317
2.492,0.14087
2.496,0.1356
2.5,0.18305
2.504,0.15676
2.508,0.18009
2.512,0.16292
2.516,0.19318
2.52,0.19227
2.524,0.19148
2.528,0.21484
2.532,0.15955
2.536,0.18603
2.54,0.14654
2.544,0.17115
2.548,0.17906
2.552,0.16143
2.556,0.16617
2.56,0.15548
2.564,0.12606
2.568,0.09342
2.572,0.10296
2.576,0.1118
2.58,0.0941
2.584,0.07958
2.588,0.04977
2.592,0.05847
2.596,0.0251
2.6,0.00182
2.604,0.02579
2.608,0.01195
2.612,-0.00392
2.616,0.00687
2.62,-0.01398
2.624,0.01006
2.628,-0.00776
2.632,-0.00784
2.636,-0.01247
2.64,-0.03817
2.644,-0.01961
2.648,-0.00756
2.652,-0.02886
2.656,-0.02025
2.66,0.00269
2.664,-0.02286
2.668,-0.03954
2.672,-0.03064
2.676,-0.04204
2.68,-0.02974
2.684,-0.00063
2.688,-0.03295
2.692,-0.01902
2.696,-0.00154
2.7,-0.03716
2.704,-0.03177
2.708,-0.03897
2.712,-0.04581
2.716,-0.03228
2.72,-0.02871
2.724,-0.02563
2.728,-0.05026
2.732,-0.05301
2.736,-0.03769
2.74,-0.04025
2.744,-0.04721
2.748,-0.03623
2.752,-0.01282
2.756,-0.03267
2.76,-0.02569
2.764,-0.02186
2.768,-0.01495
2.772,-0.03
2.776,-0.03584
2.78,0.02381
2.784,0.04248
2.788,0.0165
2.792,0.04172
2.796,0.0627
2.8,0.05829
2.804,0.10593
2.808,0.06459
2.812,0.07515
2.816,0.10334
2.82,0.05569
2.824,0.03455
2.828,0.02878
2.832,0.01521
2.836,-0.03002
2.84,0.0197
2.844,-0.01511
2.848,-0.00159
2.852,-0.00228
2.856,-0.00638
2.86,-0.01597
2.864,0.00699
2.868,-0.01343
2.872,-0.04683
2.876,-0.02115
2.88,-0.01804
2.884,-0.00292
2.888,-0.04479
2.892,-0.02774
2.896,-0.04002
2.9,-0.00912
2.904,-0.02243
2.908,-0.01712
2.912,-0.03387
2.916,-0.02269
2.92,-0.04119
2.924,-0.06239
2.928,-0.10103
2.932,-0.14864
2.936,-0.15332
2.94,-0.10456
2.944,-0.00574
2.948,0.12622
2.952,0.34136
2.956,0.554
2.96,0.73244
2.964,0.865
2.968,0.98943
2.972,0.94027
2.976,0.76471
2.98,0.547
2.984,0.3317
2.988,0.10712
2.992,-0.05434
2.996,-0.13131
3.0,-0.18299
3.004,-0.18304
3.008,-0.17506
3.012,-0.12371
3.016,-0.08713
3.02,-0.05282
3.024,-0.03667
3.028,-0.02462
3.032,-0.03822
3.036,-0.04815
3.04,-0.02512
3.044,-0.01492
3.048,-0.04759
3.052,-0.04313
3.056,-0.02174
3.06,-0.01966
3.064,-0.06826
3.068,-0.02593
3.072,-0.02589
3.076,-0.03317
3.08,-0.0513
3.084,-0.02438
3.088,-0.04286
3.092,-0.04331
3.096,-0.01555
3.1,-0.05942
3.104,-0.02781
3.108,-0.0495
3.112,-0.01044
3.116,-0.02509
3.12,-0.04262
3.124,-0.02916
3.128,-0.03149
3.132,-0.03822
3.136,-0.02016
3.14,-0.02123
3.144,-0.00091
3.148,-0.02083
3.152,0.01812
3.156,-0.00227
3.16,-0.00617
3.164,0.02617
3.168,0.02686
3.172,0.02674
3.176,0.02667
3.18,0.03236
3.184,0.05262
3.188,0.05952
3.192,0.06512
3.196,0.06426
3.2,0.0923
3.204,0.10876
3.208,0.08374
3.212,0.14011
3.216,0.13001
3.22,0.15323
3.224,0.14637
3.228,0.17809
3.232,0.17955
3.236,0.19295
3.24,0.19783
3.244,0.17416
3.248,0.19267
3.252,0.19005
3.256,0.1832
3.26,0.19289
3.264,0.15175
3.268,0.19254
3.272,0.12988
3.276,0.13245
3.28,0.15992
3.284,0.12784
3.288,0.123
3.292,0.10644
3.296,0.13018
3.3,0.11279
3.304,0.05701
3.308,0.04595
3.312,0.0524
3.316,0.05708
3.32,0.036
3.324,-0.00138
3.328,0.02971
3.332,-0.00577
3.336,-0.01098
3.34,-0.01458
3.344,-0.00112
3.348,0.00082
3.352,-0.01151
3.356,-0.01027
3.36,-0.00823
3.364,-0.03035
3.368,-0.02394
3.372,-0.01878
3.376,-0.03081
3.38,-0.02325
3.384,-0.00965
3.388,-0.04216
3.392,-0.03051
3.396,-0.02606
3.4,-0.00712
3.404,-0.04528
3.408,-0.00407
3.412,-0.03567
3.416,-0.02136
3.42,-0.01798
3.424,-0.03848
3.428,-0.00238
3.432,0.00691
3.436,0.02482
3.44,0.03072
3.444,0.03754
3.448,0.06035
3.452,0.04627
3.456,0.06016
3.46,0.07909
3.464,0.08693
3.468,0.0635
3.472,0.06907
3.476,0.04885
3.48,0.06464
3.484,0.04937
3.488,0.01871
3.492,0.02879
3.496,0.01946
3.5,0.0117
3.504,-4e-05
3.508,-0.01486
3.512,-0.00034
3.516,-0.05345
3.52,-0.01311
3.524,-0.03026
3.528,-0.03282
3.532,-0.0267
3.536,-0.06984
3.54,-0.03461
3.544,0.01821
3.548,-0.02528
3.552,-0.01196
3.556,-0.03773
3.56,-0.01603
3.564,-0.01275
3.568,-0.02895
3.572,-0.0413
3.576,-0.0437
3.58,-0.07791
3.584,-0.08161
3.588,-0.08581
3.592,-0.13508
3.596,-0.12104
3.6,-0.03994
3.604,0.07597
3.608,0.27849
3.612,0.48518
3.616,0.69602
3.62,0.90231
3.624,0.9746
3.628,0.92892
3.632,0.82588
3.636,0.6255
3.64,0.41247
3.644,0.16675
3.648,0.00887
3.652,-0.11743
3.656,-0.17556
3.66,-0.21517
3.664,-0.14648
3.668,-0.1094
3.672,-0.06153
3.676,-0.03983
3.68,-0.0212
3.684,-0.03832
3.688,-0.03937
3.692,-0.04505
3.696,-0.00463
3.7,-0.00612
3.704,-0.02237
3.708,-0.03448
3.712,-0.00375
3.716,-0.03381
3.72,-0.04915
3.724,-0.03332
3.728,-0.00321
3.732,-0.03644
3.736,-0.02149
3.74,-0.04159
3.744,-0.02424
3.748,-0.0181
3.752,-0.03746
3.756,-0.03286
3.76,-0.03388
3.764,-0.0224
3.768,-0.04398
3.772,-0.02169
3.776,-0.03037
3.78,-0.02668
3.784,-0.00897
3.788,-0.01924
3.792,-0.00728
3.796,-0.0003
3.8,-0.01144
3.804,-9e-05
3.808,0.02325
3.812,-0.00366
3.816,0.00965
3.82,0.02422
3.824,0.02059
3.828,0.00784
3.832,0.00752
3.836,0.05186
3.84,0.06008
3.844,0.04611
3.848,0.09127
3.852,0.08807
3.856,0.0931
3.86,0.11676
3.864,0.11729
3.868,0.10626
3.872,0.15619
3.876,0.16051
3.88,0.1641
3.884,0.18611
3.888,0.19141
3.892,0.19614
3.896,0.20491
3.9,0.20942
3.904,0.18951
3.908,0.17862
3.912,0.19659
3.916,0.1853
3.92,0.19016
3.924,0.18132
3.928,0.16091
3.932,0.17327
3.936,0.14697
3.94,0.15879
3.944,0.12895
3.948,0.09478
3.952,0.11854
3.956,0.07977
3.96,0.10687
3.964,0.07551
3.968,0.06022
3.972,0.02901
3.976,0.07466
3.98,0.04344
3.984,0.01938
3.988,0.02128
3.992,0.03421
3.996,0.03325
4.0,-0.00406
4.004,0.02017
4.008,-0.00192
4.012,-0.01142
4.016,-0.00058
4.02,0.02537
4.024,-0.00504
4.028,-0.01164
4.032,-0.01807
4.036,-0.00593
4.04,-0.01217
4.044,-0.01341
4.048,-0.00166
4.052,-0.00368
4.056,-0.02762
4.06,-0.04519
4.064,-0.01045
4.068,-0.01422
4.072,-0.02
4.076,-0.00717
4.08,0.01027
4.084,-0.00997
4.088,-0.04573
4.092,-0.01268
4.096,0.02573
4.1,-0.00907
4.104,-0.03935
4.108,-0.00908
4.112,-0.04113
4.116,-0.01504
4.12,-0.01769
4.124,-0.01283
4.128,-0.01314
4.132,-0.02576
4.136,-0.01958
4.14,0.01612
4.144,-0.00755
4.148,-0.03406
4.152,0.00459
4.156,-0.03106
4.16,-0.01937
4.164,-0.0075
4.168,-0.04043
4.172,0.00033
4.176,0.00303
4.18,-0.02819
4.184,-0.02816
4.188,-0.02325
4.192,-0.00589
4.196,-0.04318
4.2,-0.02619
4.204,-0.00759
4.208,-0.00291
4.212,-0.00276
4.216,-0.01714
4.22,-0.0024
4.224,-0.00969
4.228,0.00296
4.232,-0.02968
4.236,-0.02653
4.24,-0.01605
4.244,-0.02764
4.248,-0.04632
4.252,0.00158
4.256,0.01974
4.26,0.01661
4.264,-0.03061
4.268,-0.02648
4.272,0.0028
4.276,0.00168
4.28,-0.00237
4.284,-0.03497
4.288,-0.02458
4.292,0.004
4.296,-0.00819
4.3,0.00607
4.304,-0.00784
4.308,-0.01659
4.312,0.00125
4.316,-0.01246
4.32,-0.00417
4.324,0.00161
4.328,-0.00795
4.332,0.00049
4.336,0.00427
4.34,-0.02778
4.344,0.00472
4.348,-0.0149
4.352,-0.00711
4.356,-0.00577
4.36,-0.00928
4.364,0.00976
4.368,0.00531
4.372,-0.00547
4.376,0.00331
4.38,-0.04436
4.384,-0.01781
4.388,0.01221
4.392,-0.01102
4.396,-0.00032
4.4,0.00874
4.404,-0.02012
4.408,-0.00103
4.412,0.02066
4.416,0.01144
4.42,0.02167
4.424,0.03551
4.428,0.05345
4.432,0.05431
4.436,0.07124
4.44,0.09392
4.444,0.1183
4.448,0.11192
4.452,0.1047
4.456,0.08106
4.46,0.09035
4.464,0.08138
4.468,0.05971
4.472,0.06045
4.476,0.02328
4.48,0.03112
4.484,0.01594
4.488,-0.00095
4.492,0.00263
4.496,-0.0437
4.5,-0.01639
4.504,0.00826
4.508,-0.00845
4.512,0.00872
4.516,-0.00958
4.52,-0.01534
4.524,0.00343
4.528,-0.00617
4.532,-0.00234
4.536,-0.02085
4.54,-0.02208
4.544,-0.01311
4.548,-0.02334
4.552,-0.00642
4.556,-0.00756
4.56,-0.01083
4.564,-0.03525
4.568,-0.07219
4.572,-0.09485
4.576,-0.11751
4.58,-0.08176
4.584,0.01991
4.588,0.18299
4.592,0.37277
4.596,0.60022
4.6,0.77179
4.604,0.92833
4.608,0.98235
4.612,0.92744
4.616,0.7891
4.62,0.56924
4.624,0.35969
4.628,0.14675
4.632,-0.04222
4.636,-0.13589
4.64,-0.15725
4.644,-0.15901
4.648,-0.12395
4.652,-0.05617
4.656,-0.01675
4.66,-0.0614
4.664,0.02373
4.668,-0.01763
4.672,-0.00261
4.676,0.00654
4.68,-0.00278
4.684,-0.01153
4.688,-0.03295
4.692,0.00643
4.696,-0.00201
4.7,0.00524
4.704,-0.0028
4.708,-0.00528
4.712,0.01089
4.716,0.00129
4.72,-0.01578
4.724,-0.00381
4.728,0.01346
4.732,0.04289
4.736,0.02287
4.74,-0.01582
4.744,-0.01104
4.748,0.00163
4.752,0.00807
4.756,0.02613
4.76,0.00697
4.764,0.00323
4.768,-0.02054
4.772,0.02474
4.776,0.00798
4.78,-0.00264
4.784,0.01131
4.788,0.03261
4.792,0.01838
4.796,0.01125
4.8,0.01419
4.804,0.02961
4.808,0.04888
4.812,0.05294
4.816,0.0339
4.82,0.08852
4.824,0.06641
4.828,0.09825
4.832,0.09728
4.836,0.13064
4.84,0.12849
4.844,0.1339
4.848,0.15474
4.852,0.16678
4.856,0.17875
4.86,0.1916
4.864,0.1678
4.868,0.24422
4.872,0.19888
4.876,0.24064
4.88,0.21329
4.884,0.21236
4.888,0.19984
4.892,0.19488
4.896,0.20681
4.9,0.23692
4.904,0.21613
4.908,0.20251
4.912,0.19361
4.916,0.16913
4.92,0.17357
4.924,0.13381
4.928,0.15711
4.932,0.10683
4.936,0.12658
4.94,0.11173
4.944,0.09818
4.948,0.09489
4.952,0.08212
4.956,0.08556
4.96,0.07677
4.964,0.06321
4.968,0.03765
4.972,0.04364
4.976,0.01462
4.98,0.04095
4.984,0.03795
4.988,0.01321
4.992,0.00277
4.996,0.0448
5.0,0.00058
5.004,-0.00342
5.008,0.02204
5.012,0.00495
5.016,-0.00894
5.02,0.02511
5.024,0.03947
5.028,0.00871
5.032,-0.00189
5.036,0.02481
5.04,-0.00806
5.044,0.03062
5.048,0.02676
5.052,0.02083
5.056,-0.00526
5.06,0.00103
5.064,0.03625
5.068,0.01583
5.072,0.01121
5.076,0.01474
5.08,0.01573
5.084,-0.00546
5.088,-0.01104
5.092,0.00036
5.096,-0.01309
5.1,0.01021
5.104,0.01163
5.108,-0.004
5.112,0.01496
5.116,0.01686
5.12,-0.0092
5.124,0.00029
5.128,0.01092
5.132,0.00213
5.136,0.00376
5.14,-0.00662
5.144,-0.01434
5.148,0.01756
5.152,-0.00027
5.156,-0.0109
5.16,0.01076
5.164,0.03898
5.168,0.01884
5.172,0.00209
5.176,-0.00651
5.18,0.03079
5.184,0.0415
5.188,0.02713
5.192,0.03756
5.196,0.04388
5.2,0.02291
5.204,0.04642
5.208,0.0646
5.212,0.07813
5.216,0.08919
5.22,0.10411
5.224,0.11994
5.228,0.11369
5.232,0.11921
5.236,0.09485
5.24,0.11052
5.244,0.08917
5.248,0.09382
5.252,0.08767
5.256,0.04792
5.26,0.05106
5.264,0.04147
5.268,0.0359
5.272,0.01929
5.276,-0.0236
5.28,0.024
5.284,0.02415
5.288,-0.02168
5.292,0.01429
5.296,0.02265
5.3,0.02627
5.304,0.01587
5.308,0.02412
5.312,0.02336
5.316,0.01984
5.32,0.01034
5.324,0.0157
5.328,0.00441
5.332,0.01436
5.336,0.0136
5.34,0.01231
5.344,-0.00377
5.348,-0.02326
5.352,-0.04016
5.356,-0.09105
5.36,-0.09187
5.364,-0.04871
5.368,0.05398
5.372,0.25938
5.376,0.4528
5.38,0.67223
5.384,0.87365
5.388,0.9943
5.392,0.9986
5.396,0.916
5.4,0.71603
5.404,0.51197
5.408,0.28701
5.412,0.08958
5.416,-0.06769
5.42,-0.13067
5.424,-0.14526
5.428,-0.12646
5.432,-0.06682
5.436,-0.04824
5.44,0.00793
5.444,0.00653
5.448,0.01578
5.452,0.03961
5.456,0.00431
5.46,0.0444
5.464,0.01583
5.468,-0.00571
5.472,0.01807
5.476,0.00329
5.48,0.0265
5.484,0.01508
5.488,0.01855
5.492,0.03885
5.496,0.00808
5.5,0.01811
5.504,0.01448
5.508,0.01666
5.512,0.03531
5.516,0.05045
5.52,0.01615
5.524,0.03483
5.528,0.01623
5.532,0.03601
5.536,0.02473
5.54,-0.00318
5.544,-0.00132
5.548,0.02406
5.552,0.03393
5.556,0.03098
5.56,0.05181
5.564,0.04614
5.568,0.0099
5.572,0.01025
5.576,0.0532
5.58,0.06511
5.584,0.0341
5.588,0.05909
5.592,0.07804
5.596,0.07628
5.6,0.08827
5.604,0.07683
5.608,0.10938
5.612,0.12115
5.616,0.13172
5.62,0.11636
5.624,0.16606
5.628,0.16225
5.632,0.17527
5.636,0.20955
5.64,0.22064
5.644,0.1893
5.648,0.22358
5.652,0.22809
5.656,0.24055
5.66,0.25974
5.664,0.23081
5.668,0.21123
5.672,0.24463
5.676,0.25215
5.68,0.24143
5.684,0.24214
5.688,0.21419
5.692,0.22598
5.696,0.20501
5.7,0.1724
5.704,0.18423
5.708,0.19147
5.712,0.16617
5.716,0.1535
5.72,0.14596
5.724,0.12732
5.728,0.13092
5.732,0.11686
5.736,0.08186
5.74,0.08413
5.744,0.0951
5.748,0.10276
5.752,0.05974
5.756,0.03406
5.76,0.05636
5.764,0.04513
5.768,0.04644
5.772,0.05912
5.776,0.06064
5.78,0.03997
5.784,0.05423
5.788,0.04089
5.792,0.02802
5.796,0.01215
5.8,0.0194
5.804,0.01853
5.808,0.02988
5.812,0.04162
5.816,0.02557
5.82,0.02596
5.824,0.02174
5.828,0.00439
5.832,0.01919
5.836,0.00925
5.84,-0.00679
5.844,0.03597
5.848,0.01061
5.852,0.01848
5.856,0.02148
5.86,0.0236
5.864,0.01761
5.868,0.03566
5.872,0.04879
5.876,0.05266
5.88,0.04612
5.884,-0.00166
5.888,0.03336
5.892,0.04198
5.896,0.01085
5.9,0.01783
5.904,0.05897
5.908,0.02224
5.912,0.00582
5.916,0.04226
5.92,0.02909
5.924,0.04247
5.928,0.02463
5.932,0.00764
5.936,0.02148
5.94,0.05298
5.944,0.0502
5.948,0.0434
5.952,0.04837
5.956,0.05753
5.96,0.05036
5.964,0.09362
5.968,0.07836
5.972,0.10819
5.976,0.12328
5.98,0.12125
5.984,0.10741
5.988,0.1194
5.992,0.14302
5.996,0.10703
6.0,0.09813
6.004,0.12665
6.008,0.08426
6.012,0.08012
6.016,0.05968
6.02,0.03712
6.024,0.04232
6.028,0.01886
6.032,0.036
6.036,0.04269
6.04,0.03043
6.044,0.01399
6.048,0.01551
6.052,0.03448
6.056,0.0409
6.06,0.01432
6.064,0.05466
6.068,0.04303
6.072,0.06462
6.076,0.02396
6.08,0.01407
6.084,0.04773
6.088,0.01886
6.092,0.02883
6.096,-0.00508
6.1,0.00691
6.104,-0.00728
6.108,-0.01853
6.112,-0.09456
6.116,-0.09889
6.12,-0.04641
6.124,0.07186
6.128,0.20366
6.132,0.37906
6.136,0.60553
6.14,0.84747
6.144,0.95143
6.148,1.03424
6.152,0.94121
6.156,0.82844
6.16,0.5763
6.164,0.35921
6.168,0.1505
6.172,0.01187
6.176,-0.11818
6.18,-0.12153
6.184,-0.14653
6.188,-0.08405
6.192,-0.05215
6.196,0.02391
6.2,-0.02447
6.204,0.01476
6.208,0.03017
6.212,0.04242
6.216,0.04954
6.22,0.0251
6.224,0.00958
6.228,0.0537
6.232,0.03788
6.236,0.00594
6.24,0.03717
6.244,0.03809
6.248,0.02201
6.252,0.00861
6.256,0.01668
6.26,0.04816
6.264,0.03189
6.268,0.02546
6.272,0.02715
6.276,0.05418
6.28,0.0224
6.284,0.04626
6.288,0.04185
6.292,0.05764
6.296,0.01833
6.3,0.04739
6.304,0.03801
6.308,-0.00081
6.312,0.04453
6.316,0.05464
6.32,0.05934
6.324,0.04457
6.328,0.05631
6.332,0.04542
6.336,0.07991
6.34,0.08975
6.344,0.07599
6.348,0.09573
6.352,0.06826
6.356,0.10255
6.36,0.1017
6.364,0.11859
6.368,0.12592
6.372,0.12024
6.376,0.13942
6.38,0.1671
6.384,0.17391
6.388,0.16038
6.392,0.19803
6.396,0.22903
6.4,0.20416
6.404,0.22863
6.408,0.21874
6.412,0.23711
6.416,0.24571
6.42,0.24701
6.424,0.2315
6.428,0.24396
6.432,0.24334
6.436,0.24054
6.44,0.23583
6.444,0.23861
6.448,0.25297
6.452,0.24673
6.456,0.21259
6.46,0.19019
6.464,0.17812
6.468,0.18008
6.472,0.15321
6.476,0.16466
6.48,0.12505
6.484,0.13819
6.488,0.10786
6.492,0.11075
6.496,0.10648
6.5,0.08791
6.504,0.05768
6.508,0.071
6.512,0.08806
6.516,0.01662
6.52,0.04052
6.524,0.07249
6.528,0.02819
6.532,0.04874
6.536,0.04303
6.54,0.0273
6.544,0.02446
6.548,0.03563
6.552,0.01154
6.556,0.05747
6.56,0.02187
6.564,0.01379
6.568,0.02509
6.572,0.01861
6.576,0.03078
6.58,0.00928
6.584,0.01932
6.588,0.05861
6.592,0.02945
6.596,0.02382
6.6,0.04422
6.604,0.02388
6.608,0.07993
6.612,0.01815
6.616,0.02418
6.62,-0.0173
6.624,0.01493
6.628,0.03915
6.632,0.0438
6.636,0.01991
6.64,0.04227
6.644,0.04319
6.648,0.03543
6.652,0.02191
6.656,0.03587
6.66,0.03825
6.664,0.03148
6.668,0.03701
6.672,0.03626
6.676,0.01551
6.68,0.01729
6.684,0.03884
6.688,0.02
6.692,0.03222
6.696,0.02674
6.7,0.03117
6.704,0.01465
6.708,0.05763
6.712,0.02637
6.716,0.04728
6.72,0.05232
6.724,0.07598
6.728,0.05681
6.732,0.03542
6.736,0.06522
6.74,0.10586
6.744,0.10176
6.748,0.12887
6.752,0.12006
6.756,0.13861
6.76,0.13528
6.764,0.12157
6.768,0.10594
6.772,0.09758
6.776,0.10431
6.78,0.07908
6.784,0.07689
6.788,0.08731
6.792,0.03096
6.796,0.07471
6.8,0.02911
6.804,0.04098
6.808,0.04906
6.812,-0.00409
6.816,0.00865
6.82,0.05031
6.824,0.00409
6.828,0.02575
6.832,0.01842
6.836,0.02948
6.84,0.02198
6.844,0.02499
6.848,0.03346
6.852,0.02802
6.856,0.05473
6.86,0.00998
6.864,0.02245
6.868,0.04012
6.872,0.03298
6.876,0.02856
6.88,-0.02467
6.884,-0.06301
6.888,-0.08503
6.892,-0.05182
6.896,0.09034
6.9,0.21395
6.904,0.40569
6.908,0.64182
6.912,0.83861
6.916,0.97168
6.92,1.05751
6.924,0.98059
6.928,0.80843
6.932,0.58699
6.936,0.35937
6.94,0.13837
6.944,-0.01974
6.948,-0.12243
6.952,-0.13609
6.956,-0.14182
6.96,-0.07906
6.964,-0.04858
6.968,0.01873
6.972,-0.02129
6.976,0.01418
6.98,0.00522
6.984,0.01355
6.988,0.02376
6.992,-0.00519
6.996,0.02547
7.0,0.04153
7.004,0.0353
7.008,-0.02166
7.012,0.03102
7.016,0.03079
7.02,0.01592
7.024,0.04881
7.028,-0.01186
7.032,0.03303
7.036,0.03761
7.04,0.01102
7.044,0.02656
7.048,0.00818
7.052,0.0401
7.056,0.04832
7.06,0.00632
7.064,0.01258
7.068,0.03165
7.072,0.02156
7.076,0.04057
7.08,0.03544
7.084,0.05142
7.088,0.01296
7.092,0.01682
7.096,0.06313
7.1,0.06088
7.104,0.04337
7.108,0.04885
7.112,0.05024
7.116,0.04895
7.12,0.08442
7.124,0.04718
7.128,0.08275
7.132,0.08957
7.136,0.13148
7.14,0.12071
7.144,0.12391
7.148,0.10773
7.152,0.17859
7.156,0.16125
7.16,0.18776
7.164,0.18943
7.168,0.19513
7.172,0.19275
7.176,0.22426
7.18,0.20747
7.184,0.21897
7.188,0.2329
7.192,0.23162
7.196,0.24241
7.2,0.2549
7.204,0.25658
7.208,0.25277
7.212,0.21516
7.216,0.23734
7.22,0.21364
7.224,0.22849
7.228,0.21676
7.232,0.20545
7.236,0.17807
7.24,0.18564
7.244,0.1483
7.248,0.136
7.252,0.14833
7.256,0.13692
7.26,0.11938
7.264,0.07886
7.268,0.10297
7.272,0.085
7.276,0.0868
7.28,0.07851
7.284,0.03341
7.288,0.04876
7.292,0.05133
7.296,0.03796
7.3,0.03225
7.304,0.03697
7.308,0.05398
7.312,0.04307
7.316,0.01912
7.32,0.026
7.324,0.02898
7.328,0.03117
7.332,0.05923
7.336,0.02516
7.34,0.02922
7.344,0.01605
7.348,-0.00086
7.352,0.05515
7.356,0.03623
7.36,0.04093
7.364,-0.00273
7.368,-0.01189
7.372,0.0131
7.376,0.03539
7.38,0.01574
7.384,0.02383
7.388,0.00231
7.392,0.01907
7.396,0.07352
7.4,-0.01337
7.404,0.01249
7.408,0.03282
7.412,0.03277
7.416,0.00713
7.42,-0.00171
7.424,0.00512
7.428,0.02967
7.432,0.016
7.436,0.01748
7.44,0.02559
7.444,0.03392
7.448,0.02044
7.452,0.00849
7.456,0.00156
7.46,0.01909
7.464,-0.0022
7.468,0.00864
7.472,-0.01812
7.476,-0.01084
7.48,0.00568
7.484,0.00418
7.488,0.00931
7.492,-0.00999
7.496,0.0118
7.5,-0.00411
7.504,-0.01503
7.508,0.04682
7.512,0.02518
7.516,-0.00238
7.52,0.01762
7.524,0.04967
7.528,0.00106
7.532,0.00389
7.536,0.01698
7.54,0.00822
7.544,-0.01603
7.548,0.02602
7.552,0.00793
7.556,0.00716
7.56,0.00337
7.564,0.01985
7.568,0.02568
7.572,0.02706
7.576,0.0189
7.58,0.04277
7.584,0.02726
7.588,0.01835
7.592,0.00995
7.596,0.01526
7.6,0.01501
7.604,0.04277
7.608,0.03777
7.612,0.03666
7.616,0.0314
7.62,0.03711
7.624,0.08631
7.628,0.09057
7.632,0.11656
7.636,0.12013
7.64,0.1214
7.644,0.09407
7.648,0.11134
7.652,0.08624
7.656,0.08761
7.66,0.09371
7.664,0.09428
7.668,0.04465
7.672,0.03508
7.676,0.05468
7.68,0.01489
7.684,0.04744
7.688,0.0235
7.692,0.03133
7.696,0.00621
7.7,0.01903
7.704,0.01235
7.708,0.0149
7.712,0.01024
7.716,0.01684
7.72,0.02016
7.724,0.011
7.728,0.00054
7.732,0.02601
7.736,-0.00536
7.74,0.00766
7.744,0.01568
7.748,-0.00802
7.752,0.01495
7.756,-0.03425
7.76,-0.06515
7.764,-0.08974
7.768,-0.08435
7.772,-0.08805
7.776,0.00067
7.78,0.11722
7.784,0.36565
7.788,0.54071
7.792,0.76263
7.796,0.92939
7.8,0.98065
7.804,0.96999
7.808,0.82616
7.812,0.63209
7.816,0.39689
7.82,0.16372
7.824,0.00889
7.828,-0.1014
7.832,-0.13119
7.836,-0.169
7.84,-0.09598
7.844,-0.10411
7.848,-0.06374
7.852,-2e-05
7.856,-0.00483
7.86,-0.01158
7.864,-0.02206
7.868,0.00731
7.872,0.00374
7.876,-0.01031
7.88,0.00298
7.884,-0.00834
7.888,-0.0046
7.892,0.0064
7.896,0.01539
7.9,0.00178
7.904,0.0317
7.908,0.00524
7.912,-0.00967
7.916,0.00623
7.92,0.04019
7.924,0.01441
7.928,0.03321
7.932,-0.00872
7.936,0.01116
7.94,0.01618
7.944,0.00923
7.948,-0.01571
7.952,-0.00441
7.956,-0.00695
7.96,0.01463
7.964,0.00483
7.968,0.02238
7.972,-0.01606
7.976,0.03532
7.98,0.02898
7.984,0.01736
7.988,0.02352
7.992,0.02896
7.996,0.02588
8.0,0.05906
8.004,0.04772
8.008,0.05357
8.012,0.06124
8.016,0.10407
8.02,0.09004
8.024,0.10434
8.028,0.12768
8.032,0.13788
8.036,0.13327
8.04,0.12998
8.044,0.17559
8.048,0.15925
8.052,0.19182
8.056,0.19286
8.06,0.20681
8.064,0.19862
8.068,0.20575
8.072,0.20775
8.076,0.24533
8.08,0.19449
8.084,0.21863
8.088,0.2083
8.092,0.23589
8.096,0.21096
8.1,0.16447
8.104,0.20538
8.108,0.21462
8.112,0.17361
8.116,0.15193
8.12,0.16918
8.124,0.15572
8.128,0.12881
8.132,0.11433
8.136,0.11972
8.14,0.09521
8.144,0.07397
8.148,0.08682
8.152,0.05836
8.156,0.02461
8.16,0.05195
8.164,0.06276
8.168,0.0276
8.172,0.03006
8.176,0.02845
8.18,-0.00175
8.184,0.02269
8.188,0.02278
8.192,-0.00379
8.196,-0.01496
8.2,0.00204
8.204,0.01553
8.208,0.00852
8.212,-0.00022
8.216,0.00075
8.22,-0.02369
8.224,-0.01414
8.228,-0.00797
8.232,-0.00497
8.236,-0.00222
8.24,-0.00532
8.244,-0.01406
8.248,-0.00922
8.252,-0.00965
8.256,-0.00065
8.26,0.0074
8.264,-0.02264
8.268,0.00701
8.272,0.00671
8.276,0.00663
8.28,0.00375
8.284,-0.00097
8.288,-0.00263
8.292,-0.01924
8.296,-0.00795
8.3,0.00083
8.304,0.01099
8.308,0.01875
8.312,-0.00969
8.316,-0.01666
8.32,-0.01655
8.324,-0.01671
8.328,0.00356
8.332,-0.00605
8.336,0.00721
8.34,-0.00316
8.344,-0.00163
8.348,-0.01608
8.352,-0.02789
8.356,-0.00559
8.36,-0.01366
8.364,0.00903
8.368,0.02292
8.372,-0.02249
8.376,-0.00572
8.38,-6e-05
8.384,-0.004
8.388,0.00801
8.392,-0.0077
8.396,-0.03618
8.4,-0.00955
8.404,-0.02825
8.408,-0.00635
8.412,-0.01551
8.416,-0.00921
8.42,0.02029
8.424,0.00039
8.428,0.00881
8.432,-0.02071
8.436,-0.01567
8.44,-0.01367
8.444,-0.01786
8.448,-0.02571
8.452,-0.00281
8.456,-0.01124
8.46,-0.01136
8.464,-0.0183
8.468,0.00501
8.472,0.00867
8.476,-0.00461
8.48,0.00233
8.484,0.02826
8.488,0.00505
8.492,0.05607
8.496,0.04382
8.5,0.04537
8.504,0.07974
8.508,0.09813
8.512,0.0986
8.516,0.09508
8.52,0.10216
8.524,0.07194
8.528,0.06994
8.532,0.02983
8.536,0.06584
8.54,0.0225
8.544,0.00226
8.548,0.01078
8.552,0.02002
8.556,0.01287
8.56,-0.02504
8.564,-0.0097
8.568,-0.00741
8.572,0.01655
8.576,-0.0046
8.58,-0.01622
8.584,-0.02186
8.588,-0.00161
8.592,-0.00474
8.596,-0.00557
8.6,0.01359
8.604,-0.02554
8.608,-0.03223
8.612,-0.02785
8.616,0.0071
8.62,-0.00416
8.624,-0.02442
8.628,-0.0541
8.632,-0.09444
8.636,-0.10693
8.64,-0.14054
8.644,-0.15265
8.648,-0.06114
8.652,0.09272
8.656,0.27752
8.66,0.50766
8.664,0.69245
8.668,0.88142
8.672,0.98845
8.676,0.95277
8.68,0.82393
8.684,0.66834
8.688,0.40835
8.692,0.17142
8.696,0.01769
8.7,-0.13413
8.704,-0.18362
8.708,-0.18988
8.712,-0.1479
8.716,-0.14225
8.72,-0.06294
8.724,-0.03559
8.728,-0.0087
8.732,-0.03981
8.736,-0.01886
8.74,-0.04089
8.744,-0.03909
8.748,-0.01378
8.752,0.00506
8.756,-0.02889
8.76,-0.04103
8.764,-0.01862
8.768,-0.0386
8.772,-0.00818
8.776,-0.03689
8.78,-0.00614
8.784,-0.01304
8.788,-0.01796
8.792,-0.01176
8.796,-0.03171
8.8,-0.03105
8.804,-0.03438
8.808,-0.01268
8.812,-0.00358
8.816,-0.03778
8.82,-0.04291
8.824,0.01035
8.828,-0.06916
8.832,-0.006
8.836,-0.01355
8.84,-0.03346
8.844,-0.01756
8.848,-0.00028
8.852,-0.02839
8.856,-0.00963
8.86,-0.00134
8.864,-0.01009
8.868,0.00089
8.872,0.00794
8.876,0.02372
8.88,0.04865
8.884,0.04204
8.888,0.06868
8.892,0.05425
8.896,0.07311
8.9,0.08189
8.904,0.10308
8.908,0.10148
8.912,0.1317
8.916,0.16447
8.92,0.13563
8.924,0.14935
8.928,0.14838
8.932,0.182
8.936,0.17736
8.94,0.17754
8.944,0.19843
8.948,0.19786
8.952,0.19996
8.956,0.21296
8.96,0.20158
8.964,0.2048
8.968,0.1926
8.972,0.17201
8.976,0.17016
8.98,0.16347
8.984,0.1684
8.988,0.12881
8.992,0.10643
8.996,0.10915
9.0,0.11504
9.004,0.0827
9.008,0.08667
9.012,0.05649
9.016,0.09503
9.02,0.06676
9.024,0.03972
9.028,0.03784
9.032,-0.00613
9.036,0.01949
9.04,0.018
9.044,0.02755
9.048,0.0019
9.052,0.01297
9.056,-0.00875
9.06,-0.05294
9.064,-0.00881
9.068,-0.02309
9.072,-0.01855
9.076,-0.00809
9.08,-0.03135
9.084,-0.02538
9.088,-0.03445
9.092,-0.02891
9.096,-0.02501
9.1,-0.0128
9.104,-0.00389
9.108,-0.05291
9.112,-0.00655
9.116,-0.02331
9.12,-0.00193
9.124,-0.01678
9.128,-0.04504
9.132,-0.0207
9.136,-0.01272
9.14,-0.05392
9.144,-0.03274
9.148,-0.04168
9.152,-0.0436
9.156,-0.03639
9.16,-0.01594
9.164,-0.00749
9.168,-0.01573
9.172,-0.01997
9.176,-0.0267
9.18,-0.02496
9.184,-0.01915
9.188,-0.00851
9.192,-0.01914
9.196,-0.02663
9.2,-0.01577
9.204,0.00443
9.208,0.02495
9.212,0.02009
9.216,0.02893
9.22,0.04505
9.224,0.05236
9.228,0.06053
9.232,0.0436
9.236,0.10287
9.24,0.09012
9.244,0.05484
9.248,0.05311
9.252,0.05215
9.256,0.07171
9.26,0.03981
9.264,0.00155
9.268,-0.00447
9.272,0.00809
9.276,0.00142
9.28,-0.01502
9.284,-0.01742
9.288,-0.0332
9.292,-0.01554
9.296,-0.03375
9.3,-0.02899
9.304,-0.03332
9.308,-0.02579
9.312,-0.04576
9.316,-0.05603
9.32,-0.0275
9.324,-0.04529
9.328,-0.04672
9.332,-0.04235
9.336,-0.03824
9.34,-0.0219
9.344,-0.04699
9.348,-0.01358
9.352,-0.03942
9.356,-0.07066
9.36,-0.10329
9.364,-0.16156
9.368,-0.11892
9.372,-0.06339
9.376,0.03337
9.38,0.23412
9.384,0.44243
9.388,0.67056
9.392,0.82439
9.396,0.92344
9.4,0.94126
9.404,0.84818
9.408,0.65993
9.412,0.41832
9.416,0.19201
9.42,0.0091
9.424,-0.13736
9.428,-0.19877
9.432,-0.22227
9.436,-0.1421
9.44,-0.13417
9.444,-0.06314
9.448,-0.04635
9.452,-0.05692
9.456,-0.00442
9.46,-0.01731
9.464,-0.02766
9.468,-0.01064
9.472,-0.02197
9.476,-0.03957
9.48,-0.05506
9.484,-0.0209
9.488,-0.0071
9.492,-0.01836
9.496,-0.02786
9.5,-0.04384
9.504,-0.04617
9.508,-0.00332
9.512,-0.00946
9.516,-0.02431
9.52,-0.0327
9.524,-0.0194
9.528,-0.02995
9.532,-0.05914
9.536,-0.01379
9.54,-0.02079
9.544,-0.05236
9.548,-0.03214
9.552,-0.0431
9.556,-0.03653
9.56,-0.03001
9.564,-0.06238
9.568,-0.02764
9.572,-0.01415
9.576,-0.03214
9.58,0.00496
9.584,-0.01873
9.588,-0.00326
9.592,-0.00193
9.596,0.01757
9.6,0.01433
9.604,0.04168
9.608,0.05076
9.612,0.00153
9.616,0.07247
9.62,0.05804
9.624,0.07763
9.628,0.0777
9.632,0.09353
9.636,0.1055
9.64,0.13571
9.644,0.1227
9.648,0.12844
9.652,0.15245
9.656,0.1701
9.66,0.16405
9.664,0.19029
9.668,0.17535
9.672,0.17936
9.676,0.19589
9.68,0.19463
9.684,0.18563
9.688,0.22003
9.692,0.18619
9.696,0.17761
9.7,0.20158
9.704,0.1472
9.708,0.14588
9.712,0.12972
9.716,0.13133
9.72,0.10929
9.724,0.08745
9.728,0.09079
9.732,0.09879
9.736,0.07242
9.74,0.05701
9.744,0.05407
9.748,0.04794
9.752,0.02062
9.756,0.03026
9.76,0.01433
9.764,0.01442
9.768,0.01735
9.772,-0.02626
9.776,-0.01977
9.78,-0.01027
9.784,-0.01839
9.788,-0.01945
9.792,0.00264
9.796,-0.02501
9.8,-0.02506
9.804,-0.04131
9.808,-0.03207
9.812,-0.01107
9.816,-0.00346
9.82,-0.02664
9.824,-0.03127
9.828,-0.02828
9.832,-0.04137
9.836,-0.02874
9.84,-0.00049
9.844,-0.02556
9.848,-0.0128
9.852,-0.01647
9.856,-0.0163
9.86,-0.01065
9.864,-0.03448
9.868,-0.02453
9.872,-0.01156
9.876,-0.04154
9.88,-0.00509
9.884,-0.03791
9.888,-0.03678
9.892,-0.05997
9.896,0.01634
9.9,-0.01407
9.904,-0.03786
9.908,-0.01634
9.912,-0.03105
9.916,-0.01707
9.92,-0.02277
9.924,-0.00484
9.928,-0.04557
9.932,-0.00441
9.936,-0.02722
9.94,-0.0155
9.944,-0.05723
9.948,-0.0069
9.952,-0.01402
9.956,-0.00716
9.96,-0.01823
9.964,-0.03339
9.968,-0.02379
9.972,-0.0373
9.976,-0.04316
9.98,-0.00979
9.984,0.00893
9.988,-0.05772
9.992,-0.02122
9.996,-0.0165
