t_seg,ecg_mV
0.0,0.03475
0.004,0.03779
0.008,0.03882
0.012,-0.00058
0.016,0.02978
0.02,0.01842
0.024,0.02775
0.028,0.04045
0.032,0.01973
0.036,0.00553
0.04,0.04241
0.044,0.02795
0.048,0.00944
0.052,0.02142
0.056,0.03142
0.06,0.00385
0.064,0.06517
0.068,0.0169
0.072,0.03467
0.076,0.00897
0.08,0.01015
0.084,0.02439
0.088,0.03963
0.092,0.05199
0.096,0.03443
0.1,0.02885
0.104,0.03863
0.108,0.02206
0.112,0.03258
0.116,0.04085
0.12,0.04108
0.124,0.03178
0.128,0.01752
0.132,0.03917
0.136,0.03384
0.14,-0.00785
0.144,0.02842
0.148,0.01926
0.152,0.03827
0.156,0.02252
0.16,0.03617
0.164,-0.02208
0.168,0.02885
0.172,0.03669
0.176,0.02543
0.18,-0.00133
0.184,0.02106
0.188,0.01177
0.192,0.01957
0.196,0.04782
0.2,-0.01138
0.204,0.02191
0.208,0.04467
0.212,0.00188
0.216,0.01213
0.22,0.0026
0.224,0.02408
0.228,0.02403
0.232,0.04098
0.236,0.00791
0.24,0.02605
0.244,0.02754
0.248,-0.01562
0.252,0.02188
0.256,0.05179
0.26,0.0357
0.264,0.03933
0.268,0.05078
0.272,0.0417
0.276,0.0789
0.28,0.09713
0.284,0.08404
0.288,0.08838
0.292,0.10263
0.296,0.12933
0.3,0.1206
0.304,0.12015
0.308,0.12679
0.312,0.11623
0.316,0.10922
0.32,0.09288
0.324,0.0872
0.328,0.08161
0.332,0.09127
0.336,0.06823
0.34,0.07272
0.344,0.02554
0.348,0.04632
0.352,0.02318
0.356,0.02482
0.36,0.03787
0.364,0.01274
0.368,0.00282
0.372,-0.00868
0.376,0.05921
0.38,0.00335
0.384,0.02007
0.388,0.01616
0.392,0.02112
0.396,0.02615
0.4,0.02039
0.404,0.02547
0.408,0.01892
0.412,0.00323
0.416,0.00612
0.42,-0.00959
0.424,-0.05578
0.428,-0.04839
0.432,-0.08535
0.436,-0.06461
0.44,0.02202
0.444,0.12342
0.448,0.30516
0.452,0.50239
0.456,0.7451
0.46,0.91686
0.464,1.00561
0.468,1.00902
0.472,0.87438
0.476,0.71682
0.48,0.4414
0.484,0.23171
0.488,0.06824
0.492,-0.10099
0.496,-0.12051
0.5,-0.13568
0.504,-0.11498
0.508,-0.08371
0.512,-0.03824
0.516,0.00955
0.52,-0.02358
0.524,-0.00102
0.528,0.01605
0.532,0.02297
0.536,0.01581
0.54,0.02454
0.544,0.02478
0.548,-0.00386
0.552,0.02285
0.556,0.05197
0.56,0.02232
0.564,-0.00989
0.568,0.01411
0.572,0.01242
0.576,0.04713
0.58,0.01969
0.584,0.00362
0.588,0.02867
0.592,-0.00038
0.596,0.01883
0.6,0.00058
0.604,0.02001
0.608,0.04699
0.612,-0.00202
0.616,0.01744
0.62,0.02949
0.624,0.03191
0.628,0.02784
0.632,0.05231
0.636,0.05186
0.64,0.01617
0.644,0.04368
0.648,0.03931
0.652,0.02985
0.656,0.02993
0.66,0.04153
0.664,0.0484
0.668,0.08183
0.672,0.09314
0.676,0.06761
0.68,0.08656
0.684,0.11382
0.688,0.12788
0.692,0.14513
0.696,0.12662
0.7,0.16434
0.704,0.12405
0.708,0.1565
0.712,0.1781
0.716,0.1936
0.72,0.19813
0.724,0.20664
0.728,0.23601
0.732,0.22484
0.736,0.20393
0.74,0.23836
0.744,0.25229
0.748,0.23692
0.752,0.26972
0.756,0.23243
0.76,0.22827
0.764,0.21962
0.768,0.20865
0.772,0.19689
0.776,0.18352
0.78,0.14512
0.784,0.17544
0.788,0.13764
0.792,0.13531
0.796,0.08788
0.8,0.1065
0.804,0.09999
0.808,0.07883
0.812,0.08383
0.816,0.07796
0.82,0.07786
0.824,0.08199
0.828,0.03545
0.832,0.04457
0.836,0.02073
0.84,0.04464
0.844,0.02702
0.848,0.03711
0.852,0.0309
0.856,-0.02247
0.86,0.02269
0.864,0.02567
0.868,0.01822
0.872,0.04374
0.876,0.00243
0.88,-0.00913
0.884,-0.01409
0.888,-0.01037
0.892,0.00432
0.896,0.01253
0.9,0.02884
0.904,0.01784
0.908,0.00062
0.912,0.01433
0.916,-0.01413
0.92,0.00699
0.924,0.00041
0.928,0.01685
0.932,-0.00389
0.936,-0.02638
0.94,0.01003
0.944,0.00744
0.948,-0.00189
0.952,0.02188
0.956,-0.00654
0.96,0.02252
0.964,-0.00364
0.968,0.01845
0.972,-0.00438
0.976,-0.00341
0.98,0.02783
0.984,0.03575
0.988,0.021
0.992,0.02254
0.996,0.01471
1.0,0.03077
1.004,0.02377
1.008,0.00492
1.012,0.01979
1.016,-0.00474
1.02,-0.00235
1.024,0.00702
1.028,-0.00744
1.032,0.00861
1.036,-0.01477
1.04,-0.02092
1.044,0.00633
1.048,0.03021
1.052,0.00382
1.056,0.00122
1.06,0.03311
1.064,0.00477
1.068,0.00801
1.072,0.00254
1.076,-0.01495
1.08,0.01197
1.084,-0.01062
1.088,0.01663
1.092,0.02657
1.096,0.01108
1.1,-0.00376
1.104,-0.0092
1.108,0.00049
1.112,0.01876
1.116,-0.0201
1.12,0.02392
1.124,-0.02632
1.128,0.00038
1.132,0.0076
1.136,0.02926
1.14,-0.01773
1.144,-0.02189
1.148,0.01423
1.152,0.01255
1.156,0.00879
1.16,0.00094
1.164,-0.03532
1.168,0.02473
1.172,-0.01442
1.176,-0.01333
1.18,-0.00778
1.184,-0.02471
1.188,-0.01714
1.192,-0.01313
1.196,-0.00022
1.2,0.00544
1.204,0.02117
1.208,-0.00152
1.212,-0.00158
1.216,-0.01119
1.22,0.00317
1.224,-0.01277
1.228,-0.01501
1.232,0.01795
1.236,-0.00838
1.24,-0.01101
1.244,-0.01123
1.248,0.00189
1.252,-0.01625
1.256,6e-05
1.26,0.01329
1.264,-0.00957
1.268,0.01047
1.272,-0.00723
1.276,-0.01323
1.28,-0.0032
1.284,-0.00473
1.288,0.01831
1.292,0.02349
1.296,-0.00067
1.3,0.03674
1.304,-0.00258
1.308,0.02099
1.312,0.02596
1.316,0.0324
1.32,0.04401
1.324,0.03202
1.328,0.04722
1.332,0.06537
1.336,0.0675
1.34,0.08422
1.344,0.09424
1.348,0.09593
1.352,0.11043
1.356,0.09307
1.36,0.1057
1.364,0.07205
1.368,0.06516
1.372,0.02323
1.376,0.02607
1.38,0.04318
1.384,0.03558
1.388,0.00456
1.392,-0.0027
1.396,0.00175
1.4,-0.00201
1.404,0.00429
1.408,0.0135
1.412,0.021
1.416,0.01617
1.42,0.01702
1.424,-0.03088
1.428,-0.03347
1.432,-0.01178
1.436,-0.01067
1.44,0.0362
1.444,0.0166
1.448,-0.00128
1.452,0.0074
1.456,-0.01222
1.46,-0.02593
1.464,-0.06482
1.468,-0.06893
1.472,-0.07413
1.476,-0.09885
1.48,-0.00798
1.484,0.12463
1.488,0.30357
1.492,0.52535
1.496,0.73675
1.5,0.88877
1.504,0.9877
1.508,0.97146
1.512,0.8322
1.516,0.64831
1.52,0.41713
1.524,0.15907
1.528,-0.01673
1.532,-0.10638
1.536,-0.16767
1.54,-0.16821
1.544,-0.16857
1.548,-0.07605
1.552,-0.06622
1.556,-0.06563
1.56,-0.02735
1.564,-0.01454
1.568,-0.00163
1.572,0.00541
1.576,-0.04402
1.58,0.00215
1.584,-0.0179
1.588,-0.00706
1.592,-0.01457
1.596,-0.05921
1.6,-0.01586
1.604,-0.02702
1.608,-0.01622
1.612,-0.00865
1.616,-0.02384
1.62,-0.03323
1.624,-0.03031
1.628,-0.02566
1.632,-0.00828
1.636,-0.04187
1.64,0.00481
1.644,0.00675
1.648,0.00476
1.652,-0.01212
1.656,-0.01096
1.66,-0.02016
1.664,0.00334
1.668,0.03638
1.672,-0.01205
1.676,-0.02731
1.68,0.01141
1.684,0.01093
1.688,-0.00245
1.692,0.0247
1.696,0.04004
1.7,0.01367
1.704,0.04385
1.708,0.04244
1.712,0.05438
1.716,0.05549
1.72,0.05521
1.724,0.06056
1.728,0.09214
1.732,0.11525
1.736,0.11313
1.74,0.12103
1.744,0.12918
1.748,0.1543
1.752,0.12604
1.756,0.18083
1.76,0.15579
1.764,0.17202
1.768,0.21328
1.772,0.23316
1.776,0.21007
1.78,0.20286
1.784,0.19875
1.788,0.19281
1.792,0.16947
1.796,0.18184
1.8,0.19504
1.804,0.22333
1.808,0.18192
1.812,0.12228
1.816,0.14779
1.82,0.15529
1.824,0.14642
1.828,0.11995
1.832,0.12109
1.836,0.11251
1.84,0.10864
1.844,0.07937
1.848,0.08601
1.852,0.04251
1.856,0.05102
1.86,0.03736
1.864,0.04717
1.868,0.01977
1.872,0.06124
1.876,0.01925
1.88,0.00837
1.884,-1e-05
1.888,-0.00217
1.892,-0.00609
1.896,0.00758
1.9,0.00793
1.904,-0.01036
1.908,-0.02006
1.912,0.00013
1.916,-0.02591
1.92,-0.01175
1.924,-0.00185
1.928,-0.04585
1.932,-0.0207
1.936,-0.00294
1.94,-0.02483
1.944,-0.03642
1.948,-0.03992
1.952,-0.03106
1.956,-0.00485
1.96,-0.02675
1.964,-0.02076
1.968,-0.00238
1.972,-0.05129
1.976,0.00381
1.98,-0.01049
1.984,-0.0192
1.988,-0.02826
1.992,-0.03062
1.996,-0.02089
2.0,-0.02743
2.004,-0.01422
2.008,-0.00876
2.012,-0.01508
2.016,-0.00481
2.02,-0.00776
2.024,-0.02829
2.028,-0.0205
2.032,-0.01198
2.036,-0.0287
2.04,-0.00694
2.044,-0.01685
2.048,0.01766
2.052,0.01608
2.056,-0.00575
2.06,0.00608
2.064,0.00602
2.068,0.01852
2.072,0.00884
2.076,0.01947
2.08,0.05009
2.084,0.06253
2.088,0.0629
2.092,0.07031
2.096,0.10386
2.1,0.09945
2.104,0.04969
2.108,0.04181
2.112,0.05082
2.116,0.01572
2.12,0.02505
2.124,0.00368
2.128,0.01687
2.132,0.00612
2.136,0.00407
2.14,-0.00665
2.144,-0.00773
2.148,-0.01579
2.152,-0.02313
2.156,0.00498
2.16,-0.03364
2.164,0.00138
2.168,-0.03502
2.172,-0.0031
2.176,0.00051
2.18,-0.03081
2.184,-0.04137
2.188,-0.00725
2.192,-0.01839
2.196,-0.01283
2.2,-0.02337
2.204,-0.03097
2.208,-0.03718
2.212,-0.06464
2.216,-0.11882
2.22,-0.12735
2.224,-0.13438
2.228,-0.04379
2.232,0.09671
2.236,0.31016
2.24,0.50096
2.244,0.73424
2.248,0.88692
2.252,0.96208
2.256,0.94529
2.26,0.77395
2.264,0.59336
2.268,0.36463
2.272,0.14656
2.276,-0.01455
2.28,-0.1565
2.284,-0.18277
2.288,-0.20001
2.292,-0.16322
2.296,-0.11083
2.3,-0.05495
2.304,-0.03493
2.308,-0.02758
2.312,-0.0102
2.316,-0.01501
2.32,-0.0222
2.324,-0.03855
2.328,-0.00533
2.332,-0.04025
2.336,-0.03719
2.34,-0.01185
2.344,-0.02134
2.348,-0.02425
2.352,-0.02119
2.356,-0.0366
2.36,-0.01526
2.364,-0.01605
2.368,-0.03015
2.372,-0.02607
2.376,-0.04549
2.38,-0.02138
2.384,-0.00105
2.388,-0.05068
2.392,0.00033
2.396,-0.01014
2.4,-0.04228
2.404,-0.01759
2.408,-0.0389
2.412,-0.02435
2.416,-0.02357
2.42,-0.01423
2.424,-0.02965
2.428,0.00073
2.432,-0.00831
2.436,-0.02434
2.44,-0.01456
2.444,0.01604
2.448,0.00199
2.452,0.02529
2.456,0.02948
2.46,0.02416
2.464,0.03656
2.468,0.05437
2.472,0.05653
2.476,0.03972
2.48,0.08331
2.484,0.07545
2.488,0.10015
2.492,0.11857
2.496,0.09387
2.5,0.15601
2.504,0.15574
2.508,0.13846
2.512,0.17946
2.516,0.18616
2.52,0.19148
2.524,0.16141
2.528,0.18262
2.532,0.20674
2.536,0.1971
2.54,0.22143
2.544,0.15775
2.548,0.16973
2.552,0.17306
2.556,0.15474
2.56,0.15251
2.564,0.1627
2.568,0.11998
2.572,0.11308
2.576,0.08303
2.58,0.10996
2.584,0.09943
2.588,0.06212
2.592,0.07031
2.596,0.05532
2.6,0.04985
2.604,0.04255
2.608,0.03917
2.612,0.03552
2.616,0.0195
2.62,-0.01357
2.624,0.01942
2.628,0.00524
2.632,0.00897
2.636,-0.00587
2.64,-0.00673
2.644,-0.00926
2.648,-0.05761
2.652,0.0015
2.656,-0.00199
2.66,-0.0294
2.664,-0.03888
2.668,-0.04273
2.672,-0.05431
2.676,-0.02144
2.68,-0.06395
2.684,-0.03814
2.688,-0.04044
2.692,-0.02571
2.696,-0.04423
2.7,-0.03389
2.704,-0.06386
2.708,-0.01227
2.712,-0.02447
2.716,-0.03492
2.72,-0.037
2.724,-0.02672
2.728,-0.04609
2.732,-0.03237
2.736,-0.05572
2.74,-0.06084
2.744,-0.01539
2.748,-0.03069
2.752,-0.06108
2.756,-0.01889
2.76,-0.04614
2.764,-0.02464
2.768,-0.03845
2.772,-0.0362
2.776,-0.02751
2.78,-0.00284
2.784,-0.04143
2.788,-0.0457
2.792,-0.03205
2.796,-0.03342
2.8,-0.00847
2.804,-0.05948
2.808,-0.04155
2.812,-0.03285
2.816,-0.03919
2.82,-0.02212
2.824,-0.01092
2.828,-0.00677
2.832,-0.02293
2.836,-0.00528
2.84,-0.03858
2.844,-0.02016
2.848,-0.04162
2.852,-0.04551
2.856,-0.05236
2.86,-0.02844
2.864,-0.03276
2.868,-0.02273
2.872,-0.02754
2.876,-0.02418
2.88,-0.0503
2.884,-0.01187
2.888,-0.04216
2.892,-0.03472
2.896,-0.03391
2.9,-0.01493
2.904,-0.0345
2.908,-0.03627
2.912,-0.02406
2.916,-0.02503
2.92,-0.0257
2.924,-0.05467
2.928,-0.03863
2.932,-0.02292
2.936,-0.03532
2.94,-0.03018
2.944,-0.03003
2.948,-0.02277
2.952,0.00313
2.956,0.01173
2.96,-0.00284
2.964,0.03653
2.968,0.05079
2.972,0.05219
2.976,0.06392
2.98,0.05819
2.984,0.07805
2.988,0.07899
2.992,0.08887
2.996,0.08266
3.0,0.03527
3.004,0.01305
3.008,0.01933
3.012,0.0019
3.016,0.04274
3.02,0.00686
3.024,-0.02089
3.028,-0.03959
3.032,-0.02378
3.036,-0.00693
3.04,0.00805
3.044,-0.02823
3.048,-0.01528
3.052,-0.03257
3.056,-0.01608
3.06,-0.01513
3.064,-0.02608
3.068,-0.03903
3.072,-0.02179
3.076,-0.03922
3.08,-0.03548
3.084,-0.01709
3.088,-0.02907
3.092,-0.01452
3.096,-0.01998
3.1,-0.02675
3.104,-0.0327
3.108,-0.09808
3.112,-0.15288
3.116,-0.11403
3.12,-0.13326
3.124,0.02455
3.128,0.18071
3.132,0.38521
3.136,0.60039
3.14,0.78417
3.144,0.94683
3.148,0.96447
3.152,0.91909
3.156,0.7078
3.16,0.48181
3.164,0.27247
3.168,0.06312
3.172,-0.08821
3.176,-0.16323
3.18,-0.20965
3.184,-0.16356
3.188,-0.12502
3.192,-0.09474
3.196,-0.04998
3.2,-0.04538
3.204,-0.0344
3.208,-0.01549
3.212,-0.01183
3.216,-0.05012
3.22,-0.03035
3.224,-0.03119
3.228,-0.0259
3.232,-0.02668
3.236,-0.02066
3.24,-0.04541
3.244,-0.03283
3.248,-0.01843
3.252,-0.00487
3.256,-0.04575
3.26,-0.01831
3.264,-0.01838
3.268,-0.03231
3.272,-0.0185
3.276,-0.02148
3.28,-0.02692
3.284,0.00146
3.288,-0.01403
3.292,-0.02797
3.296,-0.02861
3.3,-0.02776
3.304,0.0021
3.308,-0.04032
3.312,-0.0182
3.316,-0.01802
3.32,-0.02731
3.324,-0.02916
3.328,-0.00029
3.332,-0.02219
3.336,-0.02192
3.34,-0.00701
3.344,0.02556
3.348,0.01475
3.352,0.0361
3.356,0.03658
3.36,0.03864
3.364,0.04945
3.368,0.06703
3.372,0.07584
3.376,0.09611
3.38,0.0951
3.384,0.12636
3.388,0.13685
3.392,0.15313
3.396,0.15871
3.4,0.15452
3.404,0.15601
3.408,0.16556
3.412,0.17511
3.416,0.18211
3.42,0.17568
3.424,0.20462
3.428,0.19806
3.432,0.18276
3.436,0.21104
3.44,0.19683
3.444,0.20077
3.448,0.18274
3.452,0.18098
3.456,0.16381
3.46,0.12298
3.464,0.14971
3.468,0.1142
3.472,0.08761
3.476,0.11192
3.48,0.10293
3.484,0.05425
3.488,0.05824
3.492,0.05226
3.496,0.05435
3.5,0.03571
3.504,-0.01494
3.508,0.01485
3.512,0.01564
3.516,-0.02096
3.52,-0.00654
3.524,0.01171
3.528,-0.01763
3.532,0.00942
3.536,-0.02222
3.54,-0.00259
3.544,-0.00598
3.548,-0.03301
3.552,-0.00968
3.556,-0.03235
3.56,-0.01504
3.564,-0.04
3.568,-0.00632
3.572,-0.02153
3.576,-0.02166
3.58,-0.0412
3.584,-0.02531
3.588,-0.01019
3.592,-0.02981
3.596,-0.0196
3.6,-0.02073
3.604,-0.03841
3.608,-0.03174
3.612,-0.0591
3.616,-0.02368
3.62,-0.02805
3.624,-0.03593
3.628,-0.01391
3.632,-0.0328
3.636,-0.01563
3.64,-0.02057
3.644,-0.02715
3.648,-0.02745
3.652,-0.07357
3.656,-0.04264
3.66,-0.02734
3.664,-0.04498
3.668,-0.02813
3.672,-0.02136
3.676,-0.03969
3.68,-0.03285
3.684,-0.0297
3.688,-0.04585
3.692,-0.039
3.696,-0.02222
3.7,-0.02348
3.704,-0.03238
3.708,-0.00888
3.712,-0.01565
3.716,-0.03447
3.72,-0.05044
3.724,-0.031
3.728,-0.01674
3.732,-0.01803
3.736,-0.04226
3.74,-0.02028
3.744,-0.04194
3.748,-0.03236
3.752,-0.02861
3.756,-0.04371
3.76,-0.02594
3.764,0.01204
3.768,-0.04
3.772,-0.03734
3.776,-0.00025
3.78,0.00576
3.784,-0.02031
3.788,-0.01211
3.792,-0.0112
3.796,-0.01385
3.8,-0.00566
3.804,-0.02053
3.808,-0.00342
3.812,-0.03446
3.816,-0.00917
3.82,-0.01707
3.824,-0.0241
3.828,-0.02282
3.832,-0.01503
3.836,-0.04106
3.84,-0.00732
3.844,-0.01177
3.848,-0.02391
3.852,-0.01849
3.856,-0.03265
3.86,-0.03924
3.864,-0.01697
3.868,-0.00755
3.872,0.01073
3.876,-0.01409
3.88,-0.00905
3.884,-0.00663
3.888,0.02001
3.892,0.03454
3.896,0.02541
3.9,0.06334
3.904,0.05009
3.908,0.11122
3.912,0.0986
3.916,0.06228
3.92,0.06356
3.924,0.08962
3.928,0.05773
3.932,0.02063
3.936,0.07511
3.94,0.00827
3.944,0.02619
3.948,0.032
3.952,0.01579
3.956,-0.00161
3.96,-0.03825
3.964,-0.01628
3.968,-0.01958
3.972,-0.01968
3.976,0.00956
3.98,-0.02504
3.984,-0.00975
3.988,0.00405
3.992,0.00474
3.996,-0.03198
4.0,-0.04075
4.004,-0.03503
4.008,-0.03463
4.012,-0.0153
4.016,0.00563
4.02,-0.02984
4.024,-0.02101
4.028,-0.06099
4.032,-0.02389
4.036,-0.06289
4.04,-0.10466
4.044,-0.1055
4.048,-0.08359
4.052,-0.01178
4.056,0.11931
4.06,0.3096
4.064,0.56042
4.068,0.73771
4.072,0.92826
4.076,0.9947
4.08,0.94963
4.084,0.83981
4.088,0.63023
4.092,0.35837
4.096,0.16148
4.1,-0.03075
4.104,-0.12256
4.108,-0.1732
4.112,-0.17769
4.116,-0.13715
4.12,-0.08372
4.124,-0.05029
4.128,-0.04815
4.132,-0.02888
4.136,-0.02477
4.14,-0.03973
4.144,-0.01798
4.148,-0.05458
4.152,-0.00421
4.156,-0.02662
4.16,-0.0164
4.164,-0.01817
4.168,0.01695
4.172,0.01496
4.176,-0.02352
4.18,-0.00306
4.184,0.02392
4.188,-0.00567
4.192,-0.00832
4.196,-0.02862
4.2,-0.01528
4.204,0.00831
4.208,-0.04528
4.212,-0.0202
4.216,0.0104
4.22,0.00654
4.224,-0.00732
4.228,0.00227
4.232,0.00179
4.236,-0.00325
4.24,-0.01019
4.244,-0.01413
4.248,0.02872
4.252,0.00444
4.256,0.00362
4.26,0.00481
4.264,0.00739
4.268,0.00563
4.272,0.00852
4.276,0.05319
4.28,0.04666
4.284,0.04706
4.288,0.0601
4.292,0.04541
4.296,0.07501
4.3,0.08019
4.304,0.11543
4.308,0.10965
4.312,0.13461
4.316,0.13188
4.32,0.17246
4.324,0.16337
4.328,0.18042
4.332,0.18927
4.336,0.17361
4.34,0.19482
4.344,0.206
4.348,0.20123
4.352,0.21836
4.356,0.21796
4.36,0.22152
4.364,0.22281
4.368,0.20439
4.372,0.17647
4.376,0.1909
4.38,0.19151
4.384,0.17355
4.388,0.16587
4.392,0.16151
4.396,0.11988
4.4,0.12709
4.404,0.11498
4.408,0.11747
4.412,0.08719
4.416,0.08435
4.42,0.08207
4.424,0.06494
4.428,0.07852
4.432,0.04871
4.436,0.05302
4.44,0.02581
4.444,0.04058
4.448,0.03324
4.452,0.01875
4.456,0.01557
4.46,0.00484
4.464,-0.00197
4.468,-0.00876
4.472,0.01438
4.476,0.01687
4.48,0.01792
4.484,-0.01415
4.488,0.00439
4.492,-0.01217
4.496,-0.00592
4.5,-0.01141
4.504,0.01935
4.508,-0.01796
4.512,0.01153
4.516,-0.01693
4.52,0.01217
4.524,0.00085
4.528,0.00369
4.532,0.00986
4.536,0.0175
4.54,0.03026
4.544,0.05661
4.548,0.04769
4.552,0.08279
4.556,0.0662
4.56,0.0898
4.564,0.12216
4.568,0.08155
4.572,0.1159
4.576,0.07892
4.58,0.09515
4.584,0.07483
4.588,0.04409
4.592,0.05674
4.596,0.03377
4.6,0.03724
4.604,0.04096
4.608,0.00231
4.612,0.00415
4.616,0.02764
4.62,0.01656
4.624,-0.00387
4.628,0.00771
4.632,0.01404
4.636,0.01971
4.64,0.00531
4.644,-0.00179
4.648,0.00293
4.652,0.02341
4.656,0.00316
4.66,-0.03179
4.664,0.02089
4.668,-0.0038
4.672,0.01834
4.676,0.03127
4.68,-0.01157
4.684,-0.00747
4.688,-0.03433
4.692,-0.08977
4.696,-0.10942
4.7,-0.07407
4.704,0.00608
4.708,0.1225
4.712,0.32656
4.716,0.56985
4.72,0.75033
4.724,0.90832
4.728,1.00208
4.732,0.97005
4.736,0.83481
4.74,0.60211
4.744,0.39248
4.748,0.1677
4.752,-0.00505
4.756,-0.10797
4.76,-0.16146
4.764,-0.13944
4.768,-0.11565
4.772,-0.08825
4.776,-0.02088
4.78,-0.01121
4.784,-0.00804
4.788,0.02028
4.792,-0.00685
4.796,0.00676
4.8,0.03464
4.804,-0.02399
4.808,0.00932
4.812,-0.01634
4.816,0.00623
4.82,0.03387
4.824,-0.03088
4.828,-0.01619
4.832,0.01387
4.836,-0.00352
4.84,0.0039
4.844,0.0212
4.848,0.00176
4.852,-0.01017
4.856,0.00117
4.86,-0.0238
4.864,0.01777
4.868,0.01758
4.872,0.01929
4.876,0.00013
4.88,0.00264
4.884,0.03225
4.888,0.01912
4.892,0.00866
4.896,-0.01662
4.9,0.02748
4.904,0.02686
4.908,0.04355
4.912,0.02897
4.916,0.03983
4.92,0.03042
4.924,0.03428
4.928,0.07116
4.932,0.06453
4.936,0.06631
4.94,0.09859
4.944,0.10697
4.948,0.09464
4.952,0.11421
4.956,0.10942
4.96,0.13314
4.964,0.15839
4.968,0.12803
4.972,0.1751
4.976,0.19939
4.98,0.18036
4.984,0.20837
4.988,0.21145
4.992,0.22021
4.996,0.21299
5.0,0.20573
5.004,0.20681
5.008,0.21382
5.012,0.22581
5.016,0.24468
5.02,0.2173
5.024,0.21236
5.028,0.19923
5.032,0.19209
5.036,0.18904
5.04,0.19358
5.044,0.18376
5.048,0.16774
5.052,0.13993
5.056,0.13204
5.06,0.14235
5.064,0.1062
5.068,0.09554
5.072,0.10053
5.076,0.09216
5.08,0.07485
5.084,0.06389
5.088,0.0662
5.092,0.04324
5.096,0.07099
5.1,0.04879
5.104,0.03876
5.108,0.03927
5.112,0.03582
5.116,0.04907
5.12,0.02098
5.124,0.00904
5.128,0.0079
5.132,0.05747
5.136,0.03526
5.14,0.01389
5.144,0.01473
5.148,-0.004
5.152,-0.00488
5.156,0.0273
5.16,0.02755
5.164,0.03878
5.168,0.00314
5.172,0.01182
5.176,0.00642
5.18,0.02459
5.184,0.01692
5.188,0.01552
5.192,0.01723
5.196,0.00902
5.2,0.01602
5.204,0.03621
5.208,0.0035
5.212,0.01828
5.216,0.01785
5.22,0.02275
5.224,0.0323
5.228,0.05054
5.232,-0.01701
5.236,-0.01147
5.24,0.03714
5.244,-0.00348
5.248,0.01457
5.252,0.03856
5.256,0.02143
5.26,0.01772
5.264,-0.01975
5.268,0.03491
5.272,0.02218
5.276,0.03439
5.28,0.03702
5.284,0.01288
5.288,0.01508
5.292,0.01152
5.296,0.00852
5.3,0.02305
5.304,0.03749
5.308,-0.00025
5.312,0.03191
5.316,0.0209
5.32,0.01351
5.324,0.02312
5.328,0.02839
5.332,-0.00166
5.336,0.00819
5.34,0.02194
5.344,0.03143
5.348,0.00063
5.352,0.02732
5.356,0.01598
5.36,0.0295
5.364,0.02911
5.368,-0.00335
5.372,0.02134
5.376,-0.01168
5.38,0.06145
5.384,0.05315
5.388,0.02791
5.392,0.00401
5.396,0.03336
5.4,0.03423
5.404,-0.00142
5.408,0.02908
5.412,0.00948
5.416,0.01811
5.42,-0.01606
5.424,0.0347
5.428,0.02533
5.432,0.01833
5.436,0.02955
5.44,-0.00429
5.444,0.02293
5.448,0.00693
5.452,-0.01066
5.456,0.0219
5.46,0.01643
5.464,0.01425
5.468,0.03231
5.472,0.05003
5.476,0.03084
5.48,0.04959
5.484,0.03674
5.488,0.06568
5.492,0.07732
5.496,0.06535
5.5,0.07047
5.504,0.10378
5.508,0.1184
5.512,0.15286
5.516,0.15337
5.52,0.12695
5.524,0.07378
5.528,0.10589
5.532,0.08624
5.536,0.10561
5.54,0.06953
5.544,0.07414
5.548,0.04091
5.552,0.04306
5.556,0.05436
5.56,0.02645
5.564,0.00933
5.568,0.03278
5.572,0.02622
5.576,0.0465
5.58,0.03599
5.584,0.03297
5.588,0.02912
5.592,0.02624
5.596,0.02896
5.6,0.00604
5.604,0.02269
5.608,0.00892
5.612,0.02584
5.616,0.01895
5.62,0.02761
5.624,0.00447
5.628,-0.00519
5.632,-0.03503
5.636,-0.04625
5.64,-0.07998
5.644,-0.10298
5.648,0.0121
5.652,0.10358
5.656,0.30136
5.66,0.487
5.664,0.69594
5.668,0.89052
5.672,0.99906
5.676,1.01209
5.68,0.92859
5.684,0.72179
5.688,0.47753
5.692,0.27931
5.696,0.08756
5.7,-0.05924
5.704,-0.14678
5.708,-0.11297
5.712,-0.07251
5.716,-0.06781
5.72,-0.05062
5.724,-0.01228
5.728,0.02966
5.732,0.02173
5.736,0.03674
5.74,0.02566
5.744,0.04259
5.748,0.03763
5.752,0.03648
5.756,0.03894
5.76,0.00589
5.764,0.02437
5.768,0.03721
5.772,0.00513
5.776,0.04249
5.78,0.02444
5.784,0.04494
5.788,0.03889
5.792,0.03389
5.796,0.021
5.8,0.02451
5.804,0.01948
5.808,0.0109
5.812,0.05116
5.816,0.03655
5.82,0.02115
5.824,-3e-05
5.828,0.01861
5.832,0.02847
5.836,0.04899
5.84,0.02991
5.844,0.02977
5.848,0.03039
5.852,0.04888
5.856,0.08116
5.86,0.08031
5.864,0.08176
5.868,0.0721
5.872,0.05954
5.876,0.06967
5.88,0.07104
5.884,0.1103
5.888,0.12343
5.892,0.08115
5.896,0.12805
5.9,0.12288
5.904,0.14226
5.908,0.17908
5.912,0.18098
5.916,0.1723
5.92,0.20241
5.924,0.20899
5.928,0.21286
5.932,0.21445
5.936,0.23534
5.94,0.25745
5.944,0.25411
5.948,0.24171
5.952,0.24915
5.956,0.27421
5.96,0.24604
5.964,0.24804
5.968,0.21698
5.972,0.22746
5.976,0.25161
5.98,0.22508
5.984,0.21895
5.988,0.18228
5.992,0.19222
5.996,0.14652
6.0,0.14216
6.004,0.13799
6.008,0.13776
6.012,0.12482
6.016,0.12559
6.02,0.12488
6.024,0.09551
6.028,0.07998
6.032,0.06854
6.036,0.07207
6.04,0.05265
6.044,0.0764
6.048,0.05308
6.052,0.04693
6.056,0.04011
6.06,0.04578
6.064,0.00021
6.068,0.0379
6.072,0.03473
6.076,0.04591
6.08,0.01874
6.084,0.03537
6.088,0.02537
6.092,0.01463
6.096,0.04988
6.1,0.0406
6.104,0.02813
6.108,0.0345
6.112,0.04783
6.116,0.03341
6.12,0.04787
6.124,0.03643
6.128,0.026
6.132,0.04098
6.136,0.00722
6.14,0.04959
6.144,0.02544
6.148,0.01913
6.152,-0.00321
6.156,0.02737
6.16,0.00767
6.164,0.05898
6.168,0.0284
6.172,0.02581
6.176,0.03101
6.18,0.0155
6.184,0.03015
6.188,0.04741
6.192,0.02962
6.196,0.02414
6.2,0.03163
6.204,0.03156
6.208,0.03555
6.212,0.03854
6.216,0.04585
6.22,0.0569
6.224,0.02445
6.228,0.02342
6.232,0.03391
6.236,0.04203
6.24,0.02598
6.244,0.02729
6.248,0.03692
6.252,0.01687
6.256,0.0217
6.26,0.01064
6.264,0.00105
6.268,0.06911
6.272,0.03203
6.276,0.01211
6.28,0.04296
6.284,0.0324
6.288,0.03172
6.292,0.03819
6.296,-0.00258
6.3,0.0264
6.304,0.04155
6.308,0.04927
6.312,0.02849
6.316,0.05489
6.32,0.06357
6.324,0.02589
6.328,0.04031
6.332,0.06112
6.336,0.04894
6.34,0.07435
6.344,0.06024
6.348,0.0699
6.352,0.10987
6.356,0.11601
6.36,0.14224
6.364,0.1159
6.368,0.12734
6.372,0.11108
6.376,0.12536
6.38,0.12431
6.384,0.09997
6.388,0.0886
6.392,0.08576
6.396,0.07179
6.4,0.05835
6.404,0.03846
6.408,0.03774
6.412,0.03065
6.416,0.04289
6.42,0.04526
6.424,0.03869
6.428,0.03418
6.432,0.04133
6.436,0.02441
6.44,0.03662
6.444,0.05353
6.448,0.04869
6.452,0.02528
6.456,0.04077
6.46,0.03764
6.464,-0.01448
6.468,0.04608
6.472,0.05529
6.476,0.01808
6.48,0.0313
6.484,-0.00651
6.488,-0.05487
6.492,-0.08736
6.496,-0.06957
6.5,-0.01805
6.504,0.11266
6.508,0.26353
6.512,0.50947
6.516,0.69826
6.52,0.8832
6.524,0.99361
6.528,1.01234
6.532,0.91563
6.536,0.72419
6.54,0.48893
6.544,0.26111
6.548,0.09439
6.552,-0.04634
6.556,-0.14894
6.56,-0.13528
6.564,-0.12741
6.568,-0.07147
6.572,-0.00501
6.576,-0.00374
6.58,0.02907
6.584,0.03218
6.588,0.03926
6.592,0.03021
6.596,0.01833
6.6,0.0057
6.604,0.02352
6.608,0.0331
6.612,0.02486
6.616,0.05269
6.62,0.00369
6.624,0.03362
6.628,0.03765
6.632,0.04394
6.636,0.04332
6.64,0.01111
6.644,0.04775
6.648,0.04007
6.652,0.03616
6.656,0.03513
6.66,0.0305
6.664,0.04158
6.668,0.00793
6.672,0.00917
6.676,0.03298
6.68,0.02484
6.684,0.03515
6.688,0.06149
6.692,0.02317
6.696,0.03415
6.7,0.06224
6.704,0.04958
6.708,0.04047
6.712,0.04298
6.716,0.07491
6.72,0.05742
6.724,0.08414
6.728,0.07061
6.732,0.06431
6.736,0.08133
6.74,0.07681
6.744,0.12214
6.748,0.11448
6.752,0.11324
6.756,0.14158
6.76,0.14111
6.764,0.16168
6.768,0.1743
6.772,0.20185
6.776,0.20384
6.78,0.21715
6.784,0.22013
6.788,0.23639
6.792,0.22668
6.796,0.25854
6.8,0.23156
6.804,0.25725
6.808,0.27492
6.812,0.25995
6.816,0.2347
6.82,0.25004
6.824,0.21393
6.828,0.21481
6.832,0.21671
6.836,0.20527
6.84,0.20735
6.844,0.15291
6.848,0.16962
6.852,0.14256
6.856,0.14513
6.86,0.11574
6.864,0.09958
6.868,0.13302
6.872,0.10716
6.876,0.10772
6.88,0.07833
6.884,0.07937
6.888,0.05751
6.892,0.03082
6.896,0.05694
6.9,0.04627
6.904,0.05667
6.908,0.03022
6.912,0.00862
6.916,0.04706
6.92,0.03076
6.924,0.02871
6.928,0.03253
6.932,0.02594
6.936,0.02239
6.94,0.03402
6.944,0.01833
6.948,0.02286
6.952,0.04134
6.956,0.03537
6.96,0.00099
6.964,0.02607
6.968,0.02454
6.972,0.01466
6.976,0.04555
6.98,0.02555
6.984,-0.01155
6.988,0.02716
6.992,0.00654
6.996,0.01512
7.0,0.00123
7.004,0.03451
7.008,0.02594
7.012,0.02166
7.016,0.05597
7.02,0.03442
7.024,0.04181
7.028,0.00764
7.032,0.02741
7.036,0.03676
7.04,-0.0123
7.044,-0.00156
7.048,0.00954
7.052,0.00782
7.056,0.04358
7.06,0.04519
7.064,0.0022
7.068,-0.00314
7.072,0.01148
7.076,0.02429
7.08,0.01882
7.084,0.00599
7.088,0.00951
7.092,0.02531
7.096,0.04092
7.1,0.02235
7.104,0.03304
7.108,0.01929
7.112,0.00504
7.116,0.02067
7.12,0.03306
7.124,0.03543
7.128,0.04031
7.132,0.00578
7.136,-0.00743
7.14,0.03007
7.144,0.04961
7.148,0.02602
7.152,0.04274
7.156,0.0406
7.16,0.01368
7.164,0.05419
7.168,0.05763
7.172,0.03272
7.176,0.01689
7.18,0.02568
7.184,0.03831
7.188,0.01059
7.192,-0.01278
7.196,0.02546
7.2,0.02243
7.204,0.01756
7.208,0.03621
7.212,0.03208
7.216,0.0272
7.22,-0.00033
7.224,0.02126
7.228,0.01184
7.232,0.01949
7.236,0.01244
7.24,0.02222
7.244,0.0236
7.248,0.03233
7.252,0.01184
7.256,-0.00416
7.26,0.02843
7.264,0.02325
7.268,-0.00785
7.272,-0.01328
7.276,0.02357
7.28,0.02239
7.284,0.01841
7.288,0.02333
7.292,0.05449
7.296,0.05312
7.3,0.07125
7.304,0.09134
7.308,0.06706
7.312,0.1205
7.316,0.11459
7.32,0.11739
7.324,0.10464
7.328,0.1257
7.332,0.09321
7.336,0.10824
7.34,0.06889
7.344,0.08285
7.348,0.05622
7.352,0.04569
7.356,0.01663
7.36,0.06146
7.364,0.00905
7.368,0.03987
7.372,0.02291
7.376,0.02275
7.38,0.03503
7.384,0.00895
7.388,0.02825
7.392,0.01133
7.396,0.00594
7.4,0.02356
7.404,0.01234
7.408,-0.00224
7.412,0.01314
7.416,0.02802
7.42,0.01774
7.424,0.01964
7.428,0.03887
7.432,-0.00294
7.436,0.01778
7.44,-0.04424
7.444,-0.07951
7.448,-0.10041
7.452,-0.10697
7.456,-0.03521
7.46,0.06813
7.464,0.22272
7.468,0.44684
7.472,0.67259
7.476,0.86376
7.48,0.97238
7.484,0.99633
7.488,0.92255
7.492,0.7334
7.496,0.49769
7.5,0.24979
7.504,0.06958
7.508,-0.08926
7.512,-0.13417
7.516,-0.16133
7.52,-0.12991
7.524,-0.07656
7.528,-0.02091
7.532,-0.01058
7.536,-0.00457
7.54,-0.0025
7.544,0.00664
7.548,0.0139
7.552,0.00756
7.556,0.01362
7.56,0.00123
7.564,-0.00567
7.568,0.00253
7.572,0.0019
7.576,0.01236
7.58,0.0082
7.584,-0.01269
7.588,0.02356
7.592,-0.00715
7.596,0.00688
7.6,-0.00294
7.604,0.00376
7.608,0.00146
7.612,0.00072
7.616,0.01186
7.62,0.01757
7.624,0.00144
7.628,0.01175
7.632,0.01177
7.636,0.01621
7.64,0.01235
7.644,0.0017
7.648,0.00719
7.652,0.01721
7.656,0.00875
7.66,0.0309
7.664,0.02705
7.668,0.01534
7.672,0.04379
7.676,0.0857
7.68,0.04662
7.684,0.05636
7.688,0.05134
7.692,0.06858
7.696,0.08621
7.7,0.09565
7.704,0.08814
7.708,0.12549
7.712,0.08493
7.716,0.11488
7.72,0.12527
7.724,0.15568
7.728,0.15201
7.732,0.16074
7.736,0.18572
7.74,0.19445
7.744,0.2066
7.748,0.22838
7.752,0.20966
7.756,0.23508
7.76,0.21871
7.764,0.24028
7.768,0.23085
7.772,0.23892
7.776,0.20902
7.78,0.20166
7.784,0.19978
7.788,0.18582
7.792,0.17684
7.796,0.17266
7.8,0.14395
7.804,0.13997
7.808,0.11557
7.812,0.14333
7.816,0.11321
7.82,0.09911
7.824,0.07797
7.828,0.09716
7.832,0.04244
7.836,0.07785
7.84,0.05916
7.844,0.04945
7.848,0.03532
7.852,0.00919
7.856,0.02852
7.86,0.04111
7.864,0.02103
7.868,0.01639
7.872,0.03039
7.876,0.00031
7.88,-0.00347
7.884,0.01187
7.888,-0.00223
7.892,-0.01615
7.896,0.0114
7.9,-0.01388
7.904,0.0307
7.908,-0.01791
7.912,0.02288
7.916,-0.00697
7.92,0.00479
7.924,-0.02792
7.928,-0.00222
7.932,-0.02466
7.936,-0.04068
7.94,0.00148
7.944,0.01897
7.948,-0.00759
7.952,0.00832
7.956,0.00081
7.96,0.01941
7.964,0.00311
7.968,-0.04247
7.972,0.00928
7.976,-0.01836
7.98,0.00107
7.984,0.00414
7.988,0.0039
7.992,-0.02864
7.996,0.01264
8.0,0.03563
8.004,0.00039
8.008,0.00604
8.012,-0.01625
8.016,0.01884
8.02,0.01257
8.024,0.00914
8.028,-0.01427
8.032,-0.00781
8.036,-0.03254
8.04,-0.0061
8.044,-0.02459
8.048,-0.03036
8.052,0.00918
8.056,-0.00518
8.06,0.0032
8.064,0.00732
8.068,0.00618
8.072,-0.04421
8.076,-0.02416
8.08,0.00314
8.084,-0.01697
8.088,-0.00441
8.092,0.00036
8.096,0.0227
8.1,-0.01443
8.104,0.00037
8.108,-0.01393
8.112,0.01783
8.116,0.00306
8.12,0.0114
8.124,-0.00482
8.128,0.02298
8.132,0.00422
8.136,-0.00969
8.14,-0.04521
8.144,-0.01422
8.148,-0.01518
8.152,-0.00807
8.156,-0.0222
8.16,-0.01194
8.164,0.01063
8.168,-0.00217
8.172,-0.00303
8.176,-0.01982
8.18,0.02193
8.184,0.01126
8.188,0.00502
8.192,0.02183
8.196,-0.04302
8.2,-0.01921
8.204,-0.00722
8.208,-0.01402
8.212,-0.01476
8.216,-0.01298
8.22,0.01527
8.224,-0.01517
8.228,-0.0127
8.232,0.0177
8.236,0.01234
8.24,-0.00431
8.244,-0.04092
8.248,-0.01951
8.252,-0.01853
8.256,-0.002
8.26,-0.01757
8.264,-0.00776
8.268,-0.00473
8.272,-0.00368
8.276,0.00431
8.28,-0.02295
8.284,0.01204
8.288,0.01483
8.292,-0.01439
8.296,-0.00559
8.3,0.01463
8.304,0.04959
8.308,0.07742
8.312,0.04538
8.316,0.09042
8.32,0.06927
8.324,0.08251
8.328,0.06833
8.332,0.08453
8.336,0.09435
8.34,0.05011
8.344,0.05219
8.348,0.08071
8.352,0.03206
8.356,0.00754
8.36,0.03109
8.364,-0.0044
8.368,-0.00934
8.372,0.01201
8.376,-0.00679
8.38,0.00077
8.384,-0.01361
8.388,-0.01365
8.392,-0.02902
8.396,0.01366
8.4,-0.0076
8.404,-0.00077
8.408,-0.00969
8.412,-0.01496
8.416,-0.01344
8.42,0.01119
8.424,-0.02184
8.428,0.0009
8.432,-0.02438
8.436,-0.02777
8.44,-0.01783
8.444,-0.02559
8.448,-0.09463
8.452,-0.09201
8.456,-0.13492
8.46,-0.0923
8.464,0.015
8.468,0.17451
8.472,0.33047
8.476,0.57557
8.48,0.75029
8.484,0.92986
8.488,0.99198
8.492,0.92002
8.496,0.77376
8.5,0.57239
8.504,0.33243
8.508,0.11927
8.512,-0.03381
8.516,-0.16862
8.52,-0.19253
8.524,-0.17851
8.528,-0.13421
8.532,-0.10715
8.536,-0.03335
8.54,-0.05143
8.544,-0.03101
8.548,-0.02992
8.552,-0.03052
8.556,-0.01214
8.56,-0.00812
8.564,-0.01038
8.568,-0.00178
8.572,-0.02725
8.576,-0.00331
8.58,-0.01738
8.584,-0.00908
8.588,-0.00098
8.592,-0.01677
8.596,0.00271
8.6,-0.0326
8.604,-0.03869
8.608,-0.03089
8.612,0.00188
8.616,-0.00342
8.62,-0.01268
8.624,0.01941
8.628,-0.03192
8.632,0.00018
8.636,-0.00135
8.64,0.0013
8.644,-0.00754
8.648,-0.04491
8.652,-0.03085
8.656,-0.0036
8.66,-0.00588
8.664,-0.01537
8.668,-0.0107
8.672,-0.00294
8.676,0.0143
8.68,0.01846
8.684,0.00788
8.688,0.02743
8.692,0.03545
8.696,0.0315
8.7,0.06922
8.704,0.06115
8.708,0.07628
8.712,0.09594
8.716,0.10549
8.72,0.08742
8.724,0.09573
8.728,0.14144
8.732,0.15891
8.736,0.16229
8.74,0.1528
8.744,0.1751
8.748,0.18446
8.752,0.2139
8.756,0.17685
8.76,0.21484
8.764,0.22405
8.768,0.18537
8.772,0.1835
8.776,0.20494
8.78,0.19386
8.784,0.19189
8.788,0.17495
8.792,0.17166
8.796,0.18603
8.8,0.13998
8.804,0.13289
8.808,0.12638
8.812,0.13242
8.816,0.07364
8.82,0.1134
8.824,0.05359
8.828,0.07837
8.832,0.07281
8.836,0.0384
8.84,0.05353
8.844,-0.00447
8.848,0.01018
8.852,0.00555
8.856,0.03151
8.86,-0.00193
8.864,0.00162
8.868,0.0155
8.872,0.00159
8.876,-0.01045
8.88,-0.00865
8.884,0.00393
8.888,-0.01912
8.892,0.00904
8.896,-0.02404
8.9,-0.00599
8.904,-0.03121
8.908,-0.0113
8.912,-0.03578
8.916,-0.03071
8.92,-0.02594
8.924,-0.03211
8.928,-0.03101
8.932,-0.01886
8.936,-0.01721
8.94,-0.04258
8.944,-0.02271
8.948,-0.02716
8.952,-0.0032
8.956,-0.01562
8.96,-0.04557
8.964,-0.02923
8.968,-0.02204
8.972,-0.03857
8.976,-0.0485
8.98,-0.03222
8.984,-0.01938
8.988,-0.00923
8.992,-0.02363
8.996,-0.04481
9.0,-0.00253
9.004,-0.02903
9.008,-0.00782
9.012,-0.0165
9.016,-0.04663
9.02,-0.03137
9.024,-0.05215
9.028,-0.01485
9.032,-0.0204
9.036,-0.03208
9.04,-0.02589
9.044,-0.03759
9.048,-0.01641
9.052,-0.05284
9.056,-0.04468
9.06,-0.02162
9.064,-0.03346
9.068,-0.02508
9.072,-0.05646
9.076,-0.07086
9.08,-0.02198
9.084,-0.03783
9.088,-0.02014
9.092,-0.03817
9.096,-0.02679
9.1,-0.03684
9.104,-0.0274
9.108,-0.03485
9.112,-0.04487
9.116,-0.04574
9.12,-0.03482
9.124,-0.02749
9.128,-0.04766
9.132,-0.03227
9.136,-0.03235
9.14,-0.06094
9.144,-0.01997
9.148,-0.02641
9.152,-0.04109
9.156,-0.03411
9.16,-0.02645
9.164,-0.03115
9.168,-0.01829
9.172,-0.04654
9.176,-0.01509
9.18,-0.02224
9.184,-0.01416
9.188,-0.05278
9.192,-0.03704
9.196,-0.01091
9.2,-0.04598
9.204,-0.0119
9.208,-0.01511
9.212,-0.03785
9.216,-0.0116
9.22,-0.00913
9.224,-0.02548
9.228,-0.03043
9.232,-0.0069
9.236,-0.04249
9.24,-0.04293
9.244,-0.03319
9.248,-0.01077
9.252,-0.04607
9.256,-0.03938
9.26,-0.0278
9.264,-0.03323
9.268,-0.04763
9.272,-0.01707
9.276,-0.02436
9.28,-0.0455
9.284,-0.02465
9.288,-0.01551
9.292,-0.05411
9.296,-0.06307
9.3,0.00493
9.304,-0.00803
9.308,-0.00702
9.312,-0.01685
9.316,-0.00512
9.32,-0.00215
9.324,-0.01934
9.328,-0.04741
9.332,-0.06029
9.336,-0.02865
9.34,-0.02326
9.344,-0.04152
9.348,-0.0297
9.352,-0.04771
9.356,-0.01141
9.36,-0.02134
9.364,-0.0193
9.368,-0.02711
9.372,-0.03133
9.376,0.00637
9.38,0.01429
9.384,0.02091
9.388,0.03463
9.392,0.07223
9.396,0.07309
9.4,0.07651
9.404,0.07963
9.408,0.0531
9.412,0.08376
9.416,0.0441
9.42,0.05647
9.424,0.03681
9.428,0.04899
9.432,0.01818
9.436,0.01577
9.44,-0.01171
9.444,-0.01612
9.448,-0.03694
9.452,0.00132
9.456,-0.03375
9.46,-0.02359
9.464,-0.0331
9.468,-0.04559
9.472,-0.03046
9.476,-0.00443
9.48,-0.03791
9.484,-0.02952
9.488,-0.06326
9.492,-0.01994
9.496,-0.04715
9.5,-0.00446
9.504,-0.01279
9.508,-0.02304
9.512,-0.01945
9.516,-0.04642
9.52,-0.05185
9.524,-0.09037
9.528,-0.12032
9.532,-0.14143
9.536,-0.12784
9.54,-0.05024
9.544,0.07835
9.548,0.27678
9.552,0.48347
9.556,0.68628
9.56,0.85964
9.564,0.95533
9.568,0.95118
9.572,0.84594
9.576,0.63272
9.58,0.3835
9.584,0.141
9.588,-0.00915
9.592,-0.13634
9.596,-0.19847
9.6,-0.21257
9.604,-0.19659
9.608,-0.09543
9.612,-0.08322
9.616,-0.06019
9.62,-0.04373
9.624,-0.00598
9.628,-0.0319
9.632,-0.02081
9.636,-0.05072
9.64,-0.02206
9.644,-0.03735
9.648,-0.03531
9.652,-0.043
9.656,-0.04115
9.66,-0.03313
9.664,-0.07381
9.668,0.00856
9.672,-0.01052
9.676,-0.03629
9.68,-0.02895
9.684,-0.0494
9.688,-0.02821
9.692,-0.04234
9.696,-0.01275
9.7,-0.01909
9.704,-0.01263
9.708,-0.03451
9.712,-0.02562
9.716,-0.01708
9.72,-0.0196
9.724,-0.03753
9.728,-0.02179
9.732,-0.01368
9.736,-0.02094
9.74,-0.00994
9.744,-0.04096
9.748,0.01122
9.752,-0.01664
9.756,-0.00609
9.76,-0.00225
9.764,0.0485
9.768,0.0357
9.772,0.03749
9.776,0.04812
9.78,0.05258
9.784,0.05451
9.788,0.0639
9.792,0.0817
9.796,0.12069
9.8,0.12528
9.804,0.12165
9.808,0.10608
9.812,0.13527
9.816,0.16595
9.82,0.13285
9.824,0.16837
9.828,0.17241
9.832,0.17931
9.836,0.1925
9.84,0.1953
9.844,0.21209
9.848,0.18134
9.852,0.19843
9.856,0.19416
9.86,0.19491
9.864,0.15536
9.868,0.1574
9.872,0.13803
9.876,0.13041
9.88,0.14754
9.884,0.13718
9.888,0.12421
9.892,0.11727
9.896,0.11915
9.9,0.06423
9.904,0.06458
9.908,0.08135
9.912,0.07499
9.916,0.03192
9.92,0.02698
9.924,0.00865
9.928,0.01333
9.932,0.01099
9.936,-0.01116
9.94,-0.01052
9.944,0.02693
9.948,-0.01786
9.952,-0.02266
9.956,-0.01352
9.96,-0.0287
9.964,-0.04794
9.968,-0.01452
9.972,-0.01762
9.976,-0.03073
9.98,-0.01863
9.984,-0.05105
9.988,-0.0228
9.992,-0.0238
9.996,-0.01485
