t_seg,ecg_mV
0.0,0.02958
0.004,0.03136
0.008,0.02678
0.012,0.02834
0.016,-0.00615
0.02,-0.02404
0.024,0.07703
0.028,0.03906
0.032,0.03336
0.036,0.0321
0.04,0.04658
0.044,0.04509
0.048,0.03765
0.052,-0.04319
0.056,-0.03287
0.06,0.00535
0.064,0.02549
0.068,-0.01184
0.072,0.01492
0.076,0.03944
0.08,0.08468
0.084,0.0598
0.088,0.09533
0.092,0.07949
0.096,0.04149
0.1,0.0235
0.104,0.05519
0.108,0.06597
0.112,0.13998
0.116,0.10787
0.12,0.12412
0.124,0.08176
0.128,0.10079
0.132,0.14914
0.136,0.10328
0.14,0.15006
0.144,0.05168
0.148,0.07277
0.152,-0.01034
0.156,0.03779
0.16,0.01867
0.164,-0.00233
0.168,-0.00414
0.172,0.07603
0.176,0.07462
0.18,0.05622
0.184,-0.00903
0.188,0.00061
0.192,-0.00838
0.196,0.06041
0.2,0.02025
0.204,-0.01052
0.208,0.02321
0.212,-0.01273
0.216,-0.05115
0.22,0.02411
0.224,-0.00452
0.228,0.03811
0.232,0.01814
0.236,0.01228
0.24,-0.04451
0.244,-0.06773
0.248,-0.04769
0.252,-0.09604
0.256,-0.02795
0.26,0.14583
0.264,0.30148
0.268,0.50947
0.272,0.80789
0.276,0.97062
0.28,1.01328
0.284,0.95381
0.288,0.83921
0.292,0.67272
0.296,0.41699
0.3,0.25165
0.304,-0.01178
0.308,-0.07727
0.312,-0.10224
0.316,-0.127
0.32,-0.07041
0.324,-0.07202
0.328,-0.0261
0.332,-0.00811
0.336,0.03668
0.34,0.07669
0.344,-0.00116
0.348,0.05052
0.352,-0.01002
0.356,-0.02089
0.36,-0.01232
0.364,0.04658
0.368,0.02517
0.372,0.00494
0.376,0.03564
0.38,0.02924
0.384,-0.00079
0.388,0.00154
0.392,-0.04087
0.396,-0.06395
0.4,0.02387
0.404,0.07706
0.408,0.00854
0.412,-0.03011
0.416,-0.0027
0.42,-0.02716
0.424,0.00103
0.428,0.0103
0.432,0.02279
0.436,0.03386
0.44,-0.00857
0.444,-0.00489
0.448,0.06659
0.452,0.00479
0.456,0.09478
0.46,0.04637
0.464,0.01859
0.468,0.05352
0.472,-0.03159
0.476,0.0797
0.48,0.08587
0.484,0.05597
0.488,0.08207
0.492,0.08702
0.496,0.11662
0.5,0.12359
0.504,0.10753
0.508,0.17096
0.512,0.11088
0.516,0.13456
0.52,0.13087
0.524,0.18987
0.528,0.2309
0.532,0.1276
0.536,0.25272
0.54,0.18512
0.544,0.2083
0.548,0.28708
0.552,0.25311
0.556,0.22947
0.56,0.22051
0.564,0.2236
0.568,0.20607
0.572,0.19264
0.576,0.21497
0.58,0.16943
0.584,0.18353
0.588,0.24358
0.592,0.23361
0.596,0.19654
0.6,0.20652
0.604,0.1635
0.608,0.18092
0.612,0.17271
0.616,0.19441
0.62,0.15258
0.624,0.17934
0.628,0.09272
0.632,0.16706
0.636,0.20234
0.64,0.19682
0.644,0.07875
0.648,0.12956
0.652,0.08899
0.656,0.04344
0.66,0.09195
0.664,0.02454
0.668,0.07245
0.672,0.0491
0.676,0.06922
0.68,0.02477
0.684,-0.05963
0.688,0.05655
0.692,-0.02015
0.696,0.01947
0.7,0.0168
0.704,0.02264
0.708,0.01272
0.712,-0.04362
0.716,-0.0616
0.72,0.04085
0.724,0.03035
0.728,0.02936
0.732,-0.00142
0.736,0.00842
0.74,-0.02288
0.744,-0.00482
0.748,0.01088
0.752,-0.02825
0.756,-0.06677
0.76,-0.11228
0.764,-0.06745
0.768,0.0591
0.772,0.1359
0.776,0.39632
0.78,0.61153
0.784,0.84178
0.788,0.92721
0.792,1.00697
0.796,0.95248
0.8,0.79359
0.804,0.56941
0.808,0.34445
0.812,0.12244
0.816,-0.08899
0.82,-0.15415
0.824,-0.19027
0.828,-0.20371
0.832,-0.12275
0.836,-0.05588
0.84,-0.02351
0.844,-0.05127
0.848,-0.0451
0.852,0.02767
0.856,-0.04303
0.86,-0.00631
0.864,-0.02072
0.868,0.02738
0.872,0.05314
0.876,0.04935
0.88,0.06141
0.884,-0.0232
0.888,-0.04278
0.892,-0.02903
0.896,-0.03982
0.9,-0.03654
0.904,0.00652
0.908,0.01552
0.912,0.03243
0.916,0.00698
0.92,0.02879
0.924,0.00892
0.928,-0.03003
0.932,0.0392
0.936,-0.04046
0.94,0.00619
0.944,-0.00063
0.948,-0.0055
0.952,-0.01885
0.956,0.04266
0.96,0.01889
0.964,-0.0198
0.968,-6e-05
0.972,-0.01698
0.976,0.00355
0.98,0.09492
0.984,0.02364
0.988,0.10188
0.992,0.05573
0.996,0.03236
1.0,0.0356
1.004,0.11387
1.008,0.08598
1.012,0.05035
1.016,0.08272
1.02,0.05339
1.024,0.13512
1.028,0.07184
1.032,0.13616
1.036,0.13987
1.04,0.1515
1.044,0.18729
1.048,0.17922
1.052,0.24183
1.056,0.20109
1.06,0.2168
1.064,0.24328
1.068,0.22192
1.072,0.13539
1.076,0.2134
1.08,0.2331
1.084,0.22182
1.088,0.18165
1.092,0.1338
1.096,0.1258
1.1,0.19696
1.104,0.12799
1.108,0.14523
1.112,0.08126
1.116,0.12043
1.12,0.06915
1.124,0.13792
1.128,0.15047
1.132,0.12696
1.136,0.13044
1.14,0.1152
1.144,0.08719
1.148,0.04362
1.152,0.07623
1.156,0.09281
1.16,0.14251
1.164,0.15312
1.168,0.12241
1.172,0.11264
1.176,0.10086
1.18,0.09672
1.184,0.00807
1.188,0.07114
1.192,0.02998
1.196,0.04639
1.2,0.04823
1.204,0.05469
1.208,0.01693
1.212,0.02046
1.216,0.0378
1.22,0.05153
1.224,-0.02106
1.228,0.00085
1.232,-0.01268
1.236,0.01481
1.24,-0.04109
1.244,-0.01866
1.248,-0.05531
1.252,-0.03594
1.256,-1e-05
1.26,-0.01981
1.264,-0.01616
1.268,-0.05334
1.272,-0.05695
1.276,-0.05956
1.28,-0.04806
1.284,-0.06312
1.288,-0.08316
1.292,-0.16583
1.296,-0.14739
1.3,-0.02109
1.304,0.11912
1.308,0.26293
1.312,0.41669
1.316,0.67175
1.32,0.86788
1.324,0.9976
1.328,0.97659
1.332,0.87332
1.336,0.67404
1.34,0.43913
1.344,0.23305
1.348,0.12896
1.352,-0.09094
1.356,-0.16669
1.36,-0.21445
1.364,-0.20038
1.368,-0.11745
1.372,-0.09305
1.376,0.02612
1.38,-0.01709
1.384,-0.05643
1.388,-0.03888
1.392,-0.00812
1.396,-0.02407
1.4,-0.01316
1.404,-0.01183
1.408,-0.05942
1.412,0.03352
1.416,0.00383
1.42,0.05488
1.424,0.01998
1.428,-0.01114
1.432,-0.03472
1.436,-0.06694
1.44,-0.00808
1.444,-0.0359
1.448,0.01546
1.452,0.01136
1.456,0.03828
1.46,0.00411
1.464,-0.06074
1.468,0.02099
1.472,-0.032
1.476,-0.0082
1.48,-0.04187
1.484,-0.06298
1.488,-0.0038
1.492,0.02237
1.496,-0.02057
1.5,0.05889
1.504,0.10409
1.508,0.0507
1.512,0.02839
1.516,0.00171
1.52,-0.05285
1.524,0.06003
1.528,0.00807
1.532,0.11087
1.536,0.09366
1.54,0.06263
1.544,0.03303
1.548,0.08179
1.552,0.08805
1.556,0.06058
1.56,0.12549
1.564,0.09174
1.568,0.18592
1.572,0.21122
1.576,0.14075
1.58,0.15298
1.584,0.19967
1.588,0.21136
1.592,0.20993
1.596,0.21719
1.6,0.19366
1.604,0.23816
1.608,0.26784
1.612,0.20269
1.616,0.16656
1.62,0.19738
1.624,0.19959
1.628,0.16785
1.632,0.2055
1.636,0.13232
1.64,0.12921
1.644,0.10824
1.648,0.07036
1.652,0.10566
1.656,0.10555
1.66,0.03209
1.664,0.07663
1.668,0.01435
1.672,0.01584
1.676,0.01666
1.68,0.0646
1.684,-0.02513
1.688,-3e-05
1.692,0.03234
1.696,-0.03838
1.7,0.05876
1.704,0.07374
1.708,-0.01086
1.712,0.01244
1.716,0.03274
1.72,0.03131
1.724,0.04437
1.728,0.07347
1.732,0.14415
1.736,0.09424
1.74,0.06559
1.744,0.06976
1.748,0.12529
1.752,0.03633
1.756,0.08406
1.76,0.04763
1.764,0.01244
1.768,-0.02679
1.772,-0.04904
1.776,-0.06319
1.78,0.06584
1.784,-0.04274
1.788,-0.00064
1.792,0.03324
1.796,-0.06374
1.8,0.01289
1.804,-0.00793
1.808,-0.00828
1.812,-0.10932
1.816,-0.03172
1.82,-0.03129
1.824,0.01213
1.828,-0.05183
1.832,-0.06892
1.836,-0.08
1.84,-0.00072
1.844,-0.08536
1.848,-0.05782
1.852,-0.00062
1.856,-0.04842
1.86,-0.17053
1.864,-0.17043
1.868,-0.11265
1.872,0.0283
1.876,0.18721
1.88,0.35714
1.884,0.49447
1.888,0.7857
1.892,0.91656
1.896,0.93574
1.9,0.96899
1.904,0.7798
1.908,0.56381
1.912,0.32927
1.916,0.05342
1.92,0.01093
1.924,-0.14164
1.928,-0.26779
1.932,-0.19312
1.936,-0.17025
1.94,-0.08511
1.944,0.00236
1.948,-0.03204
1.952,0.001
1.956,-0.02829
1.96,-0.03419
1.964,0.03754
1.968,-0.04208
1.972,-0.03629
1.976,-0.05147
1.98,-0.06602
1.984,-0.00823
1.988,-0.02412
1.992,-0.04553
1.996,-0.09632
2.0,-0.02782
2.004,-0.01529
2.008,-0.02579
2.012,-0.01794
2.016,-0.01055
2.02,-0.00636
2.024,-0.00057
2.028,0.01285
2.032,0.02655
2.036,0.01993
2.04,0.01545
2.044,-0.0622
2.048,-0.0551
2.052,-0.07762
2.056,-0.02747
2.06,-0.0465
2.064,-0.06264
2.068,-0.011
2.072,-0.00177
2.076,0.00626
2.08,-0.03431
2.084,-0.06837
2.088,0.02431
2.092,0.00547
2.096,-0.04186
2.1,0.02249
2.104,0.04496
2.108,0.00963
2.112,0.09953
2.116,0.09258
2.12,0.12469
2.124,0.10358
2.128,0.12558
2.132,0.16976
2.136,0.16855
2.14,0.18362
2.144,0.20464
2.148,0.1503
2.152,0.27626
2.156,0.27975
2.16,0.31475
2.164,0.28802
2.168,0.36756
2.172,0.28473
2.176,0.2917
2.18,0.24761
2.184,0.25439
2.188,0.25519
2.192,0.24796
2.196,0.18559
2.2,0.17809
2.204,0.12451
2.208,0.14063
2.212,0.16272
2.216,0.02339
2.22,0.10486
2.224,0.04242
2.228,0.08933
2.232,0.11834
2.236,0.04226
2.24,0.05745
2.244,0.04482
2.248,-0.00018
2.252,0.01043
2.256,-0.0332
2.26,-0.07078
2.264,-0.00718
2.268,-0.00079
2.272,-0.00095
2.276,0.04546
2.28,-0.01344
2.284,-0.01898
2.288,-0.05941
2.292,-0.14023
2.296,-0.19017
2.3,-0.11486
2.304,-0.03464
2.308,0.15371
2.312,0.31414
2.316,0.61515
2.32,0.76928
2.324,0.95792
2.328,0.93524
2.332,0.9026
2.336,0.73261
2.34,0.55999
2.344,0.2712
2.348,0.10554
2.352,-0.04948
2.356,-0.18091
2.36,-0.24071
2.364,-0.17988
2.368,-0.18083
2.372,-0.14316
2.376,-0.10889
2.38,-0.04575
2.384,-0.08569
2.388,0.02354
2.392,-0.06115
2.396,-0.00907
2.4,-0.0544
2.404,-0.00972
2.408,0.01528
2.412,-0.11641
2.416,0.01725
2.42,-0.05804
2.424,-0.01186
2.428,0.01977
2.432,-0.00993
2.436,-0.02969
2.44,0.00991
2.444,0.01139
2.448,-0.12801
2.452,-0.0231
2.456,-0.01639
2.46,-0.06333
2.464,-0.02611
2.468,-0.04792
2.472,-0.073
2.476,-0.0032
2.48,-0.11125
2.484,0.00627
2.488,-0.01956
2.492,-0.05611
2.496,-0.05439
2.5,-0.03612
2.504,0.0741
2.508,-0.0357
2.512,-0.03782
2.516,-0.03567
2.52,0.01947
2.524,-0.01835
2.528,0.07069
2.532,0.01037
2.536,0.04694
2.54,-0.00749
2.544,0.01274
2.548,0.00218
2.552,0.03151
2.556,0.09137
2.56,0.103
2.564,0.1419
2.568,0.12964
2.572,0.14184
2.576,0.17703
2.58,0.20028
2.584,0.17893
2.588,0.22193
2.592,0.23107
2.596,0.19518
2.6,0.235
2.604,0.20991
2.608,0.33701
2.612,0.3496
2.616,0.25666
2.62,0.3186
2.624,0.27975
2.628,0.24391
2.632,0.26881
2.636,0.21246
2.64,0.21628
2.644,0.1321
2.648,0.15348
2.652,0.12971
2.656,0.15001
2.66,0.13767
2.664,0.04668
2.668,0.00303
2.672,0.03431
2.676,0.05359
2.68,0.02993
2.684,0.03671
2.688,-0.04302
2.692,0.00802
2.696,0.03721
2.7,-0.03919
2.704,0.02536
2.708,0.03039
2.712,-0.0368
2.716,-0.04547
2.72,-0.01267
2.724,-0.0334
2.728,-0.07414
2.732,-0.04063
2.736,-0.05988
2.74,-0.08742
2.744,-0.10303
2.748,-0.09955
2.752,-0.08499
2.756,-0.04377
2.76,0.09642
2.764,0.30257
2.768,0.54156
2.772,0.71577
2.776,0.86283
2.78,0.93953
2.784,0.95223
2.788,0.81535
2.792,0.57064
2.796,0.29306
2.8,0.09857
2.804,-0.0528
2.808,-0.13951
2.812,-0.22081
2.816,-0.1925
2.82,-0.14436
2.824,-0.11135
2.828,-0.08012
2.832,-0.00051
2.836,-0.02216
2.84,-0.03887
2.844,0.01394
2.848,-0.02034
2.852,-0.08345
2.856,-0.00299
2.86,-0.07132
2.864,0.01355
2.868,-0.03268
2.872,-0.05118
2.876,-0.00756
2.88,-0.06348
2.884,0.00508
2.888,-0.04242
2.892,-0.02705
2.896,-0.00389
2.9,-0.09635
2.904,-0.02785
2.908,-0.02943
2.912,0.02374
2.916,-0.02006
2.92,-0.03969
2.924,-0.04955
2.928,-0.08281
2.932,-0.10059
2.936,-0.07081
2.94,-0.0481
2.944,-0.03208
2.948,-0.00534
2.952,-0.02694
2.956,-0.00052
2.96,-0.04957
2.964,-0.02086
2.968,0.02292
2.972,-0.02766
2.976,0.03465
2.98,0.01438
2.984,0.03775
2.988,0.02765
2.992,0.04956
2.996,0.10174
3.0,0.09658
3.004,0.03822
3.008,0.01484
3.012,0.08022
3.016,0.12329
3.02,0.10856
3.024,0.11798
3.028,0.17473
3.032,0.10704
3.036,0.15048
3.04,0.19854
3.044,0.17055
3.048,0.21191
3.052,0.15351
3.056,0.19452
3.06,0.16126
3.064,0.17578
3.068,0.18257
3.072,0.15063
3.076,0.1506
3.08,0.10027
3.084,0.21831
3.088,0.17452
3.092,0.13259
3.096,0.11905
3.1,0.05149
3.104,0.10938
3.108,0.1121
3.112,0.07321
3.116,0.0519
3.12,0.06859
3.124,0.06734
3.128,0.06729
3.132,0.07997
3.136,0.03428
3.14,0.01248
3.144,-0.06523
3.148,-0.09095
3.152,-0.04857
3.156,-0.03567
3.16,-0.0157
3.164,-0.04449
3.168,-0.01236
3.172,0.07493
3.176,-0.0176
3.18,-0.07005
3.184,0.04877
3.188,0.00671
3.192,-0.07079
3.196,0.01752
3.2,-0.01763
3.204,0.04226
3.208,0.01206
3.212,0.02876
3.216,-0.01511
3.22,0.12294
3.224,0.01826
3.228,0.07534
3.232,0.09714
3.236,0.11387
3.24,0.05873
3.244,0.03402
3.248,0.07672
3.252,0.082
3.256,-0.05615
3.26,-0.04653
3.264,0.00871
3.268,-0.00449
3.272,-0.02297
3.276,-0.00744
3.28,-0.07825
3.284,0.00478
3.288,-0.04074
3.292,0.0297
3.296,0.04634
3.3,-0.0362
3.304,0.00811
3.308,-0.02482
3.312,-0.03111
3.316,-0.02165
3.32,-0.0358
3.324,-0.02945
3.328,-0.00786
3.332,-0.02845
3.336,-0.01537
3.34,-0.06602
3.344,-0.0874
3.348,-0.01443
3.352,-0.05392
3.356,-0.09686
3.36,-0.10632
3.364,-0.0602
3.368,-0.04507
3.372,0.2078
3.376,0.38004
3.38,0.62023
3.384,0.7956
3.388,0.98101
3.392,0.9708
3.396,0.86519
3.4,0.73329
3.404,0.49967
3.408,0.30362
3.412,0.1037
3.416,-0.10546
3.42,-0.13826
3.424,-0.18995
3.428,-0.1812
3.432,-0.06936
3.436,-0.10771
3.44,-0.05444
3.444,-0.07975
3.448,-0.01557
3.452,-0.05411
3.456,-0.00885
3.46,-0.05793
3.464,-0.07112
3.468,-0.03883
3.472,-0.04417
3.476,-0.04987
3.48,0.0213
3.484,0.0156
3.488,-0.00103
3.492,-0.00374
3.496,-0.02281
3.5,-0.04735
3.504,-0.04508
3.508,-0.00832
3.512,-0.07406
3.516,0.02779
3.52,-0.00118
3.524,0.06948
3.528,-0.04078
3.532,0.03771
3.536,-0.00115
3.54,-0.05181
3.544,0.06151
3.548,0.05307
3.552,0.08771
3.556,0.04021
3.56,0.01772
3.564,0.00629
3.568,0.1194
3.572,0.1115
3.576,0.13976
3.58,0.13288
3.584,0.09669
3.588,0.08954
3.592,0.16394
3.596,0.11514
3.6,0.0319
3.604,0.09267
3.608,0.06329
3.612,0.07099
3.616,0.10742
3.62,0.07189
3.624,0.17044
3.628,0.16884
3.632,0.09984
3.636,0.18106
3.64,0.1616
3.644,0.19667
3.648,0.19947
3.652,0.19005
3.656,0.18521
3.66,0.21935
3.664,0.20733
3.668,0.18118
3.672,0.20411
3.676,0.20435
3.68,0.16001
3.684,0.19774
3.688,0.17322
3.692,0.19306
3.696,0.09936
3.7,0.1257
3.704,0.01064
3.708,0.11996
3.712,0.16987
3.716,0.32695
3.72,0.51686
3.724,0.67931
3.728,0.83358
3.732,1.00977
3.736,1.08534
3.74,0.96421
3.744,0.77755
3.748,0.57366
3.752,0.32338
3.756,0.14448
3.76,-0.00036
3.764,-0.08303
3.768,-0.18598
3.772,-0.10347
3.776,-0.04467
3.78,-0.04422
3.784,-0.1047
3.788,0.01892
3.792,-0.01255
3.796,0.04844
3.8,0.01358
3.804,-0.00469
3.808,0.02416
3.812,0.00094
3.816,0.00529
3.82,0.03695
3.824,-0.04796
3.828,-0.0021
3.832,0.00405
3.836,0.03479
3.84,-0.05133
3.844,0.06665
3.848,0.03819
3.852,0.00749
3.856,0.0308
3.86,0.02248
3.864,0.04089
3.868,-0.05871
3.872,-0.02831
3.876,-0.01391
3.88,-0.01048
3.884,0.04936
3.888,-0.01796
3.892,-0.0495
3.896,0.05007
3.9,0.00472
3.904,-0.06532
3.908,0.01972
3.912,0.02794
3.916,0.01657
3.92,-0.00672
3.924,0.01196
3.928,-0.01104
3.932,0.03894
3.936,0.06003
3.94,0.06659
3.944,0.09857
3.948,0.07621
3.952,0.07805
3.956,0.11193
3.96,0.09399
3.964,0.14976
3.968,0.16494
3.972,0.1739
3.976,0.19888
3.98,0.17714
3.984,0.17702
3.988,0.21977
3.992,0.26424
3.996,0.26565
4.0,0.25246
4.004,0.30002
4.008,0.26911
4.012,0.33133
4.016,0.29398
4.02,0.36529
4.024,0.29174
4.028,0.32051
4.032,0.23004
4.036,0.22229
4.04,0.24391
4.044,0.18937
4.048,0.16647
4.052,0.13368
4.056,0.10808
4.06,0.091
4.064,0.12197
4.068,0.11752
4.072,0.15595
4.076,0.11084
4.08,0.0341
4.084,0.05339
4.088,0.03302
4.092,0.0661
4.096,0.06278
4.1,0.04657
4.104,0.03598
4.108,0.00725
4.112,0.04479
4.116,0.06711
4.12,0.04812
4.124,0.01611
4.128,-0.05252
4.132,-0.07784
4.136,-0.04551
4.14,-0.10115
4.144,-0.08439
4.148,-0.04717
4.152,0.10348
4.156,0.34094
4.16,0.48265
4.164,0.76189
4.168,0.8883
4.172,0.91191
4.176,1.01406
4.18,0.87904
4.184,0.57658
4.188,0.33487
4.192,0.28421
4.196,0.00326
4.2,-0.08404
4.204,-0.21139
4.208,-0.20895
4.212,-0.11614
4.216,-0.06471
4.22,-0.099
4.224,0.00086
4.228,-0.04746
4.232,-0.07801
4.236,-0.00183
4.24,0.00588
4.244,0.05555
4.248,0.02372
4.252,-0.02711
4.256,-0.01472
4.26,-0.0668
4.264,-0.0763
4.268,-0.01867
4.272,0.09426
4.276,-0.01851
4.28,-0.03109
4.284,-0.06027
4.288,0.00764
4.292,-0.02651
4.296,0.03927
4.3,-0.00431
4.304,0.01814
4.308,0.01346
4.312,-0.01956
4.316,0.04694
4.32,0.01619
4.324,0.03782
4.328,0.04331
4.332,0.03962
4.336,-0.00228
4.34,0.02758
4.344,0.00621
4.348,0.0137
4.352,0.03632
4.356,-0.0039
4.36,0.01439
4.364,0.07585
4.368,0.01878
4.372,0.06655
4.376,0.04471
4.38,0.05582
4.384,0.09311
4.388,0.07483
4.392,0.09672
4.396,0.07729
4.4,0.10549
4.404,0.18526
4.408,0.10076
4.412,0.1275
4.416,0.19317
4.42,0.16955
4.424,0.16464
4.428,0.20832
4.432,0.25308
4.436,0.18053
4.44,0.20422
4.444,0.19675
4.448,0.19972
4.452,0.23663
4.456,0.22912
4.46,0.19743
4.464,0.26251
4.468,0.23073
4.472,0.18765
4.476,0.1003
4.48,0.22494
4.484,0.14583
4.488,0.18666
4.492,0.14127
4.496,0.14538
4.5,0.09852
4.504,0.13889
4.508,0.03386
4.512,0.13887
4.516,0.08543
4.52,0.10099
4.524,0.05957
4.528,0.0816
4.532,0.10651
4.536,0.071
4.54,0.09039
4.544,0.0692
4.548,0.1169
4.552,-0.00519
4.556,0.02973
4.56,0.01819
4.564,-0.00368
4.568,0.03917
4.572,0.01984
4.576,0.04229
4.58,0.13027
4.584,0.11732
4.588,0.07736
4.592,0.04588
4.596,0.12972
4.6,0.10778
4.604,0.08941
4.608,0.06543
4.612,0.05743
4.616,0.03783
4.62,0.0537
4.624,-0.02639
4.628,0.13134
4.632,0.01854
4.636,0.05418
4.64,-0.02227
4.644,0.00609
4.648,0.03502
4.652,0.00349
4.656,-0.01478
4.66,-0.07656
4.664,0.01548
4.668,0.01343
4.672,0.02994
4.676,-0.01558
4.68,-0.00835
4.684,-0.02072
4.688,-0.00808
4.692,0.02131
4.696,-0.05554
4.7,-0.02259
4.704,0.01537
4.708,0.03401
4.712,-0.00199
4.716,-0.02676
4.72,0.01044
4.724,-0.02897
4.728,-0.10987
4.732,-0.01491
4.736,0.12674
4.74,0.2424
4.744,0.41845
4.748,0.6566
4.752,0.85216
4.756,1.01985
4.76,0.98841
4.764,0.91989
4.768,0.81036
4.772,0.46481
4.776,0.31633
4.78,0.09945
4.784,0.02985
4.788,-0.0882
4.792,-0.14626
4.796,-0.17538
4.8,-0.05913
4.804,0.01023
4.808,-0.00841
4.812,-0.07011
4.816,0.03612
4.82,0.02938
4.824,-0.00411
4.828,-0.00114
4.832,0.01636
4.836,0.00101
4.84,0.01196
4.844,0.05593
4.848,-0.01095
4.852,0.0069
4.856,0.00287
4.86,-0.02494
4.864,0.05842
4.868,-0.0015
4.872,-0.00494
4.876,0.03045
4.88,0.03568
4.884,-0.02781
4.888,-0.00588
4.892,0.01567
4.896,-0.03209
4.9,0.08544
4.904,0.02392
4.908,0.01734
4.912,0.00129
4.916,-0.04093
4.92,0.03212
4.924,0.00874
4.928,-0.01197
4.932,0.0244
4.936,-0.01389
4.94,0.06349
4.944,0.07307
4.948,0.0539
4.952,0.09114
4.956,0.0996
4.96,0.04131
4.964,0.01286
4.968,0.09097
4.972,0.07727
4.976,0.14157
4.98,0.07045
4.984,0.17991
4.988,0.09796
4.992,0.14121
4.996,0.16297
5.0,0.15143
5.004,0.18326
5.008,0.20126
5.012,0.20384
5.016,0.28071
5.02,0.22662
5.024,0.16126
5.028,0.24516
5.032,0.21007
5.036,0.24409
5.04,0.25042
5.044,0.28623
5.048,0.24388
5.052,0.26291
5.056,0.25178
5.06,0.23486
5.064,0.26376
5.068,0.25443
5.072,0.2844
5.076,0.23676
5.08,0.22155
5.084,0.32214
5.088,0.2884
5.092,0.31092
5.096,0.19347
5.1,0.154
5.104,0.19509
5.108,0.1743
5.112,0.1675
5.116,0.11125
5.12,0.14265
5.124,0.12453
5.128,0.0773
5.132,-0.00444
5.136,0.09842
5.14,0.05657
5.144,0.04798
5.148,0.00512
5.152,0.04836
5.156,0.08245
5.16,0.04528
5.164,0.04005
5.168,-0.00297
5.172,-0.02242
5.176,0.07187
5.18,0.03558
5.184,0.02911
5.188,0.02224
5.192,-0.0267
5.196,0.06499
5.2,-0.01156
5.204,0.01998
5.208,-0.019
5.212,-0.08438
5.216,-0.10048
5.22,-0.05075
5.224,-0.01054
5.228,0.20597
5.232,0.37672
5.236,0.5602
5.24,0.77521
5.244,0.91394
5.248,1.02732
5.252,1.00478
5.256,0.86108
5.26,0.64015
5.264,0.46478
5.268,0.20909
5.272,0.03703
5.276,-0.16076
5.28,-0.12716
5.284,-0.10277
5.288,-0.10489
5.292,-0.03177
5.296,-0.04885
5.3,0.03744
5.304,0.03283
5.308,-0.00339
5.312,0.01338
5.316,0.05087
5.32,0.0578
5.324,-0.02501
5.328,-0.02535
5.332,-0.00776
5.336,0.03988
5.34,0.06863
5.344,0.02676
5.348,0.04568
5.352,-0.01743
5.356,0.02203
5.36,0.00949
5.364,0.01847
5.368,-0.03151
5.372,0.03527
5.376,0.0443
5.38,0.09468
5.384,0.02955
5.388,0.05968
5.392,0.06642
5.396,0.02468
5.4,0.04884
5.404,-0.00415
5.408,0.05806
5.412,0.12331
5.416,0.07559
5.42,0.0672
5.424,0.11847
5.428,0.03724
5.432,0.24344
5.436,0.16726
5.44,0.12163
5.444,0.14319
5.448,0.20716
5.452,0.22968
5.456,0.15254
5.46,0.19431
5.464,0.12004
5.468,0.20395
5.472,0.11455
5.476,0.15071
5.48,0.20641
5.484,0.16746
5.488,0.24399
5.492,0.20174
5.496,0.17947
5.5,0.14847
5.504,0.16982
5.508,0.27154
5.512,0.21719
5.516,0.21326
5.52,0.26298
5.524,0.25037
5.528,0.23045
5.532,0.28332
5.536,0.28167
5.54,0.25708
5.544,0.25307
5.548,0.2665
5.552,0.19969
5.556,0.15428
5.56,0.17488
5.564,0.07757
5.568,0.12934
5.572,0.00017
5.576,0.12723
5.58,0.17086
5.584,0.34244
5.588,0.50637
5.592,0.7401
5.596,0.96066
5.6,1.04651
5.604,1.10648
5.608,0.98044
5.612,0.79866
5.616,0.61316
5.62,0.28932
5.624,0.10698
5.628,-0.00777
5.632,-0.10888
5.636,-0.149
5.64,-0.12958
5.644,-0.01097
5.648,-0.01572
5.652,0.01753
5.656,0.03307
5.66,0.02665
5.664,-0.02848
5.668,-0.01537
5.672,0.04876
5.676,0.00756
5.68,-0.0292
5.684,-0.01267
5.688,0.02814
5.692,0.05731
5.696,-0.00734
5.7,0.11805
5.704,0.02062
5.708,-0.00926
5.712,0.05188
5.716,0.11276
5.72,0.01893
5.724,0.02904
5.728,0.06422
5.732,-0.05281
5.736,0.02566
5.74,-0.00136
5.744,0.0418
5.748,0.06043
5.752,0.03862
5.756,0.02544
5.76,0.08686
5.764,0.00352
5.768,0.01313
5.772,0.10536
5.776,0.04785
5.78,0.03564
5.784,0.06218
5.788,0.07692
5.792,-0.02349
5.796,0.13875
5.8,0.0561
5.804,0.04433
5.808,0.12266
5.812,0.12427
5.816,0.12693
5.82,0.11865
5.824,0.14674
5.828,0.09822
5.832,0.14608
5.836,0.21679
5.84,0.17609
5.844,0.17594
5.848,0.2448
5.852,0.18495
5.856,0.25693
5.86,0.2722
5.864,0.31363
5.868,0.23076
5.872,0.37978
5.876,0.28783
5.88,0.35296
5.884,0.35955
5.888,0.35409
5.892,0.28644
5.896,0.29205
5.9,0.29333
5.904,0.21521
5.908,0.26437
5.912,0.24737
5.916,0.28437
5.92,0.20166
5.924,0.15768
5.928,0.21764
5.932,0.14933
5.936,0.09878
5.94,0.10538
5.944,0.2102
5.948,0.13005
5.952,0.06856
5.956,0.13259
5.96,0.14694
5.964,-0.01015
5.968,0.07936
5.972,0.07282
5.976,0.03467
5.98,0.03729
5.984,0.08426
5.988,0.03789
5.992,0.05474
5.996,0.01914
6.0,0.02079
6.004,0.08034
6.008,-0.02058
6.012,-0.08764
6.016,-0.0953
6.02,-0.1145
6.024,0.09241
6.028,0.23295
6.032,0.44747
6.036,0.68283
6.04,0.82705
6.044,1.01798
6.048,1.09202
6.052,0.95666
6.056,0.82082
6.06,0.60926
6.064,0.35134
6.068,0.10389
6.072,-0.03857
6.076,-0.13191
6.08,-0.12172
6.084,-0.12171
6.088,-0.11037
6.092,-0.04938
6.096,-0.04652
6.1,0.04498
6.104,-0.05605
6.108,-0.00938
6.112,0.014
6.116,0.01379
6.12,0.03973
6.124,0.006
6.128,0.00929
6.132,0.07747
6.136,0.02105
6.14,-0.03053
6.144,-0.03719
6.148,0.05013
6.152,0.06679
6.156,0.00568
6.16,0.07818
6.164,-0.03242
6.168,0.02434
6.172,0.05918
6.176,0.02326
6.18,0.02272
6.184,0.07171
6.188,0.02054
6.192,0.04782
6.196,0.00355
6.2,0.03459
6.204,0.07483
6.208,-0.00096
6.212,0.08627
6.216,0.04959
6.22,-0.01639
6.224,0.03807
6.228,0.03468
6.232,0.10391
6.236,0.05563
6.24,0.07862
6.244,0.07008
6.248,0.06283
6.252,0.1111
6.256,0.13802
6.26,0.06006
6.264,0.12777
6.268,0.10703
6.272,0.13921
6.276,0.16006
6.28,0.15553
6.284,0.19548
6.288,0.14975
6.292,0.20552
6.296,0.24665
6.3,0.21832
6.304,0.23701
6.308,0.23246
6.312,0.18003
6.316,0.22995
6.32,0.26646
6.324,0.25521
6.328,0.23048
6.332,0.26726
6.336,0.24621
6.34,0.15331
6.344,0.22925
6.348,0.26693
6.352,0.28417
6.356,0.22197
6.36,0.19561
6.364,0.23612
6.368,0.20101
6.372,0.23936
6.376,0.14101
6.38,0.23519
6.384,0.15947
6.388,0.16532
6.392,0.19785
6.396,0.20114
6.4,0.15082
6.404,0.18194
6.408,0.17363
6.412,0.14894
6.416,0.10972
6.42,0.14543
6.424,0.0661
6.428,-0.00791
6.432,0.05517
6.436,0.07359
6.44,0.04821
6.444,0.07141
6.448,0.01664
6.452,0.05032
6.456,0.02173
6.46,0.05186
6.464,-0.01578
6.468,0.00396
6.472,0.04871
6.476,0.06341
6.48,0.04126
6.484,-0.01086
6.488,-0.02959
6.492,0.06389
6.496,0.10771
6.5,-0.00309
6.504,0.04826
6.508,0.08031
6.512,-0.02789
6.516,-0.02585
6.52,-0.08511
6.524,-0.06119
6.528,-0.0719
6.532,-0.07192
6.536,0.05937
6.54,0.2796
6.544,0.40028
6.548,0.67873
6.552,0.81946
6.556,0.97372
6.56,0.99837
6.564,0.92198
6.568,0.74077
6.572,0.5702
6.576,0.39786
6.58,0.08868
6.584,0.03423
6.588,-0.13627
6.592,-0.18757
6.596,-0.14774
6.6,-0.04764
6.604,-0.00567
6.608,-0.0386
6.612,-0.03037
6.616,0.01959
6.62,0.03631
6.624,0.03085
6.628,0.00964
6.632,0.00934
6.636,-0.00253
6.64,0.03709
6.644,0.03658
6.648,-0.00844
6.652,0.02585
6.656,0.03065
6.66,-0.02935
6.664,0.08138
6.668,0.022
6.672,0.09847
6.676,-0.0277
6.68,0.03804
6.684,0.00865
6.688,-0.00464
6.692,0.04983
6.696,-0.03067
6.7,-0.00608
6.704,0.03652
6.708,0.02571
6.712,0.01471
6.716,0.0757
6.72,0.041
6.724,0.01087
6.728,-0.00404
6.732,-0.01048
6.736,0.04618
6.74,0.05905
6.744,0.02332
6.748,-0.0074
6.752,-0.00586
6.756,0.00788
6.76,0.09729
6.764,0.03921
6.768,0.08358
6.772,0.02022
6.776,0.06144
6.78,0.18138
6.784,0.17672
6.788,0.09788
6.792,0.14229
6.796,0.10702
6.8,0.20403
6.804,0.17163
6.808,0.26708
6.812,0.16769
6.816,0.28282
6.82,0.17179
6.824,0.19728
6.828,0.14197
6.832,0.24746
6.836,0.17397
6.84,0.23705
6.844,0.23486
6.848,0.23242
6.852,0.13107
6.856,0.29518
6.86,0.25464
6.864,0.23007
6.868,0.17279
6.872,0.13765
6.876,0.23312
6.88,0.11446
6.884,0.14467
6.888,0.1744
6.892,0.15122
6.896,0.08966
6.9,0.06238
6.904,0.09861
6.908,0.1113
6.912,0.09641
6.916,0.04421
6.92,0.02586
6.924,0.08083
6.928,0.04412
6.932,0.10848
6.936,0.04269
6.94,0.11668
6.944,0.00497
6.948,0.06678
6.952,0.10921
6.956,0.04362
6.96,0.16332
6.964,0.19115
6.968,0.17898
6.972,0.06449
6.976,0.13416
6.98,0.08671
6.984,0.12648
6.988,0.05456
6.992,0.0689
6.996,0.09168
7.0,0.04817
7.004,0.01856
7.008,0.0603
7.012,0.05553
7.016,0.04076
7.02,0.06177
7.024,0.02174
7.028,0.00262
7.032,0.00467
7.036,0.0059
7.04,0.00559
7.044,0.04167
7.048,0.01045
7.052,0.01286
7.056,-0.00045
7.06,0.00236
7.064,0.02003
7.068,-0.05767
7.072,0.00344
7.076,0.05944
7.08,0.03578
7.084,-0.0086
7.088,-0.12263
7.092,-0.10025
7.096,-0.02609
7.1,0.0231
7.104,0.11018
7.108,0.30652
7.112,0.45743
7.116,0.73896
7.12,0.85656
7.124,0.9331
7.128,0.91282
7.132,0.8584
7.136,0.69831
7.14,0.41699
7.144,0.29189
7.148,0.08772
7.152,-0.01963
7.156,-0.17683
7.16,-0.11832
7.164,-0.10121
7.168,-0.09639
7.172,-0.04795
7.176,0.00427
7.18,-0.00369
7.184,0.01936
7.188,0.06748
7.192,0.00406
7.196,0.02857
7.2,-0.04611
7.204,-0.0573
7.208,0.03776
7.212,0.01312
7.216,0.07553
7.22,0.00184
7.224,-0.01187
7.228,-0.00193
7.232,0.00403
7.236,0.02107
7.24,-0.03571
7.244,0.02381
7.248,-0.06052
7.252,-0.05757
7.256,-0.0015
7.26,-0.05384
7.264,-0.00546
7.268,0.02587
7.272,-0.02583
7.276,0.05914
7.28,0.07859
7.284,0.02544
7.288,0.0077
7.292,0.03676
7.296,0.01659
7.3,0.02777
7.304,0.02808
7.308,-0.00808
7.312,0.01532
7.316,0.03513
7.32,0.02912
7.324,-0.02242
7.328,0.02906
7.332,0.0827
7.336,0.05667
7.34,0.04325
7.344,0.07838
7.348,0.16644
7.352,0.15462
7.356,0.0816
7.36,0.1999
7.364,0.18028
7.368,0.18503
7.372,0.23789
7.376,0.21204
7.38,0.20762
7.384,0.16146
7.388,0.22593
7.392,0.20349
7.396,0.2281
7.4,0.1635
7.404,0.18583
7.408,0.22571
7.412,0.2173
7.416,0.22896
7.42,0.23283
7.424,0.20239
7.428,0.19754
7.432,0.16519
7.436,0.20726
7.44,0.21653
7.444,0.21458
7.448,0.15304
7.452,0.11607
7.456,0.18233
7.46,0.13147
7.464,0.16721
7.468,0.04839
7.472,0.1045
7.476,0.11662
7.48,0.09701
7.484,-0.01557
7.488,0.04408
7.492,0.06014
7.496,-0.00832
7.5,0.02789
7.504,0.01081
7.508,-0.00588
7.512,0.0422
7.516,0.01301
7.52,-0.0069
7.524,0.03176
7.528,0.01
7.532,0.05005
7.536,0.06685
7.54,0.09349
7.544,0.03296
7.548,0.14053
7.552,0.10498
7.556,0.04146
7.56,0.10416
7.564,0.11707
7.568,0.08846
7.572,0.04454
7.576,0.04766
7.58,0.02927
7.584,0.01016
7.588,0.0574
7.592,0.04408
7.596,0.06349
7.6,-0.00412
7.604,-0.0347
7.608,0.05445
7.612,-0.05596
7.616,0.07571
7.62,0.04022
7.624,-0.031
7.628,-0.11465
7.632,-0.03903
7.636,0.01319
7.64,0.05612
7.644,-0.01058
7.648,-0.0291
7.652,-0.05857
7.656,-0.02506
7.66,-0.01439
7.664,-0.01422
7.668,-0.00207
7.672,-0.05367
7.676,-0.13377
7.68,-0.10691
7.684,-0.11421
7.688,-0.07645
7.692,0.0426
7.696,0.27005
7.7,0.49673
7.704,0.66287
7.708,0.86523
7.712,0.9698
7.716,0.97986
7.72,0.88694
7.724,0.66526
7.728,0.4168
7.732,0.19851
7.736,0.06403
7.74,-0.11518
7.744,-0.18135
7.748,-0.18113
7.752,-0.13896
7.756,-0.13049
7.76,-0.02928
7.764,-0.06982
7.768,-0.06706
7.772,-0.02283
7.776,-0.00394
7.78,-0.03123
7.784,-0.07572
7.788,-0.01331
7.792,0.02933
7.796,0.03483
7.8,-0.04553
7.804,-0.07332
7.808,-0.00994
7.812,0.03575
7.816,0.03798
7.82,0.00991
7.824,0.00906
7.828,0.02963
7.832,0.01385
7.836,-0.03755
7.84,-0.0292
7.844,-0.02966
7.848,0.02391
7.852,-0.05042
7.856,0.03335
7.86,-0.03104
7.864,0.04818
7.868,-0.07921
7.872,0.02325
7.876,0.06693
7.88,-0.00276
7.884,-0.02761
7.888,-0.02054
7.892,0.06838
7.896,0.05091
7.9,-0.03135
7.904,0.06172
7.908,0.03177
7.912,-0.01272
7.916,0.03527
7.92,0.02233
7.924,0.08467
7.928,0.05708
7.932,0.09487
7.936,0.08668
7.94,0.13753
7.944,0.10937
7.948,0.13614
7.952,0.12913
7.956,0.13529
7.96,0.10569
7.964,0.22969
7.968,0.17587
7.972,0.22257
7.976,0.18074
7.98,0.18147
7.984,0.19295
7.988,0.20685
7.992,0.24454
7.996,0.22709
8.0,0.24172
8.004,0.2345
8.008,0.26163
8.012,0.2721
8.016,0.28528
8.02,0.26083
8.024,0.3337
8.028,0.26673
8.032,0.16459
8.036,0.23072
8.04,0.21751
8.044,0.23717
8.048,0.14547
8.052,0.14244
8.056,0.13675
8.06,0.08479
8.064,0.12738
8.068,0.04353
8.072,0.12424
8.076,0.0537
8.08,-0.01765
8.084,0.06229
8.088,0.04533
8.092,0.12305
8.096,-0.00374
8.1,-0.03253
8.104,0.0027
8.108,-0.02187
8.112,-0.01484
8.116,-0.04922
8.12,0.01604
8.124,-0.04415
8.128,0.00406
8.132,-0.01324
8.136,0.01838
8.14,-0.09174
8.144,-0.01537
8.148,-0.13746
8.152,-0.14965
8.156,-0.05063
8.16,-0.04558
8.164,0.12307
8.168,0.36881
8.172,0.45768
8.176,0.6989
8.18,0.89717
8.184,1.00424
8.188,0.9441
8.192,0.71418
8.196,0.60832
8.2,0.38342
8.204,0.18255
8.208,0.00767
8.212,-0.09131
8.216,-0.18506
8.22,-0.19523
8.224,-0.1872
8.228,-0.07616
8.232,-0.01653
8.236,-0.07253
8.24,-0.02995
8.244,-0.06768
8.248,-0.00859
8.252,-0.04426
8.256,-0.04107
8.26,0.03524
8.264,0.01208
8.268,-0.00932
8.272,-0.06112
8.276,-0.03484
8.28,-0.00815
8.284,0.0073
8.288,0.01618
8.292,-0.08831
8.296,0.01257
8.3,-0.01467
8.304,0.0188
8.308,-0.06625
8.312,0.0022
8.316,-0.01765
8.32,0.02119
8.324,-0.01261
8.328,-0.0881
8.332,-0.003
8.336,0.0144
8.34,-0.01227
8.344,0.02033
8.348,0.01173
8.352,-0.02704
8.356,-0.00898
8.36,-0.03547
8.364,-0.04578
8.368,0.01474
8.372,0.018
8.376,0.04437
8.38,0.01904
8.384,0.03409
8.388,0.02922
8.392,0.14075
8.396,0.05537
8.4,0.05298
8.404,0.11932
8.408,0.09005
8.412,0.15255
8.416,0.10685
8.42,0.15998
8.424,0.13513
8.428,0.21041
8.432,0.2504
8.436,0.21097
8.44,0.30959
8.444,0.25326
8.448,0.21694
8.452,0.28745
8.456,0.2185
8.46,0.24429
8.464,0.21633
8.468,0.29294
8.472,0.26895
8.476,0.19595
8.48,0.16345
8.484,0.17546
8.488,0.12924
8.492,0.14176
8.496,0.17465
8.5,0.15477
8.504,0.12592
8.508,0.12848
8.512,0.10271
8.516,0.17112
8.52,0.04085
8.524,0.09045
8.528,0.0386
8.532,0.02594
8.536,-0.0063
8.54,0.08486
8.544,0.03068
8.548,0.01983
8.552,0.02368
8.556,-0.05315
8.56,-0.1251
8.564,-0.14717
8.568,-0.13336
8.572,-0.12056
8.576,0.1168
8.58,0.26277
8.584,0.42016
8.588,0.67235
8.592,0.83813
8.596,0.99884
8.6,0.94522
8.604,0.82221
8.608,0.69945
8.612,0.41649
8.616,0.20151
8.62,0.03107
8.624,-0.12971
8.628,-0.13237
8.632,-0.15248
8.636,-0.19061
8.64,-0.1206
8.644,-0.10773
8.648,-0.05098
8.652,-0.06476
8.656,-0.01087
8.66,0.01424
8.664,-0.00504
8.668,-0.02644
8.672,-0.0526
8.676,0.02915
8.68,-0.02293
8.684,-0.02352
8.688,0.03318
8.692,-0.04836
8.696,-0.00541
8.7,-0.01456
8.704,-0.0908
8.708,-0.03838
8.712,-0.02882
8.716,-0.06245
8.72,0.0035
8.724,-0.02388
8.728,-0.09274
8.732,-0.04713
8.736,-0.00836
8.74,-0.02673
8.744,-0.03553
8.748,0.02173
8.752,-0.02116
8.756,-0.07534
8.76,-0.0075
8.764,-0.02347
8.768,-0.05203
8.772,-0.01163
8.776,-0.02678
8.78,0.0272
8.784,-0.04361
8.788,0.013
8.792,-0.02097
8.796,0.03438
8.8,-0.0415
8.804,0.01181
8.808,0.01272
8.812,0.10208
8.816,0.05416
8.82,0.11731
8.824,0.08739
8.828,0.1191
8.832,0.06285
8.836,0.10037
8.84,0.11916
8.844,0.09604
8.848,0.09128
8.852,0.13604
8.856,0.0873
8.86,0.19166
8.864,0.15916
8.868,0.14796
8.872,0.14507
8.876,0.17866
8.88,0.20207
8.884,0.19511
8.888,0.11549
8.892,0.20635
8.896,0.17206
8.9,0.19246
8.904,0.14373
8.908,0.13318
8.912,0.1487
8.916,0.14741
8.92,0.09747
8.924,0.11593
8.928,0.023
8.932,0.09832
8.936,0.09941
8.94,0.07493
8.944,0.0874
8.948,0.04404
8.952,0.05584
8.956,-0.03553
8.96,-0.01467
8.964,0.06248
8.968,0.04315
8.972,0.00587
8.976,-0.04535
8.98,-0.01062
8.984,-0.05438
8.988,-0.02963
8.992,-0.06891
8.996,-0.00874
9.0,-0.05421
9.004,-0.0835
9.008,-0.03132
9.012,0.03654
9.016,-0.06715
9.02,-0.01554
9.024,0.00841
9.028,-0.05794
9.032,-0.01319
9.036,-0.02321
9.04,-0.01778
9.044,0.07875
9.048,0.02642
9.052,-0.02048
9.056,-0.03206
9.06,0.0325
9.064,0.07677
9.068,0.06271
9.072,0.09507
9.076,0.06419
9.08,0.04694
9.084,0.05524
9.088,0.0252
9.092,0.02041
9.096,-0.0128
9.1,-0.06286
9.104,0.01576
9.108,-0.01826
9.112,-0.00966
9.116,-0.06452
9.12,-0.03078
9.124,-0.06473
9.128,-0.02134
9.132,-0.02102
9.136,-0.03808
9.14,-0.02757
9.144,-0.03965
9.148,-0.00358
9.152,0.033
9.156,-0.05296
9.16,-0.08741
9.164,-0.03432
9.168,0.02078
9.172,-0.01396
9.176,-0.00489
9.18,-0.04665
9.184,-0.02891
9.188,-0.07665
9.192,-0.0975
9.196,-0.14505
9.2,-0.16893
9.204,-0.11082
9.208,0.03712
9.212,0.15768
9.216,0.33469
9.22,0.54148
9.224,0.78037
9.228,0.95991
9.232,0.97475
9.236,0.92244
9.24,0.76778
9.244,0.48485
9.248,0.30258
9.252,0.11875
9.256,-0.0884
9.26,-0.13174
9.264,-0.20431
9.268,-0.21445
9.272,-0.18584
9.276,-0.09585
9.28,-0.1009
9.284,-0.13295
9.288,-0.03589
9.292,0.00289
9.296,-0.03104
9.3,-0.04001
9.304,0.0062
9.308,-0.01903
9.312,-0.07535
9.316,-0.01566
9.32,-0.05043
9.324,0.02787
9.328,0.00848
9.332,-0.05784
9.336,0.00289
9.34,-0.00721
9.344,-0.06148
9.348,-0.07024
9.352,-0.04733
9.356,-0.04052
9.36,-0.07628
9.364,-0.03197
9.368,0.04164
9.372,0.00891
9.376,0.01627
9.38,-0.06412
9.384,-0.02788
9.388,0.00927
9.392,-0.09745
9.396,0.00326
9.4,-0.03677
9.404,-0.05016
9.408,-0.04207
9.412,-0.00039
9.416,-0.00828
9.42,-0.00139
9.424,-0.0181
9.428,0.0265
9.432,0.0213
9.436,-0.01609
9.44,-0.03625
9.444,0.10574
9.448,0.03112
9.452,0.08204
9.456,0.08266
9.46,0.09072
9.464,0.16265
9.468,0.08494
9.472,0.13313
9.476,0.09038
9.48,0.12364
9.484,0.23548
9.488,0.14438
9.492,0.16489
9.496,0.18745
9.5,0.24055
9.504,0.20835
9.508,0.19746
9.512,0.18638
9.516,0.20554
9.52,0.27541
9.524,0.25673
9.528,0.1487
9.532,0.20174
9.536,0.15628
9.54,0.20326
9.544,0.17532
9.548,0.13314
9.552,0.12748
9.556,0.16636
9.56,0.09775
9.564,0.06389
9.568,0.12857
9.572,0.04777
9.576,0.00191
9.58,0.03934
9.584,0.04496
9.588,-0.03194
9.592,0.00403
9.596,-0.03674
9.6,0.02555
9.604,-0.03531
9.608,0.0337
9.612,-0.00906
9.616,0.00753
9.62,0.00977
9.624,-0.00779
9.628,-0.04391
9.632,-0.05464
9.636,-0.00221
9.64,-0.02345
9.644,-0.04313
9.648,-0.03067
9.652,0.06464
9.656,-0.01298
9.66,-0.02027
9.664,0.01228
9.668,0.02617
9.672,0.01799
9.676,-0.01872
9.68,0.03111
9.684,0.05227
9.688,0.04992
9.692,0.08825
9.696,0.02973
9.7,0.05159
9.704,0.0853
9.708,0.04535
9.712,0.08039
9.716,0.01357
9.72,0.07601
9.724,0.05061
9.728,-0.02211
9.732,0.00478
9.736,-0.00715
9.74,-0.02161
9.744,-0.01342
9.748,-0.02377
9.752,-0.01337
9.756,-0.02873
9.76,-0.00649
9.764,-0.03564
9.768,-0.01334
9.772,-0.02125
9.776,-0.03739
9.78,-0.05862
9.784,0.03715
9.788,-0.05467
9.792,-0.02017
9.796,-0.07123
9.8,0.00812
9.804,-0.03712
9.808,0.028
9.812,-0.06347
9.816,-0.05646
9.82,-0.06938
9.824,-0.1445
9.828,-0.08945
9.832,-0.17681
9.836,-0.04631
9.84,0.01927
9.844,0.13396
9.848,0.39316
9.852,0.60711
9.856,0.77264
9.86,0.92521
9.864,0.96704
9.868,0.95946
9.872,0.78837
9.876,0.54211
9.88,0.26842
9.884,0.14677
9.888,-0.02619
9.892,-0.08884
9.896,-0.23914
9.9,-0.11607
9.904,-0.09615
9.908,-0.125
9.912,-0.04716
9.916,-0.04771
9.92,0.01441
9.924,-0.03408
9.928,0.01418
9.932,-0.03928
9.936,-0.01184
9.94,-0.05534
9.944,-0.0438
9.948,-0.03323
9.952,0.01001
9.956,-0.00372
9.96,-0.08466
9.964,-0.04924
9.968,-0.02681
9.972,-0.05872
9.976,-0.06009
9.98,-0.05853
9.984,0.02348
9.988,0.02341
9.992,0.00586
9.996,-0.0142
