t_seg,ecg_mV
0.0,0.02041
0.004,-0.03205
0.008,0.04011
0.012,-0.01735
0.016,-0.01541
0.02,0.08828
0.024,0.01619
0.028,0.01481
0.032,-0.0907
0.036,0.01724
0.04,0.01624
0.044,-0.04251
0.048,-0.00838
0.052,0.05733
0.056,0.00599
0.06,-0.01192
0.064,-0.02833
0.068,-0.02473
0.072,-0.15309
0.076,-0.05105
0.08,-0.08958
0.084,0.04889
0.088,0.20545
0.092,0.42987
0.096,0.56448
0.1,0.85746
0.104,1.00349
0.108,0.98984
0.112,0.92246
0.116,0.79688
0.12,0.54982
0.124,0.34912
0.128,0.08279
0.132,-0.05762
0.136,-0.15062
0.14,-0.13593
0.144,-0.12561
0.148,-0.08559
0.152,-0.03844
0.156,-0.04422
0.16,0.01593
0.164,0.04729
0.168,0.0559
0.172,0.01772
0.176,0.03922
0.18,0.02227
0.184,0.01628
0.188,-0.02826
0.192,0.0118
0.196,-0.0132
0.2,0.03624
0.204,0.00411
0.208,0.05843
0.212,0.02196
0.216,-0.04771
0.22,-0.02337
0.224,0.02511
0.228,-0.04125
0.232,0.05095
0.236,0.01631
0.24,-0.03491
0.244,-0.00438
0.248,0.06957
0.252,-0.01473
0.256,0.02269
0.26,-0.0121
0.264,-0.00087
0.268,0.00787
0.272,-0.03107
0.276,0.00565
0.28,0.0568
0.284,0.03056
0.288,0.01731
0.292,0.0888
0.296,0.1007
0.3,-0.0005
0.304,-0.02009
0.308,0.02869
0.312,0.02883
0.316,-0.00477
0.32,0.05275
0.324,0.11029
0.328,0.12582
0.332,0.10312
0.336,0.10905
0.34,0.16804
0.344,0.10665
0.348,0.16035
0.352,0.19284
0.356,0.12015
0.36,0.16767
0.364,0.20602
0.368,0.18031
0.372,0.23643
0.376,0.12872
0.38,0.23594
0.384,0.22784
0.388,0.25492
0.392,0.18448
0.396,0.25239
0.4,0.15427
0.404,0.19671
0.408,0.13724
0.412,0.14396
0.416,0.2071
0.42,0.20742
0.424,0.15666
0.428,0.1252
0.432,0.1908
0.436,0.16857
0.44,0.11306
0.444,0.06595
0.448,0.07586
0.452,0.06917
0.456,0.06395
0.46,0.02753
0.464,0.05042
0.468,0.09853
0.472,0.04613
0.476,0.03861
0.48,-0.0246
0.484,0.06257
0.488,0.03003
0.492,0.0084
0.496,-0.0598
0.5,-0.0166
0.504,-0.0569
0.508,-0.03538
0.512,0.036
0.516,-0.04651
0.52,-0.01203
0.524,-0.04125
0.528,0.0396
0.532,-0.03062
0.536,0.0139
0.54,-0.01123
0.544,-0.04049
0.548,0.02018
0.552,-0.00566
0.556,-0.04846
0.56,-0.0208
0.564,-0.04085
0.568,-0.05482
0.572,-0.05438
0.576,-0.07276
0.58,-0.02607
0.584,-0.0437
0.588,-0.02936
0.592,0.0592
0.596,0.05947
0.6,-0.04148
0.604,0.01315
0.608,0.00075
0.612,0.02342
0.616,0.07471
0.62,-0.02032
0.624,0.02116
0.628,-0.01727
0.632,-0.00678
0.636,-0.01295
0.64,-0.04448
0.644,0.06505
0.648,0.04954
0.652,0.0703
0.656,0.05983
0.66,0.02445
0.664,0.10678
0.668,0.12176
0.672,0.11953
0.676,0.11078
0.68,0.08851
0.684,0.08673
0.688,0.09446
0.692,0.14449
0.696,0.06121
0.7,0.05959
0.704,0.0288
0.708,-0.0382
0.712,0.05498
0.716,0.04726
0.72,0.03028
0.724,-0.00617
0.728,-0.03341
0.732,-0.02346
0.736,-0.0013
0.74,0.01368
0.744,0.01638
0.748,0.02916
0.752,0.00496
0.756,0.00854
0.76,-0.06271
0.764,0.00291
0.768,-0.03743
0.772,-0.04064
0.776,0.00157
0.78,-0.00732
0.784,0.0344
0.788,-0.03771
0.792,-0.03779
0.796,-0.02469
0.8,-0.14145
0.804,-0.11125
0.808,-0.09086
0.812,0.04542
0.816,0.18964
0.82,0.42742
0.824,0.67675
0.828,0.81148
0.832,0.98205
0.836,0.9209
0.84,0.90657
0.844,0.70472
0.848,0.57411
0.852,0.27542
0.856,0.01117
0.86,-0.02831
0.864,-0.221
0.868,-0.25406
0.872,-0.16624
0.876,0.00183
0.88,-0.03748
0.884,0.00648
0.888,-0.06137
0.892,0.00432
0.896,0.04019
0.9,-0.00827
0.904,-0.01216
0.908,-0.00448
0.912,0.0179
0.916,-0.04092
0.92,-0.0188
0.924,-0.03799
0.928,-0.05134
0.932,0.00709
0.936,-0.03028
0.94,-0.00567
0.944,0.05389
0.948,-0.00401
0.952,0.00457
0.956,-0.05505
0.96,0.00529
0.964,0.00103
0.968,0.00737
0.972,-0.04124
0.976,-0.01765
0.98,0.0093
0.984,-0.03755
0.988,-0.01683
0.992,0.07492
0.996,-0.04291
1.0,-0.0184
1.004,0.04838
1.008,-0.01076
1.012,-0.01558
1.016,0.00474
1.02,0.01819
1.024,-0.01909
1.028,-0.02112
1.032,0.01735
1.036,0.0697
1.04,0.01194
1.044,0.07299
1.048,0.05646
1.052,0.05175
1.056,0.00222
1.06,0.08177
1.064,0.11284
1.068,0.08141
1.072,0.06792
1.076,0.11521
1.08,0.1508
1.084,0.12555
1.088,0.17375
1.092,0.14873
1.096,0.15249
1.1,0.23882
1.104,0.2187
1.108,0.19204
1.112,0.18485
1.116,0.17874
1.12,0.19697
1.124,0.2365
1.128,0.15859
1.132,0.14761
1.136,0.13798
1.14,0.17772
1.144,0.11838
1.148,0.16958
1.152,0.15634
1.156,0.12845
1.16,0.09284
1.164,0.07869
1.168,0.11398
1.172,0.09217
1.176,-4e-05
1.18,0.00426
1.184,0.09288
1.188,0.06211
1.192,-0.0552
1.196,0.00371
1.2,0.05807
1.204,-0.05455
1.208,0.04274
1.212,-0.01436
1.216,-0.01896
1.22,0.00494
1.224,0.03016
1.228,-0.04629
1.232,0.01463
1.236,0.02307
1.24,0.05892
1.244,0.02222
1.248,-0.02957
1.252,0.00314
1.256,-0.04199
1.26,-0.00187
1.264,-0.00719
1.268,-0.03078
1.272,0.00717
1.276,-0.01563
1.28,-0.00019
1.284,0.01023
1.288,-0.05031
1.292,-0.04394
1.296,0.00199
1.3,0.00228
1.304,0.05636
1.308,0.03308
1.312,0.00098
1.316,0.08127
1.32,0.08407
1.324,0.12655
1.328,0.04327
1.332,0.07415
1.336,0.0248
1.34,0.02194
1.344,0.05116
1.348,0.07704
1.352,0.08534
1.356,0.06754
1.36,0.02368
1.364,0.0248
1.368,0.01933
1.372,0.03649
1.376,-0.06757
1.38,-0.03805
1.384,-0.04682
1.388,-0.00384
1.392,-0.00331
1.396,-0.06007
1.4,0.00382
1.404,-0.07741
1.408,-0.04384
1.412,-0.10042
1.416,0.00785
1.42,-0.04713
1.424,0.018
1.428,0.02869
1.432,-0.02823
1.436,-0.00077
1.44,-0.0276
1.444,0.019
1.448,-0.00095
1.452,0.01009
1.456,-0.01387
1.46,-0.11305
1.464,-0.13247
1.468,-0.12596
1.472,-0.13602
1.476,-0.03205
1.48,0.13554
1.484,0.27381
1.488,0.60623
1.492,0.77461
1.496,0.87697
1.5,0.95062
1.504,0.96184
1.508,0.76914
1.512,0.59266
1.516,0.29779
1.52,0.13152
1.524,-0.09312
1.528,-0.10755
1.532,-0.21544
1.536,-0.19916
1.54,-0.1492
1.544,-0.14798
1.548,-0.04961
1.552,-0.0215
1.556,-0.02344
1.56,0.01346
1.564,-0.01366
1.568,-0.07995
1.572,-0.01501
1.576,-0.047
1.58,-0.02723
1.584,-0.05359
1.588,-0.00078
1.592,0.01761
1.596,-0.04255
1.6,-0.01874
1.604,-0.0004
1.608,-0.02386
1.612,-0.02411
1.616,-0.0032
1.62,0.04368
1.624,-0.03887
1.628,-0.04206
1.632,0.03497
1.636,-0.03117
1.64,-0.03723
1.644,0.01209
1.648,-0.00248
1.652,-0.0254
1.656,-0.04742
1.66,0.00049
1.664,0.06209
1.668,-0.0282
1.672,-0.03793
1.676,0.00545
1.68,-0.04127
1.684,-0.03486
1.688,0.0196
1.692,0.01614
1.696,0.05045
1.7,-0.02272
1.704,0.00325
1.708,-0.00215
1.712,-0.01628
1.716,0.02931
1.72,0.06703
1.724,0.01965
1.728,0.03233
1.732,0.12752
1.736,0.07915
1.74,0.13894
1.744,0.10384
1.748,0.12522
1.752,0.12156
1.756,0.17364
1.76,0.17983
1.764,0.17751
1.768,0.18585
1.772,0.19567
1.776,0.21249
1.78,0.26047
1.784,0.16812
1.788,0.13098
1.792,0.2276
1.796,0.16709
1.8,0.17864
1.804,0.16651
1.808,0.14762
1.812,0.14125
1.816,0.17037
1.82,0.16123
1.824,0.14795
1.828,0.1029
1.832,0.09436
1.836,0.07219
1.84,0.05777
1.844,0.08123
1.848,0.0301
1.852,0.00812
1.856,-0.0184
1.86,0.07042
1.864,0.01668
1.868,-0.01052
1.872,0.0196
1.876,-0.0186
1.88,0.01674
1.884,0.0054
1.888,-0.07503
1.892,-0.02368
1.896,0.00436
1.9,0.00171
1.904,-0.01834
1.908,-0.03804
1.912,-0.015
1.916,0.00553
1.92,-0.05441
1.924,-0.01926
1.928,0.01942
1.932,-0.01627
1.936,0.03916
1.94,0.01081
1.944,0.01979
1.948,0.05095
1.952,0.00273
1.956,0.06998
1.96,0.06308
1.964,0.08671
1.968,0.06978
1.972,0.05075
1.976,0.12133
1.98,0.03906
1.984,-0.017
1.988,0.01882
1.992,0.01001
1.996,-0.005
2.0,0.04244
2.004,-0.06536
2.008,-0.0307
2.012,0.01591
2.016,-0.01256
2.02,-0.06172
2.024,-0.04215
2.028,0.03725
2.032,0.01012
2.036,-0.09961
2.04,-0.06231
2.044,-0.04805
2.048,0.0028
2.052,0.00344
2.056,-0.05207
2.06,-0.04733
2.064,-0.01965
2.068,-0.00074
2.072,0.01381
2.076,-0.05302
2.08,-0.0376
2.084,0.04136
2.088,-0.01221
2.092,-0.13103
2.096,-0.1585
2.1,-0.1241
2.104,-0.12364
2.108,-0.02762
2.112,0.11922
2.116,0.15837
2.12,0.36157
2.124,0.31056
2.128,0.42311
2.132,0.39855
2.136,0.32497
2.14,0.24005
2.144,0.11964
2.148,0.00045
2.152,-0.11286
2.156,-0.20595
2.16,-0.23479
2.164,-0.1674
2.168,-0.10401
2.172,-0.15882
2.176,-0.0733
2.18,-0.01433
2.184,-0.04418
2.188,-0.03264
2.192,0.00597
2.196,-0.07156
2.2,-0.06674
2.204,-0.05251
2.208,0.03033
2.212,-0.08573
2.216,0.02313
2.22,-0.01479
2.224,-0.02434
2.228,-0.01391
2.232,-0.04307
2.236,0.02942
2.24,0.00409
2.244,-0.05743
2.248,-0.0103
2.252,-0.08029
2.256,-0.02386
2.26,0.0537
2.264,-0.05458
2.268,0.00788
2.272,-0.01097
2.276,-0.08416
2.28,-0.00525
2.284,-0.02952
2.288,-0.06946
2.292,-0.00206
2.296,0.00652
2.3,0.0202
2.304,0.03299
2.308,0.00127
2.312,-0.10305
2.316,-0.03901
2.32,-0.01671
2.324,0.02322
2.328,-0.01559
2.332,0.02432
2.336,-0.01781
2.34,0.03179
2.344,-0.00837
2.348,0.0016
2.352,0.02592
2.356,0.08441
2.36,0.06712
2.364,0.12004
2.368,0.06201
2.372,0.13779
2.376,0.07138
2.38,0.17134
2.384,0.15654
2.388,0.1585
2.392,0.18291
2.396,0.19448
2.4,0.22343
2.404,0.17887
2.408,0.23395
2.412,0.17804
2.416,0.13635
2.42,0.23127
2.424,0.18834
2.428,0.21352
2.432,0.14212
2.436,0.12072
2.44,0.16362
2.444,0.08616
2.448,0.14877
2.452,0.09859
2.456,0.06031
2.46,0.10559
2.464,0.05168
2.468,0.05678
2.472,0.03453
2.476,0.03332
2.48,-0.00171
2.484,0.05892
2.488,0.05093
2.492,0.04924
2.496,0.02333
2.5,-0.01702
2.504,-0.03981
2.508,0.0101
2.512,0.00765
2.516,-0.02561
2.52,0.00326
2.524,-0.04131
2.528,0.01532
2.532,-0.03581
2.536,0.0079
2.54,-0.04638
2.544,-0.02289
2.548,0.00293
2.552,-0.02614
2.556,0.0317
2.56,-0.0412
2.564,-0.00726
2.568,-0.0003
2.572,0.04517
2.576,-0.02026
2.58,0.01386
2.584,0.05292
2.588,0.07822
2.592,0.07035
2.596,0.12357
2.6,0.04966
2.604,0.06238
2.608,0.01971
2.612,0.00752
2.616,0.021
2.62,-0.01712
2.624,0.03349
2.628,-0.00253
2.632,0.0535
2.636,-0.02173
2.64,-0.02328
2.644,-0.05384
2.648,-0.02444
2.652,-0.04854
2.656,-0.00082
2.66,-0.00593
2.664,-0.0336
2.668,-0.08816
2.672,-0.04248
2.676,-0.0674
2.68,0.01182
2.684,0.052
2.688,-0.08384
2.692,-0.0309
2.696,-0.0517
2.7,-0.01772
2.704,0.01163
2.708,-0.08199
2.712,-0.10825
2.716,-0.14478
2.72,-0.14181
2.724,-0.04297
2.728,0.05545
2.732,0.16951
2.736,0.40117
2.74,0.65159
2.744,0.83321
2.748,0.98263
2.752,0.96146
2.756,0.88829
2.76,0.72138
2.764,0.54229
2.768,0.29921
2.772,0.06001
2.776,-0.08487
2.78,-0.12972
2.784,-0.22474
2.788,-0.2125
2.792,-0.08996
2.796,-0.0608
2.8,-0.01805
2.804,-0.08602
2.808,-0.00259
2.812,0.05733
2.816,-0.05673
2.82,-0.05169
2.824,-0.01234
2.828,-0.01096
2.832,-0.06009
2.836,-0.03447
2.84,-0.02054
2.844,-0.01715
2.848,-0.0401
2.852,-0.06429
2.856,-0.0183
2.86,-0.06131
2.864,-0.03463
2.868,-0.04075
2.872,-0.04918
2.876,-0.00113
2.88,-0.04144
2.884,-0.03993
2.888,-0.02315
2.892,-0.01624
2.896,0.00464
2.9,-0.03168
2.904,-0.03699
2.908,0.00521
2.912,0.00408
2.916,-0.01614
2.92,-0.02144
2.924,0.00657
2.928,-0.05147
2.932,-0.00497
2.936,0.00122
2.94,0.0297
2.944,-0.03042
2.948,-0.01365
2.952,-0.02915
2.956,-0.00423
2.96,0.00355
2.964,0.08978
2.968,0.02942
2.972,0.04039
2.976,0.0819
2.98,0.12072
2.984,0.06485
2.988,0.11227
2.992,0.12114
2.996,0.17603
3.0,0.2078
3.004,0.17059
3.008,0.20221
3.012,0.21616
3.016,0.21153
3.02,0.17325
3.024,0.27478
3.028,0.15479
3.032,0.248
3.036,0.20998
3.04,0.21545
3.044,0.18466
3.048,0.17114
3.052,0.14944
3.056,0.10101
3.06,0.15625
3.064,0.13274
3.068,0.1873
3.072,0.11023
3.076,0.09478
3.08,0.0896
3.084,0.09799
3.088,0.12467
3.092,0.04417
3.096,0.00855
3.1,0.06418
3.104,0.02615
3.108,0.03274
3.112,0.05091
3.116,0.01186
3.12,0.00878
3.124,-0.00108
3.128,0.0605
3.132,0.00242
3.136,-0.01271
3.14,-0.00759
3.144,-0.06885
3.148,-0.02497
3.152,-0.01599
3.156,-0.03018
3.16,-0.02944
3.164,0.01121
3.168,-0.06831
3.172,-0.07539
3.176,-0.05484
3.18,0.06697
3.184,-0.02768
3.188,-0.03217
3.192,0.00671
3.196,-0.02523
3.2,-0.02198
3.204,-0.04312
3.208,0.05206
3.212,-0.01466
3.216,-0.02676
3.22,0.00281
3.224,-0.0011
3.228,-0.01888
3.232,-0.00352
3.236,-0.04909
3.24,0.03028
3.244,-0.0481
3.248,0.04379
3.252,-0.04939
3.256,-0.0017
3.26,0.01937
3.264,-0.02122
3.268,-0.02059
3.272,0.02784
3.276,-0.10511
3.28,-0.03457
3.284,-0.03935
3.288,-0.05494
3.292,-0.01149
3.296,0.00307
3.3,-0.03591
3.304,-0.01651
3.308,-0.03125
3.312,-0.01788
3.316,-0.01175
3.32,-0.05664
3.324,0.02909
3.328,-0.00945
3.332,0.01783
3.336,0.02807
3.34,0.01719
3.344,-0.00251
3.348,-0.01999
3.352,-0.00545
3.356,-0.05045
3.36,0.011
3.364,0.00718
3.368,-0.02141
3.372,0.00633
3.376,-0.01796
3.38,0.03857
3.384,0.04132
3.388,0.00236
3.392,0.05417
3.396,0.09466
3.4,0.10384
3.404,0.07384
3.408,0.08264
3.412,0.07026
3.416,0.03782
3.42,0.06631
3.424,0.15453
3.428,0.06547
3.432,0.09684
3.436,0.01248
3.44,0.03762
3.444,0.00213
3.448,0.03322
3.452,0.029
3.456,-0.0012
3.46,0.04003
3.464,0.00035
3.468,-0.06261
3.472,0.0212
3.476,-0.01756
3.48,0.02495
3.484,0.01497
3.488,0.01816
3.492,0.01254
3.496,0.00392
3.5,-0.06138
3.504,-0.04983
3.508,-0.01453
3.512,0.07491
3.516,-0.03019
3.52,-0.04334
3.524,0.02119
3.528,-0.02128
3.532,-0.01203
3.536,-0.04958
3.54,-0.11725
3.544,-0.13448
3.548,-0.04615
3.552,0.11107
3.556,0.3096
3.56,0.44041
3.564,0.69989
3.568,0.91701
3.572,0.9646
3.576,0.96095
3.58,0.98203
3.584,0.7223
3.588,0.49094
3.592,0.2988
3.596,0.05764
3.6,-0.09192
3.604,-0.12721
3.608,-0.10138
3.612,-0.21899
3.616,-0.09329
3.62,-0.09385
3.624,-0.02688
3.628,-0.03066
3.632,-0.04633
3.636,-0.02894
3.64,0.03541
3.644,0.00589
3.648,0.01399
3.652,0.06764
3.656,0.04041
3.66,-0.04041
3.664,-0.07778
3.668,-0.01474
3.672,-0.04951
3.676,-0.01939
3.68,-0.01377
3.684,0.00083
3.688,-0.00387
3.692,-0.02682
3.696,-0.01092
3.7,-0.1039
3.704,0.05738
3.708,-0.02187
3.712,-0.05854
3.716,0.00023
3.72,0.0231
3.724,-0.01887
3.728,-0.01358
3.732,0.05938
3.736,0.0738
3.74,0.03047
3.744,-0.04784
3.748,-0.02584
3.752,-0.01419
3.756,0.0399
3.76,-0.00655
3.764,-0.00874
3.768,0.02403
3.772,0.10516
3.776,0.05278
3.78,0.02549
3.784,0.07738
3.788,0.10311
3.792,0.08189
3.796,0.09284
3.8,0.10498
3.804,0.20036
3.808,0.1569
3.812,0.11224
3.816,0.16304
3.82,0.19453
3.824,0.23232
3.828,0.19516
3.832,0.17763
3.836,0.22953
3.84,0.2223
3.844,0.20828
3.848,0.257
3.852,0.21132
3.856,0.22113
3.86,0.23217
3.864,0.16645
3.868,0.16048
3.872,0.16276
3.876,0.15559
3.88,0.19583
3.884,0.13576
3.888,0.07731
3.892,0.19563
3.896,0.15456
3.9,0.12244
3.904,0.18316
3.908,0.07059
3.912,0.05097
3.916,0.07713
3.92,0.0698
3.924,0.05065
3.928,0.06466
3.932,0.05072
3.936,0.04994
3.94,0.04586
3.944,0.02618
3.948,0.05242
3.952,0.00302
3.956,-0.0178
3.96,0.02048
3.964,0.0348
3.968,0.01807
3.972,0.00052
3.976,0.00408
3.98,0.0395
3.984,-0.02225
3.988,-0.06482
3.992,0.06022
3.996,-0.01931
4.0,-0.06535
4.004,0.00897
4.008,0.02271
4.012,0.01981
4.016,-0.0247
4.02,0.03456
4.024,0.01324
4.028,0.0661
4.032,0.00266
4.036,0.00947
4.04,0.05415
4.044,0.08111
4.048,0.0164
4.052,0.05918
4.056,0.03232
4.06,-0.01857
4.064,0.02135
4.068,-0.00325
4.072,-0.00498
4.076,0.06572
4.08,-0.03618
4.084,-0.04026
4.088,0.07585
4.092,0.0107
4.096,-0.00935
4.1,0.01443
4.104,0.02051
4.108,0.03559
4.112,0.05077
4.116,0.08332
4.12,0.01564
4.124,0.0514
4.128,0.06026
4.132,0.09141
4.136,0.14328
4.14,0.12381
4.144,0.13402
4.148,0.1626
4.152,0.06237
4.156,0.03448
4.16,0.06558
4.164,0.03133
4.168,0.00734
4.172,-0.04309
4.176,0.03829
4.18,0.04363
4.184,-0.0639
4.188,0.06277
4.192,-0.02935
4.196,0.0391
4.2,-0.03042
4.204,0.08088
4.208,-0.00924
4.212,0.04813
4.216,0.01389
4.22,0.016
4.224,0.01879
4.228,0.06177
4.232,-0.01165
4.236,0.01033
4.24,0.05505
4.244,0.04562
4.248,0.01349
4.252,0.00797
4.256,0.00438
4.26,-0.038
4.264,-0.05312
4.268,-0.11197
4.272,-0.0805
4.276,0.04448
4.28,0.26578
4.284,0.44947
4.288,0.64763
4.292,0.89975
4.296,0.98
4.3,1.0207
4.304,0.90378
4.308,0.74567
4.312,0.54281
4.316,0.32186
4.32,0.05647
4.324,-0.08769
4.328,-0.16131
4.332,-0.12322
4.336,-0.12007
4.34,-0.06089
4.344,-0.06053
4.348,-0.03146
4.352,0.01225
4.356,0.00478
4.36,0.05708
4.364,0.03584
4.368,0.03902
4.372,0.027
4.376,-0.00124
4.38,0.05988
4.384,0.05855
4.388,0.00869
4.392,0.07455
4.396,0.0709
4.4,0.01665
4.404,0.0188
4.408,0.02382
4.412,0.02288
4.416,0.00256
4.42,0.03229
4.424,0.02855
4.428,0.02386
4.432,0.01891
4.436,0.01248
4.44,0.06063
4.444,0.0324
4.448,0.06026
4.452,0.05551
4.456,-0.02862
4.46,0.02865
4.464,0.02708
4.468,0.01743
4.472,0.0788
4.476,0.04776
4.48,0.01814
4.484,0.04392
4.488,0.05166
4.492,0.0834
4.496,0.12477
4.5,0.06953
4.504,0.05802
4.508,0.06673
4.512,0.08858
4.516,0.10445
4.52,0.15739
4.524,0.12605
4.528,0.12193
4.532,0.09264
4.536,0.22357
4.54,0.14192
4.544,0.1353
4.548,0.20817
4.552,0.1901
4.556,0.20518
4.56,0.16127
4.564,0.24723
4.568,0.26025
4.572,0.22796
4.576,0.21106
4.58,0.20675
4.584,0.26897
4.588,0.1817
4.592,0.23658
4.596,0.27111
4.6,0.22966
4.604,0.24606
4.608,0.21604
4.612,0.2632
4.616,0.17932
4.62,0.18793
4.624,0.10615
4.628,0.15594
4.632,0.09229
4.636,0.1003
4.64,0.12133
4.644,0.1202
4.648,0.05695
4.652,0.11092
4.656,0.09677
4.66,0.05264
4.664,0.12264
4.668,0.14218
4.672,0.11671
4.676,0.05343
4.68,0.06676
4.684,0.1233
4.688,0.11459
4.692,0.08267
4.696,0.11524
4.7,0.16465
4.704,0.18002
4.708,0.15185
4.712,0.12952
4.716,0.08016
4.72,0.1669
4.724,0.074
4.728,0.02672
4.732,-0.00637
4.736,-0.02398
4.74,0.05944
4.744,0.00398
4.748,0.06277
4.752,0.07074
4.756,0.08499
4.76,-0.00616
4.764,-0.00868
4.768,0.04975
4.772,0.03504
4.776,0.03087
4.78,0.0264
4.784,-0.02337
4.788,0.01785
4.792,0.04238
4.796,0.02763
4.8,-0.00318
4.804,0.06851
4.808,-0.0254
4.812,-0.00772
4.816,-0.04009
4.82,-0.09699
4.824,-0.06238
4.828,-0.11013
4.832,-0.09333
4.836,0.03615
4.84,0.17755
4.844,0.36254
4.848,0.64494
4.852,0.85037
4.856,0.95398
4.86,0.99097
4.864,0.95478
4.868,0.84621
4.872,0.6284
4.876,0.3466
4.88,0.10551
4.884,0.01338
4.888,-0.09987
4.892,-0.17105
4.896,-0.19253
4.9,-0.12687
4.904,-0.01726
4.908,0.01927
4.912,-0.01581
4.916,-0.01126
4.92,0.03749
4.924,0.10757
4.928,0.05756
4.932,0.02157
4.936,0.03515
4.94,0.0154
4.944,0.04067
4.948,0.10822
4.952,0.05342
4.956,0.03286
4.96,-0.03646
4.964,0.02003
4.968,-0.00498
4.972,0.01447
4.976,0.06069
4.98,0.03763
4.984,-0.00572
4.988,-0.00207
4.992,0.01729
4.996,0.02092
5.0,0.08212
5.004,0.04828
5.008,0.00692
5.012,0.09808
5.016,0.05674
5.02,-0.00597
5.024,0.05882
5.028,-0.00476
5.032,0.03946
5.036,0.04353
5.04,0.01491
5.044,0.09394
5.048,0.09866
5.052,0.09038
5.056,0.06062
5.06,0.10625
5.064,0.09885
5.068,0.12523
5.072,0.05576
5.076,0.1752
5.08,0.14726
5.084,0.15472
5.088,0.13938
5.092,0.11576
5.096,0.16112
5.1,0.14793
5.104,0.22648
5.108,0.20059
5.112,0.21418
5.116,0.19262
5.12,0.18298
5.124,0.16595
5.128,0.27239
5.132,0.30208
5.136,0.25667
5.14,0.2325
5.144,0.24574
5.148,0.25776
5.152,0.25073
5.156,0.1948
5.16,0.27172
5.164,0.23304
5.168,0.1859
5.172,0.20657
5.176,0.15796
5.18,0.23293
5.184,0.24829
5.188,0.22793
5.192,0.212
5.196,0.18054
5.2,0.19122
5.204,0.1673
5.208,0.14064
5.212,0.2044
5.216,0.16393
5.22,0.18277
5.224,0.16709
5.228,0.13008
5.232,0.19614
5.236,0.13575
5.24,0.10797
5.244,0.09845
5.248,0.02535
5.252,0.13405
5.256,0.0675
5.26,0.00174
5.264,0.12649
5.268,0.08987
5.272,0.01524
5.276,0.01478
5.28,0.06659
5.284,-0.0361
5.288,0.04878
5.292,0.06073
5.296,-0.0469
5.3,0.01472
5.304,-0.03857
5.308,0.0287
5.312,0.00516
5.316,0.03968
5.32,0.02245
5.324,0.05741
5.328,0.02067
5.332,0.02309
5.336,0.03134
5.34,0.04738
5.344,-0.02175
5.348,-0.10302
5.352,-0.12699
5.356,-0.10655
5.36,0.01614
5.364,0.23002
5.368,0.39291
5.372,0.55501
5.376,0.72777
5.38,1.00046
5.384,1.00428
5.388,0.99245
5.392,0.8117
5.396,0.59864
5.4,0.46718
5.404,0.19589
5.408,0.02092
5.412,-0.07187
5.416,-0.17578
5.42,-0.14724
5.424,-0.07038
5.428,-0.09527
5.432,0.02032
5.436,0.03714
5.44,0.03027
5.444,-0.00631
5.448,0.07159
5.452,0.07981
5.456,0.00355
5.46,0.01121
5.464,0.06494
5.468,0.03975
5.472,-0.03592
5.476,0.01377
5.48,0.04238
5.484,0.08742
5.488,0.00475
5.492,-0.05478
5.496,0.02489
5.5,-0.05677
5.504,0.0948
5.508,0.02436
5.512,0.05627
5.516,0.06009
5.52,0.07507
5.524,0.01921
5.528,-0.06945
5.532,0.00244
5.536,0.03624
5.54,0.03535
5.544,0.0274
5.548,0.07948
5.552,0.00375
5.556,0.13289
5.56,0.06484
5.564,0.07744
5.568,0.12213
5.572,-0.0021
5.576,-0.00592
5.58,0.09373
5.584,0.10187
5.588,0.04626
5.592,0.076
5.596,0.13178
5.6,0.04727
5.604,0.11731
5.608,0.25381
5.612,0.14895
5.616,0.12173
5.62,0.17437
5.624,0.14412
5.628,0.20196
5.632,0.15186
5.636,0.18164
5.64,0.27579
5.644,0.2703
5.648,0.24258
5.652,0.25247
5.656,0.26081
5.66,0.31198
5.664,0.29294
5.668,0.21839
5.672,0.23664
5.676,0.23588
5.68,0.26145
5.684,0.22577
5.688,0.21713
5.692,0.17635
5.696,0.12272
5.7,0.20814
5.704,0.15839
5.708,0.14584
5.712,0.216
5.716,0.14885
5.72,0.1701
5.724,0.09637
5.728,0.1146
5.732,0.09599
5.736,0.11939
5.74,0.0804
5.744,0.05772
5.748,0.09535
5.752,0.0821
5.756,0.07159
5.76,0.06158
5.764,0.01648
5.768,0.1235
5.772,0.08021
5.776,0.10891
5.78,0.00545
5.784,0.04905
5.788,0.01815
5.792,-0.02505
5.796,-0.0063
5.8,0.02335
5.804,-0.00531
5.808,-0.00743
5.812,-0.02169
5.816,0.05825
5.82,0.00566
5.824,-0.02347
5.828,0.07631
5.832,0.03872
5.836,0.07069
5.84,0.005
5.844,-0.03587
5.848,0.09268
5.852,-0.05712
5.856,0.00651
5.86,0.0252
5.864,0.00808
5.868,-0.00669
5.872,0.00871
5.876,0.05898
5.88,0.01116
5.884,0.01937
5.888,0.01312
5.892,-0.00074
5.896,0.08744
5.9,-0.01769
5.904,0.02456
5.908,0.00854
5.912,0.02183
5.916,0.04864
5.92,0.03564
5.924,0.04415
5.928,-0.03537
5.932,0.0105
5.936,-0.04065
5.94,0.02364
5.944,0.02109
5.948,-0.01349
5.952,0.05299
5.956,0.10169
5.96,0.00534
5.964,0.04134
5.968,0.05665
5.972,0.02759
5.976,0.03435
5.98,0.0263
5.984,0.03059
5.988,0.04427
5.992,0.02389
5.996,0.04046
6.0,0.01505
6.004,0.08888
6.008,0.04289
6.012,0.00213
6.016,0.0201
6.02,0.02314
6.024,0.01856
6.028,0.03381
6.032,0.04791
6.036,0.05125
6.04,-0.05435
6.044,0.03386
6.048,0.00444
6.052,-0.06391
6.056,-0.00146
6.06,-0.07282
6.064,0.07136
6.068,0.01233
6.072,0.00507
6.076,0.07502
6.08,0.0115
6.084,0.02021
6.088,0.03009
6.092,0.02181
6.096,-0.02888
6.1,-0.00417
6.104,0.00886
6.108,-0.04528
6.112,0.03971
6.116,-0.02078
6.12,0.04564
6.124,0.07317
6.128,0.04143
6.132,0.01498
6.136,0.04391
6.14,-0.03737
6.144,0.04224
6.148,0.01556
6.152,0.00863
6.156,-0.00587
6.16,0.07445
6.164,-0.00043
6.168,0.03127
6.172,0.04335
6.176,0.03582
6.18,0.00902
6.184,-0.01963
6.188,0.01532
6.192,0.03877
6.196,0.02734
6.2,0.08019
6.204,0.0232
6.208,0.0558
6.212,-0.02978
6.216,0.11973
6.22,0.06841
6.224,0.08839
6.228,0.1552
6.232,0.1183
6.236,0.16155
6.24,0.13248
6.244,0.06255
6.248,0.07003
6.252,0.0867
6.256,0.05668
6.26,0.09398
6.264,0.06075
6.268,0.08958
6.272,0.01166
6.276,0.0172
6.28,0.02708
6.284,0.05997
6.288,-0.02386
6.292,0.08484
6.296,-0.05298
6.3,0.05207
6.304,-0.00532
6.308,0.00546
6.312,0.02762
6.316,0.05659
6.32,0.02545
6.324,0.01693
6.328,-0.00593
6.332,0.01458
6.336,0.03775
6.34,-0.00048
6.344,-0.01004
6.348,0.01164
6.352,-0.03025
6.356,0.00952
6.36,0.00027
6.364,-0.00438
6.368,-0.1259
6.372,0.02532
6.376,-0.02122
6.38,0.14579
6.384,0.37514
6.388,0.51125
6.392,0.71879
6.396,0.93223
6.4,1.0188
6.404,1.04597
6.408,0.86347
6.412,0.72414
6.416,0.41731
6.42,0.15767
6.424,-0.00538
6.428,-0.06751
6.432,-0.11718
6.436,-0.14014
6.44,-0.14764
6.444,-0.05057
6.448,-0.04744
6.452,-0.04287
6.456,0.04002
6.46,0.04549
6.464,0.03625
6.468,0.00961
6.472,0.08612
6.476,0.02199
6.48,0.00878
6.484,0.01349
6.488,0.06645
6.492,0.05231
6.496,-0.00589
6.5,0.03897
6.504,-0.05547
6.508,0.04293
6.512,0.0182
6.516,0.04138
6.52,-0.04172
6.524,0.01058
6.528,0.00069
6.532,0.0074
6.536,0.00398
6.54,0.04185
6.544,-0.04757
6.548,0.00286
6.552,0.00384
6.556,-0.05217
6.56,0.00465
6.564,0.05276
6.568,0.03627
6.572,0.0712
6.576,-0.01631
6.58,-0.00102
6.584,0.02166
6.588,0.07864
6.592,0.02544
6.596,0.05643
6.6,0.03435
6.604,0.08865
6.608,-0.00337
6.612,0.08898
6.616,0.03303
6.62,0.09011
6.624,0.10739
6.628,0.08562
6.632,0.12177
6.636,0.089
6.64,0.16771
6.644,0.14101
6.648,0.15259
6.652,0.22495
6.656,0.26606
6.66,0.19665
6.664,0.19395
6.668,0.20495
6.672,0.23097
6.676,0.24327
6.68,0.20853
6.684,0.21296
6.688,0.15903
6.692,0.16695
6.696,0.20149
6.7,0.29029
6.704,0.17047
6.708,0.2265
6.712,0.19008
6.716,0.08033
6.72,0.1776
6.724,0.18458
6.728,0.20346
6.732,0.10288
6.736,0.0988
6.74,0.07981
6.744,0.07912
6.748,0.08668
6.752,0.10733
6.756,0.03849
6.76,0.08751
6.764,0.05341
6.768,0.06089
6.772,0.07585
6.776,-0.00812
6.78,0.10101
6.784,0.04815
6.788,-0.02796
6.792,0.00881
6.796,0.03187
6.8,0.00718
6.804,0.03705
6.808,0.02374
6.812,0.00877
6.816,0.06771
6.82,0.01835
6.824,0.01598
6.828,-0.03915
6.832,0.00698
6.836,0.015
6.84,0.02877
6.844,0.02067
6.848,0.10489
6.852,0.0427
6.856,0.07235
6.86,0.08508
6.864,0.10974
6.868,0.07914
6.872,0.02682
6.876,0.20058
6.88,0.09718
6.884,0.10583
6.888,0.03717
6.892,0.1362
6.896,0.05204
6.9,0.06781
6.904,0.09535
6.908,0.05605
6.912,0.03516
6.916,-0.05458
6.92,0.06005
6.924,-0.04452
6.928,0.00019
6.932,-0.00469
6.936,0.00412
6.94,0.02369
6.944,-0.0479
6.948,0.02882
6.952,-0.04512
6.956,0.02371
6.96,-0.04661
6.964,0.01176
6.968,-0.04393
6.972,0.02024
6.976,0.02115
6.98,-0.00845
6.984,-0.03258
6.988,-0.0293
6.992,0.01266
6.996,0.04235
7.0,-0.04744
7.004,-0.11091
7.008,-0.09675
7.012,-0.13101
7.016,-0.12206
7.02,0.06138
7.024,0.18841
7.028,0.40647
7.032,0.58389
7.036,0.82947
7.04,0.95892
7.044,1.05178
7.048,0.93497
7.052,0.77203
7.056,0.48879
7.06,0.30748
7.064,0.10014
7.068,-0.06142
7.072,-0.07627
7.076,-0.15907
7.08,-0.08576
7.084,-0.17343
7.088,-0.04467
7.092,-0.00772
7.096,-0.05127
7.1,-0.00038
7.104,0.0352
7.108,-0.0086
7.112,-0.01167
7.116,0.08565
7.12,-0.02286
7.124,-0.08121
7.128,0.01664
7.132,0.0231
7.136,0.05385
7.14,-0.01307
7.144,-0.00722
7.148,0.01183
7.152,-0.01764
7.156,-0.00765
7.16,-0.02182
7.164,0.04049
7.168,-0.04856
7.172,0.05389
7.176,-0.02194
7.18,-0.01339
7.184,0.02904
7.188,-0.04242
7.192,0.01802
7.196,0.00681
7.2,-0.01587
7.204,-0.04173
7.208,-0.06013
7.212,0.0212
7.216,-0.02801
7.22,-0.00025
7.224,0.02058
7.228,-0.00067
7.232,0.06847
7.236,-0.02227
7.24,0.07891
7.244,0.08335
7.248,0.06811
7.252,0.0852
7.256,0.05543
7.26,0.07393
7.264,0.13093
7.268,0.05901
7.272,0.05331
7.276,0.16754
7.28,0.18235
7.284,0.16786
7.288,0.1556
7.292,0.21303
7.296,0.19516
7.3,0.21146
7.304,0.26859
7.308,0.21663
7.312,0.19386
7.316,0.20341
7.32,0.20773
7.324,0.19969
7.328,0.18063
7.332,0.18361
7.336,0.20935
7.34,0.20341
7.344,0.18588
7.348,0.22422
7.352,0.15696
7.356,0.14452
7.36,0.16504
7.364,0.17932
7.368,0.16882
7.372,0.09409
7.376,0.11833
7.38,0.10651
7.384,0.08129
7.388,0.10442
7.392,0.10881
7.396,0.0647
7.4,0.00836
7.404,0.04041
7.408,0.01954
7.412,-0.00882
7.416,0.03457
7.42,0.01672
7.424,-0.03146
7.428,0.02108
7.432,-0.01624
7.436,0.02013
7.44,0.00317
7.444,0.06673
7.448,-0.04816
7.452,-0.07943
7.456,-0.071
7.46,-0.01264
7.464,0.0617
7.468,-0.01832
7.472,0.06117
7.476,-0.00403
7.48,0.02678
7.484,0.04484
7.488,-0.01813
7.492,0.0307
7.496,-0.01873
7.5,-0.00667
7.504,-0.01651
7.508,-0.0376
7.512,-0.01097
7.516,0.03898
7.52,0.03327
7.524,0.11227
7.528,0.06824
7.532,0.04627
7.536,0.06732
7.54,0.07216
7.544,0.13501
7.548,0.08357
7.552,0.08987
7.556,0.11269
7.56,0.11017
7.564,0.08695
7.568,-0.00984
7.572,0.01869
7.576,-0.05452
7.58,-0.03848
7.584,-0.01089
7.588,-0.00491
7.592,-0.02037
7.596,-0.09139
7.6,0.00424
7.604,-0.02914
7.608,-0.04775
7.612,0.01802
7.616,-0.06108
7.62,0.00139
7.624,-0.03086
7.628,0.03818
7.632,-0.04041
7.636,-0.01304
7.64,0.0221
7.644,0.03919
7.648,-0.05006
7.652,-0.0305
7.656,-0.06453
7.66,-0.04038
7.664,-0.12948
7.668,-0.10926
7.672,-0.1442
7.676,-0.05804
7.68,0.11322
7.684,0.27636
7.688,0.48452
7.692,0.70659
7.696,0.85305
7.7,0.99363
7.704,0.9797
7.708,0.84459
7.712,0.66266
7.716,0.49754
7.72,0.1786
7.724,0.04056
7.728,-0.14401
7.732,-0.17629
7.736,-0.22774
7.74,-0.11795
7.744,-0.05872
7.748,-0.10343
7.752,-0.06178
7.756,-0.02074
7.76,-0.07066
7.764,-0.07611
7.768,0.00553
7.772,-0.02958
7.776,-0.01639
7.78,-0.03702
7.784,0.03387
7.788,-0.00409
7.792,0.05048
7.796,-0.0395
7.8,-0.08091
7.804,-0.00864
7.808,-0.0001
7.812,-0.06131
7.816,-0.04567
7.82,0.01366
7.824,-0.04637
7.828,-0.05484
7.832,-0.02974
7.836,-0.01092
7.84,0.0116
7.844,0.00277
7.848,-0.02499
7.852,-0.08334
7.856,-0.00145
7.86,-0.03302
7.864,0.01474
7.868,-0.02134
7.872,-0.06231
7.876,-0.04593
7.88,-0.02373
7.884,0.0344
7.888,0.00346
7.892,0.05599
7.896,-0.03151
7.9,0.02701
7.904,0.0072
7.908,0.05339
7.912,0.0335
7.916,0.09711
7.92,0.01728
7.924,0.04716
7.928,0.11726
7.932,0.0735
7.936,0.10515
7.94,0.15415
7.944,0.10591
7.948,0.12552
7.952,0.09279
7.956,0.1517
7.96,0.14348
7.964,0.2106
7.968,0.18875
7.972,0.2404
7.976,0.1716
7.98,0.28324
7.984,0.23732
7.988,0.17994
7.992,0.22496
7.996,0.12757
8.0,0.15075
8.004,0.20771
8.008,0.11826
8.012,0.19486
8.016,0.08579
8.02,0.1425
8.024,0.11413
8.028,0.1324
8.032,0.08845
8.036,0.0618
8.04,0.05344
8.044,0.05814
8.048,0.01332
8.052,0.01533
8.056,0.05026
8.06,0.02639
8.064,0.07805
8.068,0.0287
8.072,0.00199
8.076,0.04341
8.08,-0.02086
8.084,-0.00292
8.088,-0.01788
8.092,0.0022
8.096,-0.02681
8.1,0.00038
8.104,-0.04024
8.108,-0.01001
8.112,-0.01879
8.116,0.00182
8.12,-0.01176
8.124,-0.03522
8.128,-0.08588
8.132,-0.03799
8.136,-0.03592
8.14,-0.01405
8.144,-0.02696
8.148,-0.07568
8.152,-0.05657
8.156,-0.06614
8.16,-0.04905
8.164,-0.01222
8.168,0.01576
8.172,-0.00922
8.176,0.00395
8.18,0.03737
8.184,-0.00853
8.188,0.04425
8.192,0.0183
8.196,0.06187
8.2,0.14204
8.204,0.03339
8.208,0.14329
8.212,0.09695
8.216,0.04409
8.22,0.00385
8.224,-0.00246
8.228,0.06883
8.232,0.02745
8.236,0.041
8.24,-0.02569
8.244,0.00243
8.248,0.00457
8.252,-0.03274
8.256,-0.05286
8.26,-0.03056
8.264,-0.02146
8.268,-0.0526
8.272,0.03217
8.276,-0.0597
8.28,-0.01443
8.284,-0.01385
8.288,-0.00506
8.292,-0.05923
8.296,-0.03118
8.3,-0.05234
8.304,-0.01469
8.308,-0.01682
8.312,-0.00448
8.316,-0.05543
8.32,-0.05586
8.324,-0.04778
8.328,-0.161
8.332,-0.07807
8.336,-0.12308
8.34,0.08696
8.344,0.09392
8.348,0.29164
8.352,0.57242
8.356,0.73447
8.36,0.88696
8.364,0.88805
8.368,0.98498
8.372,0.70421
8.376,0.62299
8.38,0.31133
8.384,0.18392
8.388,-0.01016
8.392,-0.13868
8.396,-0.17608
8.4,-0.18574
8.404,-0.08641
8.408,-0.15205
8.412,-0.10045
8.416,-0.062
8.42,-0.03174
8.424,-0.07047
8.428,-0.06487
8.432,-0.0733
8.436,-0.03688
8.44,-0.02004
8.444,-0.02121
8.448,-0.04956
8.452,-0.01246
8.456,-0.00885
8.46,-0.02813
8.464,0.00964
8.468,-0.03398
8.472,-0.00375
8.476,-0.00121
8.48,-0.03675
8.484,-0.01525
8.488,-0.04041
8.492,0.07759
8.496,-0.01987
8.5,-0.04047
8.504,-0.07682
8.508,-0.00863
8.512,0.00501
8.516,-0.05166
8.52,-0.00585
8.524,-0.04633
8.528,-0.02401
8.532,-0.08934
8.536,-0.01398
8.54,-0.01939
8.544,0.03069
8.548,-0.02815
8.552,-0.04006
8.556,-0.02515
8.56,0.03123
8.564,-0.03618
8.568,-0.00288
8.572,0.0383
8.576,0.0504
8.58,0.07443
8.584,0.01312
8.588,0.11611
8.592,0.05253
8.596,0.19079
8.6,0.12778
8.604,0.15925
8.608,0.07329
8.612,0.12021
8.616,0.10264
8.62,0.15925
8.624,0.17251
8.628,0.17369
8.632,0.21271
8.636,0.19709
8.64,0.21765
8.644,0.15735
8.648,0.15147
8.652,0.22639
8.656,0.1421
8.66,0.2297
8.664,0.18731
8.668,0.16732
8.672,0.19705
8.676,0.16091
8.68,0.14982
8.684,0.11812
8.688,0.08556
8.692,0.16529
8.696,0.10507
8.7,0.00571
8.704,0.04379
8.708,0.04443
8.712,0.032
8.716,-0.01635
8.72,0.00377
8.724,0.01058
8.728,0.04599
8.732,-0.02231
8.736,0.03178
8.74,0.0276
8.744,-0.00051
8.748,0.042
8.752,0.00213
8.756,-0.03318
8.76,0.03079
8.764,0.00493
8.768,-0.02145
8.772,-0.01411
8.776,0.03046
8.78,-0.07042
8.784,-0.04075
8.788,0.00713
8.792,0.00553
8.796,-0.06255
8.8,-0.02012
8.804,-0.00937
8.808,-0.10199
8.812,-0.01402
8.816,-0.08825
8.82,0.00302
8.824,-0.01216
8.828,0.01563
8.832,-0.00418
8.836,-0.01804
8.84,-0.04504
8.844,-0.00552
8.848,-0.05748
8.852,0.00903
8.856,-0.06703
8.86,-0.07808
8.864,-0.0171
8.868,-0.04324
8.872,-0.0581
8.876,-0.05232
8.88,-0.00235
8.884,-0.05976
8.888,-0.09783
8.892,-0.06468
8.896,-0.04729
8.9,-0.00483
8.904,-0.01496
8.908,-0.00657
8.912,-0.01393
8.916,-0.02776
8.92,-0.06669
8.924,0.03561
8.928,-0.02804
8.932,-0.02151
8.936,-0.0349
8.94,0.00916
8.944,-0.02889
8.948,-0.04771
8.952,-0.00318
8.956,-0.09029
8.96,-0.01732
8.964,-0.02061
8.968,-0.07636
8.972,0.04048
8.976,-0.107
8.98,-0.04101
8.984,0.00878
8.988,0.00524
8.992,-0.00394
8.996,-0.00363
9.0,-0.04489
9.004,-0.07379
9.008,0.03768
9.012,-0.08097
9.016,-0.00648
9.02,-0.12005
9.024,-0.0611
9.028,-0.07136
9.032,-0.01131
9.036,-0.0298
9.04,-0.0378
9.044,-0.04061
9.048,-0.06424
9.052,0.02376
9.056,-0.02382
9.06,-0.00441
9.064,-0.00046
9.068,-0.08181
9.072,-0.06181
9.076,-0.02573
9.08,-0.03484
9.084,-0.05278
9.088,-0.03545
9.092,0.00432
9.096,-0.08881
9.1,0.02687
9.104,0.0903
9.108,0.07977
9.112,-0.00669
9.116,0.01591
9.12,0.00329
9.124,0.011
9.128,0.01728
9.132,0.0828
9.136,0.03496
9.14,0.07873
9.144,0.08832
9.148,0.009
9.152,0.05673
9.156,-0.04108
9.16,0.01978
9.164,0.00332
9.168,-0.01058
9.172,0.05732
9.176,-0.00858
9.18,-0.02501
9.184,-0.04519
9.188,-0.03297
9.192,0.04274
9.196,-0.06029
9.2,0.01948
9.204,-0.00962
9.208,-0.0444
9.212,-0.06521
9.216,-0.00486
9.22,0.00778
9.224,-0.04414
9.228,-0.07118
9.232,-0.0063
9.236,-0.04496
9.24,-0.01356
9.244,0.04721
9.248,-0.10927
9.252,-0.08094
9.256,-0.06205
9.26,-0.09585
9.264,-0.1412
9.268,-0.16497
9.272,-0.08653
9.276,-0.02928
9.28,0.11663
9.284,0.31943
9.288,0.38963
9.292,0.49518
9.296,0.49304
9.3,0.51962
9.304,0.44041
9.308,0.26238
9.312,0.17363
9.316,-0.03287
9.32,-0.1115
9.324,-0.12605
9.328,-0.23252
9.332,-0.16307
9.336,-0.10246
9.34,-0.07492
9.344,-0.0951
9.348,-0.0176
9.352,-0.01852
9.356,-0.02976
9.36,-0.00048
9.364,-0.04348
9.368,0.00054
9.372,-0.07096
9.376,-0.02028
9.38,0.00893
9.384,-0.03885
9.388,-0.02435
9.392,-0.0275
9.396,-0.12282
9.4,0.0163
9.404,0.04196
9.408,0.00147
9.412,0.0215
9.416,-0.06729
9.42,0.03578
9.424,-0.01546
9.428,-0.04597
9.432,-0.06199
9.436,-0.01226
9.44,-0.02429
9.444,-0.00278
9.448,-0.04005
9.452,-0.00141
9.456,-0.02413
9.46,0.00385
9.464,0.00939
9.468,0.00861
9.472,-0.07461
9.476,-0.01568
9.48,-0.01034
9.484,-0.04734
9.488,0.03559
9.492,0.00792
9.496,0.00898
9.5,0.00045
9.504,0.04822
9.508,0.0667
9.512,0.01314
9.516,0.00445
9.52,0.10097
9.524,0.118
9.528,0.11775
9.532,0.11152
9.536,0.0975
9.54,0.14194
9.544,0.15286
9.548,0.14659
9.552,0.22038
9.556,0.21476
9.56,0.1541
9.564,0.169
9.568,0.21796
9.572,0.22108
9.576,0.22166
9.58,0.18016
9.584,0.21065
9.588,0.18942
9.592,0.17391
9.596,0.27014
9.6,0.18418
9.604,0.15724
9.608,0.14332
9.612,0.10871
9.616,0.07957
9.62,0.1496
9.624,0.14028
9.628,0.12395
9.632,0.10999
9.636,0.16027
9.64,0.09056
9.644,0.09074
9.648,0.04969
9.652,0.08234
9.656,0.1053
9.66,0.13827
9.664,0.10075
9.668,0.08138
9.672,0.06191
9.676,0.11561
9.68,0.07467
9.684,0.11586
9.688,0.07108
9.692,0.00822
9.696,-0.04516
9.7,0.01115
9.704,0.08233
9.708,-0.03277
9.712,0.0028
9.716,-0.00288
9.72,0.04517
9.724,0.027
9.728,-0.06212
9.732,-0.03293
9.736,0.03061
9.74,-0.01705
9.744,-0.00638
9.748,-0.05618
9.752,-0.02579
9.756,0.04689
9.76,-0.04921
9.764,0.02984
9.768,-0.02716
9.772,-0.05415
9.776,-0.01298
9.78,-0.02336
9.784,-0.0584
9.788,-0.07575
9.792,-0.13036
9.796,-0.11034
9.8,-0.03675
9.804,0.02167
9.808,0.16855
9.812,0.3707
9.816,0.58229
9.82,0.82022
9.824,0.87609
9.828,0.99973
9.832,0.92149
9.836,0.74648
9.84,0.66165
9.844,0.28805
9.848,0.13528
9.852,-0.08794
9.856,-0.16537
9.86,-0.22387
9.864,-0.19924
9.868,-0.06597
9.872,-0.10691
9.876,-0.10115
9.88,-0.06253
9.884,0.05328
9.888,-0.01126
9.892,-0.01783
9.896,-0.03645
9.9,-0.02171
9.904,0.05741
9.908,0.05884
9.912,-0.0346
9.916,-0.06964
9.92,0.051
9.924,0.03568
9.928,0.02633
9.932,0.03113
9.936,-0.05405
9.94,0.03077
9.944,0.02416
9.948,0.01409
9.952,0.03823
9.956,-0.0912
9.96,0.00281
9.964,0.03657
9.968,-0.07795
9.972,-0.05463
9.976,-0.05661
9.98,-0.00448
9.984,-0.02418
9.988,0.05709
9.992,-0.001
9.996,-0.01091
