t_seg,ecg_mV
0.0,-0.01434
0.004,-0.01054
0.008,0.02838
0.012,-0.01025
0.016,-0.02431
0.02,-0.01441
0.024,-0.04418
0.028,-0.01868
0.032,0.00991
0.036,0.01095
0.04,0.03171
0.044,-0.00798
0.048,0.00208
0.052,-0.01683
0.056,0.00601
0.06,0.00321
0.064,-0.02562
0.068,0.00343
0.072,-0.01907
0.076,-0.01516
0.08,-0.01968
0.084,-0.00758
0.088,-0.00487
0.092,-0.00225
0.096,-0.02683
0.1,-0.00437
0.104,-0.00159
0.108,-0.00111
0.112,-0.00372
0.116,0.00333
0.12,0.00105
0.124,-0.01239
0.128,-0.01157
0.132,-0.02286
0.136,0.00454
0.14,0.01193
0.144,0.00046
0.148,0.02728
0.152,0.01517
0.156,-0.01826
0.16,-0.00165
0.164,0.00342
0.168,-0.02282
0.172,-0.0091
0.176,-0.02548
0.18,-0.00707
0.184,-0.0262
0.188,-0.02083
0.192,0.00839
0.196,0.02621
0.2,0.02396
0.204,0.01047
0.208,0.01768
0.212,-0.00394
0.216,0.00341
0.22,0.01649
0.224,-0.00023
0.228,-0.01772
0.232,0.01313
0.236,-0.01444
0.24,-0.02962
0.244,0.01537
0.248,0.00808
0.252,0.00267
0.256,-0.00925
0.26,-0.01186
0.264,0.01241
0.268,0.00902
0.272,0.03115
0.276,-0.02891
0.28,-0.01073
0.284,0.02265
0.288,-0.00141
0.292,-0.0039
0.296,-0.00817
0.3,0.01524
0.304,-0.00903
0.308,0.01138
0.312,-0.00027
0.316,-0.00977
0.32,0.00062
0.324,0.00077
0.328,0.00865
0.332,0.024
0.336,-0.02906
0.34,0.02352
0.344,0.00894
0.348,0.01129
0.352,0.02768
0.356,0.00908
0.36,0.02909
0.364,0.01849
0.368,0.04938
0.372,0.03235
0.376,0.07384
0.38,0.08161
0.384,0.10227
0.388,0.07296
0.392,0.13718
0.396,0.11435
0.4,0.10889
0.404,0.0988
0.408,0.10313
0.412,0.07906
0.416,0.07647
0.42,0.05486
0.424,0.0208
0.428,0.02756
0.432,0.01832
0.436,0.00056
0.44,0.02466
0.444,0.01361
0.448,-0.01252
0.452,-0.00734
0.456,-0.00048
0.46,0.01604
0.464,0.01011
0.468,0.00027
0.472,0.01335
0.476,0.00551
0.48,0.00379
0.484,0.01412
0.488,0.02213
0.492,0.01316
0.496,0.00811
0.5,0.02087
0.504,0.01072
0.508,-0.00493
0.512,-0.02195
0.516,-0.06271
0.52,-0.13054
0.524,-0.0934
0.528,-0.09243
0.532,0.01714
0.536,0.13432
0.54,0.37005
0.544,0.57172
0.548,0.77641
0.552,0.95115
0.556,0.99342
0.56,0.93726
0.564,0.80851
0.568,0.59708
0.572,0.33787
0.576,0.14581
0.58,0.00612
0.584,-0.12139
0.588,-0.12776
0.592,-0.14695
0.596,-0.10205
0.6,-0.05573
0.604,-0.04405
0.608,0.01875
0.612,0.04361
0.616,0.00999
0.62,0.0061
0.624,0.03164
0.628,0.02429
0.632,0.00695
0.636,0.03412
0.64,0.02813
0.644,0.0274
0.648,-0.00872
0.652,-4e-05
0.656,0.00291
0.66,0.0015
0.664,-0.00548
0.668,-0.01078
0.672,0.02658
0.676,0.03063
0.68,0.00525
0.684,5e-05
0.688,-4e-05
0.692,-0.02012
0.696,-0.00722
0.7,-0.00203
0.704,0.02328
0.708,0.02494
0.712,0.01875
0.716,0.01903
0.72,0.00819
0.724,0.04135
0.728,0.01758
0.732,0.01515
0.736,0.05377
0.74,0.05774
0.744,0.01242
0.748,0.06481
0.752,0.06491
0.756,0.08298
0.76,0.05377
0.764,0.12436
0.768,0.07219
0.772,0.09434
0.776,0.12048
0.78,0.11908
0.784,0.13859
0.788,0.10893
0.792,0.16598
0.796,0.1579
0.8,0.19052
0.804,0.17977
0.808,0.21827
0.812,0.23017
0.816,0.20618
0.82,0.23005
0.824,0.2465
0.828,0.23731
0.832,0.22253
0.836,0.21229
0.84,0.24931
0.844,0.22179
0.848,0.23986
0.852,0.23912
0.856,0.21631
0.86,0.21242
0.864,0.20355
0.868,0.1822
0.872,0.17914
0.876,0.1791
0.88,0.14935
0.884,0.15988
0.888,0.12598
0.892,0.1204
0.896,0.10824
0.9,0.06399
0.904,0.07612
0.908,0.0807
0.912,0.06357
0.916,0.05203
0.92,0.04858
0.924,0.04117
0.928,0.04118
0.932,0.03054
0.936,0.02296
0.94,0.04153
0.944,0.02454
0.948,0.05275
0.952,0.04496
0.956,0.0472
0.96,0.02116
0.964,0.01516
0.968,0.02065
0.972,-0.00696
0.976,0.04404
0.98,0.02338
0.984,0.01885
0.988,0.00221
0.992,0.00545
0.996,0.0284
1.0,0.02552
1.004,0.03192
1.008,0.01127
1.012,0.03364
1.016,0.02257
1.02,-0.01053
1.024,-0.01161
1.028,0.02771
1.032,0.03352
1.036,0.02233
1.04,0.01487
1.044,0.03814
1.048,0.01832
1.052,0.06228
1.056,0.0224
1.06,-0.018
1.064,-0.0163
1.068,0.00439
1.072,0.03461
1.076,0.01591
1.08,0.02758
1.084,0.02037
1.088,0.04821
1.092,0.02297
1.096,0.01044
1.1,0.02033
1.104,0.02426
1.108,0.0446
1.112,0.02354
1.116,0.0405
1.12,0.06701
1.124,0.07929
1.128,0.10267
1.132,0.08954
1.136,0.09175
1.14,0.11282
1.144,0.12656
1.148,0.11065
1.152,0.05801
1.156,0.10593
1.16,0.1108
1.164,0.11503
1.168,0.07141
1.172,0.06654
1.176,0.06749
1.18,0.03942
1.184,0.0593
1.188,0.06738
1.192,0.05119
1.196,0.04255
1.2,0.04688
1.204,0.04491
1.208,0.03846
1.212,0.0433
1.216,0.0228
1.22,-0.0059
1.224,0.00843
1.228,0.0331
1.232,0.03419
1.236,0.03525
1.24,0.02702
1.244,0.0074
1.248,0.00766
1.252,0.02669
1.256,-0.00365
1.26,-0.00389
1.264,-0.02
1.268,-0.06477
1.272,-0.08158
1.276,-0.06268
1.28,0.01855
1.284,0.16895
1.288,0.36697
1.292,0.56398
1.296,0.79462
1.3,0.93454
1.304,1.04345
1.308,0.96504
1.312,0.85475
1.316,0.67248
1.32,0.41808
1.324,0.18035
1.328,-0.00071
1.332,-0.10775
1.336,-0.1339
1.34,-0.13907
1.344,-0.09168
1.348,-0.05081
1.352,-0.03559
1.356,0.01135
1.36,0.02537
1.364,0.02803
1.368,0.04386
1.372,0.02915
1.376,0.01295
1.38,0.03793
1.384,0.01238
1.388,0.0367
1.392,0.02386
1.396,0.01958
1.4,0.03338
1.404,0.02705
1.408,0.03019
1.412,0.02968
1.416,0.01652
1.42,0.01086
1.424,0.0221
1.428,0.02332
1.432,0.04881
1.436,0.02892
1.44,0.03584
1.444,-0.00081
1.448,0.02181
1.452,0.02692
1.456,0.03228
1.46,0.01888
1.464,0.01419
1.468,0.02806
1.472,0.01811
1.476,0.04557
1.48,0.05729
1.484,0.03944
1.488,0.06477
1.492,0.04838
1.496,0.05919
1.5,0.07136
1.504,0.08068
1.508,0.05743
1.512,0.11477
1.516,0.1164
1.52,0.10208
1.524,0.12767
1.528,0.13795
1.532,0.12304
1.536,0.16213
1.54,0.15973
1.544,0.16561
1.548,0.18142
1.552,0.17157
1.556,0.23496
1.56,0.20817
1.564,0.23123
1.568,0.25328
1.572,0.25636
1.576,0.23676
1.58,0.24564
1.584,0.24071
1.588,0.23844
1.592,0.22701
1.596,0.25662
1.6,0.22852
1.604,0.23666
1.608,0.22836
1.612,0.18136
1.616,0.2041
1.62,0.18848
1.624,0.18292
1.628,0.15492
1.632,0.18422
1.636,0.16924
1.64,0.12737
1.644,0.10703
1.648,0.10644
1.652,0.09303
1.656,0.08235
1.66,0.09667
1.664,0.06292
1.668,0.06158
1.672,0.05321
1.676,0.04694
1.68,0.05871
1.684,0.05123
1.688,0.05649
1.692,0.0471
1.696,0.03591
1.7,0.03486
1.704,0.05927
1.708,0.04025
1.712,0.03647
1.716,0.03014
1.72,0.00553
1.724,0.03631
1.728,0.00215
1.732,0.01762
1.736,0.03325
1.74,0.04595
1.744,0.03627
1.748,0.03841
1.752,0.02303
1.756,0.00655
1.76,0.0088
1.764,0.03308
1.768,0.02265
1.772,0.03884
1.776,0.0189
1.78,0.03449
1.784,0.01039
1.788,0.05677
1.792,0.00262
1.796,0.05869
1.8,0.03173
1.804,0.04177
1.808,0.03114
1.812,0.04443
1.816,0.07984
1.82,0.08555
1.824,0.06675
1.828,0.07891
1.832,0.10258
1.836,0.12664
1.84,0.12973
1.844,0.1293
1.848,0.11048
1.852,0.13469
1.856,0.12753
1.86,0.09704
1.864,0.10377
1.868,0.06813
1.872,0.05984
1.876,0.04228
1.88,0.04958
1.884,0.0711
1.888,0.05952
1.892,0.03379
1.896,0.05759
1.9,0.02644
1.904,0.01333
1.908,0.0561
1.912,0.00945
1.916,0.02004
1.92,0.03721
1.924,0.01939
1.928,0.01681
1.932,0.02306
1.936,0.00895
1.94,0.04056
1.944,0.01466
1.948,0.02442
1.952,0.04016
1.956,0.03514
1.96,0.02364
1.964,0.01162
1.968,-0.02227
1.972,-0.07859
1.976,-0.0662
1.98,-0.04351
1.984,0.07014
1.988,0.21615
1.992,0.43694
1.996,0.66121
2.0,0.8319
2.004,1.011
2.008,1.01616
2.012,0.96669
2.016,0.7707
2.02,0.59845
2.024,0.33986
2.028,0.14451
2.032,-0.01361
2.036,-0.08837
2.04,-0.15867
2.044,-0.13016
2.048,-0.09884
2.052,-0.01541
2.056,-0.02173
2.06,0.04248
2.064,0.0484
2.068,0.01636
2.072,0.06423
2.076,0.03228
2.08,0.03531
2.084,0.04648
2.088,0.04068
2.092,0.0395
2.096,0.01089
2.1,0.04154
2.104,0.01459
2.108,0.02795
2.112,0.03757
2.116,0.0384
2.12,0.049
2.124,-0.00062
2.128,0.04191
2.132,0.0128
2.136,0.02264
2.14,0.04055
2.144,0.04859
2.148,0.007
2.152,0.03861
2.156,0.04313
2.16,0.05487
2.164,0.00426
2.168,0.02605
2.172,0.01263
2.176,0.02919
2.18,0.04047
2.184,0.05563
2.188,0.06624
2.192,0.02064
2.196,0.06654
2.2,0.08061
2.204,0.07778
2.208,0.07527
2.212,0.09472
2.216,0.07226
2.22,0.11156
2.224,0.11402
2.228,0.11883
2.232,0.16292
2.236,0.13541
2.24,0.14881
2.244,0.14021
2.248,0.16769
2.252,0.18294
2.256,0.21424
2.26,0.2153
2.264,0.23168
2.268,0.21205
2.272,0.23632
2.276,0.22652
2.28,0.24633
2.284,0.26387
2.288,0.25714
2.292,0.20435
2.296,0.24738
2.3,0.261
2.304,0.22227
2.308,0.20353
2.312,0.20988
2.316,0.24444
2.32,0.22437
2.324,0.20734
2.328,0.13953
2.332,0.15659
2.336,0.13807
2.34,0.13976
2.344,0.12706
2.348,0.11
2.352,0.12912
2.356,0.08516
2.36,0.06807
2.364,0.07204
2.368,0.06854
2.372,0.06667
2.376,0.04616
2.38,0.07108
2.384,0.05652
2.388,0.07261
2.392,0.03778
2.396,0.01122
2.4,0.03442
2.404,0.01796
2.408,0.05435
2.412,0.00306
2.416,0.01871
2.42,0.03602
2.424,-0.00906
2.428,0.01027
2.432,0.01828
2.436,0.05717
2.44,0.04597
2.444,0.03689
2.448,0.03347
2.452,0.03807
2.456,0.05111
2.46,0.03292
2.464,0.04916
2.468,0.0337
2.472,0.05843
2.476,0.07335
2.48,0.07777
2.484,0.07293
2.488,0.07795
2.492,0.11534
2.496,0.13802
2.5,0.11648
2.504,0.11567
2.508,0.09992
2.512,0.10089
2.516,0.09091
2.52,0.07083
2.524,0.07897
2.528,0.08935
2.532,0.05244
2.536,0.05574
2.54,0.01607
2.544,0.04382
2.548,0.02301
2.552,0.02674
2.556,0.04471
2.56,0.02866
2.564,0.0112
2.568,0.01425
2.572,0.02218
2.576,0.00238
2.58,0.0298
2.584,0.01236
2.588,0.01164
2.592,0.01352
2.596,0.02018
2.6,0.01451
2.604,0.02947
2.608,0.01253
2.612,0.01998
2.616,0.01534
2.62,0.01158
2.624,-0.0419
2.628,-0.0849
2.632,-0.1022
2.636,-0.05774
2.64,0.03903
2.644,0.19777
2.648,0.43119
2.652,0.6136
2.656,0.85217
2.66,0.96295
2.664,1.02409
2.668,0.96785
2.672,0.79143
2.676,0.57547
2.68,0.33106
2.684,0.13998
2.688,-0.02865
2.692,-0.11445
2.696,-0.15645
2.7,-0.11785
2.704,-0.08672
2.708,-0.05011
2.712,-0.00189
2.716,0.00711
2.72,0.00867
2.724,0.04573
2.728,0.02893
2.732,0.02498
2.736,0.01737
2.74,0.02054
2.744,0.00372
2.748,0.01709
2.752,0.02252
2.756,0.00493
2.76,0.00612
2.764,0.02002
2.768,0.00948
2.772,0.02656
2.776,0.02055
2.78,0.04479
2.784,0.01228
2.788,0.01213
2.792,0.05192
2.796,0.02696
2.8,0.03001
2.804,0.00259
2.808,0.03059
2.812,0.02718
2.816,0.04288
2.82,0.03693
2.824,0.01345
2.828,0.02711
2.832,0.0272
2.836,0.02383
2.84,0.02632
2.844,0.03227
2.848,0.037
2.852,0.04104
2.856,0.04831
2.86,0.07747
2.864,0.07345
2.868,0.09603
2.872,0.0791
2.876,0.09479
2.88,0.08107
2.884,0.07885
2.888,0.08433
2.892,0.14984
2.896,0.15071
2.9,0.16144
2.904,0.17907
2.908,0.16811
2.912,0.18192
2.916,0.21314
2.92,0.19317
2.924,0.21488
2.928,0.20469
2.932,0.22486
2.936,0.24138
2.94,0.23628
2.944,0.21905
2.948,0.25539
2.952,0.25779
2.956,0.23903
2.96,0.21941
2.964,0.19903
2.968,0.21283
2.972,0.18064
2.976,0.22683
2.98,0.16235
2.984,0.14332
2.988,0.13446
2.992,0.13949
2.996,0.11325
3.0,0.09592
3.004,0.0943
3.008,0.09894
3.012,0.06609
3.016,0.08242
3.02,0.0499
3.024,0.05543
3.028,0.05789
3.032,0.05343
3.036,0.0351
3.04,0.04322
3.044,0.03267
3.048,0.03329
3.052,0.02504
3.056,0.02965
3.06,0.02853
3.064,-0.01777
3.068,0.00519
3.072,0.02786
3.076,0.00133
3.08,-0.01016
3.084,0.02915
3.088,-0.00031
3.092,0.0044
3.096,0.00625
3.1,0.01037
3.104,0.01911
3.108,0.0062
3.112,0.00452
3.116,0.03788
3.12,-0.02319
3.124,0.00197
3.128,0.04325
3.132,0.06399
3.136,0.04319
3.14,0.03878
3.144,0.06245
3.148,0.0767
3.152,0.08669
3.156,0.12224
3.16,0.10991
3.164,0.12681
3.168,0.10697
3.172,0.11888
3.176,0.10567
3.18,0.07638
3.184,0.07066
3.188,0.06476
3.192,0.07747
3.196,0.04997
3.2,0.02187
3.204,0.03518
3.208,0.0176
3.212,0.00203
3.216,0.01978
3.22,-0.0127
3.224,0.02428
3.228,0.01816
3.232,0.01453
3.236,0.01537
3.24,-0.01154
3.244,0.00903
3.248,0.00789
3.252,0.02167
3.256,-0.01411
3.26,0.00931
3.264,-0.01747
3.268,0.0218
3.272,-0.00789
3.276,0.01017
3.28,-0.01341
3.284,-0.02747
3.288,-0.07722
3.292,-0.12021
3.296,-0.08666
3.3,-0.03761
3.304,0.08721
3.308,0.27213
3.312,0.45915
3.316,0.69809
3.32,0.87354
3.324,0.99645
3.328,1.00491
3.332,0.85465
3.336,0.70222
3.34,0.45976
3.344,0.26374
3.348,0.05865
3.352,-0.09566
3.356,-0.15098
3.36,-0.16402
3.364,-0.14005
3.368,-0.08998
3.372,-0.06141
3.376,-0.02132
3.38,-0.0013
3.384,0.00637
3.388,0.00845
3.392,0.01023
3.396,0.00488
3.4,-0.01187
3.404,0.00355
3.408,0.01029
3.412,-0.00694
3.416,0.02696
3.42,-0.00074
3.424,0.00272
3.428,0.00649
3.432,0.01788
3.436,0.00609
3.44,0.02924
3.444,0.0139
3.448,0.01522
3.452,0.03789
3.456,-0.00922
3.46,-0.00199
3.464,-0.01291
3.468,0.00775
3.472,0.0114
3.476,0.0143
3.48,0.01076
3.484,0.05326
3.488,0.01057
3.492,0.01528
3.496,0.01434
3.5,0.00546
3.504,0.02747
3.508,0.01502
3.512,0.00042
3.516,0.03846
3.52,0.06958
3.524,0.01405
3.528,0.04724
3.532,0.03839
3.536,0.08128
3.54,0.07342
3.544,0.07184
3.548,0.11215
3.552,0.10255
3.556,0.11952
3.56,0.17482
3.564,0.13874
3.568,0.14259
3.572,0.18531
3.576,0.17858
3.58,0.19194
3.584,0.19343
3.588,0.19155
3.592,0.23728
3.596,0.22225
3.6,0.23811
3.604,0.21805
3.608,0.21615
3.612,0.24511
3.616,0.20966
3.62,0.19691
3.624,0.19789
3.628,0.19207
3.632,0.17862
3.636,0.18055
3.64,0.14121
3.644,0.16145
3.648,0.12362
3.652,0.12361
3.656,0.12299
3.66,0.11484
3.664,0.075
3.668,0.07565
3.672,0.05537
3.676,0.05549
3.68,0.07831
3.684,0.04621
3.688,0.05323
3.692,0.01817
3.696,0.05761
3.7,0.01998
3.704,0.00781
3.708,0.02402
3.712,0.03311
3.716,0.01965
3.72,0.00355
3.724,-0.01531
3.728,-0.00018
3.732,-0.00126
3.736,0.00684
3.74,-0.0021
3.744,0.00484
3.748,0.01469
3.752,-0.00573
3.756,-0.00021
3.76,-0.00758
3.764,0.00126
3.768,0.00311
3.772,-0.00285
3.776,-0.01876
3.78,-0.01484
3.784,-0.00744
3.788,0.01708
3.792,-0.02035
3.796,-0.03566
3.8,0.01038
3.804,0.00556
3.808,-0.01956
3.812,0.01629
3.816,0.02037
3.82,0.00248
3.824,0.03845
3.828,0.07421
3.832,0.09648
3.836,0.07112
3.84,0.06317
3.844,0.09923
3.848,0.0888
3.852,0.07917
3.856,0.07201
3.86,0.05708
3.864,0.0473
3.868,0.06131
3.872,0.05621
3.876,0.03049
3.88,0.01643
3.884,-0.01303
3.888,-0.01066
3.892,-0.0074
3.896,-0.03086
3.9,-0.02241
3.904,0.01056
3.908,-0.01351
3.912,0.01961
3.916,-0.03109
3.92,-0.01914
3.924,-0.02053
3.928,-0.00246
3.932,-0.03915
3.936,-0.01144
3.94,-0.01301
3.944,-0.00811
3.948,-0.00499
3.952,-0.01317
3.956,-0.02858
3.96,-0.05095
3.964,-0.06586
3.968,-0.0995
3.972,-0.13073
3.976,-0.07416
3.98,-0.02589
3.984,0.13822
3.988,0.33161
3.992,0.51359
3.996,0.76318
4.0,0.90416
4.004,1.01573
4.008,0.93131
4.012,0.78227
4.016,0.57952
4.02,0.36848
4.024,0.14188
4.028,-0.00408
4.032,-0.14412
4.036,-0.17938
4.04,-0.17636
4.044,-0.11261
4.048,-0.10613
4.052,-0.08505
4.056,-0.01899
4.06,-0.04195
4.064,-0.02626
4.068,-0.00051
4.072,-0.01632
4.076,0.00556
4.08,-0.02284
4.084,-4e-05
4.088,-0.00578
4.092,-0.03221
4.096,-0.05949
4.1,-0.00561
4.104,-0.00796
4.108,-0.02071
4.112,-0.0208
4.116,-0.03036
4.12,-0.02606
4.124,-0.01973
4.128,-0.02492
4.132,0.01141
4.136,-0.03602
4.14,-0.02618
4.144,0.00667
4.148,-0.01666
4.152,-0.01553
4.156,-0.01112
4.16,0.00061
4.164,0.02248
4.168,0.00801
4.172,-0.0149
4.176,-0.02147
4.18,0.00454
4.184,-0.02121
4.188,0.00155
4.192,-0.00239
4.196,0.01964
4.2,0.01411
4.204,0.02295
4.208,0.01909
4.212,0.07302
4.216,0.0461
4.22,0.06382
4.224,0.05413
4.228,0.09095
4.232,0.07651
4.236,0.12351
4.24,0.10756
4.244,0.1487
4.248,0.14149
4.252,0.2014
4.256,0.13612
4.26,0.16712
4.264,0.17838
4.268,0.1755
4.272,0.19625
4.276,0.19475
4.28,0.18044
4.284,0.20227
4.288,0.19575
4.292,0.16751
4.296,0.20582
4.3,0.19289
4.304,0.16524
4.308,0.18612
4.312,0.15307
4.316,0.14796
4.32,0.13899
4.324,0.14002
4.328,0.10579
4.332,0.09786
4.336,0.08786
4.34,0.09049
4.344,0.07438
4.348,0.06921
4.352,0.03924
4.356,0.0572
4.36,0.05532
4.364,0.01464
4.368,0.03217
4.372,0.00697
4.376,0.01363
4.38,-0.02362
4.384,-0.00689
4.388,-0.01253
4.392,0.00166
4.396,-0.02027
4.4,0.00464
4.404,-0.02948
4.408,-0.02719
4.412,-0.02141
4.416,-0.00991
4.42,-0.02363
4.424,-0.0009
4.428,-0.01706
4.432,-0.0043
4.436,0.00288
4.44,-0.03
4.444,-0.00953
4.448,-0.02708
4.452,-0.00889
4.456,-0.02077
4.46,-0.01561
4.464,-0.03371
4.468,-0.02081
4.472,-0.04222
4.476,0.0092
4.48,-0.01486
4.484,-0.01463
4.488,-0.01999
4.492,-0.04424
4.496,-0.00717
4.5,-0.03556
4.504,-0.02755
4.508,-0.01654
4.512,-0.0369
4.516,-0.02438
4.52,-0.02341
4.524,-0.03666
4.528,-0.00966
4.532,-0.0085
4.536,-0.01863
4.54,-0.02933
4.544,-0.03896
4.548,-0.01863
4.552,-0.03825
4.556,-0.00905
4.56,-0.04105
4.564,-0.04293
4.568,-0.04082
4.572,-0.0514
4.576,-0.03822
4.58,0.01543
4.584,-0.04567
4.588,-0.00706
4.592,-0.01979
4.596,-0.03864
4.6,-0.03149
4.604,-0.02748
4.608,-0.01482
4.612,-0.05567
4.616,0.02364
4.62,-0.007
4.624,-0.02831
4.628,-0.02993
4.632,-0.03103
4.636,-0.01629
4.64,-0.04162
4.644,-0.03113
4.648,-0.05396
4.652,-0.01018
4.656,-0.01179
4.66,-0.02522
4.664,-0.04782
4.668,-0.04702
4.672,-0.0457
4.676,-0.02039
4.68,-0.01823
4.684,-0.02687
4.688,-0.00018
4.692,-0.04299
4.696,-0.00915
4.7,-0.02304
4.704,-0.04069
4.708,-0.02245
4.712,-0.02894
4.716,-0.02043
4.72,-0.03941
4.724,-0.0048
4.728,-0.01805
4.732,-0.0029
4.736,-0.03787
4.74,0.00148
4.744,-0.0052
4.748,0.02845
4.752,0.03041
4.756,0.01951
4.76,0.04592
4.764,0.06614
4.768,0.06687
4.772,0.0747
4.776,0.09685
4.78,0.0688
4.784,0.07078
4.788,0.04444
4.792,0.03558
4.796,0.02651
4.8,0.009
4.804,0.01348
4.808,-0.0068
4.812,-0.02674
4.816,-0.03318
4.82,-0.02759
4.824,-0.04741
4.828,-0.04236
4.832,-0.05477
4.836,-0.04012
4.84,-0.02028
4.844,-0.02749
4.848,-0.0449
4.852,-0.03144
4.856,-0.02861
4.86,-0.02701
4.864,-0.02406
4.868,-0.04538
4.872,-0.0173
4.876,-0.00594
4.88,-0.01873
4.884,-0.03882
4.888,-0.07073
4.892,-0.08572
4.896,-0.1119
4.9,-0.14148
4.904,-0.11318
4.908,0.0127
4.912,0.16699
4.916,0.35206
4.92,0.5688
4.924,0.79939
4.928,0.94382
4.932,0.98184
4.936,0.89014
4.94,0.74534
4.944,0.50304
4.948,0.30684
4.952,0.08324
4.956,-0.06105
4.96,-0.15544
4.964,-0.18385
4.968,-0.18607
4.972,-0.13469
4.976,-0.08535
4.98,-0.07148
4.984,-0.03866
4.988,-0.02503
4.992,-0.03087
4.996,-0.03441
5.0,-0.01833
5.004,-0.01073
5.008,-0.02056
5.012,-0.01797
5.016,-0.02785
5.02,-0.02931
5.024,-0.05632
5.028,-0.0423
5.032,-0.06585
5.036,-0.02418
5.04,-0.02612
5.044,-0.03931
5.048,-0.01744
5.052,-0.01566
5.056,-0.05709
5.06,0.00301
5.064,-0.04394
5.068,-0.01137
5.072,-0.01333
5.076,-0.04163
5.08,-0.01833
5.084,-0.01149
5.088,-0.01835
5.092,-0.0158
5.096,-0.01143
5.1,-0.03253
5.104,-0.01883
5.108,-0.04593
5.112,0.00098
5.116,-0.02196
5.12,0.00761
5.124,0.00448
5.128,0.01374
5.132,0.00762
5.136,0.02574
5.14,0.02993
5.144,0.02632
5.148,0.0692
5.152,0.06588
5.156,0.0835
5.16,0.09083
5.164,0.13607
5.168,0.10134
5.172,0.1363
5.176,0.09793
5.18,0.1461
5.184,0.15592
5.188,0.15679
5.192,0.17997
5.196,0.17139
5.2,0.18816
5.204,0.22458
5.208,0.17978
5.212,0.19623
5.216,0.18581
5.22,0.17327
5.224,0.17544
5.228,0.18542
5.232,0.15328
5.236,0.16199
5.24,0.12987
5.244,0.1721
5.248,0.11954
5.252,0.11521
5.256,0.13555
5.26,0.08682
5.264,0.08681
5.268,0.08221
5.272,0.05657
5.276,0.03546
5.28,0.02462
5.284,0.03772
5.288,0.02011
5.292,0.03244
5.296,-0.00023
5.3,0.00371
5.304,-0.00863
5.308,-0.01311
5.312,-0.02356
5.316,-0.00431
5.32,-0.03296
5.324,-0.00922
5.328,-0.02058
5.332,-0.02443
5.336,-0.01625
5.34,-0.0224
5.344,-0.03359
5.348,-0.01715
5.352,-0.04237
5.356,-0.03903
5.36,-0.02622
5.364,-0.00111
5.368,-0.03502
5.372,-0.01414
5.376,-0.03316
5.38,-0.04902
5.384,-0.00576
5.388,-0.04468
5.392,-0.04485
5.396,-0.04367
5.4,-0.03657
5.404,-0.0251
5.408,0.00028
5.412,-0.01296
5.416,-0.04731
5.42,-0.03802
5.424,-0.0218
5.428,-0.0207
5.432,-0.02339
5.436,-0.01426
5.44,-0.03296
5.444,-0.0352
5.448,-0.05009
5.452,-0.02428
5.456,0.00938
5.46,-0.05145
5.464,-0.03062
5.468,-0.04126
5.472,-0.00599
5.476,-0.02978
5.48,-0.02435
5.484,-0.03588
5.488,-0.01874
5.492,-0.00772
5.496,-0.01844
5.5,-0.04802
5.504,-0.02687
5.508,-0.02595
5.512,-0.03291
5.516,-0.0225
5.52,-0.03504
5.524,-0.01749
5.528,-0.01819
5.532,-0.03907
5.536,-0.03763
5.54,-0.03884
5.544,0.00933
5.548,-0.02671
5.552,-0.06909
5.556,-0.02612
5.56,-0.05411
5.564,0.0042
5.568,-0.01868
5.572,-0.02726
5.576,-0.02615
5.58,-0.01426
5.584,0.01523
5.588,-0.00651
5.592,0.03739
5.596,0.04305
5.6,0.0442
5.604,0.05192
5.608,0.0684
5.612,0.0689
5.616,0.0632
5.62,0.08427
5.624,0.06965
5.628,0.07781
5.632,0.05442
5.636,0.04073
5.64,0.01385
5.644,0.02821
5.648,0.00567
5.652,0.00011
5.656,-0.00244
5.66,0.00869
5.664,-0.02001
5.668,-0.04825
5.672,-0.01296
5.676,-0.03151
5.68,-0.03981
5.684,-0.0108
5.688,-0.04494
5.692,-0.01277
5.696,-0.02932
5.7,-0.04485
5.704,-0.03107
5.708,-0.02774
5.712,-0.03701
5.716,-0.02887
5.72,-0.03872
5.724,-0.02383
5.728,-0.05404
5.732,-0.03987
5.736,-0.0863
5.74,-0.11715
5.744,-0.15041
5.748,-0.11543
5.752,-0.06225
5.756,0.09005
5.76,0.25802
5.764,0.48402
5.768,0.69627
5.772,0.85626
5.776,0.98478
5.78,0.92159
5.784,0.83943
5.788,0.6289
5.792,0.38962
5.796,0.19366
5.8,0.01006
5.804,-0.10209
5.808,-0.16704
5.812,-0.19277
5.816,-0.15758
5.82,-0.10618
5.824,-0.06827
5.828,-0.0383
5.832,-0.00605
5.836,-0.04274
5.84,-0.03784
5.844,-0.02856
5.848,-0.02404
5.852,-0.02509
5.856,-0.0354
5.86,-0.01166
5.864,-0.01666
5.868,-0.01484
5.872,-0.01884
5.876,-0.0068
5.88,-0.02176
5.884,-0.02608
5.888,-0.02946
5.892,-0.02559
5.896,-0.03196
5.9,-0.03425
5.904,-0.02406
5.908,-0.04927
5.912,0.00152
5.916,-0.01736
5.92,-0.0283
5.924,0.00225
5.928,-0.01573
5.932,-0.03047
5.936,-0.03349
5.94,-0.061
5.944,-0.00414
5.948,0.00936
5.952,-0.01464
5.956,0.02119
5.96,-0.00875
5.964,-0.00514
5.968,-0.01316
5.972,0.01018
5.976,0.0359
5.98,0.0328
5.984,0.04108
5.988,0.03966
5.992,0.03991
5.996,0.05558
6.0,0.08445
6.004,0.07332
6.008,0.08426
6.012,0.1043
6.016,0.11161
6.02,0.13936
6.024,0.14727
6.028,0.17965
6.032,0.18509
6.036,0.18015
6.04,0.19745
6.044,0.20257
6.048,0.18355
6.052,0.19925
6.056,0.20146
6.06,0.20637
6.064,0.21873
6.068,0.2082
6.072,0.22683
6.076,0.20866
6.08,0.20283
6.084,0.13215
6.088,0.17732
6.092,0.15217
6.096,0.1458
6.1,0.10721
6.104,0.11438
6.108,0.10722
6.112,0.09695
6.116,0.06293
6.12,0.08828
6.124,0.02678
6.128,0.05473
6.132,0.03603
6.136,0.04155
6.14,0.03215
6.144,0.00818
6.148,0.00366
6.152,0.0241
6.156,0.01139
6.16,-0.00977
6.164,0.01104
6.168,-0.00753
6.172,-0.00734
6.176,-0.01165
6.18,-0.0264
6.184,-0.02143
6.188,-0.00834
6.192,-0.01777
6.196,-0.01314
6.2,-0.02497
6.204,-0.00689
6.208,0.00239
6.212,-0.03026
6.216,-0.0049
6.22,-0.02581
6.224,-0.01264
6.228,-0.02128
6.232,-0.02357
6.236,-0.00092
6.24,-0.01235
6.244,-0.0291
6.248,-0.0026
6.252,0.01648
6.256,0.04115
6.26,0.02673
6.264,0.05527
6.268,0.07017
6.272,0.07608
6.276,0.08327
6.28,0.10213
6.284,0.08581
6.288,0.07487
6.292,0.04426
6.296,0.03712
6.3,0.0752
6.304,0.05402
6.308,0.01972
6.312,-0.00723
6.316,-0.00884
6.32,0.01515
6.324,0.00068
6.328,0.01564
6.332,0.00783
6.336,-0.00771
6.34,0.01735
6.344,-0.02234
6.348,0.00062
6.352,-0.00081
6.356,-0.02619
6.36,-0.01966
6.364,-0.00791
6.368,-0.00421
6.372,0.00577
6.376,-0.01805
6.38,-0.01111
6.384,-0.02709
6.388,-0.00559
6.392,-0.00556
6.396,-0.05576
6.4,-0.03949
6.404,-0.09313
6.408,-0.14563
6.412,-0.08484
6.416,-0.06636
6.42,0.0915
6.424,0.27187
6.428,0.50423
6.432,0.68801
6.436,0.88282
6.44,0.974
6.444,0.94894
6.448,0.85785
6.452,0.67088
6.456,0.41866
6.46,0.1906
6.464,0.04211
6.468,-0.1029
6.472,-0.19479
6.476,-0.17066
6.48,-0.15239
6.484,-0.10293
6.488,-0.07448
6.492,-0.03208
6.496,-0.01481
6.5,-0.02535
6.504,0.0167
6.508,-0.02711
6.512,-0.00275
6.516,0.00716
6.52,-0.00278
6.524,0.02518
6.528,0.006
6.532,-0.01871
6.536,-0.01414
6.54,0.00249
6.544,-0.02169
6.548,-0.00383
6.552,-0.03815
6.556,-0.02375
6.56,-0.00294
6.564,-0.00705
6.568,0.01061
6.572,-0.00298
6.576,-0.01272
6.58,-0.00196
6.584,-0.02575
6.588,-0.02521
6.592,-0.01692
6.596,0.00853
6.6,0.01426
6.604,0.00437
6.608,0.00822
6.612,0.03346
6.616,0.01296
6.62,-0.00568
6.624,0.0172
6.628,0.03975
6.632,0.01732
6.636,0.05859
6.64,0.03372
6.644,-0.00082
6.648,0.05534
6.652,0.08053
6.656,0.08331
6.66,0.10231
6.664,0.10235
6.668,0.09532
6.672,0.11055
6.676,0.12923
6.68,0.14263
6.684,0.17619
6.688,0.16232
6.692,0.16448
6.696,0.19857
6.7,0.17098
6.704,0.19422
6.708,0.23432
6.712,0.23478
6.716,0.20126
6.72,0.21604
6.724,0.19669
6.728,0.21974
6.732,0.21529
6.736,0.19949
6.74,0.21847
6.744,0.19684
6.748,0.19765
6.752,0.16416
6.756,0.15446
6.76,0.14402
6.764,0.11962
6.768,0.12202
6.772,0.11515
6.776,0.09324
6.78,0.09528
6.784,0.09373
6.788,0.06061
6.792,0.08773
6.796,0.05311
6.8,0.02008
6.804,0.07187
6.808,0.00245
6.812,0.02863
6.816,0.03015
6.82,0.03139
6.824,0.01208
6.828,0.00703
6.832,0.02083
6.836,0.00368
6.84,-0.00167
6.844,-0.00213
6.848,0.00272
6.852,0.00531
6.856,0.00832
6.86,0.01217
6.864,-0.01009
6.868,0.01962
6.872,-0.00357
6.876,-0.02523
6.88,-0.00284
6.884,0.02756
6.888,0.01327
6.892,-0.00855
6.896,0.00063
6.9,-0.01597
6.904,-0.00234
6.908,0.01668
6.912,-0.0014
6.916,-0.00393
6.92,-0.00111
6.924,0.00826
6.928,-0.00816
6.932,0.00743
6.936,0.00974
6.94,0.00016
6.944,-0.00053
6.948,-0.00696
6.952,0.00985
6.956,0.02879
6.96,0.00026
6.964,0.02315
6.968,-0.01031
6.972,0.0094
6.976,0.0099
6.98,-0.00055
6.984,-0.0038
6.988,-0.00133
6.992,0.01086
6.996,0.01706
7.0,0.00822
7.004,-0.00608
7.008,0.00245
7.012,0.01657
7.016,0.02453
7.02,0.00379
7.024,0.02967
7.028,0.00905
7.032,0.0179
7.036,-0.0194
7.04,0.02685
7.044,0.03602
7.048,0.05315
7.052,0.0617
7.056,0.04678
7.06,0.08415
7.064,0.07042
7.068,0.08281
7.072,0.11037
7.076,0.09175
7.08,0.11645
7.084,0.12669
7.088,0.06719
7.092,0.0919
7.096,0.10388
7.1,0.06672
7.104,0.05942
7.108,0.07111
7.112,0.02514
7.116,0.05396
7.12,0.04181
7.124,-0.00066
7.128,0.00213
7.132,0.01718
7.136,-0.00079
7.14,0.03154
7.144,0.03472
7.148,-0.01417
7.152,0.01203
7.156,0.00967
7.16,0.03308
7.164,0.02113
7.168,0.04023
7.172,0.00516
7.176,-0.00651
7.18,0.00959
7.184,-0.00178
7.188,0.02473
7.192,0.00341
7.196,-0.01943
7.2,-0.068
7.204,-0.06986
7.208,-0.10048
7.212,-0.06298
7.216,0.07035
7.22,0.19385
7.224,0.44271
7.228,0.63576
7.232,0.82899
7.236,0.97006
7.24,0.99224
7.244,0.91583
7.248,0.76161
7.252,0.52771
7.256,0.30553
7.26,0.1314
7.264,-0.05485
7.268,-0.1118
7.272,-0.17142
7.276,-0.12157
7.28,-0.09434
7.284,-0.05731
7.288,-0.01399
7.292,-0.00654
7.296,-0.01489
7.3,0.01834
7.304,0.00715
7.308,-0.00572
7.312,0.01027
7.316,0.01942
7.32,0.02289
7.324,0.00155
7.328,0.02895
7.332,0.02391
7.336,0.01854
7.34,-0.00304
7.344,-0.01349
7.348,0.00389
7.352,0.01776
7.356,0.0164
7.36,0.00452
7.364,-0.01715
7.368,0.01865
7.372,0.01234
7.376,0.00712
7.38,-0.00945
7.384,-0.00079
7.388,0.0249
7.392,0.00478
7.396,0.03272
7.4,0.00142
7.404,0.0142
7.408,0.02567
7.412,0.0574
7.416,0.04777
7.42,0.05961
7.424,0.02113
7.428,0.02638
7.432,0.03462
7.436,0.05349
7.44,0.04493
7.444,0.06283
7.448,0.0908
7.452,0.08171
7.456,0.09981
7.46,0.1218
7.464,0.09188
7.468,0.14344
7.472,0.15554
7.476,0.15592
7.48,0.16103
7.484,0.19887
7.488,0.18701
7.492,0.1982
7.496,0.22069
7.5,0.20266
7.504,0.21174
7.508,0.23064
7.512,0.22473
7.516,0.24251
7.52,0.25519
7.524,0.22734
7.528,0.24536
7.532,0.23396
7.536,0.21469
7.54,0.21932
7.544,0.20464
7.548,0.2145
7.552,0.16686
7.556,0.20352
7.56,0.16498
7.564,0.15362
7.568,0.149
7.572,0.11253
7.576,0.10698
7.58,0.10017
7.584,0.12004
7.588,0.09971
7.592,0.08331
7.596,0.08671
7.6,0.07303
7.604,0.07438
7.608,0.05047
7.612,0.05032
7.616,0.02661
7.62,0.04674
7.624,0.02498
7.628,0.02333
7.632,0.03972
7.636,0.01718
7.64,0.02522
7.644,0.03655
7.648,0.02935
7.652,0.00349
7.656,0.02327
7.66,0.02344
7.664,-0.02292
7.668,-0.0007
7.672,0.01355
7.676,-0.00494
7.68,0.02618
7.684,0.04434
7.688,0.01823
7.692,0.02011
7.696,0.02139
7.7,0.02913
7.704,0.04409
7.708,0.02936
7.712,0.00547
7.716,0.02246
7.72,0.01822
7.724,0.0111
7.728,0.01759
7.732,0.02522
7.736,0.01835
7.74,0.00503
7.744,0.01947
7.748,0.00659
7.752,0.04694
7.756,0.01249
7.76,0.00377
7.764,0.0319
7.768,-0.01326
7.772,0.04879
7.776,0.0128
7.78,0.01524
7.784,0.04106
7.788,0.03942
7.792,0.03414
7.796,0.02251
7.8,0.05692
7.804,0.03616
7.808,0.05484
7.812,0.06462
7.816,0.1119
7.82,0.09461
7.824,0.10417
7.828,0.13156
7.832,0.12114
7.836,0.1041
7.84,0.13165
7.844,0.12559
7.848,0.12108
7.852,0.09898
7.856,0.09959
7.86,0.04501
7.864,0.05964
7.868,0.04294
7.872,0.05783
7.876,0.06018
7.88,0.02587
7.884,0.02426
7.888,0.03727
7.892,0.05284
7.896,0.04443
7.9,0.0268
7.904,0.02391
7.908,0.03696
7.912,0.02156
7.916,0.01492
7.92,0.03923
7.924,0.01682
7.928,0.00775
7.932,0.02051
7.936,0.02561
7.94,0.03497
7.944,0.02391
7.948,0.00343
7.952,0.02935
7.956,-0.03106
7.96,-0.09189
7.964,-0.10761
7.968,-0.07514
7.972,0.02183
7.976,0.16876
7.98,0.37303
7.984,0.57844
7.988,0.7796
7.992,0.93881
7.996,1.01002
8.0,0.96334
8.004,0.82725
8.008,0.62214
8.012,0.40164
8.016,0.19947
8.02,0.02937
8.024,-0.08685
8.028,-0.17808
8.032,-0.14478
8.036,-0.10432
8.04,-0.05379
8.044,-0.02683
8.048,0.0001
8.052,0.0059
8.056,0.0121
8.06,0.03123
8.064,0.02903
8.068,0.03269
8.072,0.04251
8.076,0.04286
8.08,0.02148
8.084,0.01535
8.088,0.0397
8.092,0.02978
8.096,0.03055
8.1,0.01761
8.104,0.01905
8.108,0.01572
8.112,0.03256
8.116,0.06502
8.12,0.02085
8.124,0.01621
8.128,0.03602
8.132,-0.0062
8.136,0.02698
8.14,0.0301
8.144,0.05131
8.148,0.0381
8.152,0.04034
8.156,0.03282
8.16,0.04447
8.164,0.0217
8.168,0.03707
8.172,0.03445
8.176,0.06541
8.18,0.07185
8.184,0.07759
8.188,0.07993
8.192,0.05401
8.196,0.06124
8.2,0.1025
8.204,0.08605
8.208,0.11958
8.212,0.08857
8.216,0.13562
8.22,0.1408
8.224,0.1255
8.228,0.144
8.232,0.15774
8.236,0.17109
8.24,0.17473
8.244,0.16663
8.248,0.20038
8.252,0.20584
8.256,0.21722
8.26,0.21557
8.264,0.2381
8.268,0.25786
8.272,0.25517
8.276,0.23108
8.28,0.24883
8.284,0.24934
8.288,0.24918
8.292,0.23158
8.296,0.22797
8.3,0.22513
8.304,0.2099
8.308,0.21074
8.312,0.20181
8.316,0.19101
8.32,0.15904
8.324,0.1619
8.328,0.12852
8.332,0.10554
8.336,0.0919
8.34,0.12627
8.344,0.08125
8.348,0.078
8.352,0.09686
8.356,0.07308
8.36,0.0941
8.364,0.08806
8.368,0.0653
8.372,0.0587
8.376,0.01976
8.38,0.01951
8.384,0.03695
8.388,0.04921
8.392,0.04364
8.396,0.03206
8.4,0.04845
8.404,0.03862
8.408,0.0306
8.412,0.04608
8.416,0.03883
8.42,0.01007
8.424,0.02728
8.428,0.04155
8.432,0.04632
8.436,0.036
8.44,0.04073
8.444,0.01712
8.448,0.03018
8.452,0.05639
8.456,0.04028
8.46,0.01762
8.464,0.05338
8.468,0.03363
8.472,0.05136
8.476,0.07394
8.48,0.07595
8.484,0.06496
8.488,0.10188
8.492,0.10353
8.496,0.10416
8.5,0.13387
8.504,0.11873
8.508,0.15385
8.512,0.12466
8.516,0.10533
8.52,0.1218
8.524,0.10808
8.528,0.07652
8.532,0.08962
8.536,0.0881
8.54,0.03025
8.544,0.03521
8.548,0.05658
8.552,0.05338
8.556,0.02172
8.56,0.03191
8.564,0.00496
8.568,0.01818
8.572,0.01516
8.576,0.04787
8.58,0.02719
8.584,0.03455
8.588,0.03819
8.592,0.0186
8.596,0.02298
8.6,0.02014
8.604,0.05441
8.608,0.02987
8.612,0.01546
8.616,0.02768
8.62,0.02018
8.624,-0.02983
8.628,-0.03744
8.632,-0.10308
8.636,-0.06802
8.64,-0.02331
8.644,0.02693
8.648,0.19295
8.652,0.41671
8.656,0.60559
8.66,0.79616
8.664,0.9485
8.668,1.04457
8.672,0.97941
8.676,0.86066
8.68,0.63943
8.684,0.39173
8.688,0.20951
8.692,0.00525
8.696,-0.09393
8.7,-0.12298
8.704,-0.12476
8.708,-0.10034
8.712,-0.04269
8.716,-0.02372
8.72,0.00955
8.724,0.02276
8.728,0.00361
8.732,0.02571
8.736,0.0126
8.74,0.02597
8.744,0.03772
8.748,0.02731
8.752,0.05001
8.756,0.03183
8.76,0.04492
8.764,0.02395
8.768,-0.00178
8.772,0.02413
8.776,0.00642
8.78,0.06358
8.784,0.0241
8.788,0.04054
8.792,0.02636
8.796,0.04177
8.8,0.03082
8.804,0.02537
8.808,0.00431
8.812,0.03203
8.816,-0.0044
8.82,0.05207
8.824,0.03819
8.828,0.02771
8.832,0.0655
8.836,0.0503
8.84,0.02735
8.844,0.04912
8.848,0.04866
8.852,0.04079
8.856,0.04131
8.86,0.07975
8.864,0.04125
8.868,0.06907
8.872,0.05876
8.876,0.09723
8.88,0.10114
8.884,0.1139
8.888,0.12349
8.892,0.15393
8.896,0.10954
8.9,0.16023
8.904,0.15098
8.908,0.18919
8.912,0.18487
8.916,0.19355
8.92,0.22155
8.924,0.20024
8.928,0.2264
8.932,0.25816
8.936,0.24491
8.94,0.25312
8.944,0.24643
8.948,0.27586
8.952,0.25317
8.956,0.22849
8.96,0.25202
8.964,0.22956
8.968,0.23115
8.972,0.23084
8.976,0.21857
8.98,0.20134
8.984,0.16784
8.988,0.15685
8.992,0.15818
8.996,0.15472
9.0,0.13883
9.004,0.13704
9.008,0.0994
9.012,0.10371
9.016,0.09134
9.02,0.05948
9.024,0.09048
9.028,0.07567
9.032,0.04943
9.036,0.04058
9.04,0.06758
9.044,0.06233
9.048,0.05184
9.052,0.06917
9.056,0.01431
9.06,0.0315
9.064,0.02335
9.068,0.03004
9.072,0.06287
9.076,0.03123
9.08,0.02523
9.084,0.03846
9.088,0.02045
9.092,0.02738
9.096,0.01663
9.1,0.0342
9.104,0.03359
9.108,0.01653
9.112,0.01024
9.116,0.02983
9.12,-0.00304
9.124,0.02259
9.128,0.02087
9.132,0.02701
9.136,0.01436
9.14,-0.00519
9.144,0.00588
9.148,0.01097
9.152,0.04445
9.156,0.03853
9.16,0.00083
9.164,0.04215
9.168,0.03039
9.172,0.03545
9.176,0.04337
9.18,-0.01674
9.184,-0.00043
9.188,0.03164
9.192,0.02363
9.196,0.00035
9.2,0.01482
9.204,-0.00323
9.208,0.032
9.212,0.0382
9.216,0.03435
9.22,0.07291
9.224,0.06723
9.228,0.08412
9.232,0.10328
9.236,0.09843
9.24,0.11098
9.244,0.12131
9.248,0.13225
9.252,0.12829
9.256,0.12766
9.26,0.10602
9.264,0.10104
9.268,0.10468
9.272,0.09978
9.276,0.06978
9.28,0.06348
9.284,0.05612
9.288,0.04591
9.292,0.03414
9.296,0.01047
9.3,0.03925
9.304,0.00661
9.308,0.0128
9.312,0.03726
9.316,0.00797
9.32,0.03814
9.324,0.03633
9.328,0.00567
9.332,-0.01241
9.336,0.02821
9.34,0.01354
9.344,0.03499
9.348,0.02466
9.352,0.01556
9.356,0.03327
9.36,-0.01291
9.364,-0.01198
9.368,-0.01964
9.372,-0.06852
9.376,-0.09155
9.38,-0.07477
9.384,-0.01043
9.388,0.09393
9.392,0.29811
9.396,0.50794
9.4,0.7403
9.404,0.86229
9.408,0.97595
9.412,0.99242
9.416,0.92329
9.42,0.69848
9.424,0.50275
9.428,0.27605
9.432,0.07461
9.436,-0.05538
9.44,-0.13411
9.444,-0.16798
9.448,-0.12393
9.452,-0.08546
9.456,-0.03682
9.46,-0.00141
9.464,-0.00162
9.468,0.00224
9.472,0.0351
9.476,0.01578
9.48,0.0031
9.484,8e-05
9.488,-0.0205
9.492,0.02098
9.496,0.0204
9.5,0.0193
9.504,0.00705
9.508,0.02644
9.512,0.03512
9.516,0.0055
9.52,0.02924
9.524,0.02043
9.528,0.00539
9.532,0.05324
9.536,0.00219
9.54,0.02982
9.544,0.02903
9.548,0.04263
9.552,0.03628
9.556,0.01749
9.56,0.01996
9.564,0.0224
9.568,0.02397
9.572,0.02041
9.576,0.0302
9.58,0.02144
9.584,0.03722
9.588,0.02472
9.592,0.05319
9.596,0.04367
9.6,0.04729
9.604,0.04692
9.608,0.07202
9.612,0.04592
9.616,0.07159
9.62,0.09187
9.624,0.11013
9.628,0.12749
9.632,0.10013
9.636,0.12249
9.64,0.13273
9.644,0.14643
9.648,0.14897
9.652,0.14841
9.656,0.15966
9.66,0.20357
9.664,0.21035
9.668,0.23273
9.672,0.2214
9.676,0.25867
9.68,0.22092
9.684,0.24133
9.688,0.2312
9.692,0.25828
9.696,0.22943
9.7,0.1986
9.704,0.24545
9.708,0.2047
9.712,0.22421
9.716,0.20106
9.72,0.18889
9.724,0.1868
9.728,0.18111
9.732,0.1793
9.736,0.16157
9.74,0.14732
9.744,0.13869
9.748,0.11135
9.752,0.09205
9.756,0.10648
9.76,0.08112
9.764,0.0855
9.768,0.05309
9.772,0.04495
9.776,0.03654
9.78,0.05476
9.784,0.02747
9.788,0.02237
9.792,0.03851
9.796,0.00843
9.8,0.03365
9.804,0.04028
9.808,0.04267
9.812,0.03081
9.816,0.00847
9.82,0.01999
9.824,0.00629
9.828,-0.00232
9.832,0.01019
9.836,0.0217
9.84,0.01089
9.844,0.00155
9.848,-0.00766
9.852,0.00475
9.856,0.00404
9.86,0.02347
9.864,0.00136
9.868,0.03067
9.872,0.02924
9.876,-0.0072
9.88,0.00871
9.884,0.00649
9.888,0.02261
9.892,0.0256
9.896,0.0386
9.9,0.01742
9.904,-0.01345
9.908,0.03156
9.912,-0.0101
9.916,-0.02067
9.92,-0.00486
9.924,0.01468
9.928,-0.02113
9.932,0.00115
9.936,0.00363
9.94,0.01515
9.944,0.00223
9.948,-0.0012
9.952,0.0153
9.956,-0.0006
9.96,0.01898
9.964,-0.00689
9.968,-0.00854
9.972,0.021
9.976,0.03245
9.98,0.00375
9.984,0.01232
9.988,0.04057
9.992,0.01137
9.996,-0.01318
